1778.52000,0.03541
1777.03021,0.04417
1775.54042,0.05925
1774.05063,0.03820
1772.56085,0.03604
1771.07106,0.05120
1769.58127,0.07110
1768.09148,0.00301
1766.60169,0.05755
1765.11190,0.05710
1763.62212,0.05196
1762.13233,0.06728
1760.64254,0.07006
1759.15275,0.04772
1757.66296,0.00968
1756.17317,0.05655
1754.68339,0.02328
1753.19360,0.03877
1751.70381,0.07315
1750.21402,0.03210
1748.72423,0.00052
1747.23444,0.02852
1745.74465,0.03925
1744.25487,0.06574
1742.76508,0.04509
1741.27529,0.04648
1739.78550,0.08876
1738.29571,0.03990
1736.80592,0.00679
1735.31614,0.08199
1733.82635,0.06133
1732.33656,0.00613
1730.84677,0.01382
1729.35698,0.07341
1727.86719,0.00099
1726.37740,0.03564
1724.88762,0.07503
1723.39783,0.07358
1721.90804,0.06744
1720.41825,0.02675
1718.92846,0.00652
1717.43867,0.07433
1715.94889,0.08559
1714.45910,0.04659
1712.96931,0.07519
1711.47952,0.00952
1709.98973,0.05546
1708.49994,0.04171
1707.01016,0.05078
1705.52037,0.05987
1704.03058,0.04621
1702.54079,0.05457
1701.05100,0.01109
1699.56121,0.04309
1698.07142,0.03267
1696.58164,0.02385
1695.09185,0.10937
1693.60206,0.10847
1692.11227,0.03843
1690.62248,0.02187
1689.13269,0.06349
1687.64291,0.04383
1686.15312,0.03992
1684.66333,0.03447
1683.17354,0.11077
1681.68375,0.05193
1680.19396,0.06071
1678.70417,0.03336
1677.21439,0.05633
1675.72460,0.08405
1674.23481,0.06936
1672.74502,0.04526
1671.25523,0.05577
1669.76544,0.04745
1668.27566,0.06115
1666.78587,0.09218
1665.29608,0.06508
1663.80629,0.09301
1662.31650,0.07697
1660.82671,0.09238
1659.33693,0.07482
1657.84714,0.07929
1656.35735,0.07907
1654.86756,0.03959
1653.37777,0.05514
1651.88798,0.10373
1650.39819,0.13820
1648.90841,0.07839
1647.41862,0.06419
1645.92883,0.06180
1644.43904,0.05945
1642.94925,0.07205
1641.45946,0.04067
1639.96968,0.01089
1638.47989,0.05658
1636.99010,0.05986
1635.50031,0.05531
1634.01052,0.10737
1632.52073,0.09030
1631.03094,0.05597
1629.54116,0.10654
1628.05137,0.07541
1626.56158,0.08202
1625.07179,0.10438
1623.58200,0.09062
1622.09221,0.00301
1620.60243,0.03042
1619.11264,0.08300
1617.62285,0.12303
1616.13306,0.06879
1614.64327,0.04757
1613.15348,0.05468
1611.66370,0.06811
1610.17391,0.05012
1608.68412,0.03530
1607.19433,0.04095
1605.70454,0.07963
1604.21475,0.05940
1602.72496,0.03919
1601.23518,0.06852
1599.74539,0.04759
1598.25560,0.06754
1596.76581,0.05295
1595.27602,0.08239
1593.78623,0.05527
1592.29645,0.03919
1590.80666,0.08286
1589.31687,0.02125
1587.82708,0.01782
1586.33729,0.03013
1584.84750,0.00947
1583.35771,0.04385
1581.86793,0.04053
1580.37814,0.02623
1578.88835,0.04497
1577.39856,0.04960
1575.90877,0.01967
1574.41898,0.03849
1572.92920,0.02590
1571.43941,0.01963
1569.94962,0.03068
1568.45983,0.04175
1566.97004,0.04971
1565.48025,0.03411
1563.99047,0.03427
1562.50068,0.00301
1561.01089,0.02004
1559.52110,0.03082
1558.03131,0.07462
1556.54152,0.02415
1555.05173,0.08059
1553.56195,0.00817
1552.07216,0.11181
1550.58237,0.07874
1549.09258,0.06927
1547.60279,0.10384
1546.11300,0.19816
1544.62322,0.16205
1543.13343,0.08825
1541.64364,0.06006
1540.15385,0.04289
1538.66406,0.02576
1537.17427,0.04480
1535.68448,0.06858
1534.19470,0.04524
1532.70491,0.02979
1531.21512,0.05051
1529.72533,0.07126
1528.23554,0.01345
1526.74575,0.05940
1525.25597,0.05194
1523.76618,0.06023
1522.27639,0.05754
1520.78660,0.00301
1519.29681,0.02304
1517.80702,0.10597
1516.31724,0.06319
1514.82745,0.08644
1513.33766,0.07986
1511.84787,0.07331
1510.35808,0.05735
1508.86829,0.07129
1507.37850,0.01452
1505.88872,0.06938
1504.39893,0.08340
1502.90914,0.06600
1501.41935,0.03450
1499.92956,0.00301
1498.43977,0.10527
1496.94999,0.07709
1495.46020,0.07724
1493.97041,0.07112
1492.48062,0.07761
1490.99083,0.12185
1489.50104,0.12524
1488.01125,0.14517
1486.52147,0.16513
1485.03168,0.10102
1483.54189,0.16426
1482.05210,0.18037
1480.56231,0.23422
1479.07252,0.20795
1477.58274,0.24929
1476.09295,0.24822
1474.60316,0.24875
1473.11337,0.28074
1471.62358,0.24045
1470.13379,0.25364
1468.64401,0.23070
1467.15422,0.26437
1465.66443,0.24463
1464.17464,0.22492
1462.68485,0.20051
1461.19506,0.19815
1459.70527,0.15494
1458.21549,0.11176
1456.72570,0.13147
1455.23591,0.08521
1453.74612,0.11912
1452.25633,0.14207
1450.76654,0.14303
1449.27676,0.10788
1447.78697,0.14033
1446.29718,0.05336
1444.80739,0.08194
1443.31760,0.11055
1441.82781,0.10854
1440.33802,0.11756
1438.84824,0.08888
1437.35845,0.08380
1435.86866,0.05832
1434.37887,0.00615
1432.88908,0.06874
1431.39929,0.07950
1429.90951,0.03841
1428.41972,0.10265
1426.92993,0.08677
1425.44014,0.11492
1423.95035,0.11245
1422.46056,0.11001
1420.97078,0.12252
1419.48099,0.15864
1417.99120,0.08634
1416.50141,0.11308
1415.01162,0.13985
1413.52183,0.14936
1412.03204,0.10232
1410.54226,0.08988
1409.05247,0.13876
1407.56268,0.10909
1406.07289,0.11716
1404.58310,0.13076
1403.09331,0.14440
1401.60353,0.12112
1400.11374,0.10415
1398.62395,0.17681
1397.13416,0.16304
1395.64437,0.15559
1394.15458,0.13088
1392.66479,0.16277
1391.17501,0.18841
1389.68522,0.06319
1388.19543,0.09674
1386.70564,0.08552
1385.21585,0.07433
1383.72606,0.04038
1382.23628,0.07404
1380.74649,0.09201
1379.25670,0.09115
1377.76691,0.10446
1376.27712,0.14609
1374.78733,0.15945
1373.29755,0.13041
1371.80776,0.21613
1370.31797,0.25629
1368.82818,0.28077
1367.33839,0.30528
1365.84860,0.40525
1364.35881,0.36694
1362.86903,0.41510
1361.37924,0.44443
1359.88945,0.44235
1358.39966,0.45759
1356.90987,0.44928
1355.42008,0.34355
1353.93030,0.37773
1352.44051,0.40643
1350.95072,0.43517
1349.46093,0.39556
1347.97114,0.35126
1346.48135,0.27241
1344.99156,0.17159
1343.50178,0.13994
1342.01199,0.11462
1340.52220,0.13333
1339.03241,0.16149
1337.54262,0.07338
1336.05283,0.09217
1334.56305,0.11099
1333.07326,0.10626
1331.58347,0.05598
1330.09368,0.04501
1328.60389,0.05137
1327.11410,0.10019
1325.62432,0.04216
1324.13453,0.00301
1322.64474,0.01696
1321.15495,0.04979
1319.66516,0.04415
1318.17537,0.03853
1316.68558,0.00858
1315.19580,0.06196
1313.70601,0.04149
1312.21622,0.02419
1310.72643,0.02893
1309.23664,0.06827
1307.74685,0.03377
1306.25707,0.08574
1304.76728,0.07565
1303.27749,0.06559
1301.78770,0.03905
1300.29791,0.06756
1298.80812,0.07251
1297.31834,0.02720
1295.82855,0.04321
1294.33876,0.05453
1292.84897,0.00301
1291.35918,0.06607
1289.86939,0.06864
1288.37960,0.07124
1286.88982,0.06994
1285.40003,0.06238
1283.91024,0.01240
1282.42045,0.02690
1280.93066,0.04142
1279.44087,0.01197
1277.95109,0.03755
1276.46130,0.09774
1274.97151,0.08094
1273.48172,0.06416
1271.99193,0.09300
1270.50214,0.04641
1269.01235,0.01400
1267.52257,0.04921
1266.03278,0.08287
1264.54299,0.10084
1263.05320,0.08425
1261.56341,0.09285
1260.07362,0.10147
1258.58384,0.09754
1257.09405,0.12193
1255.60426,0.09449
1254.11447,0.08435
1252.62468,0.08211
1251.13489,0.04531
1249.64511,0.06356
1248.15532,0.02839
1246.66553,0.04118
1245.17574,0.05401
1243.68595,0.08022
1242.19616,0.05930
1240.70637,0.02741
1239.21659,0.08200
1237.72680,0.00301
1236.23701,0.00581
1234.74722,0.05421
1233.25743,0.03741
1231.76764,0.02064
1230.27786,0.06441
1228.78807,0.06892
1227.29828,0.09545
1225.80849,0.07015
1224.31870,0.07002
1222.82891,0.09192
1221.33912,0.04626
1219.84934,0.05958
1218.35955,0.07292
1216.86976,0.06035
1215.37997,0.08239
1213.89018,0.02744
1212.40039,0.08883
1210.91061,0.05437
1209.42082,0.01050
1207.93103,0.00674
1206.44124,0.00301
1204.95145,0.04024
1203.46166,0.06178
1201.97188,0.05977
1200.48209,0.03106
1198.99230,0.03382
1197.50251,0.05547
1196.01272,0.10072
1194.52293,0.07684
1193.03314,0.05299
1191.54336,0.04331
1190.05357,0.00851
1188.56378,0.04604
1187.07399,0.04273
1185.58420,0.07088
1184.09441,0.06762
1182.60463,0.04004
1181.11484,0.01247
1179.62505,0.00301
1178.13526,0.04761
1176.64547,0.03723
1175.15568,0.04730
1173.66589,0.04797
1172.17611,0.07853
1170.68632,0.04468
1169.19653,0.01086
1167.70674,0.05250
1166.21695,0.00301
1164.72716,0.04608
1163.23738,0.04045
1161.74759,0.07414
1160.25780,0.07643
1158.76801,0.06381
1157.27822,0.05121
1155.78843,0.10545
1154.29865,0.06855
1152.80886,0.04896
1151.31907,0.04512
1149.82928,0.06332
1148.33949,0.07211
1146.84970,0.09271
1145.35991,0.11335
1143.87013,0.08292
1142.38034,0.08239
1140.89055,0.06146
1139.40076,0.13328
1137.91097,0.09668
1136.42118,0.13556
1134.93140,0.15166
1133.44161,0.16780
1131.95182,0.11559
1130.46203,0.08227
1128.97224,0.13229
1127.48245,0.13989
1125.99266,0.19781
1124.50288,0.16618
1123.01309,0.15736
1121.52330,0.14856
1120.03351,0.18302
1118.54372,0.14364
1117.05393,0.29289
1115.56415,0.34000
1114.07436,0.21739
1112.58457,0.21270
1111.09478,0.20802
1109.60499,0.22381
1108.11520,0.28050
1106.62542,0.36550
1105.13563,0.41909
1103.64584,0.41141
1102.15605,0.45092
1100.66626,0.43150
1099.17647,0.41212
1097.68668,0.50986
1096.19690,0.43316
1094.70711,0.48695
1093.21732,0.52504
1091.72753,0.52544
1090.23774,0.53766
1088.74795,0.54990
1087.25817,0.60697
1085.76838,0.60276
1084.27859,0.55614
1082.78880,0.57400
1081.29901,0.53058
1079.80922,0.57206
1078.31943,0.56407
1076.82965,0.55610
1075.33986,0.58509
1073.85007,0.52766
1072.36028,0.52527
1070.87049,0.47576
1069.38070,0.46400
1067.89092,0.48370
1066.40113,0.50342
1064.91134,0.45088
1063.42155,0.35435
1061.93176,0.39459
1060.44197,0.35155
1058.95219,0.30069
1057.46240,0.29071
1055.97261,0.28077
1054.48282,0.30229
1052.99303,0.28925
1051.50324,0.30454
1050.01345,0.32457
1048.52367,0.30061
1047.03388,0.27511
1045.54409,0.24964
1044.05430,0.24149
1042.56451,0.18778
1041.07472,0.14510
1039.58494,0.13703
1038.09515,0.17928
1036.60536,0.12175
1035.11557,0.06425
1033.62578,0.06886
1032.13599,0.08450
1030.64620,0.07031
1029.15642,0.15987
1027.66663,0.18817
1026.17684,0.21650
1024.68705,0.14897
1023.19726,0.18678
1021.70747,0.16803
1020.21769,0.30021
1018.72790,0.19350
1017.23811,0.21413
1015.74832,0.23478
1014.25853,0.31362
1012.76874,0.49151
1011.27896,0.53740
1009.78917,0.57703
1008.29938,0.69528
1006.80959,0.72867
1005.31980,0.76209
1003.83001,0.79397
1002.34022,0.98934
1000.85044,1.00870
999.36065,1.14912
997.87086,1.25026
996.38107,1.35144
994.89128,1.40392
993.40149,1.52086
991.91171,1.65198
990.42192,1.87586
988.93213,1.91430
987.44234,1.92841
985.95255,1.94254
984.46276,1.97163
982.97297,1.94888
981.48319,1.97331
979.99340,1.96634
978.50361,1.93502
977.01382,1.90374
975.52403,1.95028
974.03424,2.00000
972.54446,1.93186
971.05467,1.88890
969.56488,1.81295
968.07509,1.76612
966.58530,1.71930
965.09551,1.71260
963.60573,1.66977
962.11594,1.68042
960.62615,1.52448
959.13636,1.51395
957.64657,1.50346
956.15678,1.32088
954.66699,1.35052
953.17721,1.31417
951.68742,1.22755
950.19763,1.20462
948.70784,1.18171
947.21805,1.17691
945.72826,1.09983
944.23848,1.04007
942.74869,1.02749
941.25890,0.94893
939.76911,0.96941
938.27932,0.98992
936.78953,0.94444
935.29974,0.99015
933.80996,0.92273
932.32017,0.94963
930.83038,0.94199
929.34059,0.93437
927.85080,1.02894
926.36101,1.00881
924.87123,0.99341
923.38144,1.07235
921.89165,1.09080
920.40186,1.10929
918.91207,1.11443
917.42228,1.08189
915.93250,1.12795
914.44271,1.20234
912.95292,1.19974
911.46313,1.19717
909.97334,1.21662
908.48355,1.21411
906.99376,1.34679
905.50398,1.27202
904.01419,1.26880
902.52440,1.26560
901.03461,1.34338
899.54482,1.37560
898.05503,1.44401
896.56525,1.42913
895.07546,1.44572
893.58567,1.46234
892.09588,1.45540
890.60609,1.42178
889.11630,1.30959
887.62651,1.27444
886.13673,1.17960
884.64694,1.08479
883.15715,1.15346
881.66736,1.06970
880.17757,1.00326
878.68778,1.00286
877.19800,1.00249
875.70821,0.93770
874.21842,0.80535
872.72863,0.77363
871.23884,0.74350
869.74905,0.69690
868.25927,0.65032
866.76948,0.65957
865.27969,0.60755
863.78990,0.53041
862.30011,0.53660
860.81032,0.51766
859.32053,0.49876
857.83075,0.44216
856.34096,0.44374
854.85117,0.38091
853.36138,0.32596
851.87159,0.32212
850.38180,0.31832
848.89202,0.24773
847.40223,0.21333
845.91244,0.20882
844.42265,0.16347
842.93286,0.11814
841.44307,0.15458
839.95329,0.15174
838.46350,0.16309
836.97371,0.13202
835.48392,0.11041
833.99413,0.08882
832.50434,0.10971
831.01455,0.08975
829.52477,0.13112
828.03498,0.06092
826.54519,0.04890
825.05540,0.03692
823.56561,0.09254
822.07582,0.12619
820.58604,0.06556
819.09625,0.09140
817.60646,0.11727
816.11667,0.04415
814.62688,0.08265
813.13709,0.04259
811.64730,0.05128
810.15752,0.04114
808.66773,0.03102
807.17794,0.03193
805.68815,0.00301
804.19836,0.01082
802.70857,0.05324
801.21879,0.09568
799.72900,0.09571
798.23921,0.12878
796.74942,0.14302
795.25963,0.15806
793.76984,0.17314
792.28006,0.17016
790.79027,0.25838
789.30048,0.22874
787.81069,0.22428
786.32090,0.21827
784.83111,0.21229
783.34132,0.15918
781.85154,0.26485
780.36175,0.25267
778.87196,0.27587
777.38217,0.29911
775.89238,0.33102
774.40259,0.30322
772.91281,0.28331
771.42302,0.27915
769.93323,0.27502
768.44344,0.31492
766.95365,0.28098
765.46386,0.24549
763.97407,0.23832
762.48429,0.20917
760.99450,0.18005
759.50471,0.13996
758.01492,0.25078
756.52513,0.10072
755.03534,0.09450
753.54556,0.08831
752.05577,0.07350
750.56598,0.12631
749.07619,0.02511
747.58640,0.02845
746.09661,0.03183
744.60683,0.00301
743.11704,0.05078
741.62725,0.00269
740.13746,0.03401
738.64767,0.06536
737.15788,0.08494
735.66809,0.03697
734.17831,0.00002
732.68852,0.03174
731.19873,0.06347
729.70894,0.08109
728.21915,0.05473
726.72936,0.01582
725.23958,0.02567
723.74979,0.04183
722.26000,0.05801
720.77021,0.01921
719.28042,0.07475
717.79063,0.05644
716.30084,0.04601
714.81106,0.03561
713.32127,0.02681
711.83148,0.05891
710.34169,0.00301
708.85190,0.01894
707.36211,0.03490
705.87233,0.07367
704.38254,0.09833
702.89275,0.09472
701.40296,0.06756
699.91317,0.04043
698.42338,0.10606
696.93360,0.16544
695.44381,0.24212
693.95402,0.20017
692.46423,0.15825
690.97444,0.16743
689.48465,0.03990
687.99486,0.01927
686.50508,0.03719
685.01529,0.05512
683.52550,0.05973
682.03571,0.05336
680.54592,0.06745
679.05613,0.04857
677.56635,0.02970
676.07656,0.00301
674.58677,0.09490
673.09698,0.03749
671.60719,0.03198
670.11740,0.02649
668.62761,0.04304
667.13783,0.03132
665.64804,0.05657
664.15825,0.08184
662.66846,0.05921
661.17867,0.07903
659.68888,0.00301
658.19910,0.02964
656.70931,0.05629
655.21952,0.03581
653.72973,0.01222
652.23994,0.05310
650.75015,0.08694
649.26037,0.12080
647.77058,0.10675
646.28079,0.10687
644.79100,0.10702
643.30121,0.11270
641.81142,0.11841
640.32163,0.08720
638.83185,0.06546
637.34206,0.07360
635.85227,0.07628
634.36248,0.07897
632.87269,0.05262
631.38290,0.02787
629.89312,0.06288
628.40333,0.06254
626.91354,0.06223
625.42375,0.00301
623.93396,0.12078
622.44417,0.10025
620.95438,0.07975
619.46460,0.07342
617.97481,0.07499
616.48502,0.15202
614.99523,0.17485
613.50544,0.19771
612.01565,0.07836
610.52587,0.12721
609.03608,0.09907
607.54629,0.09218
606.05650,0.08531
604.56671,0.14213
603.07692,0.11096
601.58714,0.12304
600.09735,0.13514
598.60756,0.15907
597.11777,0.05885
595.62798,0.15512
594.13819,0.14455
592.64840,0.13400
591.15862,0.12348
589.66883,0.21358
588.17904,0.21412
586.68925,0.18560
585.19946,0.15712
583.70967,0.28033
582.21989,0.29198
580.73010,0.27458
579.24031,0.25721
577.75052,0.35696
576.26073,0.31999
574.77094,0.36164
573.28115,0.36559
571.79137,0.36957
570.30158,0.45846
568.81179,0.55523
567.32200,0.56872
565.83221,0.58224
564.34242,0.54078
562.85264,0.70525
561.36285,0.63240
559.87306,0.71598
558.38327,0.79958
556.89348,0.81955
555.40369,0.88514
553.91391,0.91066
552.42412,0.93622
550.93433,0.96731
549.44454,0.97170
547.95475,1.00441
546.46496,1.02143
544.97517,1.03848
543.48539,1.05870
541.99560,1.03336
540.50581,1.04106
539.01602,1.04879
537.52623,1.10213
536.03644,1.05332
534.54666,1.01712
533.05687,0.97388
531.56708,0.93066
530.07729,0.88826
528.58750,0.90089
527.09771,0.83260
525.60792,0.76435
524.11814,0.72048
522.62835,0.73951
521.13856,0.70670
519.64877,0.68571
518.15898,0.66474
516.66919,0.62415
515.17941,0.54587
513.68962,0.54149
512.19983,0.53713
510.71004,0.51552
509.22025,0.40119
507.73046,0.41893
506.24068,0.38325
504.75089,0.34759
503.26110,0.31983
501.77131,0.35810
500.28152,0.36026
498.79173,0.36244
497.30194,0.20118
495.81216,0.24899
494.32237,0.19467
492.83258,0.14038
491.34279,0.20085
489.85300,0.16233
488.36321,0.22285
486.87343,0.19617
485.38364,0.16952
483.89385,0.12482
482.40406,0.14302
480.91427,0.13295
479.42448,0.12292
477.93469,0.10662
476.44491,0.07149
474.95512,0.09375
473.46533,0.11604
471.97554,0.14858
470.48575,0.18271
468.99596,0.07070
467.50618,0.11825
466.01639,0.16583
464.52660,0.15606
463.03681,0.05831
461.54702,0.07846
460.05723,0.09864
458.56745,0.14085
457.07766,0.17524
455.58787,0.20886
454.09808,0.24251
452.60829,0.15909
451.11850,0.21559
449.62871,0.22181
448.13893,0.22807
446.64914,0.31608
445.15935,0.33496
443.66956,0.39788
442.17977,0.46633
440.68998,0.53481
439.20020,0.49879
437.71041,0.58382
436.22062,0.59737
434.73083,0.61094
433.24104,0.69606
431.75125,0.73405
430.26146,0.73041
428.77168,0.72681
427.28189,0.81046
425.79210,0.79669
424.30231,0.91577
422.81252,1.03487
421.32273,1.20508
419.83295,1.19614
418.34316,1.18565
416.85337,1.17519
415.36358,0.99186
413.87379,0.91701
412.38400,0.92157
410.89422,0.92615
409.40443,0.97869
407.91464,1.02655
406.42485,1.03043
404.93506,0.97304
403.44527,0.91567
401.95548,0.88976
400.46570,0.95191
398.97591,0.93784
397.48612,0.92381
395.99633,0.86972
394.50654,0.90054
393.01675,0.85987
391.52697,0.81922
390.03718,0.78411
388.54739,0.86533
387.05760,0.79490
385.56781,0.72450
384.07802,0.65806
382.58824,0.65295
381.09845,0.60935
379.60866,0.56578
378.11887,0.53874
376.62908,0.54002
375.13929,0.49890
373.64950,0.45779
372.15972,0.48116
370.66993,0.37881
369.18014,0.34251
367.69035,0.30623
366.20056,0.35172
364.71077,0.28406
363.22099,0.26672
361.73120,0.24942
360.24141,0.16298
358.75162,0.15202
357.26183,0.17330
355.77204,0.19461
354.28225,0.13815
352.79247,0.08643
351.30268,0.11175
349.81289,0.13710
348.32310,0.07289
346.83331,0.08572
345.34352,0.04435
343.85374,0.00301
342.36395,0.09232
340.87416,0.05748
339.38437,0.03367
337.89458,0.00989
336.40479,0.05216
334.91501,0.07401
333.42522,0.06996
331.93543,0.06594
330.44564,0.06902
328.95585,0.07055
327.46606,0.06111
325.97627,0.05169
324.48649,0.00301
322.99670,0.05359
321.50691,0.08770
320.01712,0.12183
318.52733,0.10020
317.03754,0.00000
315.54776,0.04600
314.05797,0.09204
312.56818,0.02335
311.07839,0.03801
309.58860,0.02046
308.09881,0.00295
306.60902,0.08055
305.11924,0.08588
303.62945,0.05194
302.13966,0.01803
300.64987,0.00301
299.16008,0.00301
