1778.52000,0.18136
1777.03021,0.10962
1775.54042,0.15241
1774.05063,0.11103
1772.56085,0.04612
1771.07106,0.13277
1769.58127,0.20935
1768.09148,0.15126
1766.60169,0.10666
1765.11190,0.15976
1763.62212,0.11185
1762.13233,0.00000
1760.64254,0.08686
1759.15275,0.19394
1757.66296,0.12932
1756.17317,0.11187
1754.68339,0.14833
1753.19360,0.10400
1751.70381,0.17083
1750.21402,0.05248
1748.72423,0.03517
1747.23444,0.05494
1745.74465,0.16229
1744.25487,0.12824
1742.76508,0.19188
1741.27529,0.20166
1739.78550,0.05657
1738.29571,0.06641
1736.80592,0.12006
1735.31614,0.08618
1733.82635,0.07254
1732.33656,0.09597
1730.84677,0.10259
1729.35698,0.09914
1727.86719,0.05194
1726.37740,0.08222
1724.88762,0.08896
1723.39783,0.00480
1721.90804,0.15977
1720.41825,0.09251
1718.92846,0.14651
1717.43867,0.15002
1715.94889,0.17714
1714.45910,0.07633
1712.96931,0.17759
1711.47952,0.07010
1709.98973,0.13437
1708.49994,0.00000
1707.01016,0.02024
1705.52037,0.04052
1704.03058,0.18373
1702.54079,0.16197
1701.05100,0.10993
1699.56121,0.19598
1698.07142,0.16084
1696.58164,0.06174
1695.09185,0.12431
1693.60206,0.12630
1692.11227,0.12831
1690.62248,0.11688
1689.13269,0.19978
1687.64291,0.21535
1686.15312,0.18381
1684.66333,0.04453
1683.17354,0.13428
1681.68375,0.05568
1680.19396,0.03772
1678.70417,0.17807
1677.21439,0.18037
1675.72460,0.18944
1674.23481,0.11772
1672.74502,0.13696
1671.25523,0.08214
1669.76544,0.12836
1668.27566,0.15105
1666.78587,0.16703
1665.29608,0.15274
1663.80629,0.17214
1662.31650,0.18485
1660.82671,0.13023
1659.33693,0.13962
1657.84714,0.15241
1656.35735,0.10125
1654.86756,0.11410
1653.37777,0.08656
1651.88798,0.14662
1650.39819,0.18312
1648.90841,0.16578
1647.41862,0.05418
1645.92883,0.10256
1644.43904,0.15097
1642.94925,0.07313
1641.45946,0.14012
1639.96968,0.08928
1638.47989,0.14623
1636.99010,0.10892
1635.50031,0.07163
1634.01052,0.13540
1632.52073,0.12175
1631.03094,0.11823
1629.54116,0.10127
1628.05137,0.11464
1626.56158,0.10110
1625.07179,0.27281
1623.58200,0.12800
1622.09221,0.02363
1620.60243,0.04388
1619.11264,0.08438
1617.62285,0.09795
1616.13306,0.12166
1614.64327,0.08142
1613.15348,0.08162
1611.66370,0.15593
1610.17391,0.08547
1608.68412,0.12616
1607.19433,0.13321
1605.70454,0.12009
1604.21475,0.10867
1602.72496,0.09729
1601.23518,0.09772
1599.74539,0.13859
1598.25560,0.07173
1596.76581,0.10929
1595.27602,0.14015
1593.78623,0.10705
1592.29645,0.09419
1590.80666,0.14533
1589.31687,0.09885
1587.82708,0.05914
1586.33729,0.09017
1584.84750,0.00000
1583.35771,0.17059
1581.86793,0.12232
1580.37814,0.18858
1578.88835,0.08650
1577.39856,0.09557
1575.90877,0.04742
1574.41898,0.10706
1572.92920,0.10948
1571.43941,0.19949
1569.94962,0.15988
1568.45983,0.12030
1566.97004,0.01508
1565.48025,0.02775
1563.99047,0.10106
1562.50068,0.04308
1561.01089,0.15686
1559.52110,0.02485
1558.03131,0.08818
1556.54152,0.00000
1555.05173,0.07888
1553.56195,0.14095
1552.07216,0.16601
1550.58237,0.10691
1549.09258,0.10172
1547.60279,0.17064
1546.11300,0.34061
1544.62322,0.34224
1543.13343,0.31023
1541.64364,0.10651
1540.15385,0.09813
1538.66406,0.08977
1537.17427,0.13869
1535.68448,0.10009
1534.19470,0.12213
1532.70491,0.06675
1531.21512,0.09559
1529.72533,0.09414
1528.23554,0.10283
1526.74575,0.09471
1525.25597,0.06979
1523.76618,0.00448
1522.27639,0.11767
1520.78660,0.06253
1519.29681,0.08149
1517.80702,0.07355
1516.31724,0.15992
1514.82745,0.07122
1513.33766,0.09367
1511.84787,0.11615
1510.35808,0.14539
1508.86829,0.02650
1507.37850,0.11305
1505.88872,0.04472
1504.39893,0.00000
1502.90914,0.02055
1501.41935,0.10511
1499.92956,0.10887
1498.43977,0.12951
1496.94999,0.14344
1495.46020,0.09004
1493.97041,0.06699
1492.48062,0.11132
1490.99083,0.11862
1489.50104,0.10913
1488.01125,0.05925
1486.52147,0.00940
1485.03168,0.13806
1483.54189,0.14552
1482.05210,0.13280
1480.56231,0.21103
1479.07252,0.19837
1477.58274,0.26319
1476.09295,0.30447
1474.60316,0.22455
1473.11337,0.26925
1471.62358,0.31735
1470.13379,0.20721
1468.64401,0.27558
1467.15422,0.20253
1465.66443,0.21876
1464.17464,0.23502
1462.68485,0.23952
1461.19506,0.25751
1459.70527,0.21493
1458.21549,0.28686
1456.72570,0.16689
1455.23591,0.11765
1453.74612,0.06171
1452.25633,0.16070
1450.76654,0.08462
1449.27676,0.12305
1447.78697,0.07397
1446.29718,0.08889
1444.80739,0.12573
1443.31760,0.16260
1441.82781,0.10353
1440.33802,0.02765
1438.84824,0.08313
1437.35845,0.13527
1435.86866,0.03590
1434.37887,0.01065
1432.88908,0.10665
1431.39929,0.09156
1429.90951,0.02599
1428.41972,0.09851
1426.92993,0.09361
1425.44014,0.17629
1423.95035,0.15629
1422.46056,0.13633
1420.97078,0.16521
1419.48099,0.07291
1417.99120,0.12543
1416.50141,0.16114
1415.01162,0.19015
1413.52183,0.15520
1412.03204,0.05294
1410.54226,0.16285
1409.05247,0.10442
1407.56268,0.08980
1406.07289,0.12908
1404.58310,0.13641
1403.09331,0.14376
1401.60353,0.13935
1400.11374,0.12824
1398.62395,0.09359
1397.13416,0.09601
1395.64437,0.09846
1394.15458,0.13124
1392.66479,0.07987
1391.17501,0.08577
1389.68522,0.03782
1388.19543,0.11113
1386.70564,0.11039
1385.21585,0.10967
1383.72606,0.09215
1382.23628,0.03425
1380.74649,0.03362
1379.25670,0.09364
1377.76691,0.19072
1376.27712,0.18008
1374.78733,0.09538
1373.29755,0.20603
1371.80776,0.30660
1370.31797,0.31628
1368.82818,0.27884
1367.33839,0.24144
1365.84860,0.37243
1364.35881,0.46305
1362.86903,0.35165
1361.37924,0.44906
1359.88945,0.48925
1358.39966,0.52610
1356.90987,0.38787
1355.42008,0.56285
1353.93030,0.51897
1352.44051,0.58457
1350.95072,0.65019
1349.46093,0.58956
1347.97114,0.48519
1346.48135,0.24278
1344.99156,0.20581
1343.50178,0.22275
1342.01199,0.22288
1340.52220,0.16243
1339.03241,0.09191
1337.54262,0.13927
1336.05283,0.12437
1334.56305,0.10949
1333.07326,0.11654
1331.58347,0.17412
1330.09368,0.14755
1328.60389,0.12774
1327.11410,0.08439
1325.62432,0.12862
1324.13453,0.13584
1322.64474,0.03533
1321.15495,0.05944
1319.66516,0.02971
1318.17537,0.00000
1316.68558,0.02072
1315.19580,0.08188
1313.70601,0.02522
1312.21622,0.02246
1310.72643,0.04330
1309.23664,0.08100
1307.74685,0.00761
1306.25707,0.07568
1304.76728,0.09664
1303.27749,0.11763
1301.78770,0.13191
1300.29791,0.08224
1298.80812,0.04943
1297.31834,0.09074
1295.82855,0.02769
1294.33876,0.04885
1292.84897,0.16770
1291.35918,0.04749
1289.86939,0.05863
1288.37960,0.06981
1286.88982,0.08438
1285.40003,0.08888
1283.91024,0.11699
1282.42045,0.18552
1280.93066,0.15981
1279.44087,0.15432
1277.95109,0.15560
1276.46130,0.04578
1274.97151,0.07743
1273.48172,0.10910
1271.99193,0.15427
1270.50214,0.15233
1269.01235,0.17062
1267.52257,0.11823
1266.03278,0.09280
1264.54299,0.10445
1263.05320,0.17000
1261.56341,0.16318
1260.07362,0.15639
1258.58384,0.09070
1257.09405,0.15301
1255.60426,0.15136
1254.11447,0.27433
1252.62468,0.12457
1251.13489,0.11291
1249.64511,0.12821
1248.15532,0.13344
1246.66553,0.15386
1245.17574,0.17430
1243.68595,0.10217
1242.19616,0.10752
1240.70637,0.15330
1239.21659,0.07116
1237.72680,0.02945
1236.23701,0.15951
1234.74722,0.00000
1233.25743,0.03446
1231.76764,0.06895
1230.27786,0.18934
1228.78807,0.08077
1227.29828,0.14060
1225.80849,0.11965
1224.31870,0.05158
1222.82891,0.06099
1221.33912,0.13104
1219.84934,0.13041
1218.35955,0.12980
1216.86976,0.14606
1215.37997,0.08490
1213.89018,0.03724
1212.40039,0.06369
1210.91061,0.11374
1209.42082,0.18066
1207.93103,0.10786
1206.44124,0.03509
1204.95145,0.08189
1203.46166,0.15903
1201.97188,0.07793
1200.48209,0.05747
1198.99230,0.00000
1197.50251,0.08121
1196.01272,0.17255
1194.52293,0.17468
1193.03314,0.17684
1191.54336,0.08642
1190.05357,0.06675
1188.56378,0.02017
1187.07399,0.07801
1185.58420,0.07863
1184.09441,0.15000
1182.60463,0.11701
1181.11484,0.08404
1179.62505,0.09825
1178.13526,0.11586
1176.64547,0.09645
1175.15568,0.04340
1173.66589,0.11161
1172.17611,0.07882
1170.68632,0.12014
1169.19653,0.16150
1167.70674,0.14900
1166.21695,0.13990
1164.72716,0.15777
1163.23738,0.18577
1161.74759,0.17676
1160.25780,0.09706
1158.76801,0.10663
1157.27822,0.11622
1155.78843,0.07365
1154.29865,0.11530
1152.80886,0.15697
1151.31907,0.00000
1149.82928,0.11730
1148.33949,0.16728
1146.84970,0.16173
1145.35991,0.15620
1143.87013,0.23658
1142.38034,0.19576
1140.89055,0.19874
1139.40076,0.16134
1137.91097,0.19806
1136.42118,0.25164
1134.93140,0.22780
1133.44161,0.20399
1131.95182,0.21725
1130.46203,0.21371
1128.97224,0.17988
1127.48245,0.29425
1125.99266,0.24702
1124.50288,0.19307
1123.01309,0.23345
1121.52330,0.27385
1120.03351,0.25031
1118.54372,0.20995
1117.05393,0.30432
1115.56415,0.30444
1114.07436,0.33152
1112.58457,0.34347
1111.09478,0.35546
1109.60499,0.42304
1108.11520,0.42330
1106.62542,0.40338
1105.13563,0.43400
1103.64584,0.50844
1102.15605,0.45493
1100.66626,0.43008
1099.17647,0.40526
1097.68668,0.56736
1096.19690,0.47020
1094.70711,0.58184
1093.21732,0.62281
1091.72753,0.70420
1090.23774,0.64420
1088.74795,0.58422
1087.25817,0.49397
1085.76838,0.60243
1084.27859,0.47519
1082.78880,0.67126
1081.29901,0.56766
1079.80922,0.59541
1078.31943,0.60130
1076.82965,0.60723
1075.33986,0.62833
1073.85007,0.50130
1072.36028,0.54941
1070.87049,0.61101
1069.38070,0.63560
1067.89092,0.55920
1066.40113,0.48283
1064.91134,0.53781
1063.42155,0.40425
1061.93176,0.38184
1060.44197,0.42681
1058.95219,0.39436
1057.46240,0.32322
1055.97261,0.25210
1054.48282,0.30055
1052.99303,0.35241
1051.50324,0.30663
1050.01345,0.36191
1048.52367,0.32293
1047.03388,0.29745
1045.54409,0.27200
1044.05430,0.32402
1042.56451,0.19424
1041.07472,0.19918
1039.58494,0.19742
1038.09515,0.20915
1036.60536,0.18051
1035.11557,0.15189
1033.62578,0.11657
1032.13599,0.22608
1030.64620,0.19082
1029.15642,0.14548
1027.66663,0.17089
1026.17684,0.19633
1024.68705,0.29252
1023.19726,0.18332
1021.70747,0.29303
1020.21769,0.32532
1018.72790,0.26335
1017.23811,0.27718
1015.74832,0.29104
1014.25853,0.39079
1012.76874,0.50742
1011.27896,0.54325
1009.78917,0.65657
1008.29938,0.71266
1006.80959,0.82604
1005.31980,0.93944
1003.83001,0.76664
1002.34022,0.95418
1000.85044,1.11482
999.36065,1.27211
997.87086,1.30147
996.38107,1.33087
994.89128,1.49499
993.40149,1.69954
991.91171,1.69535
990.42192,1.80567
988.93213,1.79143
987.44234,1.85131
985.95255,1.91121
984.46276,1.97451
982.97297,1.92335
981.48319,1.85874
979.99340,1.94233
978.50361,1.96871
977.01382,1.99511
975.52403,1.97104
974.03424,1.98403
972.54446,1.90613
971.05467,2.00000
969.56488,1.76389
968.07509,1.74838
966.58530,1.73289
965.09551,1.61810
963.60573,1.54374
962.11594,1.58727
960.62615,1.62410
959.13636,1.57846
957.64657,1.53284
956.15678,1.23301
954.66699,1.34404
953.17721,1.37428
951.68742,1.17557
950.19763,1.15535
948.70784,1.13517
947.21805,1.09144
945.72826,0.91305
944.23848,1.01418
942.74869,0.89982
941.25890,0.89325
939.76911,0.87493
938.27932,0.85663
936.78953,0.89730
935.29974,0.76962
933.80996,1.02922
932.32017,1.01609
930.83038,0.99458
929.34059,0.97309
927.85080,1.01056
926.36101,0.95377
924.87123,0.89028
923.38144,0.93457
921.89165,0.98563
920.40186,1.03672
918.91207,1.06763
917.42228,0.97398
915.93250,1.06556
914.44271,1.06625
912.95292,1.09897
911.46313,1.13171
909.97334,1.27729
908.48355,1.25453
906.99376,1.24863
905.50398,1.27981
904.01419,1.24535
902.52440,1.21092
901.03461,1.35667
899.54482,1.32398
898.05503,1.32500
896.56525,1.62574
895.07546,1.57799
893.58567,1.53026
892.09588,1.38323
890.60609,1.23959
889.11630,1.20037
887.62651,1.24873
886.13673,1.15064
884.64694,1.05258
883.15715,1.09766
881.66736,1.12594
880.17757,1.04985
878.68778,1.01421
877.19800,0.97859
875.70821,0.95984
874.21842,0.78284
872.72863,0.73048
871.23884,0.81620
869.74905,0.76895
868.25927,0.72172
866.76948,0.63579
865.27969,0.61724
863.78990,0.42362
862.30011,0.63075
860.81032,0.59882
859.32053,0.56692
857.83075,0.47107
856.34096,0.58066
854.85117,0.53875
853.36138,0.36216
851.87159,0.30347
850.38180,0.24481
848.89202,0.32761
847.40223,0.32962
845.91244,0.20032
844.42265,0.18050
842.93286,0.16071
841.44307,0.17631
839.95329,0.17846
838.46350,0.11330
836.97371,0.16939
835.48392,0.16490
833.99413,0.16043
832.50434,0.17957
831.01455,0.13813
829.52477,0.14385
828.03498,0.19675
826.54519,0.16718
825.05540,0.13764
823.56561,0.14012
822.07582,0.06180
820.58604,0.09464
819.09625,0.06522
817.60646,0.03582
816.11667,0.08896
814.62688,0.14885
813.13709,0.00000
811.64730,0.08413
810.15752,0.05548
808.66773,0.02686
807.17794,0.07404
805.68815,0.12124
804.19836,0.14154
802.70857,0.13660
801.21879,0.13170
799.72900,0.16892
798.23921,0.17586
796.74942,0.16600
795.25963,0.16458
793.76984,0.16319
792.28006,0.22413
790.79027,0.29520
789.30048,0.17772
787.81069,0.29936
786.32090,0.24761
784.83111,0.19588
783.34132,0.26710
781.85154,0.27773
780.36175,0.22778
778.87196,0.19132
777.38217,0.15490
775.89238,0.32055
774.40259,0.33133
772.91281,0.12325
771.42302,0.22838
769.93323,0.33353
768.44344,0.33432
766.95365,0.28463
765.46386,0.40671
763.97407,0.28973
762.48429,0.26201
760.99450,0.23433
759.50471,0.16458
758.01492,0.22619
756.52513,0.15987
755.03534,0.13904
753.54556,0.11823
752.05577,0.18670
750.56598,0.14743
749.07619,0.18901
747.58640,0.14980
746.09661,0.11062
744.60683,0.02433
743.11704,0.04246
741.62725,0.00000
740.13746,0.03419
738.64767,0.06840
737.15788,0.11107
735.66809,0.19754
734.17831,0.12914
732.68852,0.16684
731.19873,0.20457
729.70894,0.07564
728.21915,0.10501
726.72936,0.03002
725.23958,0.07965
723.74979,0.06870
722.26000,0.05778
720.77021,0.05362
719.28042,0.07980
717.79063,0.11611
716.30084,0.11204
714.81106,0.10800
713.32127,0.05348
711.83148,0.10337
710.34169,0.10952
708.85190,0.09044
707.36211,0.07140
705.87233,0.07427
704.38254,0.05022
702.89275,0.16091
701.40296,0.13693
699.91317,0.11297
698.42338,0.26753
696.93360,0.33792
695.44381,0.40161
693.95402,0.34915
692.46423,0.29672
690.97444,0.18539
689.48465,0.00000
687.99486,0.20058
686.50508,0.17726
685.01529,0.15396
683.52550,0.14248
682.03571,0.07715
680.54592,0.08593
679.05613,0.05097
677.56635,0.01603
676.07656,0.10572
674.58677,0.07421
673.09698,0.02253
671.60719,0.09042
670.11740,0.15833
668.62761,0.17745
667.13783,0.10905
665.64804,0.10465
664.15825,0.10029
662.66846,0.01513
661.17867,0.04450
659.68888,0.09410
658.19910,0.09659
656.70931,0.09911
655.21952,0.07134
653.72973,0.14800
652.23994,0.11693
650.75015,0.11620
649.26037,0.11549
647.77058,0.17206
646.28079,0.16131
644.79100,0.32907
643.30121,0.28302
641.81142,0.23700
640.32163,0.21963
638.83185,0.14168
637.34206,0.06376
635.85227,0.09026
634.36248,0.11678
632.87269,0.13997
631.38290,0.17666
629.89312,0.09552
628.40333,0.06828
626.91354,0.04107
625.42375,0.16543
623.93396,0.09450
622.44417,0.08086
620.95438,0.06724
619.46460,0.09069
617.97481,0.12764
616.48502,0.13768
614.99523,0.13428
613.50544,0.13091
612.01565,0.12757
610.52587,0.10742
609.03608,0.11760
607.54629,0.05879
606.05650,0.00000
604.56671,0.13578
603.07692,0.12343
601.58714,0.11783
600.09735,0.11227
598.60756,0.06296
597.11777,0.06420
595.62798,0.09576
594.13819,0.08022
592.64840,0.06470
591.15862,0.15360
589.66883,0.15835
588.17904,0.18332
586.68925,0.15950
585.19946,0.13571
583.70967,0.13384
582.21989,0.39466
580.73010,0.29014
579.24031,0.18564
577.75052,0.32532
576.26073,0.40778
574.77094,0.40945
573.28115,0.35727
571.79137,0.30512
570.30158,0.44494
568.81179,0.48377
567.32200,0.48391
565.83221,0.48407
564.34242,0.62737
562.85264,0.65959
561.36285,0.74570
559.87306,0.79986
558.38327,0.85405
556.89348,0.78872
555.40369,0.84465
553.91391,0.94439
552.42412,1.04415
550.93433,0.98231
549.44454,0.94743
547.95475,0.90585
546.46496,0.94680
544.97517,0.98778
543.48539,0.86884
541.99560,1.07993
540.50581,1.00314
539.01602,0.92638
537.52623,1.13756
536.03644,1.11642
534.54666,1.08184
533.05687,1.06749
531.56708,1.05317
530.07729,0.92776
528.58750,0.94717
527.09771,0.85549
525.60792,0.76383
524.11814,0.66211
522.62835,0.64796
521.13856,0.60017
519.64877,0.63997
518.15898,0.67979
516.66919,0.53780
515.17941,0.63156
513.68962,0.53846
512.19983,0.44539
510.71004,0.53924
509.22025,0.37719
507.73046,0.38691
506.24068,0.37309
504.75089,0.35929
503.26110,0.31185
501.77131,0.35200
500.28152,0.32988
498.79173,0.30778
497.30194,0.09546
495.81216,0.13909
494.32237,0.19790
492.83258,0.25674
491.34279,0.11861
489.85300,0.05123
488.36321,0.20614
486.87343,0.18933
485.38364,0.17255
483.89385,0.08845
482.40406,0.15928
480.91427,0.16953
479.42448,0.17980
477.93469,0.05204
476.44491,0.06911
474.95512,0.08958
473.46533,0.11008
471.97554,0.05315
470.48575,0.03330
468.99596,0.00000
467.50618,0.11057
466.01639,0.22117
464.52660,0.12976
463.03681,0.06868
461.54702,0.11370
460.05723,0.15876
458.56745,0.04389
457.07766,0.16813
455.58787,0.19981
454.09808,0.23151
452.60829,0.21441
451.11850,0.12662
449.62871,0.20892
448.13893,0.29125
446.64914,0.25407
445.15935,0.39202
443.66956,0.39530
442.17977,0.40198
440.68998,0.40869
439.20020,0.32114
437.71041,0.41209
436.22062,0.48792
434.73083,0.56378
433.24104,0.63798
431.75125,0.74252
430.26146,0.73091
428.77168,0.71933
427.28189,0.90478
425.79210,0.82759
424.30231,1.00131
422.81252,1.17506
421.32273,1.62665
419.83295,1.44856
418.34316,1.40351
416.85337,1.35849
415.36358,0.94813
413.87379,0.89139
412.38400,0.81446
410.89422,0.73757
409.40443,0.89980
407.91464,0.93409
406.42485,1.04249
404.93506,1.02128
403.44527,1.00010
401.95548,0.83246
400.46570,0.95108
398.97591,0.90978
397.48612,0.86851
395.99633,0.78854
394.50654,0.87360
393.01675,0.78191
391.52697,0.69024
390.03718,0.89663
388.54739,0.71578
387.05760,0.76058
385.56781,0.80542
384.07802,0.77282
382.58824,0.55842
381.09845,0.59661
379.60866,0.63482
378.11887,0.60908
376.62908,0.51603
375.13929,0.44489
373.64950,0.37378
372.15972,0.37846
370.66993,0.40338
369.18014,0.37277
367.69035,0.34218
366.20056,0.32341
364.71077,0.28447
363.22099,0.29438
361.73120,0.30432
360.24141,0.10720
358.75162,0.16266
357.26183,0.15417
355.77204,0.14571
354.28225,0.27197
352.79247,0.09183
351.30268,0.12723
349.81289,0.16266
348.32310,0.11057
346.83331,0.06524
345.34352,0.05193
343.85374,0.03865
342.36395,0.24597
340.87416,0.02902
339.38437,0.08991
337.89458,0.15083
336.40479,0.09897
334.91501,0.00000
333.42522,0.04723
331.93543,0.09449
330.44564,0.11820
328.95585,0.04429
327.46606,0.07985
325.97627,0.11544
324.48649,0.09549
322.99670,0.19681
321.50691,0.11294
320.01712,0.02910
318.52733,0.09346
317.03754,0.13091
315.54776,0.15660
314.05797,0.18232
312.56818,0.02118
311.07839,0.11936
309.58860,0.08623
308.09881,0.05314
306.60902,0.18845
305.11924,0.15878
303.62945,0.10894
302.13966,0.05913
300.64987,0.03628
299.16008,0.00000
