1778.52000,0.00186
1777.03021,0.00820
1775.54042,0.04467
1774.05063,0.03000
1772.56085,0.04244
1771.07106,0.14220
1769.58127,0.09148
1768.09148,0.01370
1766.60169,0.07441
1765.11190,0.11708
1763.62212,0.04540
1762.13233,0.05200
1760.64254,0.04960
1759.15275,0.06228
1757.66296,0.12314
1756.17317,0.03955
1754.68339,0.12756
1753.19360,0.03499
1751.70381,0.07790
1750.21402,0.05762
1748.72423,0.09757
1747.23444,0.05628
1745.74465,0.07220
1744.25487,0.04902
1742.76508,0.05897
1741.27529,0.04186
1739.78550,0.08799
1738.29571,0.12812
1736.80592,0.06895
1735.31614,0.13321
1733.82635,0.00186
1732.33656,0.09396
1730.84677,0.05968
1729.35698,0.02542
1727.86719,0.08750
1726.37740,0.05631
1724.88762,0.11242
1723.39783,0.05720
1721.90804,0.03812
1720.41825,0.08228
1718.92846,0.02412
1717.43867,0.07134
1715.94889,0.06440
1714.45910,0.10867
1712.96931,0.12887
1711.47952,0.09493
1709.98973,0.04897
1708.49994,0.03313
1707.01016,0.10010
1705.52037,0.16709
1704.03058,0.21153
1702.54079,0.11153
1701.05100,0.10786
1699.56121,0.08014
1698.07142,0.12168
1696.58164,0.07295
1695.09185,0.16571
1693.60206,0.13809
1692.11227,0.11954
1690.62248,0.13111
1689.13269,0.11260
1687.64291,0.10014
1686.15312,0.08169
1684.66333,0.04821
1683.17354,0.08399
1681.68375,0.05659
1680.19396,0.09543
1678.70417,0.16741
1677.21439,0.07687
1675.72460,0.13686
1674.23481,0.09153
1672.74502,0.06729
1671.25523,0.06415
1669.76544,0.15133
1668.27566,0.07600
1666.78587,0.06090
1665.29608,0.06990
1663.80629,0.03980
1662.31650,0.16023
1660.82671,0.10610
1659.33693,0.17841
1657.84714,0.12735
1656.35735,0.06728
1654.86756,0.11258
1653.37777,0.04053
1651.88798,0.03471
1650.39819,0.13127
1648.90841,0.01414
1647.41862,0.06860
1645.92883,0.07193
1644.43904,0.07527
1642.94925,0.02447
1641.45946,0.11516
1639.96968,0.07645
1638.47989,0.05883
1636.99010,0.02619
1635.50031,0.01163
1634.01052,0.09041
1632.52073,0.09698
1631.03094,0.05541
1629.54116,0.08611
1628.05137,0.17102
1626.56158,0.11749
1625.07179,0.08506
1623.58200,0.00750
1622.09221,0.07746
1620.60243,0.01200
1619.11264,0.05793
1617.62285,0.07078
1616.13306,0.09870
1614.64327,0.07849
1613.15348,0.14259
1611.66370,0.04718
1610.17391,0.08424
1608.68412,0.10025
1607.19433,0.11329
1605.70454,0.09624
1604.21475,0.05364
1602.72496,0.01107
1601.23518,0.08741
1599.74539,0.09756
1598.25560,0.05657
1596.76581,0.07881
1595.27602,0.14322
1593.78623,0.08425
1592.29645,0.11861
1590.80666,0.06872
1589.31687,0.07003
1587.82708,0.07437
1586.33729,0.15097
1584.84750,0.00186
1583.35771,0.18988
1581.86793,0.11006
1580.37814,0.03326
1578.88835,0.11301
1577.39856,0.23192
1575.90877,0.08296
1574.41898,0.20493
1572.92920,0.08011
1571.43941,0.09678
1569.94962,0.11649
1568.45983,0.13622
1566.97004,0.07772
1565.48025,0.06139
1563.99047,0.09324
1562.50068,0.10706
1561.01089,0.07877
1559.52110,0.05652
1558.03131,0.09750
1556.54152,0.13550
1555.05173,0.05013
1553.56195,0.04905
1552.07216,0.15034
1550.58237,0.10718
1549.09258,0.09113
1547.60279,0.19250
1546.11300,0.26079
1544.62322,0.22676
1543.13343,0.21984
1541.64364,0.14674
1540.15385,0.12784
1538.66406,0.10897
1537.17427,0.19547
1535.68448,0.08033
1534.19470,0.10367
1532.70491,0.00664
1531.21512,0.01499
1529.72533,0.04142
1528.23554,0.06487
1526.74575,0.05825
1525.25597,0.09981
1523.76618,0.11130
1522.27639,0.10776
1520.78660,0.05007
1519.29681,0.01649
1517.80702,0.04012
1516.31724,0.04571
1514.82745,0.10251
1513.33766,0.08709
1511.84787,0.07169
1510.35808,0.05332
1508.86829,0.00186
1507.37850,0.03444
1505.88872,0.09715
1504.39893,0.00338
1502.90914,0.05795
1501.41935,0.05536
1499.92956,0.10697
1498.43977,0.08938
1496.94999,0.09590
1495.46020,0.11749
1493.97041,0.01269
1492.48062,0.13367
1490.99083,0.06203
1489.50104,0.12286
1488.01125,0.15963
1486.52147,0.19643
1485.03168,0.17907
1483.54189,0.11359
1482.05210,0.14746
1480.56231,0.13018
1479.07252,0.26945
1477.58274,0.22514
1476.09295,0.25911
1474.60316,0.28709
1473.11337,0.29101
1471.62358,0.28593
1470.13379,0.32904
1468.64401,0.21264
1467.15422,0.22570
1465.66443,0.19966
1464.17464,0.17364
1462.68485,0.22591
1461.19506,0.15479
1459.70527,0.21915
1458.21549,0.21732
1456.72570,0.11016
1455.23591,0.01206
1453.74612,0.07953
1452.25633,0.15004
1450.76654,0.02493
1449.27676,0.07141
1447.78697,0.15103
1446.29718,0.12532
1444.80739,0.14028
1443.31760,0.15526
1441.82781,0.11459
1440.33802,0.08898
1438.84824,0.12662
1437.35845,0.10408
1435.86866,0.07254
1434.37887,0.11326
1432.88908,0.07575
1431.39929,0.05934
1429.90951,0.05198
1428.41972,0.12592
1426.92993,0.18784
1425.44014,0.16250
1423.95035,0.15525
1422.46056,0.14802
1420.97078,0.15888
1419.48099,0.15772
1417.99120,0.16261
1416.50141,0.20064
1415.01162,0.10926
1413.52183,0.12326
1412.03204,0.15535
1410.54226,0.25067
1409.05247,0.15639
1407.56268,0.15243
1406.07289,0.13044
1404.58310,0.13858
1403.09331,0.14674
1401.60353,0.13386
1400.11374,0.09993
1398.62395,0.18944
1397.13416,0.19169
1395.64437,0.18794
1394.15458,0.05178
1392.66479,0.26179
1391.17501,0.20394
1389.68522,0.11602
1388.19543,0.05822
1386.70564,0.08022
1385.21585,0.10224
1383.72606,0.07763
1382.23628,0.15538
1380.74649,0.07063
1379.25670,0.10630
1377.76691,0.13898
1376.27712,0.11752
1374.78733,0.21045
1373.29755,0.21011
1371.80776,0.27601
1370.31797,0.22755
1368.82818,0.22729
1367.33839,0.22704
1365.84860,0.45257
1364.35881,0.42530
1362.86903,0.53951
1361.37924,0.41597
1359.88945,0.50916
1358.39966,0.47898
1356.90987,0.37959
1355.42008,0.55715
1353.93030,0.56918
1352.44051,0.58876
1350.95072,0.60837
1349.46093,0.55427
1347.97114,0.42795
1346.48135,0.25349
1344.99156,0.18441
1343.50178,0.15148
1342.01199,0.16974
1340.52220,0.21211
1339.03241,0.14013
1337.54262,0.12837
1336.05283,0.13770
1334.56305,0.14706
1333.07326,0.20762
1331.58347,0.10868
1330.09368,0.15424
1328.60389,0.14866
1327.11410,0.10096
1325.62432,0.15864
1324.13453,0.14110
1322.64474,0.07241
1321.15495,0.12415
1319.66516,0.10668
1318.17537,0.08924
1316.68558,0.06581
1315.19580,0.07551
1313.70601,0.09427
1312.21622,0.04382
1310.72643,0.13788
1309.23664,0.11759
1307.74685,0.04916
1306.25707,0.07106
1304.76728,0.14265
1303.27749,0.21426
1301.78770,0.12788
1300.29791,0.08066
1298.80812,0.05152
1297.31834,0.08260
1295.82855,0.10167
1294.33876,0.03047
1292.84897,0.09173
1291.35918,0.09583
1289.86939,0.11952
1288.37960,0.14324
1286.88982,0.09324
1285.40003,0.09142
1283.91024,0.14983
1282.42045,0.07884
1280.93066,0.00186
1279.44087,0.01613
1277.95109,0.13278
1276.46130,0.07788
1274.97151,0.11481
1273.48172,0.15177
1271.99193,0.08190
1270.50214,0.14450
1269.01235,0.14692
1267.52257,0.10422
1266.03278,0.14282
1264.54299,0.16037
1263.05320,0.16590
1261.56341,0.15642
1260.07362,0.14696
1258.58384,0.05625
1257.09405,0.08597
1255.60426,0.06756
1254.11447,0.05519
1252.62468,0.17830
1251.13489,0.08472
1249.64511,0.08146
1248.15532,0.09328
1246.66553,0.10512
1245.17574,0.11700
1243.68595,0.10180
1242.19616,0.08964
1240.70637,0.07751
1239.21659,0.05638
1237.72680,0.07139
1236.23701,0.02623
1234.74722,0.05333
1233.25743,0.08798
1231.76764,0.12266
1230.27786,0.08965
1228.78807,0.14093
1227.29828,0.03573
1225.80849,0.06600
1224.31870,0.07823
1222.82891,0.05738
1221.33912,0.11482
1219.84934,0.09553
1218.35955,0.07626
1216.86976,0.08562
1215.37997,0.11306
1213.89018,0.02615
1212.40039,0.10783
1210.91061,0.09020
1209.42082,0.09968
1207.93103,0.07458
1206.44124,0.04951
1204.95145,0.10422
1203.46166,0.02953
1201.97188,0.09634
1200.48209,0.11802
1198.99230,0.04643
1197.50251,0.04107
1196.01272,0.08089
1194.52293,0.05452
1193.03314,0.02817
1191.54336,0.00186
1190.05357,0.04884
1188.56378,0.07779
1187.07399,0.01345
1185.58420,0.09061
1184.09441,0.07148
1182.60463,0.12612
1181.11484,0.18079
1179.62505,0.06240
1178.13526,0.08250
1176.64547,0.15079
1175.15568,0.06560
1173.66589,0.08277
1172.17611,0.14210
1170.68632,0.08257
1169.19653,0.02307
1167.70674,0.10355
1166.21695,0.05764
1164.72716,0.02982
1163.23738,0.10135
1161.74759,0.06455
1160.25780,0.08497
1158.76801,0.08735
1157.27822,0.08975
1155.78843,0.16142
1154.29865,0.09164
1152.80886,0.13626
1151.31907,0.07557
1149.82928,0.10218
1148.33949,0.18000
1146.84970,0.13142
1145.35991,0.08286
1143.87013,0.09755
1142.38034,0.24770
1140.89055,0.08485
1139.40076,0.15680
1137.91097,0.09333
1136.42118,0.06901
1134.93140,0.11696
1133.44161,0.16494
1131.95182,0.09856
1130.46203,0.11949
1128.97224,0.16153
1127.48245,0.11630
1125.99266,0.11323
1124.50288,0.18846
1123.01309,0.19447
1121.52330,0.20052
1120.03351,0.16445
1118.54372,0.26084
1117.05393,0.27600
1115.56415,0.27913
1114.07436,0.34250
1112.58457,0.31107
1111.09478,0.27968
1109.60499,0.26486
1108.11520,0.35843
1106.62542,0.24132
1105.13563,0.51253
1103.64584,0.39548
1102.15605,0.46808
1100.66626,0.42934
1099.17647,0.39063
1097.68668,0.54157
1096.19690,0.49087
1094.70711,0.40407
1093.21732,0.56713
1091.72753,0.60681
1090.23774,0.60136
1088.74795,0.59594
1087.25817,0.57850
1085.76838,0.59721
1084.27859,0.57381
1082.78880,0.50830
1081.29901,0.52407
1079.80922,0.54289
1078.31943,0.57226
1076.82965,0.60167
1075.33986,0.53327
1073.85007,0.56122
1072.36028,0.63133
1070.87049,0.55700
1069.38070,0.46463
1067.89092,0.47462
1066.40113,0.48464
1064.91134,0.41944
1063.42155,0.39339
1061.93176,0.37038
1060.44197,0.35341
1058.95219,0.33648
1057.46240,0.31956
1055.97261,0.30268
1054.48282,0.39718
1052.99303,0.27500
1051.50324,0.27625
1050.01345,0.30763
1048.52367,0.33903
1047.03388,0.27414
1045.54409,0.20928
1044.05430,0.24076
1042.56451,0.23615
1041.07472,0.18340
1039.58494,0.09456
1038.09515,0.18334
1036.60536,0.13970
1035.11557,0.09609
1033.62578,0.22106
1032.13599,0.15643
1030.64620,0.14601
1029.15642,0.19882
1027.66663,0.23661
1026.17684,0.27443
1024.68705,0.30625
1023.19726,0.16653
1021.70747,0.26161
1020.21769,0.33866
1018.72790,0.28329
1017.23811,0.29116
1015.74832,0.29906
1014.25853,0.44243
1012.76874,0.40222
1011.27896,0.55468
1009.78917,0.58977
1008.29938,0.66703
1006.80959,0.72023
1005.31980,0.77346
1003.83001,0.84177
1002.34022,0.96428
1000.85044,1.10487
999.36065,1.12209
997.87086,1.18448
996.38107,1.24689
994.89128,1.58023
993.40149,1.55240
991.91171,1.69315
990.42192,1.98142
988.93213,1.85735
987.44234,1.86424
985.95255,1.87116
984.46276,2.00000
982.97297,1.98740
981.48319,1.93570
979.99340,1.93519
978.50361,1.89258
977.01382,1.84998
975.52403,1.97597
974.03424,1.87925
972.54446,1.79159
971.05467,1.92368
969.56488,1.81801
968.07509,1.74397
966.58530,1.66995
965.09551,1.65767
963.60573,1.53705
962.11594,1.56696
960.62615,1.58485
959.13636,1.58622
957.64657,1.58761
956.15678,1.34371
954.66699,1.37977
953.17721,1.19312
951.68742,1.05164
950.19763,1.09681
948.70784,1.14200
947.21805,1.05779
945.72826,1.04584
944.23848,0.95265
942.74869,0.97086
941.25890,0.93191
939.76911,0.88846
938.27932,0.84504
936.78953,0.90850
935.29974,0.78236
933.80996,0.89403
932.32017,0.91543
930.83038,0.86311
929.34059,0.81082
927.85080,0.89852
926.36101,0.95614
924.87123,0.92951
923.38144,1.05642
921.89165,1.03887
920.40186,1.02135
918.91207,0.98579
917.42228,0.94124
915.93250,1.11643
914.44271,1.08697
912.95292,1.13430
911.46313,1.18165
909.97334,1.19441
908.48355,1.29749
906.99376,1.29526
905.50398,1.19071
904.01419,1.23969
902.52440,1.28870
901.03461,1.47018
899.54482,1.39283
898.05503,1.49609
896.56525,1.56327
895.07546,1.49502
893.58567,1.42680
892.09588,1.27734
890.60609,1.26335
889.11630,1.22531
887.62651,1.13913
886.13673,1.13124
884.64694,1.12338
883.15715,1.05835
881.66736,1.04452
880.17757,0.97051
878.68778,0.94018
877.19800,0.90987
875.70821,0.93828
874.21842,0.86739
872.72863,0.74836
871.23884,0.71966
869.74905,0.70604
868.25927,0.69244
866.76948,0.62770
865.27969,0.61115
863.78990,0.54646
862.30011,0.45170
860.81032,0.43672
859.32053,0.42178
857.83075,0.45652
856.34096,0.42206
854.85117,0.44482
853.36138,0.31109
851.87159,0.28423
850.38180,0.25740
848.89202,0.30133
847.40223,0.25499
845.91244,0.16353
844.42265,0.16841
842.93286,0.17331
841.44307,0.19932
839.95329,0.09592
838.46350,0.15809
836.97371,0.09688
835.48392,0.13202
833.99413,0.16718
832.50434,0.06993
831.01455,0.10213
829.52477,0.04106
828.03498,0.02214
826.54519,0.08302
825.05540,0.14392
823.56561,0.11606
822.07582,0.14842
820.58604,0.07245
819.09625,0.03714
817.60646,0.00186
816.11667,0.06286
814.62688,0.06369
813.13709,0.06756
811.64730,0.00824
810.15752,0.01517
808.66773,0.02213
807.17794,0.02309
805.68815,0.00000
804.19836,0.06677
802.70857,0.05230
801.21879,0.03785
799.72900,0.17994
798.23921,0.19866
796.74942,0.27158
795.25963,0.19252
793.76984,0.11349
792.28006,0.23163
790.79027,0.21135
789.30048,0.21216
787.81069,0.28825
786.32090,0.24998
784.83111,0.21174
783.34132,0.29994
781.85154,0.19253
780.36175,0.22961
778.87196,0.28479
777.38217,0.33999
775.89238,0.28083
774.40259,0.22472
772.91281,0.36728
771.42302,0.29617
769.93323,0.22508
768.44344,0.32859
766.95365,0.32678
765.46386,0.34005
763.97407,0.21188
762.48429,0.24326
760.99450,0.27467
759.50471,0.14356
758.01492,0.20512
756.52513,0.05902
755.03534,0.03635
753.54556,0.01371
752.05577,0.09945
750.56598,0.14609
749.07619,0.05429
747.58640,0.08594
746.09661,0.11760
744.60683,0.05599
743.11704,0.05159
741.62725,0.06527
740.13746,0.05491
738.64767,0.04456
737.15788,0.03726
735.66809,0.12329
734.17831,0.11905
732.68852,0.09677
731.19873,0.07452
729.70894,0.07035
728.21915,0.06320
726.72936,0.06812
725.23958,0.09113
723.74979,0.08105
722.26000,0.07099
720.77021,0.09708
719.28042,0.14427
717.79063,0.00186
716.30084,0.09193
714.81106,0.18204
713.32127,0.08555
711.83148,0.16066
710.34169,0.09131
708.85190,0.11229
707.36211,0.13330
705.87233,0.09413
704.38254,0.10615
702.89275,0.08209
701.40296,0.11072
699.91317,0.13938
698.42338,0.18463
696.93360,0.18173
695.44381,0.28723
693.95402,0.27235
692.46423,0.25750
690.97444,0.18548
689.48465,0.11349
687.99486,0.08667
686.50508,0.05387
685.01529,0.02108
683.52550,0.03649
682.03571,0.09707
680.54592,0.00717
679.05613,0.02314
677.56635,0.03913
676.07656,0.14997
674.58677,0.07722
673.09698,0.07072
671.60719,0.12896
670.11740,0.18722
668.62761,0.02428
667.13783,0.05099
665.64804,0.06418
664.15825,0.07740
662.66846,0.00186
661.17867,0.04863
659.68888,0.02620
658.19910,0.05345
656.70931,0.08074
655.21952,0.05839
653.72973,0.08422
652.23994,0.14620
650.75015,0.12241
649.26037,0.09866
647.77058,0.20586
646.28079,0.17163
644.79100,0.29695
643.30121,0.22062
641.81142,0.14432
640.32163,0.16136
638.83185,0.11221
637.34206,0.06609
635.85227,0.05762
634.36248,0.04917
632.87269,0.10246
631.38290,0.03839
629.89312,0.06162
628.40333,0.04877
626.91354,0.03594
625.42375,0.07732
623.93396,0.04348
622.44417,0.05782
620.95438,0.07218
619.46460,0.11065
617.97481,0.15517
616.48502,0.18768
614.99523,0.13442
613.50544,0.08120
612.01565,0.08669
610.52587,0.16746
609.03608,0.05863
607.54629,0.11537
606.05650,0.17213
604.56671,0.12358
603.07692,0.15030
601.58714,0.14092
600.09735,0.13157
598.60756,0.00186
597.11777,0.05732
595.62798,0.24525
594.13819,0.22101
592.64840,0.19679
591.15862,0.18012
589.66883,0.10629
588.17904,0.13483
586.68925,0.17242
585.19946,0.21003
583.70967,0.23563
582.21989,0.31845
580.73010,0.34862
579.24031,0.37882
577.75052,0.26606
576.26073,0.37006
574.77094,0.44096
573.28115,0.48782
571.79137,0.53470
570.30158,0.53044
568.81179,0.46299
567.32200,0.51597
565.83221,0.56897
564.34242,0.53171
562.85264,0.58477
561.36285,0.79437
559.87306,0.80233
558.38327,0.81031
556.89348,0.88153
555.40369,0.81432
553.91391,0.89312
552.42412,0.97195
550.93433,0.97104
549.44454,0.94005
547.95475,1.03249
546.46496,0.98952
544.97517,0.94657
543.48539,0.96385
541.99560,1.12864
540.50581,1.10985
539.01602,1.09109
537.52623,0.99108
536.03644,1.15297
534.54666,0.95368
533.05687,0.96512
531.56708,0.97659
530.07729,0.93992
528.58750,0.95445
527.09771,0.88322
525.60792,0.81202
524.11814,0.76642
522.62835,0.75999
521.13856,0.77766
519.64877,0.69602
518.15898,0.61442
516.66919,0.68032
515.17941,0.56867
513.68962,0.57593
512.19983,0.58322
510.71004,0.50777
509.22025,0.51360
507.73046,0.50141
506.24068,0.41700
504.75089,0.33262
503.26110,0.39876
501.77131,0.41376
500.28152,0.37310
498.79173,0.33246
497.30194,0.40774
495.81216,0.22719
494.32237,0.25436
492.83258,0.28156
491.34279,0.25460
489.85300,0.20660
488.36321,0.25193
486.87343,0.20549
485.38364,0.15907
483.89385,0.16836
482.40406,0.25594
480.91427,0.19605
479.42448,0.13619
477.93469,0.17569
476.44491,0.09782
474.95512,0.10426
473.46533,0.11072
471.97554,0.16838
470.48575,0.18995
468.99596,0.23863
467.50618,0.18500
466.01639,0.13140
464.52660,0.15307
463.03681,0.13563
461.54702,0.10318
460.05723,0.07075
458.56745,0.20991
457.07766,0.26783
455.58787,0.22344
454.09808,0.17908
452.60829,0.19192
451.11850,0.13557
449.62871,0.20717
448.13893,0.27879
446.64914,0.43321
445.15935,0.38900
443.66956,0.43813
442.17977,0.48126
440.68998,0.52442
439.20020,0.44721
437.71041,0.61984
436.22062,0.56676
434.73083,0.51371
433.24104,0.75264
431.75125,0.72071
430.26146,0.76555
428.77168,0.81043
427.28189,0.98024
425.79210,0.99958
424.30231,1.04603
422.81252,1.09251
421.32273,1.33467
419.83295,1.34508
418.34316,1.33897
416.85337,1.33288
415.36358,0.95810
413.87379,0.87230
412.38400,0.83619
410.89422,0.80010
409.40443,0.78361
407.91464,0.89356
406.42485,1.12996
404.93506,1.02174
403.44527,0.91355
401.95548,0.95137
400.46570,0.93503
398.97591,0.93678
397.48612,0.93855
395.99633,0.89220
394.50654,0.90607
393.01675,0.86578
391.52697,0.82552
390.03718,0.81238
388.54739,0.85043
387.05760,0.81176
385.56781,0.77311
384.07802,0.76910
382.58824,0.80424
381.09845,0.68741
379.60866,0.57061
378.11887,0.57874
376.62908,0.53875
375.13929,0.50780
373.64950,0.47689
372.15972,0.59650
370.66993,0.40009
369.18014,0.41590
367.69035,0.43175
366.20056,0.36183
364.71077,0.24980
363.22099,0.28529
361.73120,0.32080
360.24141,0.21186
358.75162,0.12101
357.26183,0.20175
355.77204,0.28251
354.28225,0.21280
352.79247,0.19730
351.30268,0.19537
349.81289,0.19347
348.32310,0.15096
346.83331,0.19576
345.34352,0.13825
343.85374,0.08077
342.36395,0.20692
340.87416,0.09230
339.38437,0.06349
337.89458,0.03470
336.40479,0.20611
334.91501,0.11266
333.42522,0.12911
331.93543,0.14558
330.44564,0.10338
328.95585,0.05518
327.46606,0.04314
325.97627,0.03112
324.48649,0.07942
322.99670,0.15784
321.50691,0.15803
320.01712,0.15825
318.52733,0.07421
317.03754,0.01128
315.54776,0.01458
314.05797,0.01791
312.56818,0.16575
311.07839,0.14806
309.58860,0.10482
308.09881,0.06160
306.60902,0.00186
305.11924,0.05358
303.62945,0.07522
302.13966,0.09689
300.64987,0.02829
299.16008,0.00186
