1778.52000,0.15186
1777.03021,0.12916
1775.54042,0.13530
1774.05063,0.17607
1772.56085,0.10168
1771.07106,0.15695
1769.58127,0.16618
1768.09148,0.12651
1766.60169,0.06960
1765.11190,0.15964
1763.62212,0.05387
1762.13233,0.00000
1760.64254,0.01531
1759.15275,0.13148
1757.66296,0.20449
1756.17317,0.04714
1754.68339,0.10873
1753.19360,0.06957
1751.70381,0.11399
1750.21402,0.07206
1748.72423,0.06185
1747.23444,0.07475
1745.74465,0.09057
1744.25487,0.11508
1742.76508,0.13389
1741.27529,0.12395
1739.78550,0.09677
1738.29571,0.10421
1736.80592,0.10018
1735.31614,0.08757
1733.82635,0.12973
1732.33656,0.08553
1730.84677,0.12203
1729.35698,0.13554
1727.86719,0.12030
1726.37740,0.09647
1724.88762,0.05253
1723.39783,0.00000
1721.90804,0.02372
1720.41825,0.06189
1718.92846,0.03675
1717.43867,0.06062
1715.94889,0.09319
1714.45910,0.04516
1712.96931,0.02886
1711.47952,0.02990
1709.98973,0.05979
1708.49994,0.03501
1707.01016,0.01748
1705.52037,0.00000
1704.03058,0.06171
1702.54079,0.08027
1701.05100,0.10176
1699.56121,0.06857
1698.07142,0.09016
1696.58164,0.11757
1695.09185,0.12198
1693.60206,0.18693
1692.11227,0.11368
1690.62248,0.07217
1689.13269,0.07391
1687.64291,0.04690
1686.15312,0.04874
1684.66333,0.07368
1683.17354,0.02666
1681.68375,0.13235
1680.19396,0.09407
1678.70417,0.11634
1677.21439,0.08105
1675.72460,0.10341
1674.23481,0.07111
1672.74502,0.04461
1671.25523,0.06137
1669.76544,0.10987
1668.27566,0.00000
1666.78587,0.03115
1665.29608,0.04508
1663.80629,0.06193
1662.31650,0.04139
1660.82671,0.02091
1659.33693,0.07248
1657.84714,0.04922
1656.35735,0.00585
1654.86756,0.02301
1653.37777,0.12087
1651.88798,0.05461
1650.39819,0.10074
1648.90841,0.02882
1647.41862,0.06064
1645.92883,0.05939
1644.43904,0.05820
1642.94925,0.09306
1641.45946,0.05596
1639.96968,0.02468
1638.47989,0.08849
1636.99010,0.06019
1635.50031,0.10683
1634.01052,0.03831
1632.52073,0.08505
1631.03094,0.12321
1629.54116,0.13261
1628.05137,0.14206
1626.56158,0.05939
1625.07179,0.15824
1623.58200,0.13617
1622.09221,0.05654
1620.60243,0.00000
1619.11264,0.05152
1617.62285,0.03972
1616.13306,0.09997
1614.64327,0.00763
1613.15348,0.07375
1611.66370,0.02184
1610.17391,0.07654
1608.68412,0.08810
1607.19433,0.11698
1605.70454,0.09695
1604.21475,0.09570
1602.72496,0.09450
1601.23518,0.07463
1599.74539,0.12681
1598.25560,0.07536
1596.76581,0.09885
1595.27602,0.07630
1593.78623,0.12005
1592.29645,0.00832
1590.80666,0.13282
1589.31687,0.02119
1587.82708,0.03635
1586.33729,0.09188
1584.84750,0.04377
1583.35771,0.16853
1581.86793,0.09173
1580.37814,0.06682
1578.88835,0.13701
1577.39856,0.05172
1575.90877,0.02696
1574.41898,0.07138
1572.92920,0.13314
1571.43941,0.12294
1569.94962,0.13727
1568.45983,0.15166
1566.97004,0.04081
1565.48025,0.08554
1563.99047,0.14184
1562.50068,0.06571
1561.01089,0.12212
1559.52110,0.00000
1558.03131,0.07484
1556.54152,0.05756
1555.05173,0.09506
1553.56195,0.13837
1552.07216,0.10685
1550.58237,0.16755
1549.09258,0.12748
1547.60279,0.31214
1546.11300,0.40179
1544.62322,0.38780
1543.13343,0.28746
1541.64364,0.17277
1540.15385,0.11574
1538.66406,0.05876
1537.17427,0.07960
1535.68448,0.06016
1534.19470,0.12430
1532.70491,0.05601
1531.21512,0.05401
1529.72533,0.05206
1528.23554,0.09625
1526.74575,0.08577
1525.25597,0.13870
1523.76618,0.11680
1522.27639,0.12087
1520.78660,0.08755
1519.29681,0.06868
1517.80702,0.08443
1516.31724,0.04838
1514.82745,0.09304
1513.33766,0.05421
1511.84787,0.01544
1510.35808,0.13802
1508.86829,0.05039
1507.37850,0.11546
1505.88872,0.02505
1504.39893,0.00670
1502.90914,0.09785
1501.41935,0.04216
1499.92956,0.11613
1498.43977,0.07494
1496.94999,0.01077
1495.46020,0.09353
1493.97041,0.06690
1492.48062,0.00000
1490.99083,0.17057
1489.50104,0.10790
1488.01125,0.13168
1486.52147,0.15551
1485.03168,0.15347
1483.54189,0.20621
1482.05210,0.22156
1480.56231,0.19088
1479.07252,0.25241
1477.58274,0.26503
1476.09295,0.29787
1474.60316,0.30772
1473.11337,0.33490
1471.62358,0.34196
1470.13379,0.28572
1468.64401,0.30153
1467.15422,0.20506
1465.66443,0.17922
1464.17464,0.15342
1462.68485,0.22992
1461.19506,0.24599
1459.70527,0.16995
1458.21549,0.18612
1456.72570,0.05257
1455.23591,0.20422
1453.74612,0.17735
1452.25633,0.10444
1450.76654,0.10647
1449.27676,0.15463
1447.78697,0.16829
1446.29718,0.10135
1444.80739,0.15687
1443.31760,0.21244
1441.82781,0.19174
1440.33802,0.11925
1438.84824,0.16201
1437.35845,0.09250
1435.86866,0.00000
1434.37887,0.06582
1432.88908,0.07984
1431.39929,0.16305
1429.90951,0.07637
1428.41972,0.18271
1426.92993,0.20559
1425.44014,0.15362
1423.95035,0.13484
1422.46056,0.11610
1420.97078,0.07293
1419.48099,0.18247
1417.99120,0.25462
1416.50141,0.22889
1415.01162,0.14848
1413.52183,0.11710
1412.03204,0.16641
1410.54226,0.17833
1409.05247,0.15286
1407.56268,0.18792
1406.07289,0.15967
1404.58310,0.18332
1403.09331,0.20701
1401.60353,0.25381
1400.11374,0.20848
1398.62395,0.23810
1397.13416,0.23320
1395.64437,0.22547
1394.15458,0.24948
1392.66479,0.26202
1391.17501,0.20260
1389.68522,0.25557
1388.19543,0.21930
1386.70564,0.20180
1385.21585,0.18435
1383.72606,0.29225
1382.23628,0.23314
1380.74649,0.26338
1379.25670,0.23606
1377.76691,0.21743
1376.27712,0.22189
1374.78733,0.34162
1373.29755,0.36347
1371.80776,0.56107
1370.31797,0.51678
1368.82818,0.61367
1367.33839,0.71061
1365.84860,0.85081
1364.35881,1.00835
1362.86903,1.09968
1361.37924,1.16803
1359.88945,1.16154
1358.39966,1.12631
1356.90987,0.90966
1355.42008,0.96093
1353.93030,1.15051
1352.44051,1.13564
1350.95072,1.12082
1349.46093,1.04269
1347.97114,0.71979
1346.48135,0.45742
1344.99156,0.37080
1343.50178,0.35336
1342.01199,0.26972
1340.52220,0.23510
1339.03241,0.23510
1337.54262,0.20923
1336.05283,0.18196
1334.56305,0.15475
1333.07326,0.23848
1331.58347,0.16961
1330.09368,0.19583
1328.60389,0.12706
1327.11410,0.11595
1325.62432,0.14521
1324.13453,0.10252
1322.64474,0.05988
1321.15495,0.06914
1319.66516,0.04244
1318.17537,0.01580
1316.68558,0.07993
1315.19580,0.00299
1313.70601,0.09027
1312.21622,0.08831
1310.72643,0.00000
1309.23664,0.00519
1307.74685,0.09685
1306.25707,0.03877
1304.76728,0.05996
1303.27749,0.08120
1301.78770,0.13274
1300.29791,0.06047
1298.80812,0.04587
1297.31834,0.11196
1295.82855,0.08017
1294.33876,0.11756
1292.84897,0.06284
1291.35918,0.03121
1289.86939,0.04859
1288.37960,0.06603
1286.88982,0.02879
1285.40003,0.01177
1283.91024,0.04664
1282.42045,0.00092
1280.93066,0.03878
1279.44087,0.04788
1277.95109,0.05128
1276.46130,0.00000
1274.97151,0.05465
1273.48172,0.10935
1271.99193,0.05754
1270.50214,0.13251
1269.01235,0.01455
1267.52257,0.12418
1266.03278,0.12730
1264.54299,0.13335
1263.05320,0.09336
1261.56341,0.11103
1260.07362,0.12876
1258.58384,0.14077
1257.09405,0.15572
1255.60426,0.09871
1254.11447,0.11088
1252.62468,0.10006
1251.13489,0.00000
1249.64511,0.01441
1248.15532,0.14120
1246.66553,0.09667
1245.17574,0.05219
1243.68595,0.06681
1242.19616,0.09300
1240.70637,0.05588
1239.21659,0.03609
1237.72680,0.04515
1236.23701,0.05715
1234.74722,0.04327
1233.25743,0.04817
1231.76764,0.05312
1230.27786,0.07396
1228.78807,0.11214
1227.29828,0.09276
1225.80849,0.04175
1224.31870,0.15785
1222.82891,0.07814
1221.33912,0.10794
1219.84934,0.06721
1218.35955,0.02654
1216.86976,0.05361
1215.37997,0.05481
1213.89018,0.03590
1212.40039,0.13513
1210.91061,0.11631
1209.42082,0.03131
1207.93103,0.08173
1206.44124,0.13220
1204.95145,0.03007
1203.46166,0.00000
1201.97188,0.04047
1200.48209,0.09251
1198.99230,0.00059
1197.50251,0.04096
1196.01272,0.07851
1194.52293,0.07578
1193.03314,0.07311
1191.54336,0.09065
1190.05357,0.05351
1188.56378,0.05964
1187.07399,0.12053
1185.58420,0.02019
1184.09441,0.02359
1182.60463,0.02272
1181.11484,0.02190
1179.62505,0.07729
1178.13526,0.05785
1176.64547,0.02982
1175.15568,0.10554
1173.66589,0.10353
1172.17611,0.11310
1170.68632,0.11552
1169.19653,0.11800
1167.70674,0.11908
1166.21695,0.04533
1164.72716,0.14445
1163.23738,0.11976
1161.74759,0.08649
1160.25780,0.11087
1158.76801,0.07770
1157.27822,0.04459
1155.78843,0.00000
1154.29865,0.15937
1152.80886,0.16038
1151.31907,0.08656
1149.82928,0.13664
1148.33949,0.12628
1146.84970,0.14046
1145.35991,0.15468
1143.87013,0.13296
1142.38034,0.21786
1140.89055,0.15880
1139.40076,0.09690
1137.91097,0.15027
1136.42118,0.16337
1134.93140,0.13764
1133.44161,0.11196
1131.95182,0.22602
1130.46203,0.13851
1128.97224,0.23828
1127.48245,0.19984
1125.99266,0.11825
1124.50288,0.15769
1123.01309,0.15829
1121.52330,0.15894
1120.03351,0.11500
1118.54372,0.15176
1117.05393,0.31531
1115.56415,0.20240
1114.07436,0.28539
1112.58457,0.29644
1111.09478,0.30753
1109.60499,0.26108
1108.11520,0.36444
1106.62542,0.43618
1105.13563,0.45036
1103.64584,0.52508
1102.15605,0.49904
1100.66626,0.45145
1099.17647,0.40392
1097.68668,0.37515
1096.19690,0.41269
1094.70711,0.55684
1093.21732,0.42166
1091.72753,0.60336
1090.23774,0.58926
1088.74795,0.57521
1087.25817,0.44312
1085.76838,0.60198
1084.27859,0.63129
1082.78880,0.59152
1081.29901,0.66125
1079.80922,0.65039
1078.31943,0.68422
1076.82965,0.71811
1075.33986,0.66420
1073.85007,0.53833
1072.36028,0.69190
1070.87049,0.52581
1069.38070,0.45195
1067.89092,0.53798
1066.40113,0.62408
1064.91134,0.47836
1063.42155,0.32405
1061.93176,0.35989
1060.44197,0.37850
1058.95219,0.24739
1057.46240,0.32227
1055.97261,0.39720
1054.48282,0.36993
1052.99303,0.35136
1051.50324,0.27811
1050.01345,0.29420
1048.52367,0.39099
1047.03388,0.34670
1045.54409,0.30246
1044.05430,0.18339
1042.56451,0.16518
1041.07472,0.13838
1039.58494,0.07130
1038.09515,0.11661
1036.60536,0.05828
1035.11557,0.00000
1033.62578,0.11178
1032.13599,0.14296
1030.64620,0.17131
1029.15642,0.17667
1027.66663,0.16769
1026.17684,0.15875
1024.68705,0.21611
1023.19726,0.23320
1021.70747,0.16394
1020.21769,0.22433
1018.72790,0.17533
1017.23811,0.20127
1015.74832,0.22726
1014.25853,0.23314
1012.76874,0.34276
1011.27896,0.52443
1009.78917,0.48726
1008.29938,0.60856
1006.80959,0.67662
1005.31980,0.74473
1003.83001,0.81434
1002.34022,0.86671
1000.85044,1.02571
999.36065,1.18476
997.87086,1.26033
996.38107,1.33596
994.89128,1.49804
993.40149,1.53921
991.91171,1.64667
990.42192,1.75706
988.93213,2.00000
987.44234,1.95496
985.95255,1.90998
984.46276,1.79880
982.97297,1.92673
981.48319,1.69468
979.99340,1.62686
978.50361,1.65702
977.01382,1.68723
975.52403,1.69445
974.03424,1.64700
972.54446,1.60248
971.05467,1.63001
969.56488,1.43870
968.07509,1.39578
966.58530,1.35290
965.09551,1.30864
963.60573,1.43149
962.11594,1.35852
960.62615,1.28561
959.13636,1.18683
957.64657,1.08810
956.15678,0.96638
954.66699,1.00601
953.17721,0.96792
951.68742,0.90972
950.19763,0.90773
948.70784,0.90580
947.21805,0.85352
945.72826,0.82145
944.23848,0.78943
942.74869,0.67969
941.25890,0.60745
939.76911,0.58855
938.27932,0.56970
936.78953,0.57538
935.29974,0.73953
933.80996,0.67907
932.32017,0.58986
930.83038,0.63607
929.34059,0.68233
927.85080,0.70561
926.36101,0.70013
924.87123,0.71487
923.38144,0.77574
921.89165,0.71857
920.40186,0.66145
918.91207,0.81177
917.42228,0.67987
915.93250,0.76404
914.44271,0.80506
912.95292,0.78997
911.46313,0.77492
909.97334,0.88811
908.48355,0.86021
906.99376,0.88708
905.50398,0.89961
904.01419,0.97267
902.52440,1.04579
901.03461,1.21112
899.54482,1.17489
898.05503,1.21648
896.56525,1.26100
895.07546,1.23356
893.58567,1.20618
892.09588,1.12700
890.60609,0.94707
889.11630,0.84207
887.62651,0.94738
886.13673,1.00235
884.64694,1.05736
883.15715,0.96409
881.66736,0.87087
880.17757,0.91596
878.68778,0.88477
877.19800,0.85364
875.70821,0.85279
874.21842,0.71951
872.72863,0.73893
871.23884,0.67488
869.74905,0.64832
868.25927,0.62181
866.76948,0.60400
865.27969,0.45951
863.78990,0.54260
862.30011,0.47022
860.81032,0.50158
859.32053,0.53298
857.83075,0.52124
856.34096,0.54123
854.85117,0.34525
853.36138,0.37975
851.87159,0.39413
850.38180,0.40857
848.89202,0.29921
847.40223,0.27630
845.91244,0.20737
844.42265,0.20761
842.93286,0.20790
841.44307,0.13336
839.95329,0.10495
838.46350,0.13132
836.97371,0.14334
835.48392,0.18710
833.99413,0.23091
832.50434,0.12211
831.01455,0.09690
829.52477,0.08901
828.03498,0.14743
826.54519,0.15549
825.05540,0.16360
823.56561,0.15880
822.07582,0.12238
820.58604,0.13497
819.09625,0.10440
817.60646,0.07389
816.11667,0.06359
814.62688,0.11671
813.13709,0.12668
811.64730,0.17702
810.15752,0.13812
808.66773,0.09928
807.17794,0.00000
805.68815,0.14595
804.19836,0.03273
802.70857,0.09958
801.21879,0.16648
799.72900,0.17727
798.23921,0.19099
796.74942,0.20764
795.25963,0.23586
793.76984,0.26413
792.28006,0.23197
790.79027,0.32948
789.30048,0.26286
787.81069,0.29710
786.32090,0.30835
784.83111,0.31965
783.34132,0.28492
781.85154,0.27617
780.36175,0.34811
778.87196,0.35818
777.38217,0.36830
775.89238,0.35687
774.40259,0.28789
772.91281,0.34857
771.42302,0.40498
769.93323,0.46144
768.44344,0.43875
766.95365,0.35850
765.46386,0.38488
763.97407,0.31913
762.48429,0.30817
760.99450,0.29725
759.50471,0.27487
758.01492,0.22662
756.52513,0.21298
755.03534,0.18931
753.54556,0.16569
752.05577,0.08884
750.56598,0.19638
749.07619,0.02747
747.58640,0.07030
746.09661,0.11319
744.60683,0.12012
743.11704,0.11559
741.62725,0.16295
740.13746,0.12252
738.64767,0.08214
737.15788,0.13830
735.66809,0.13402
734.17831,0.11828
732.68852,0.14867
731.19873,0.17911
729.70894,0.11167
728.21915,0.15374
726.72936,0.00000
725.23958,0.09225
723.74979,0.10246
722.26000,0.11273
720.77021,0.12160
719.28042,0.09309
717.79063,0.08766
716.30084,0.06501
714.81106,0.04241
713.32127,0.05730
711.83148,0.16730
710.34169,0.13621
708.85190,0.08790
707.36211,0.03963
705.87233,0.18152
704.38254,0.09303
702.89275,0.07948
701.40296,0.12935
699.91317,0.17928
698.42338,0.16877
696.93360,0.39737
695.44381,0.40136
693.95402,0.41260
692.46423,0.42390
690.97444,0.23507
689.48465,0.10678
687.99486,0.08799
686.50508,0.14269
685.01529,0.19745
683.52550,0.14137
682.03571,0.14295
680.54592,0.08985
679.05613,0.14050
677.56635,0.19119
676.07656,0.00000
674.58677,0.12387
673.09698,0.19307
671.60719,0.19175
670.11740,0.19049
668.62761,0.15327
667.13783,0.01241
665.64804,0.04730
664.15825,0.08225
662.66846,0.08844
661.17867,0.07740
659.68888,0.14419
658.19910,0.10733
656.70931,0.07053
655.21952,0.13458
653.72973,0.15837
652.23994,0.19084
650.75015,0.16288
649.26037,0.13498
647.77058,0.27994
646.28079,0.29534
644.79100,0.39432
643.30121,0.30614
641.81142,0.21801
640.32163,0.20193
638.83185,0.11102
637.34206,0.00000
635.85227,0.05144
634.36248,0.10293
632.87269,0.09831
631.38290,0.07934
629.89312,0.12091
628.40333,0.12220
626.91354,0.12354
625.42375,0.09326
623.93396,0.08607
622.44417,0.12501
620.95438,0.16401
619.46460,0.11088
617.97481,0.07798
616.48502,0.18049
614.99523,0.09584
613.50544,0.01124
612.01565,0.08799
610.52587,0.10719
609.03608,0.12932
607.54629,0.13565
606.05650,0.14204
604.56671,0.07791
603.07692,0.17802
601.58714,0.21912
600.09735,0.26028
598.60756,0.13587
597.11777,0.00000
595.62798,0.14090
594.13819,0.12200
592.64840,0.10315
591.15862,0.17219
589.66883,0.13185
588.17904,0.16067
586.68925,0.16939
585.19946,0.17816
583.70967,0.25035
582.21989,0.24770
580.73010,0.21918
579.24031,0.19072
577.75052,0.25735
576.26073,0.35284
574.77094,0.30436
573.28115,0.28330
571.79137,0.26229
570.30158,0.39255
568.81179,0.45085
567.32200,0.45016
565.83221,0.44952
564.34242,0.55118
562.85264,0.61257
561.36285,0.60489
559.87306,0.72398
558.38327,0.84313
556.89348,0.76071
555.40369,0.79356
553.91391,0.84230
552.42412,0.89108
550.93433,0.84344
549.44454,0.85633
547.95475,0.83182
546.46496,0.85202
544.97517,0.87226
543.48539,0.90264
541.99560,0.93306
540.50581,0.90162
539.01602,0.87023
537.52623,1.14275
536.03644,1.09562
534.54666,1.05430
533.05687,1.00007
531.56708,0.94589
530.07729,0.81256
528.58750,0.71384
527.09771,0.68718
525.60792,0.66057
524.11814,0.59945
522.62835,0.60751
521.13856,0.70202
519.64877,0.67130
518.15898,0.64063
516.66919,0.56249
515.17941,0.59096
513.68962,0.49852
512.19983,0.40613
510.71004,0.44628
509.22025,0.39720
507.73046,0.32225
506.24068,0.30495
504.75089,0.28770
503.26110,0.37996
501.77131,0.38874
500.28152,0.34717
498.79173,0.30565
497.30194,0.20801
495.81216,0.09603
494.32237,0.22459
492.83258,0.35322
491.34279,0.14922
489.85300,0.08928
488.36321,0.21086
486.87343,0.22304
485.38364,0.23526
483.89385,0.14961
482.40406,0.24547
480.91427,0.24058
479.42448,0.23573
477.93469,0.10132
476.44491,0.04185
474.95512,0.11781
473.46533,0.19381
471.97554,0.11722
470.48575,0.09252
468.99596,0.12548
467.50618,0.13400
466.01639,0.14258
464.52660,0.00000
463.03681,0.12971
461.54702,0.14715
460.05723,0.16464
458.56745,0.10441
457.07766,0.23145
455.58787,0.18717
454.09808,0.14294
452.60829,0.16933
451.11850,0.04023
449.62871,0.10560
448.13893,0.17103
446.64914,0.34740
445.15935,0.29628
443.66956,0.35754
442.17977,0.45917
440.68998,0.56086
439.20020,0.38609
437.71041,0.38995
436.22062,0.50907
434.73083,0.62825
433.24104,0.63803
431.75125,0.72562
430.26146,0.74414
428.77168,0.76271
427.28189,0.88503
425.79210,0.91810
424.30231,1.12549
422.81252,1.33292
421.32273,1.72907
419.83295,1.73643
418.34316,1.65167
416.85337,1.56697
415.36358,1.06756
413.87379,0.95127
412.38400,0.88257
410.89422,0.81391
409.40443,1.04917
407.91464,0.98206
406.42485,1.06189
404.93506,1.06689
403.44527,1.07194
401.95548,0.88118
400.46570,0.78552
398.97591,0.78208
397.48612,0.77870
395.99633,0.89921
394.50654,0.98522
393.01675,0.94742
391.52697,0.90968
390.03718,0.96416
388.54739,0.77386
387.05760,0.74636
385.56781,0.71890
384.07802,0.72750
382.58824,0.75343
381.09845,0.64405
379.60866,0.53471
378.11887,0.48303
376.62908,0.52933
375.13929,0.52816
373.64950,0.52704
372.15972,0.51301
370.66993,0.33486
369.18014,0.33101
367.69035,0.32722
366.20056,0.26155
364.71077,0.29674
363.22099,0.27582
361.73120,0.25495
360.24141,0.19525
358.75162,0.10104
357.26183,0.16673
355.77204,0.23248
354.28225,0.15858
352.79247,0.19995
351.30268,0.15640
349.81289,0.11290
348.32310,0.26675
346.83331,0.12975
345.34352,0.08928
343.85374,0.04887
342.36395,0.11652
340.87416,0.19863
339.38437,0.21453
337.89458,0.23049
336.40479,0.13994
334.91501,0.12144
333.42522,0.11739
331.93543,0.11339
330.44564,0.00000
328.95585,0.06626
327.46606,0.12824
325.97627,0.19028
324.48649,0.18468
322.99670,0.25691
321.50691,0.21829
320.01712,0.17972
318.52733,0.21178
317.03754,0.03362
315.54776,0.03554
314.05797,0.03750
312.56818,0.06400
311.07839,0.12224
309.58860,0.06243
308.09881,0.00268
306.60902,0.00000
305.11924,0.06494
303.62945,0.11266
302.13966,0.16042
300.64987,0.00950
299.16008,0.00000
