1778.52000,0.05308
1777.03021,0.07726
1775.54042,0.07838
1774.05063,0.06379
1772.56085,0.04506
1771.07106,0.09781
1769.58127,0.09914
1768.09148,0.08477
1766.60169,0.05994
1765.11190,0.05617
1763.62212,0.00518
1762.13233,0.03934
1760.64254,0.07880
1759.15275,0.09310
1757.66296,0.07383
1756.17317,0.03677
1754.68339,0.06383
1753.19360,0.03947
1751.70381,0.04772
1750.21402,0.05708
1748.72423,0.02027
1747.23444,0.04234
1745.74465,0.01825
1744.25487,0.00890
1742.76508,0.03113
1741.27529,0.04921
1739.78550,0.04107
1738.29571,0.02564
1736.80592,0.06488
1735.31614,0.07581
1733.82635,0.03427
1732.33656,0.05581
1730.84677,0.04273
1729.35698,0.01185
1727.86719,0.00518
1726.37740,0.01992
1724.88762,0.02946
1723.39783,0.02960
1721.90804,0.02244
1720.41825,0.01007
1718.92846,0.02500
1717.43867,0.07990
1715.94889,0.04345
1714.45910,0.06484
1712.96931,0.05792
1711.47952,0.05735
1709.98973,0.04422
1708.49994,0.04901
1707.01016,0.05595
1705.52037,0.06294
1704.03058,0.07418
1702.54079,0.04451
1701.05100,0.08423
1699.56121,0.03470
1698.07142,0.00518
1696.58164,0.01650
1695.09185,0.10245
1693.60206,0.07711
1692.11227,0.04761
1690.62248,0.07279
1689.13269,0.08962
1687.64291,0.09074
1686.15312,0.09192
1684.66333,0.05848
1683.17354,0.07762
1681.68375,0.11047
1680.19396,0.09504
1678.70417,0.06391
1677.21439,0.09587
1675.72460,0.08585
1674.23481,0.09270
1672.74502,0.07648
1671.25523,0.09184
1669.76544,0.07678
1668.27566,0.07963
1666.78587,0.09934
1665.29608,0.10754
1663.80629,0.11160
1662.31650,0.11886
1660.82671,0.09571
1659.33693,0.11778
1657.84714,0.10524
1656.35735,0.07490
1654.86756,0.02989
1653.37777,0.04377
1651.88798,0.08081
1650.39819,0.08323
1648.90841,0.08781
1647.41862,0.08089
1645.92883,0.07821
1644.43904,0.07560
1642.94925,0.09194
1641.45946,0.04110
1639.96968,0.00817
1638.47989,0.03728
1636.99010,0.01706
1635.50031,0.01896
1634.01052,0.07343
1632.52073,0.05231
1631.03094,0.05857
1629.54116,0.06382
1628.05137,0.07438
1626.56158,0.05978
1625.07179,0.06309
1623.58200,0.03599
1622.09221,0.02365
1620.60243,0.04182
1619.11264,0.01697
1617.62285,0.03210
1616.13306,0.03782
1614.64327,0.06146
1613.15348,0.07464
1611.66370,0.05530
1610.17391,0.07489
1608.68412,0.06617
1607.19433,0.04804
1605.70454,0.05623
1604.21475,0.05869
1602.72496,0.06121
1601.23518,0.06430
1599.74539,0.01702
1598.25560,0.01077
1596.76581,0.03712
1595.27602,0.06984
1593.78623,0.06899
1592.29645,0.03458
1590.80666,0.04959
1589.31687,0.02894
1587.82708,0.00518
1586.33729,0.05261
1584.84750,0.06123
1583.35771,0.07200
1581.86793,0.05130
1580.37814,0.03171
1578.88835,0.06154
1577.39856,0.02630
1575.90877,0.05518
1574.41898,0.05366
1572.92920,0.02802
1571.43941,0.04761
1569.94962,0.04466
1568.45983,0.04177
1566.97004,0.04260
1565.48025,0.04139
1563.99047,0.05599
1562.50068,0.07378
1561.01089,0.06537
1559.52110,0.02340
1558.03131,0.06131
1556.54152,0.02365
1555.05173,0.05746
1553.56195,0.06717
1552.07216,0.06642
1550.58237,0.02791
1549.09258,0.03778
1547.60279,0.07291
1546.11300,0.13435
1544.62322,0.11915
1543.13343,0.09246
1541.64364,0.03850
1540.15385,0.05393
1538.66406,0.06941
1537.17427,0.04608
1535.68448,0.02910
1534.19470,0.02372
1532.70491,0.06042
1531.21512,0.01839
1529.72533,0.02157
1528.23554,0.02796
1526.74575,0.07958
1525.25597,0.00518
1523.76618,0.07251
1522.27639,0.04954
1520.78660,0.04764
1519.29681,0.03633
1517.80702,0.05344
1516.31724,0.06009
1514.82745,0.07730
1513.33766,0.05465
1511.84787,0.03204
1510.35808,0.02945
1508.86829,0.05948
1507.37850,0.04859
1505.88872,0.00518
1504.39893,0.02411
1502.90914,0.04729
1501.41935,0.03165
1499.92956,0.05808
1498.43977,0.05411
1496.94999,0.07434
1495.46020,0.03475
1493.97041,0.05194
1492.48062,0.07338
1490.99083,0.07491
1489.50104,0.11957
1488.01125,0.11018
1486.52147,0.10084
1485.03168,0.14145
1483.54189,0.18106
1482.05210,0.14089
1480.56231,0.16800
1479.07252,0.25714
1477.58274,0.29276
1476.09295,0.27906
1474.60316,0.26856
1473.11337,0.30748
1471.62358,0.28133
1470.13379,0.25628
1468.64401,0.23129
1467.15422,0.26307
1465.66443,0.23187
1464.17464,0.20073
1462.68485,0.25262
1461.19506,0.22368
1459.70527,0.22421
1458.21549,0.12184
1456.72570,0.11722
1455.23591,0.15677
1453.74612,0.15856
1452.25633,0.14569
1450.76654,0.15598
1449.27676,0.10855
1447.78697,0.11790
1446.29718,0.04956
1444.80739,0.07004
1443.31760,0.09058
1441.82781,0.09488
1440.33802,0.11709
1438.84824,0.09629
1437.35845,0.05978
1435.86866,0.03803
1434.37887,0.02158
1432.88908,0.00518
1431.39929,0.08394
1429.90951,0.05036
1428.41972,0.07354
1426.92993,0.16507
1425.44014,0.08016
1423.95035,0.08354
1422.46056,0.08698
1420.97078,0.09257
1419.48099,0.10872
1417.99120,0.13543
1416.50141,0.10756
1415.01162,0.08920
1413.52183,0.09820
1412.03204,0.06838
1410.54226,0.08589
1409.05247,0.09190
1407.56268,0.10426
1406.07289,0.05050
1404.58310,0.05719
1403.09331,0.06393
1401.60353,0.05759
1400.11374,0.06391
1398.62395,0.08499
1397.13416,0.09351
1395.64437,0.11469
1394.15458,0.06975
1392.66479,0.03641
1391.17501,0.05460
1389.68522,0.04552
1388.19543,0.05226
1386.70564,0.05274
1385.21585,0.05328
1383.72606,0.01710
1382.23628,0.01459
1380.74649,0.03209
1379.25670,0.03494
1377.76691,0.10822
1376.27712,0.14163
1374.78733,0.13623
1373.29755,0.16555
1371.80776,0.23273
1370.31797,0.24325
1368.82818,0.29530
1367.33839,0.34741
1365.84860,0.30871
1364.35881,0.41922
1362.86903,0.45521
1361.37924,0.46498
1359.88945,0.50632
1358.39966,0.43006
1356.90987,0.35595
1355.42008,0.31866
1353.93030,0.37807
1352.44051,0.39866
1350.95072,0.41930
1349.46093,0.35911
1347.97114,0.22544
1346.48135,0.24098
1344.99156,0.16834
1343.50178,0.13672
1342.01199,0.14402
1340.52220,0.15347
1339.03241,0.13777
1337.54262,0.09585
1336.05283,0.09495
1334.56305,0.09411
1333.07326,0.06915
1331.58347,0.08207
1330.09368,0.03306
1328.60389,0.05868
1327.11410,0.03919
1325.62432,0.06072
1324.13453,0.03923
1322.64474,0.00518
1321.15495,0.01738
1319.66516,0.01386
1318.17537,0.01040
1316.68558,0.04376
1315.19580,0.02884
1313.70601,0.03709
1312.21622,0.03279
1310.72643,0.04324
1309.23664,0.01803
1307.74685,0.04015
1306.25707,0.04446
1304.76728,0.05354
1303.27749,0.06268
1301.78770,0.05244
1300.29791,0.02964
1298.80812,0.00900
1297.31834,0.00522
1295.82855,0.06872
1294.33876,0.02302
1292.84897,0.04040
1291.35918,0.04943
1289.86939,0.04486
1288.37960,0.04033
1286.88982,0.03797
1285.40003,0.00518
1283.91024,0.04175
1282.42045,0.09939
1280.93066,0.00685
1279.44087,0.04883
1277.95109,0.02783
1276.46130,0.02895
1274.97151,0.04377
1273.48172,0.05865
1271.99193,0.06412
1270.50214,0.06019
1269.01235,0.02375
1267.52257,0.04723
1266.03278,0.06237
1264.54299,0.08386
1263.05320,0.07704
1261.56341,0.09443
1260.07362,0.11188
1258.58384,0.10521
1257.09405,0.09650
1255.60426,0.09729
1254.11447,0.06347
1252.62468,0.06121
1251.13489,0.04641
1249.64511,0.03795
1248.15532,0.04216
1246.66553,0.04746
1245.17574,0.05282
1243.68595,0.01622
1242.19616,0.05634
1240.70637,0.08812
1239.21659,0.08003
1237.72680,0.06044
1236.23701,0.00518
1234.74722,0.02073
1233.25743,0.04054
1231.76764,0.06039
1230.27786,0.09501
1228.78807,0.02463
1227.29828,0.02153
1225.80849,0.02689
1224.31870,0.03125
1222.82891,0.04301
1221.33912,0.00966
1219.84934,0.03886
1218.35955,0.06811
1216.86976,0.06013
1215.37997,0.06059
1213.89018,0.04851
1212.40039,0.07325
1210.91061,0.07492
1209.42082,0.07350
1207.93103,0.07475
1206.44124,0.07606
1204.95145,0.05588
1203.46166,0.02946
1201.97188,0.00518
1200.48209,0.07492
1198.99230,0.02181
1197.50251,0.02442
1196.01272,0.02814
1194.52293,0.03821
1193.03314,0.04833
1191.54336,0.04485
1190.05357,0.00886
1188.56378,0.05065
1187.07399,0.05153
1185.58420,0.09132
1184.09441,0.02612
1182.60463,0.01980
1181.11484,0.01353
1179.62505,0.05039
1178.13526,0.04737
1176.64547,0.06017
1175.15568,0.08457
1173.66589,0.08592
1172.17611,0.07261
1170.68632,0.07879
1169.19653,0.08501
1167.70674,0.09812
1166.21695,0.00518
1164.72716,0.10497
1163.23738,0.06929
1161.74759,0.05047
1160.25780,0.02750
1158.76801,0.03715
1157.27822,0.04685
1155.78843,0.10703
1154.29865,0.05065
1152.80886,0.08257
1151.31907,0.10194
1149.82928,0.00790
1148.33949,0.08094
1146.84970,0.09994
1145.35991,0.11898
1143.87013,0.06717
1142.38034,0.04273
1140.89055,0.08767
1139.40076,0.16943
1137.91097,0.11783
1136.42118,0.13981
1134.93140,0.12613
1133.44161,0.11251
1131.95182,0.13570
1130.46203,0.15159
1128.97224,0.13497
1127.48245,0.13415
1125.99266,0.15965
1124.50288,0.19991
1123.01309,0.16354
1121.52330,0.12722
1120.03351,0.09725
1118.54372,0.18709
1117.05393,0.21185
1115.56415,0.22722
1114.07436,0.26469
1112.58457,0.26440
1111.09478,0.26415
1109.60499,0.26292
1108.11520,0.26698
1106.62542,0.32047
1105.13563,0.38977
1103.64584,0.40870
1102.15605,0.42453
1100.66626,0.42517
1099.17647,0.42588
1097.68668,0.49859
1096.19690,0.42008
1094.70711,0.50025
1093.21732,0.53110
1091.72753,0.57565
1090.23774,0.52992
1088.74795,0.48424
1087.25817,0.56047
1085.76838,0.55061
1084.27859,0.55655
1082.78880,0.65815
1081.29901,0.61693
1079.80922,0.60518
1078.31943,0.61133
1076.82965,0.61754
1075.33986,0.57023
1073.85007,0.49040
1072.36028,0.54089
1070.87049,0.50213
1069.38070,0.47919
1067.89092,0.47678
1066.40113,0.47443
1064.91134,0.44008
1063.42155,0.42365
1061.93176,0.36000
1060.44197,0.33211
1058.95219,0.27067
1057.46240,0.30329
1055.97261,0.33596
1054.48282,0.27467
1052.99303,0.27121
1051.50324,0.18691
1050.01345,0.21822
1048.52367,0.22121
1047.03388,0.22111
1045.54409,0.22106
1044.05430,0.18954
1042.56451,0.08035
1041.07472,0.12877
1039.58494,0.06695
1038.09515,0.00518
1036.60536,0.02902
1035.11557,0.05291
1033.62578,0.02380
1032.13599,0.11870
1030.64620,0.11491
1029.15642,0.18470
1027.66663,0.15528
1026.17684,0.12590
1024.68705,0.13387
1023.19726,0.12089
1021.70747,0.18148
1020.21769,0.16440
1018.72790,0.13896
1017.23811,0.21127
1015.74832,0.28364
1014.25853,0.37181
1012.76874,0.44007
1011.27896,0.51259
1009.78917,0.65344
1008.29938,0.69770
1006.80959,0.69841
1005.31980,0.69918
1003.83001,0.73730
1002.34022,0.80382
1000.85044,0.88301
999.36065,1.09986
997.87086,1.18020
996.38107,1.26059
994.89128,1.33578
993.40149,1.47090
991.91171,1.55460
990.42192,1.68878
988.93213,1.82615
987.44234,1.83385
985.95255,1.84160
984.46276,1.80895
982.97297,1.86145
981.48319,1.90980
979.99340,1.93719
978.50361,1.86641
977.01382,1.79569
975.52403,1.90832
974.03424,2.00000
972.54446,1.92470
971.05467,1.98602
969.56488,1.82049
968.07509,1.83989
966.58530,1.85935
965.09551,1.71183
963.60573,1.69147
962.11594,1.67956
960.62615,1.57317
959.13636,1.53721
957.64657,1.50130
956.15678,1.49906
954.66699,1.46746
953.17721,1.35187
951.68742,1.29936
950.19763,1.27842
948.70784,1.25753
947.21805,1.20308
945.72826,1.15288
944.23848,1.13950
942.74869,1.12618
941.25890,1.07508
939.76911,1.07184
938.27932,1.06865
936.78953,1.11751
935.29974,1.07608
933.80996,1.15445
932.32017,1.04484
930.83038,1.07868
929.34059,1.11257
927.85080,1.14388
926.36101,1.11327
924.87123,1.19511
923.38144,1.19401
921.89165,1.22658
920.40186,1.25921
918.91207,1.28138
917.42228,1.27314
915.93250,1.31957
914.44271,1.36081
912.95292,1.37111
911.46313,1.38146
909.97334,1.34616
908.48355,1.34979
906.99376,1.38708
905.50398,1.54418
904.01419,1.52013
902.52440,1.49613
901.03461,1.57460
899.54482,1.54387
898.05503,1.56782
896.56525,1.71788
895.07546,1.69414
893.58567,1.67045
892.09588,1.56855
890.60609,1.45935
889.11630,1.41848
887.62651,1.36611
886.13673,1.33217
884.64694,1.29829
883.15715,1.21772
881.66736,1.17291
880.17757,1.12605
878.68778,1.12179
877.19800,1.11758
875.70821,1.05197
874.21842,0.93914
872.72863,0.87258
871.23884,0.77771
869.74905,0.75066
868.25927,0.72365
866.76948,0.69197
865.27969,0.63302
863.78990,0.62665
862.30011,0.54576
860.81032,0.53004
859.32053,0.51437
857.83075,0.41787
856.34096,0.42437
854.85117,0.37630
853.36138,0.36189
851.87159,0.32705
850.38180,0.29227
848.89202,0.28957
847.40223,0.25646
845.91244,0.20765
844.42265,0.17990
842.93286,0.15220
841.44307,0.15922
839.95329,0.14844
838.46350,0.13350
836.97371,0.04823
835.48392,0.05126
833.99413,0.05434
832.50434,0.12155
831.01455,0.11632
829.52477,0.06493
828.03498,0.09868
826.54519,0.09939
825.05540,0.10016
823.56561,0.05108
822.07582,0.05667
820.58604,0.09803
819.09625,0.08115
817.60646,0.06431
816.11667,0.08272
814.62688,0.07177
813.13709,0.04932
811.64730,0.02376
810.15752,0.03397
808.66773,0.04424
807.17794,0.00518
805.68815,0.02434
804.19836,0.02358
802.70857,0.04442
801.21879,0.06530
799.72900,0.11618
798.23921,0.14189
796.74942,0.15506
795.25963,0.19086
793.76984,0.22671
792.28006,0.20011
790.79027,0.21558
789.30048,0.26472
787.81069,0.21622
786.32090,0.24918
784.83111,0.28219
783.34132,0.21914
781.85154,0.25488
780.36175,0.33270
778.87196,0.32758
777.38217,0.32251
775.89238,0.36896
774.40259,0.38186
772.91281,0.33807
771.42302,0.32113
769.93323,0.30424
768.44344,0.31419
766.95365,0.29373
765.46386,0.27122
763.97407,0.27397
762.48429,0.25367
760.99450,0.23341
759.50471,0.21321
758.01492,0.19832
756.52513,0.13830
755.03534,0.14609
753.54556,0.15394
752.05577,0.12244
750.56598,0.03112
749.07619,0.06801
747.58640,0.07291
746.09661,0.07786
744.60683,0.07288
743.11704,0.05851
741.62725,0.02633
740.13746,0.01573
738.64767,0.00518
737.15788,0.02916
735.66809,0.06895
734.17831,0.12455
732.68852,0.08828
731.19873,0.05207
729.70894,0.05109
728.21915,0.06173
726.72936,0.00518
725.23958,0.04111
723.74979,0.03718
722.26000,0.03329
720.77021,0.00740
719.28042,0.00677
717.79063,0.01985
716.30084,0.01775
714.81106,0.01570
713.32127,0.02788
711.83148,0.01911
710.34169,0.01879
708.85190,0.01958
707.36211,0.02042
705.87233,0.00660
704.38254,0.03906
702.89275,0.08732
701.40296,0.05738
699.91317,0.02749
698.42338,0.04124
696.93360,0.13068
695.44381,0.13929
693.95402,0.14060
692.46423,0.14196
690.97444,0.08034
689.48465,0.01562
687.99486,0.00978
686.50508,0.01502
685.01529,0.02032
683.52550,0.05245
682.03571,0.01111
680.54592,0.07546
679.05613,0.04952
677.56635,0.02363
676.07656,0.09234
674.58677,0.08756
673.09698,0.09335
671.60719,0.07292
670.11740,0.05255
668.62761,0.03748
667.13783,0.03611
665.64804,0.02062
664.15825,0.00518
662.66846,0.04622
661.17867,0.06314
659.68888,0.01814
658.19910,0.03750
656.70931,0.05691
655.21952,0.08793
653.72973,0.04442
652.23994,0.09340
650.75015,0.11303
649.26037,0.13270
647.77058,0.12827
646.28079,0.16590
644.79100,0.13951
643.30121,0.13523
641.81142,0.13100
640.32163,0.10267
638.83185,0.09539
637.34206,0.00518
635.85227,0.02309
634.36248,0.04105
632.87269,0.02598
631.38290,0.06873
629.89312,0.10418
628.40333,0.07875
626.91354,0.05338
625.42375,0.07113
623.93396,0.04691
622.44417,0.06056
620.95438,0.07426
619.46460,0.06910
617.97481,0.08606
616.48502,0.03584
614.99523,0.05133
613.50544,0.06687
612.01565,0.01995
610.52587,0.08549
609.03608,0.06179
607.54629,0.07912
606.05650,0.09649
604.56671,0.06769
603.07692,0.05051
601.58714,0.08222
600.09735,0.11398
598.60756,0.09905
597.11777,0.03690
595.62798,0.04624
594.13819,0.02568
592.64840,0.00518
591.15862,0.05670
589.66883,0.14189
588.17904,0.16095
586.68925,0.17639
585.19946,0.19188
583.70967,0.23840
582.21989,0.25977
580.73010,0.28750
579.24031,0.31527
577.75052,0.35361
576.26073,0.41090
574.77094,0.46824
573.28115,0.46734
571.79137,0.46649
570.30158,0.50298
568.81179,0.56684
567.32200,0.59661
565.83221,0.62643
564.34242,0.61901
562.85264,0.71879
561.36285,0.78921
559.87306,0.84970
558.38327,0.91024
556.89348,0.94826
555.40369,0.96531
553.91391,1.03179
552.42412,1.09832
550.93433,1.04409
549.44454,1.07186
547.95475,1.05136
546.46496,1.04981
544.97517,1.04832
543.48539,1.06895
541.99560,1.17261
540.50581,1.17652
539.01602,1.18049
537.52623,1.12044
536.03644,1.06884
534.54666,1.06456
533.05687,1.02672
531.56708,0.98893
530.07729,0.98481
528.58750,0.95553
527.09771,0.90056
525.60792,0.84565
524.11814,0.84068
522.62835,0.80006
521.13856,0.73217
519.64877,0.68429
518.15898,0.63646
516.66919,0.64542
515.17941,0.51681
513.68962,0.52797
512.19983,0.53918
510.71004,0.50212
509.22025,0.51133
507.73046,0.37668
506.24068,0.35396
504.75089,0.33129
503.26110,0.34806
501.77131,0.23673
500.28152,0.24205
498.79173,0.24743
497.30194,0.16146
495.81216,0.19741
494.32237,0.15094
492.83258,0.10453
491.34279,0.06499
489.85300,0.04757
488.36321,0.08482
486.87343,0.07223
485.38364,0.05969
483.89385,0.07504
482.40406,0.00851
480.91427,0.04196
479.42448,0.07547
477.93469,0.03497
476.44491,0.00713
474.95512,0.00613
473.46533,0.00518
471.97554,0.04425
470.48575,0.07392
468.99596,0.08788
467.50618,0.10031
466.01639,0.11280
464.52660,0.07125
463.03681,0.05390
461.54702,0.06917
460.05723,0.08449
458.56745,0.12823
457.07766,0.16152
455.58787,0.16072
454.09808,0.15996
452.60829,0.14193
451.11850,0.16807
449.62871,0.20582
448.13893,0.24362
446.64914,0.33085
445.15935,0.36665
443.66956,0.43086
442.17977,0.43631
440.68998,0.44180
439.20020,0.53454
437.71041,0.56955
436.22062,0.61092
434.73083,0.65234
433.24104,0.74634
431.75125,0.85299
430.26146,0.87461
428.77168,0.89627
427.28189,0.95581
425.79210,1.05112
424.30231,1.07399
422.81252,1.09692
421.32273,1.25541
419.83295,1.25638
418.34316,1.19805
416.85337,1.13978
415.36358,0.94657
413.87379,0.96876
412.38400,0.97472
410.89422,0.98073
409.40443,0.98311
407.91464,1.09690
406.42485,1.03741
404.93506,1.05256
403.44527,1.06776
401.95548,1.10297
400.46570,1.06365
398.97591,1.01546
397.48612,0.96731
395.99633,1.01534
394.50654,0.98778
393.01675,0.96658
391.52697,0.94543
390.03718,0.83714
388.54739,0.78878
387.05760,0.82136
385.56781,0.85400
384.07802,0.94131
382.58824,0.77760
381.09845,0.77940
379.60866,0.78125
378.11887,0.65552
376.62908,0.62019
375.13929,0.61537
373.64950,0.61060
372.15972,0.45252
370.66993,0.40583
369.18014,0.35290
367.69035,0.30002
366.20056,0.29341
364.71077,0.36248
363.22099,0.33182
361.73120,0.30120
360.24141,0.18766
358.75162,0.22017
357.26183,0.20547
355.77204,0.19082
354.28225,0.16047
352.79247,0.17114
351.30268,0.17818
349.81289,0.18528
348.32310,0.10156
346.83331,0.06411
345.34352,0.07819
343.85374,0.09232
342.36395,0.07289
340.87416,0.00518
339.38437,0.02260
337.89458,0.04006
336.40479,0.02134
334.91501,0.05309
333.42522,0.06599
331.93543,0.07893
330.44564,0.04046
328.95585,0.03985
327.46606,0.02249
325.97627,0.00518
324.48649,0.07558
322.99670,0.08405
321.50691,0.11201
320.01712,0.14002
318.52733,0.06146
317.03754,0.01447
315.54776,0.00902
314.05797,0.00362
312.56818,0.09965
311.07839,0.09278
309.58860,0.06863
308.09881,0.04453
306.60902,0.00000
305.11924,0.06477
303.62945,0.06131
302.13966,0.05791
300.64987,0.00518
299.16008,0.00518
