1778.52000,0.11614
1777.03021,0.07154
1775.54042,0.11819
1774.05063,0.07369
1772.56085,0.18462
1771.07106,0.15710
1769.58127,0.09924
1768.09148,0.00426
1766.60169,0.14579
1765.11190,0.07794
1763.62212,0.00000
1762.13233,0.08087
1760.64254,0.10775
1759.15275,0.09076
1757.66296,0.07382
1756.17317,0.06369
1754.68339,0.14481
1753.19360,0.10437
1751.70381,0.07412
1750.21402,0.00000
1748.72423,0.03941
1747.23444,0.06197
1745.74465,0.09810
1744.25487,0.06333
1742.76508,0.14347
1741.27529,0.15272
1739.78550,0.11811
1738.29571,0.11394
1736.80592,0.11996
1735.31614,0.14630
1733.82635,0.10850
1732.33656,0.10791
1730.84677,0.08372
1729.35698,0.14066
1727.86719,0.16724
1726.37740,0.10942
1724.88762,0.09556
1723.39783,0.10540
1721.90804,0.15583
1720.41825,0.04416
1718.92846,0.03388
1717.43867,0.00000
1715.94889,0.14052
1714.45910,0.06490
1712.96931,0.12108
1711.47952,0.04556
1709.98973,0.08832
1708.49994,0.05681
1707.01016,0.09629
1705.52037,0.13582
1704.03058,0.07068
1702.54079,0.12044
1701.05100,0.08242
1699.56121,0.10526
1698.07142,0.10787
1696.58164,0.04298
1695.09185,0.10987
1693.60206,0.15655
1692.11227,0.05465
1690.62248,0.08453
1689.13269,0.14149
1687.64291,0.10392
1686.15312,0.07652
1684.66333,0.04580
1683.17354,0.08945
1681.68375,0.05544
1680.19396,0.13297
1678.70417,0.12947
1677.21439,0.15641
1675.72460,0.14626
1674.23481,0.15304
1672.74502,0.11258
1671.25523,0.10256
1669.76544,0.11963
1668.27566,0.17390
1666.78587,0.09647
1665.29608,0.05626
1663.80629,0.16810
1662.31650,0.05029
1660.82671,0.23992
1659.33693,0.07492
1657.84714,0.00792
1656.35735,0.15041
1654.86756,0.14094
1653.37777,0.09774
1651.88798,0.12552
1650.39819,0.13309
1648.90841,0.13733
1647.41862,0.09094
1645.92883,0.13075
1644.43904,0.17060
1642.94925,0.10072
1641.45946,0.06467
1639.96968,0.19757
1638.47989,0.16837
1636.99010,0.11557
1635.50031,0.01554
1634.01052,0.00000
1632.52073,0.10635
1631.03094,0.13506
1629.54116,0.06585
1628.05137,0.21964
1626.56158,0.09311
1625.07179,0.18619
1623.58200,0.09016
1622.09221,0.02458
1620.60243,0.13808
1619.11264,0.06246
1617.62285,0.00716
1616.13306,0.03636
1614.64327,0.08587
1613.15348,0.12530
1611.66370,0.11074
1610.17391,0.07595
1608.68412,0.05134
1607.19433,0.07070
1605.70454,0.17794
1604.21475,0.11126
1602.72496,0.04462
1601.23518,0.01351
1599.74539,0.05001
1598.25560,0.06966
1596.76581,0.07585
1595.27602,0.12262
1593.78623,0.08162
1592.29645,0.15552
1590.80666,0.02341
1589.31687,0.09065
1587.82708,0.08363
1586.33729,0.01584
1584.84750,0.03932
1583.35771,0.05271
1581.86793,0.06952
1580.37814,0.06612
1578.88835,0.11006
1577.39856,0.10000
1575.90877,0.15079
1574.41898,0.07665
1572.92920,0.05998
1571.43941,0.06025
1569.94962,0.07915
1568.45983,0.09810
1566.97004,0.05798
1565.48025,0.00440
1563.99047,0.02180
1562.50068,0.11020
1561.01089,0.10743
1559.52110,0.00000
1558.03131,0.06574
1556.54152,0.11464
1555.05173,0.07239
1553.56195,0.03356
1552.07216,0.08937
1550.58237,0.14860
1549.09258,0.10316
1547.60279,0.16249
1546.11300,0.34010
1544.62322,0.32521
1543.13343,0.26984
1541.64364,0.11993
1540.15385,0.08324
1538.66406,0.04659
1537.17427,0.08937
1535.68448,0.11194
1534.19470,0.08726
1532.70491,0.00521
1531.21512,0.05157
1529.72533,0.07095
1528.23554,0.12079
1526.74575,0.07271
1525.25597,0.08549
1523.76618,0.04426
1522.27639,0.08416
1520.78660,0.06330
1519.29681,0.09654
1517.80702,0.10957
1516.31724,0.11588
1514.82745,0.11211
1513.33766,0.05603
1511.84787,0.00000
1510.35808,0.09471
1508.86829,0.09150
1507.37850,0.08159
1505.88872,0.01768
1504.39893,0.00449
1502.90914,0.07918
1501.41935,0.03906
1499.92956,0.18141
1498.43977,0.03667
1496.94999,0.09128
1495.46020,0.11217
1493.97041,0.06892
1492.48062,0.06288
1490.99083,0.07715
1489.50104,0.16579
1488.01125,0.13119
1486.52147,0.09663
1485.03168,0.18541
1483.54189,0.29114
1482.05210,0.19086
1480.56231,0.20886
1479.07252,0.24041
1477.58274,0.23824
1476.09295,0.29692
1474.60316,0.15635
1473.11337,0.15770
1471.62358,0.28747
1470.13379,0.32608
1468.64401,0.25326
1467.15422,0.27170
1465.66443,0.21250
1464.17464,0.15334
1462.68485,0.14829
1461.19506,0.08247
1459.70527,0.20925
1458.21549,0.14354
1456.72570,0.04747
1455.23591,0.13386
1453.74612,0.17977
1452.25633,0.13790
1450.76654,0.14674
1449.27676,0.16577
1447.78697,0.14431
1446.29718,0.15668
1444.80739,0.14715
1443.31760,0.13766
1441.82781,0.09613
1440.33802,0.08505
1438.84824,0.19901
1437.35845,0.17114
1435.86866,0.13319
1434.37887,0.03786
1432.88908,0.00000
1431.39929,0.07597
1429.90951,0.09794
1428.41972,0.17062
1426.92993,0.10824
1425.44014,0.16414
1423.95035,0.19137
1422.46056,0.21865
1420.97078,0.07540
1419.48099,0.17878
1417.99120,0.23830
1416.50141,0.14924
1415.01162,0.21899
1413.52183,0.14016
1412.03204,0.07827
1410.54226,0.14817
1409.05247,0.09989
1407.56268,0.19015
1406.07289,0.08117
1404.58310,0.11580
1403.09331,0.15047
1401.60353,0.13622
1400.11374,0.14566
1398.62395,0.08083
1397.13416,0.12077
1395.64437,0.16076
1394.15458,0.11635
1392.66479,0.12266
1391.17501,0.18644
1389.68522,0.12529
1388.19543,0.00000
1386.70564,0.06795
1385.21585,0.13596
1383.72606,0.13138
1382.23628,0.10997
1380.74649,0.09536
1379.25670,0.06053
1377.76691,0.25883
1376.27712,0.21396
1374.78733,0.14550
1373.29755,0.22572
1371.80776,0.22830
1370.31797,0.30186
1368.82818,0.30284
1367.33839,0.30387
1365.84860,0.30664
1364.35881,0.35338
1362.86903,0.41030
1361.37924,0.43010
1359.88945,0.52428
1358.39966,0.50365
1356.90987,0.40200
1355.42008,0.34769
1353.93030,0.67513
1352.44051,0.66653
1350.95072,0.65797
1349.46093,0.51602
1347.97114,0.37751
1346.48135,0.17487
1344.99156,0.12428
1343.50178,0.21224
1342.01199,0.30362
1340.52220,0.21602
1339.03241,0.15212
1337.54262,0.14569
1336.05283,0.12411
1334.56305,0.10258
1333.07326,0.16048
1331.58347,0.14749
1330.09368,0.12441
1328.60389,0.14868
1327.11410,0.06490
1325.62432,0.12643
1324.13453,0.09004
1322.64474,0.01316
1321.15495,0.11537
1319.66516,0.08757
1318.17537,0.05983
1316.68558,0.08787
1315.19580,0.15311
1313.70601,0.03599
1312.21622,0.00000
1310.72643,0.06849
1309.23664,0.09649
1307.74685,0.04009
1306.25707,0.05130
1304.76728,0.10647
1303.27749,0.16169
1301.78770,0.08184
1300.29791,0.08312
1298.80812,0.10133
1297.31834,0.01487
1295.82855,0.13114
1294.33876,0.13937
1292.84897,0.02941
1291.35918,0.05800
1289.86939,0.09171
1288.37960,0.12546
1286.88982,0.04948
1285.40003,0.12556
1283.91024,0.12738
1282.42045,0.09546
1280.93066,0.03994
1279.44087,0.13986
1277.95109,0.00000
1276.46130,0.14580
1274.97151,0.14639
1273.48172,0.14704
1271.99193,0.08017
1270.50214,0.23968
1269.01235,0.07833
1267.52257,0.13660
1266.03278,0.24221
1264.54299,0.13843
1263.05320,0.06510
1261.56341,0.08979
1260.07362,0.11452
1258.58384,0.12241
1257.09405,0.16751
1255.60426,0.26671
1254.11447,0.17341
1252.62468,0.12069
1251.13489,0.11870
1249.64511,0.16742
1248.15532,0.00000
1246.66553,0.07944
1245.17574,0.15894
1243.68595,0.09661
1242.19616,0.20660
1240.70637,0.16126
1239.21659,0.10583
1237.72680,0.13828
1236.23701,0.15726
1234.74722,0.06482
1233.25743,0.08728
1231.76764,0.10979
1230.27786,0.09182
1228.78807,0.14145
1227.29828,0.09993
1225.80849,0.07534
1224.31870,0.06094
1222.82891,0.02632
1221.33912,0.09647
1219.84934,0.13626
1218.35955,0.17610
1216.86976,0.06399
1215.37997,0.08028
1213.89018,0.10001
1212.40039,0.10964
1210.91061,0.06528
1209.42082,0.05137
1207.93103,0.07974
1206.44124,0.10815
1204.95145,0.13154
1203.46166,0.00636
1201.97188,0.02985
1200.48209,0.03650
1198.99230,0.02294
1197.50251,0.14116
1196.01272,0.13783
1194.52293,0.09907
1193.03314,0.06037
1191.54336,0.05718
1190.05357,0.00000
1188.56378,0.05169
1187.07399,0.08992
1185.58420,0.15860
1184.09441,0.12261
1182.60463,0.12551
1181.11484,0.12847
1179.62505,0.01494
1178.13526,0.13115
1176.64547,0.05150
1175.15568,0.00567
1173.66589,0.00042
1172.17611,0.22155
1170.68632,0.11338
1169.19653,0.00526
1167.70674,0.09479
1166.21695,0.01548
1164.72716,0.14903
1163.23738,0.10022
1161.74759,0.09536
1160.25780,0.05003
1158.76801,0.06048
1157.27822,0.07098
1155.78843,0.00552
1154.29865,0.06172
1152.80886,0.07405
1151.31907,0.02563
1149.82928,0.06509
1148.33949,0.04717
1146.84970,0.06983
1145.35991,0.09255
1143.87013,0.11193
1142.38034,0.12799
1140.89055,0.13058
1139.40076,0.09945
1137.91097,0.17308
1136.42118,0.08123
1134.93140,0.12287
1133.44161,0.16456
1131.95182,0.15056
1130.46203,0.13660
1128.97224,0.12270
1127.48245,0.17303
1125.99266,0.17273
1124.50288,0.10493
1123.01309,0.17398
1121.52330,0.24309
1120.03351,0.08760
1118.54372,0.19903
1117.05393,0.23281
1115.56415,0.21935
1114.07436,0.19918
1112.58457,0.22805
1111.09478,0.25696
1109.60499,0.33152
1108.11520,0.22372
1106.62542,0.26798
1105.13563,0.31229
1103.64584,0.38367
1102.15605,0.36390
1100.66626,0.35937
1099.17647,0.35490
1097.68668,0.48052
1096.19690,0.43730
1094.70711,0.40764
1093.21732,0.47261
1091.72753,0.49033
1090.23774,0.49966
1088.74795,0.50904
1087.25817,0.55732
1085.76838,0.61240
1084.27859,0.50877
1082.78880,0.43896
1081.29901,0.51108
1079.80922,0.59676
1078.31943,0.56088
1076.82965,0.52505
1075.33986,0.67844
1073.85007,0.65960
1072.36028,0.45502
1070.87049,0.39912
1069.38070,0.49866
1067.89092,0.44623
1066.40113,0.39386
1064.91134,0.32802
1063.42155,0.36357
1061.93176,0.35526
1060.44197,0.40104
1058.95219,0.27122
1057.46240,0.27994
1055.97261,0.28871
1054.48282,0.27727
1052.99303,0.18818
1051.50324,0.21399
1050.01345,0.30741
1048.52367,0.26575
1047.03388,0.24780
1045.54409,0.22989
1044.05430,0.23568
1042.56451,0.05235
1041.07472,0.07175
1039.58494,0.08106
1038.09515,0.04313
1036.60536,0.10152
1035.11557,0.15996
1033.62578,0.20325
1032.13599,0.00000
1030.64620,0.04827
1029.15642,0.04254
1027.66663,0.08415
1026.17684,0.12581
1024.68705,0.07970
1023.19726,0.23293
1021.70747,0.24772
1020.21769,0.15108
1018.72790,0.22001
1017.23811,0.23156
1015.74832,0.24317
1014.25853,0.34602
1012.76874,0.34759
1011.27896,0.40663
1009.78917,0.55693
1008.29938,0.72079
1006.80959,0.70904
1005.31980,0.69734
1003.83001,0.81743
1002.34022,0.90042
1000.85044,0.97331
999.36065,1.07666
997.87086,1.14966
996.38107,1.22270
994.89128,1.31607
993.40149,1.51082
991.91171,1.57050
990.42192,1.83291
988.93213,1.84877
987.44234,1.80726
985.95255,1.76580
984.46276,1.74803
982.97297,1.78099
981.48319,1.75656
979.99340,1.84028
978.50361,1.77542
977.01382,1.71061
975.52403,1.81137
974.03424,2.00000
972.54446,1.79008
971.05467,1.66129
969.56488,1.55956
968.07509,1.51194
966.58530,1.46436
965.09551,1.54519
963.60573,1.45380
962.11594,1.37596
960.62615,1.42654
959.13636,1.32854
957.64657,1.23059
956.15678,1.19349
954.66699,1.14968
953.17721,1.16673
951.68742,1.15680
950.19763,1.12834
948.70784,1.09993
947.21805,0.97867
945.72826,0.98245
944.23848,0.93561
942.74869,0.82464
941.25890,0.92653
939.76911,0.84943
938.27932,0.77239
936.78953,0.81024
935.29974,0.95286
933.80996,0.89961
932.32017,0.82613
930.83038,0.82872
929.34059,0.83134
927.85080,0.83571
926.36101,0.78608
924.87123,0.89189
923.38144,0.88965
921.89165,0.88746
920.40186,0.88532
918.91207,0.88323
917.42228,0.89470
915.93250,0.97377
914.44271,1.09681
912.95292,1.04931
911.46313,1.00186
909.97334,1.13181
908.48355,0.92400
906.99376,1.15538
905.50398,1.14698
904.01419,1.15551
902.52440,1.16409
901.03461,1.35176
899.54482,1.30301
898.05503,1.40295
896.56525,1.40159
895.07546,1.31921
893.58567,1.23689
892.09588,1.36404
890.60609,1.28857
889.11630,1.09153
887.62651,1.13777
886.13673,1.06582
884.64694,0.99392
883.15715,0.94234
881.66736,0.92796
880.17757,0.87648
878.68778,0.88078
877.19800,0.88513
875.70821,0.80001
874.21842,0.85344
872.72863,0.74816
871.23884,0.66994
869.74905,0.59853
868.25927,0.52718
866.76948,0.65855
865.27969,0.49270
863.78990,0.60390
862.30011,0.46518
860.81032,0.53932
859.32053,0.61351
857.83075,0.50195
856.34096,0.40734
854.85117,0.28576
853.36138,0.32974
851.87159,0.34168
850.38180,0.35367
848.89202,0.38092
847.40223,0.17851
845.91244,0.21936
844.42265,0.23492
842.93286,0.25054
841.44307,0.25775
839.95329,0.09275
838.46350,0.19465
836.97371,0.15810
835.48392,0.15876
833.99413,0.15947
832.50434,0.12645
831.01455,0.07321
829.52477,0.29363
828.03498,0.20333
826.54519,0.21610
825.05540,0.22893
823.56561,0.16243
822.07582,0.22433
820.58604,0.09036
819.09625,0.07130
817.60646,0.05228
816.11667,0.09749
814.62688,0.17653
813.13709,0.24886
811.64730,0.20977
810.15752,0.10486
808.66773,0.00000
807.17794,0.07278
805.68815,0.08143
804.19836,0.01244
802.70857,0.09888
801.21879,0.18537
799.72900,0.07937
798.23921,0.15245
796.74942,0.23571
795.25963,0.20754
793.76984,0.17943
792.28006,0.25946
790.79027,0.25847
789.30048,0.28117
787.81069,0.26677
786.32090,0.28281
784.83111,0.29890
783.34132,0.22722
781.85154,0.26706
780.36175,0.32384
778.87196,0.32999
777.38217,0.33620
775.89238,0.37623
774.40259,0.22715
772.91281,0.31796
771.42302,0.31085
769.93323,0.30379
768.44344,0.34407
766.95365,0.25266
765.46386,0.34033
763.97407,0.28955
762.48429,0.26247
760.99450,0.23543
759.50471,0.21858
758.01492,0.23219
756.52513,0.18503
755.03534,0.11766
753.54556,0.05034
752.05577,0.11143
750.56598,0.15230
749.07619,0.05472
747.58640,0.07711
746.09661,0.09955
744.60683,0.03252
743.11704,0.03310
741.62725,0.10129
740.13746,0.08677
738.64767,0.07229
737.15788,0.10685
735.66809,0.04012
734.17831,0.13895
732.68852,0.10948
731.19873,0.08005
729.70894,0.00000
728.21915,0.08652
726.72936,0.13255
725.23958,0.04688
723.74979,0.06599
722.26000,0.08514
720.77021,0.10434
719.28042,0.06617
717.79063,0.09560
716.30084,0.08962
714.81106,0.08368
713.32127,0.08286
711.83148,0.24761
710.34169,0.01381
708.85190,0.03172
707.36211,0.04967
705.87233,0.13355
704.38254,0.08911
702.89275,0.14268
701.40296,0.07131
699.91317,0.00000
698.42338,0.02152
696.93360,0.29643
695.44381,0.26738
693.95402,0.28736
692.46423,0.30739
690.97444,0.21430
689.48465,0.08749
687.99486,0.05530
686.50508,0.08059
685.01529,0.10593
683.52550,0.04349
682.03571,0.09596
680.54592,0.00659
679.05613,0.06194
677.56635,0.11734
676.07656,0.15591
674.58677,0.04251
673.09698,0.13521
671.60719,0.18405
670.11740,0.23295
668.62761,0.13663
667.13783,0.09104
665.64804,0.04550
664.15825,0.00000
662.66846,0.06923
661.17867,0.03380
659.68888,0.07948
658.19910,0.04921
656.70931,0.01899
655.21952,0.02429
653.72973,0.11408
652.23994,0.18704
650.75015,0.20768
649.26037,0.22837
647.77058,0.05151
646.28079,0.14830
644.79100,0.33973
643.30121,0.29813
641.81142,0.25658
640.32163,0.15427
638.83185,0.19726
637.34206,0.06803
635.85227,0.05539
634.36248,0.04280
632.87269,0.10288
631.38290,0.09883
629.89312,0.17252
628.40333,0.16857
626.91354,0.16466
625.42375,0.03244
623.93396,0.07931
622.44417,0.10089
620.95438,0.12252
619.46460,0.08845
617.97481,0.18281
616.48502,0.02048
614.99523,0.01022
613.50544,0.00000
612.01565,0.11536
610.52587,0.12943
609.03608,0.09288
607.54629,0.08341
606.05650,0.07398
604.56671,0.18621
603.07692,0.10595
601.58714,0.12707
600.09735,0.14824
598.60756,0.02083
597.11777,0.08602
595.62798,0.07356
594.13819,0.06790
592.64840,0.06230
591.15862,0.04661
589.66883,0.10528
588.17904,0.19103
586.68925,0.18393
585.19946,0.17688
583.70967,0.22561
582.21989,0.21022
580.73010,0.21345
579.24031,0.21673
577.75052,0.31971
576.26073,0.28762
574.77094,0.35692
573.28115,0.35026
571.79137,0.34366
570.30158,0.40297
568.81179,0.50625
567.32200,0.47276
565.83221,0.43933
564.34242,0.53262
562.85264,0.64960
561.36285,0.72610
559.87306,0.68104
558.38327,0.63602
556.89348,0.64173
555.40369,0.81301
553.91391,0.77152
552.42412,0.73008
550.93433,0.74612
549.44454,0.75207
547.95475,0.88644
546.46496,0.91276
544.97517,0.93913
543.48539,0.86758
541.99560,0.97174
540.50581,0.97968
539.01602,0.98767
537.52623,1.15615
536.03644,0.97338
534.54666,1.11832
533.05687,0.98125
531.56708,0.84423
530.07729,0.89474
528.58750,0.73586
527.09771,0.69188
525.60792,0.64795
524.11814,0.68176
522.62835,0.54335
521.13856,0.74616
519.64877,0.64331
518.15898,0.54051
516.66919,0.59483
515.17941,0.28101
513.68962,0.39286
512.19983,0.50476
510.71004,0.55928
509.22025,0.43820
507.73046,0.36783
506.24068,0.35832
504.75089,0.34886
503.26110,0.18744
501.77131,0.17807
500.28152,0.18565
498.79173,0.19327
497.30194,0.16716
495.81216,0.19515
494.32237,0.20123
492.83258,0.20737
491.34279,0.11727
489.85300,0.11844
488.36321,0.32908
486.87343,0.18340
485.38364,0.03777
483.89385,0.16749
482.40406,0.05067
480.91427,0.04537
479.42448,0.04012
477.93469,0.08222
476.44491,0.05004
474.95512,0.09899
473.46533,0.14798
471.97554,0.09231
470.48575,0.05695
468.99596,0.11285
467.50618,0.12150
466.01639,0.13021
464.52660,0.15585
463.03681,0.10385
461.54702,0.05190
460.05723,0.00000
458.56745,0.13947
457.07766,0.20467
455.58787,0.20574
454.09808,0.20686
452.60829,0.18100
451.11850,0.18560
449.62871,0.18855
448.13893,0.19156
446.64914,0.25373
445.15935,0.18421
443.66956,0.32754
442.17977,0.43208
440.68998,0.53667
439.20020,0.39978
437.71041,0.60074
436.22062,0.56867
434.73083,0.53665
433.24104,0.62966
431.75125,0.59436
430.26146,0.60133
428.77168,0.60836
427.28189,0.78939
425.79210,0.98399
424.30231,1.05196
422.81252,1.11998
421.32273,1.50051
419.83295,1.43182
418.34316,1.40879
416.85337,1.38580
415.36358,0.93217
413.87379,0.84341
412.38400,0.87462
410.89422,0.90588
409.40443,0.86118
407.91464,1.12393
406.42485,0.97461
404.93506,1.00268
403.44527,1.03081
401.95548,1.04716
400.46570,0.99262
398.97591,0.97867
397.48612,0.96477
395.99633,0.90700
394.50654,0.84590
393.01675,0.87268
391.52697,0.89951
390.03718,0.84194
388.54739,0.82495
387.05760,0.77086
385.56781,0.71681
384.07802,0.81483
382.58824,0.76763
381.09845,0.73062
379.60866,0.69367
378.11887,0.61960
376.62908,0.67732
375.13929,0.59659
373.64950,0.51592
372.15972,0.40151
370.66993,0.37498
369.18014,0.39410
367.69035,0.41327
366.20056,0.39026
364.71077,0.36055
363.22099,0.34778
361.73120,0.33506
360.24141,0.34265
358.75162,0.27260
357.26183,0.19922
355.77204,0.12589
354.28225,0.16070
352.79247,0.17192
351.30268,0.17136
349.81289,0.17085
348.32310,0.07412
346.83331,0.06189
345.34352,0.10206
343.85374,0.14229
342.36395,0.16398
340.87416,0.06750
339.38437,0.04875
337.89458,0.03006
336.40479,0.12964
334.91501,0.12794
333.42522,0.12290
331.93543,0.11792
330.44564,0.07245
328.95585,0.00000
327.46606,0.00108
325.97627,0.00222
324.48649,0.03380
322.99670,0.11610
321.50691,0.11400
320.01712,0.11196
318.52733,0.01200
317.03754,0.10801
315.54776,0.10104
314.05797,0.09412
312.56818,0.10921
311.07839,0.17839
309.58860,0.18344
308.09881,0.18854
306.60902,0.19369
305.11924,0.09417
303.62945,0.04706
302.13966,0.00000
300.64987,0.04051
299.16008,0.00000
