1778.52000,0.11224
1777.03021,0.10010
1775.54042,0.09803
1774.05063,0.05345
1772.56085,0.06149
1771.07106,0.01701
1769.58127,0.14032
1768.09148,0.10095
1766.60169,0.05162
1765.11190,0.08746
1763.62212,0.04073
1762.13233,0.00657
1760.64254,0.07512
1759.15275,0.06109
1757.66296,0.11221
1756.17317,0.04321
1754.68339,0.05938
1753.19360,0.04056
1751.70381,0.06685
1750.21402,0.03561
1748.72423,0.01944
1747.23444,0.08344
1745.74465,0.06236
1744.25487,0.06137
1742.76508,0.11551
1741.27529,0.06956
1739.78550,0.02365
1738.29571,0.04290
1736.80592,0.04717
1735.31614,0.08404
1733.82635,0.03834
1732.33656,0.07282
1730.84677,0.04725
1729.35698,0.02675
1727.86719,0.04134
1726.37740,0.07101
1724.88762,0.10073
1723.39783,0.01033
1721.90804,0.00260
1720.41825,0.05154
1718.92846,0.04545
1717.43867,0.04441
1715.94889,0.05595
1714.45910,0.08256
1712.96931,0.00657
1711.47952,0.08725
1709.98973,0.04529
1708.49994,0.03844
1707.01016,0.06294
1705.52037,0.08748
1704.03058,0.16591
1702.54079,0.06412
1701.05100,0.11011
1699.56121,0.07352
1698.07142,0.10708
1696.58164,0.08562
1695.09185,0.11178
1693.60206,0.14050
1692.11227,0.04408
1690.62248,0.01281
1689.13269,0.09926
1687.64291,0.07060
1686.15312,0.13712
1684.66333,0.10356
1683.17354,0.08256
1681.68375,0.08414
1680.19396,0.04822
1678.70417,0.12252
1677.21439,0.11174
1675.72460,0.12105
1674.23481,0.10036
1672.74502,0.06970
1671.25523,0.05663
1669.76544,0.13123
1668.27566,0.08822
1666.78587,0.14290
1665.29608,0.08997
1663.80629,0.12973
1662.31650,0.10945
1660.82671,0.16684
1659.33693,0.16920
1657.84714,0.10901
1656.35735,0.11899
1654.86756,0.09897
1653.37777,0.10654
1651.88798,0.07160
1650.39819,0.09680
1648.90841,0.11204
1647.41862,0.08977
1645.92883,0.09510
1644.43904,0.10048
1642.94925,0.04081
1641.45946,0.02876
1639.96968,0.12944
1638.47989,0.06742
1636.99010,0.06805
1635.50031,0.06122
1634.01052,0.00687
1632.52073,0.03519
1631.03094,0.00848
1629.54116,0.05193
1628.05137,0.20058
1626.56158,0.12396
1625.07179,0.13752
1623.58200,0.13360
1622.09221,0.03960
1620.60243,0.05582
1619.11264,0.00950
1617.62285,0.03333
1616.13306,0.13983
1614.64327,0.07113
1613.15348,0.10262
1611.66370,0.08410
1610.17391,0.12071
1608.68412,0.07224
1607.19433,0.15902
1605.70454,0.12318
1604.21475,0.06485
1602.72496,0.00657
1601.23518,0.13984
1599.74539,0.09290
1598.25560,0.06353
1596.76581,0.10933
1595.27602,0.12012
1593.78623,0.07088
1592.29645,0.08678
1590.80666,0.06268
1589.31687,0.09872
1587.82708,0.10226
1586.33729,0.03825
1584.84750,0.10449
1583.35771,0.05811
1581.86793,0.09190
1580.37814,0.09069
1578.88835,0.06199
1577.39856,0.09344
1575.90877,0.08487
1574.41898,0.06134
1572.92920,0.06038
1571.43941,0.01442
1569.94962,0.05613
1568.45983,0.09790
1566.97004,0.07212
1565.48025,0.10648
1563.99047,0.05826
1562.50068,0.08521
1561.01089,0.05964
1559.52110,0.00657
1558.03131,0.05303
1556.54152,0.05698
1555.05173,0.09603
1553.56195,0.08256
1552.07216,0.10418
1550.58237,0.06828
1549.09258,0.10503
1547.60279,0.16938
1546.11300,0.29637
1544.62322,0.24314
1543.13343,0.19247
1541.64364,0.11181
1540.15385,0.10756
1538.66406,0.10336
1537.17427,0.04288
1535.68448,0.07760
1534.19470,0.12238
1532.70491,0.04202
1531.21512,0.04685
1529.72533,0.05673
1528.23554,0.00657
1526.74575,0.01416
1525.25597,0.02681
1523.76618,0.03199
1522.27639,0.03973
1520.78660,0.06756
1519.29681,0.03534
1517.80702,0.05826
1516.31724,0.05119
1514.82745,0.07671
1513.33766,0.10604
1511.84787,0.13543
1510.35808,0.01840
1508.86829,0.00657
1507.37850,0.05958
1505.88872,0.04253
1504.39893,0.04807
1502.90914,0.03614
1501.41935,0.01674
1499.92956,0.00992
1498.43977,0.01065
1496.94999,0.03648
1495.46020,0.11493
1493.97041,0.04072
1492.48062,0.09424
1490.99083,0.10775
1489.50104,0.13884
1488.01125,0.10113
1486.52147,0.06347
1485.03168,0.09722
1483.54189,0.11851
1482.05210,0.14234
1480.56231,0.18376
1479.07252,0.14761
1477.58274,0.24421
1476.09295,0.19815
1474.60316,0.20221
1473.11337,0.26642
1471.62358,0.21801
1470.13379,0.26730
1468.64401,0.20397
1467.15422,0.23583
1465.66443,0.20641
1464.17464,0.17703
1462.68485,0.19153
1461.19506,0.16601
1459.70527,0.21065
1458.21549,0.12265
1456.72570,0.11231
1455.23591,0.09701
1453.74612,0.21196
1452.25633,0.09412
1450.76654,0.05895
1449.27676,0.12398
1447.78697,0.01881
1446.29718,0.09145
1444.80739,0.11533
1443.31760,0.13925
1441.82781,0.07435
1440.33802,0.01701
1438.84824,0.05736
1437.35845,0.10027
1435.86866,0.10567
1434.37887,0.06106
1432.88908,0.01899
1431.39929,0.01704
1429.90951,0.05770
1428.41972,0.03082
1426.92993,0.13167
1425.44014,0.09237
1423.95035,0.12197
1422.46056,0.15163
1420.97078,0.12500
1419.48099,0.10093
1417.99120,0.11696
1416.50141,0.06796
1415.01162,0.05405
1413.52183,0.06274
1412.03204,0.07898
1410.54226,0.11280
1409.05247,0.07156
1407.56268,0.03038
1406.07289,0.08939
1404.58310,0.10339
1403.09331,0.11744
1401.60353,0.09398
1400.11374,0.10313
1398.62395,0.10731
1397.13416,0.07650
1395.64437,0.14589
1394.15458,0.10267
1392.66479,0.10456
1391.17501,0.11651
1389.68522,0.06593
1388.19543,0.05546
1386.70564,0.03377
1385.21585,0.01214
1383.72606,0.09445
1382.23628,0.00657
1380.74649,0.03813
1379.25670,0.07223
1377.76691,0.10138
1376.27712,0.18567
1374.78733,0.12479
1373.29755,0.20417
1371.80776,0.16843
1370.31797,0.20285
1368.82818,0.22605
1367.33839,0.24930
1365.84860,0.33895
1364.35881,0.34854
1362.86903,0.36318
1361.37924,0.51058
1359.88945,0.45522
1358.39966,0.41494
1356.90987,0.33966
1355.42008,0.39462
1353.93030,0.38704
1352.44051,0.45837
1350.95072,0.52977
1349.46093,0.45224
1347.97114,0.31717
1346.48135,0.27981
1344.99156,0.18992
1343.50178,0.19772
1342.01199,0.13297
1340.52220,0.14087
1339.03241,0.09876
1337.54262,0.06921
1336.05283,0.11357
1334.56305,0.15799
1333.07326,0.12860
1331.58347,0.14182
1330.09368,0.07998
1328.60389,0.06827
1327.11410,0.06663
1325.62432,0.08507
1324.13453,0.13860
1322.64474,0.06451
1321.15495,0.11064
1319.66516,0.08296
1318.17537,0.05534
1316.68558,0.07659
1315.19580,0.04531
1313.70601,0.00657
1312.21622,0.06777
1310.72643,0.08145
1309.23664,0.04010
1307.74685,0.08392
1306.25707,0.00762
1304.76728,0.03152
1303.27749,0.05547
1301.78770,0.08448
1300.29791,0.10102
1298.80812,0.08256
1297.31834,0.00657
1295.82855,0.20193
1294.33876,0.07185
1292.84897,0.05449
1291.35918,0.11229
1289.86939,0.08627
1288.37960,0.06031
1286.88982,0.07820
1285.40003,0.15624
1283.91024,0.08661
1282.42045,0.11468
1280.93066,0.06769
1279.44087,0.06832
1277.95109,0.16915
1276.46130,0.02467
1274.97151,0.07427
1273.48172,0.12393
1271.99193,0.09478
1270.50214,0.09572
1269.01235,0.00657
1267.52257,0.18112
1266.03278,0.06279
1264.54299,0.14481
1263.05320,0.11671
1261.56341,0.10995
1260.07362,0.10324
1258.58384,0.08531
1257.09405,0.12502
1255.60426,0.08717
1254.11447,0.04686
1252.62468,0.08673
1251.13489,0.11914
1249.64511,0.16411
1248.15532,0.01385
1246.66553,0.02388
1245.17574,0.03395
1243.68595,0.04158
1242.19616,0.07680
1240.70637,0.01943
1239.21659,0.10483
1237.72680,0.03004
1236.23701,0.08799
1234.74722,0.03334
1233.25743,0.06511
1231.76764,0.09693
1230.27786,0.04744
1228.78807,0.02303
1227.29828,0.07629
1225.80849,0.10707
1224.31870,0.09283
1222.82891,0.10368
1221.33912,0.01944
1219.84934,0.05293
1218.35955,0.08647
1216.86976,0.04996
1215.37997,0.06857
1213.89018,0.07473
1212.40039,0.08344
1210.91061,0.09470
1209.42082,0.06095
1207.93103,0.04978
1206.44124,0.03866
1204.95145,0.08018
1203.46166,0.00657
1201.97188,0.11025
1200.48209,0.03871
1198.99230,0.06738
1197.50251,0.04101
1196.01272,0.10233
1194.52293,0.11112
1193.03314,0.11996
1191.54336,0.07127
1190.05357,0.10025
1188.56378,0.12176
1187.07399,0.09075
1185.58420,0.07482
1184.09441,0.05392
1182.60463,0.08691
1181.11484,0.11995
1179.62505,0.00657
1178.13526,0.12496
1176.64547,0.15577
1175.15568,0.14907
1173.66589,0.18499
1172.17611,0.03819
1170.68632,0.05919
1169.19653,0.08024
1167.70674,0.06379
1166.21695,0.06992
1164.72716,0.11116
1163.23738,0.09987
1161.74759,0.06860
1160.25780,0.12501
1158.76801,0.10261
1157.27822,0.08026
1155.78843,0.08675
1154.29865,0.10832
1152.80886,0.20004
1151.31907,0.06898
1149.82928,0.11574
1148.33949,0.11248
1146.84970,0.12304
1145.35991,0.13364
1143.87013,0.10800
1142.38034,0.09994
1140.89055,0.10194
1139.40076,0.14906
1137.91097,0.14365
1136.42118,0.10575
1134.93140,0.10795
1133.44161,0.11021
1131.95182,0.14256
1130.46203,0.19500
1128.97224,0.18239
1127.48245,0.13478
1125.99266,0.10725
1124.50288,0.14237
1123.01309,0.16627
1121.52330,0.19022
1120.03351,0.19795
1118.54372,0.15816
1117.05393,0.16599
1115.56415,0.26651
1114.07436,0.24691
1112.58457,0.22986
1111.09478,0.21286
1109.60499,0.24098
1108.11520,0.31171
1106.62542,0.31990
1105.13563,0.44082
1103.64584,0.42157
1102.15605,0.43993
1100.66626,0.43832
1099.17647,0.43675
1097.68668,0.42022
1096.19690,0.36868
1094.70711,0.50498
1093.21732,0.51113
1091.72753,0.44473
1090.23774,0.48228
1088.74795,0.51988
1087.25817,0.50872
1085.76838,0.55769
1084.27859,0.52910
1082.78880,0.60071
1081.29901,0.56972
1079.80922,0.52876
1078.31943,0.52291
1076.82965,0.51712
1075.33986,0.62654
1073.85007,0.54573
1072.36028,0.60018
1070.87049,0.46189
1069.38070,0.42380
1067.89092,0.44585
1066.40113,0.46795
1064.91134,0.45255
1063.42155,0.41967
1061.93176,0.36432
1060.44197,0.26144
1058.95219,0.29381
1057.46240,0.32249
1055.97261,0.35121
1054.48282,0.34618
1052.99303,0.31617
1051.50324,0.33628
1050.01345,0.24128
1048.52367,0.29405
1047.03388,0.23795
1045.54409,0.18191
1044.05430,0.18475
1042.56451,0.15760
1041.07472,0.14553
1039.58494,0.05590
1038.09515,0.02890
1036.60536,0.03952
1035.11557,0.05018
1033.62578,0.09094
1032.13599,0.00657
1030.64620,0.19420
1029.15642,0.12150
1027.66663,0.16652
1026.17684,0.21159
1024.68705,0.15155
1023.19726,0.09157
1021.70747,0.13179
1020.21769,0.16956
1018.72790,0.10723
1017.23811,0.20018
1015.74832,0.29318
1014.25853,0.40376
1012.76874,0.43678
1011.27896,0.62007
1009.78917,0.71578
1008.29938,0.67885
1006.80959,0.72959
1005.31980,0.78039
1003.83001,0.82624
1002.34022,0.84209
1000.85044,1.09334
999.36065,1.25201
997.87086,1.32935
996.38107,1.40675
994.89128,1.47544
993.40149,1.49911
991.91171,1.71311
990.42192,1.77194
988.93213,1.74569
987.44234,1.83216
985.95255,1.91868
984.46276,1.92263
982.97297,1.91662
981.48319,1.90816
979.99340,1.94231
978.50361,1.88888
977.01382,1.83550
975.52403,2.00000
974.03424,1.82655
972.54446,1.99616
971.05467,1.96051
969.56488,1.67455
968.07509,1.67782
966.58530,1.68113
965.09551,1.66322
963.60573,1.63034
962.11594,1.49485
960.62615,1.52967
959.13636,1.53075
957.64657,1.53187
956.15678,1.43415
954.66699,1.32646
953.17721,1.16124
951.68742,1.23893
950.19763,1.21528
948.70784,1.19167
947.21805,1.03668
945.72826,1.05198
944.23848,1.01226
942.74869,0.97759
941.25890,0.90793
939.76911,0.88213
938.27932,0.85638
936.78953,1.01470
935.29974,0.89016
933.80996,0.88585
932.32017,0.97172
930.83038,0.92745
929.34059,0.88324
927.85080,0.92169
926.36101,1.06285
924.87123,1.05635
923.38144,1.05740
921.89165,1.05976
920.40186,1.06217
918.91207,1.16353
917.42228,1.20735
915.93250,1.17362
914.44271,1.28014
912.95292,1.28030
911.46313,1.28052
909.97334,1.30958
908.48355,1.28361
906.99376,1.44046
905.50398,1.41960
904.01419,1.42133
902.52440,1.42310
901.03461,1.54511
899.54482,1.45435
898.05503,1.54892
896.56525,1.70363
895.07546,1.62680
893.58567,1.55002
892.09588,1.48205
890.60609,1.48925
889.11630,1.35379
887.62651,1.26595
886.13673,1.26328
884.64694,1.26067
883.15715,1.14043
881.66736,1.16296
880.17757,0.92015
878.68778,0.99035
877.19800,1.06060
875.70821,1.04829
874.21842,0.86577
872.72863,0.74840
871.23884,0.73624
869.74905,0.70785
868.25927,0.67952
866.76948,0.65248
865.27969,0.75319
863.78990,0.62111
862.30011,0.57671
860.81032,0.54488
859.32053,0.51310
857.83075,0.57901
856.34096,0.42966
854.85117,0.42307
853.36138,0.32139
851.87159,0.35497
850.38180,0.38859
848.89202,0.32212
847.40223,0.24819
845.91244,0.28447
844.42265,0.26197
842.93286,0.23952
841.44307,0.13074
839.95329,0.19477
838.46350,0.13366
836.97371,0.10265
835.48392,0.10800
833.99413,0.11340
832.50434,0.13513
831.01455,0.15941
829.52477,0.09861
828.03498,0.11298
826.54519,0.09860
825.05540,0.08428
823.56561,0.18894
822.07582,0.12339
820.58604,0.08794
819.09625,0.11389
817.60646,0.13988
816.11667,0.12963
814.62688,0.16449
813.13709,0.14933
811.64730,0.09916
810.15752,0.06533
808.66773,0.03154
807.17794,0.00657
805.68815,0.12267
804.19836,0.09610
802.70857,0.12092
801.21879,0.14578
799.72900,0.22703
798.23921,0.22571
796.74942,0.19440
795.25963,0.21196
793.76984,0.22957
792.28006,0.26601
790.79027,0.21237
789.30048,0.29398
787.81069,0.30554
786.32090,0.32966
784.83111,0.35384
783.34132,0.20532
781.85154,0.29470
780.36175,0.32654
778.87196,0.31713
777.38217,0.30777
775.89238,0.32725
774.40259,0.26416
772.91281,0.29877
771.42302,0.31965
769.93323,0.34059
768.44344,0.38036
766.95365,0.36009
765.46386,0.34238
763.97407,0.37980
762.48429,0.33590
760.99450,0.29205
759.50471,0.29958
758.01492,0.15193
756.52513,0.28475
755.03534,0.23485
753.54556,0.18500
752.05577,0.07011
750.56598,0.15055
749.07619,0.10586
747.58640,0.07750
746.09661,0.04919
744.60683,0.06976
743.11704,0.11791
741.62725,0.03843
740.13746,0.03536
738.64767,0.03235
737.15788,0.05317
735.66809,0.09908
734.17831,0.08745
732.68852,0.11969
731.19873,0.15199
729.70894,0.09545
728.21915,0.05900
726.72936,0.07768
725.23958,0.05634
723.74979,0.05259
722.26000,0.04889
720.77021,0.13037
719.28042,0.16933
717.79063,0.10069
716.30084,0.10345
714.81106,0.10627
713.32127,0.13042
711.83148,0.13709
710.34169,0.04868
708.85190,0.09927
707.36211,0.14991
705.87233,0.00657
704.38254,0.08346
702.89275,0.13536
701.40296,0.13474
699.91317,0.13417
698.42338,0.10360
696.93360,0.29341
695.44381,0.36310
693.95402,0.33894
692.46423,0.31484
690.97444,0.14433
689.48465,0.14913
687.99486,0.04882
686.50508,0.04746
685.01529,0.04615
683.52550,0.03613
682.03571,0.07873
680.54592,0.16896
679.05613,0.08774
677.56635,0.00657
676.07656,0.12301
674.58677,0.08177
673.09698,0.06061
671.60719,0.08457
670.11740,0.10858
668.62761,0.09759
667.13783,0.18680
665.64804,0.10080
664.15825,0.01485
662.66846,0.13426
661.17867,0.16859
659.68888,0.08280
658.19910,0.06967
656.70931,0.05658
655.21952,0.09363
653.72973,0.08566
652.23994,0.20542
650.75015,0.16125
649.26037,0.11713
647.77058,0.15694
646.28079,0.17927
644.79100,0.23420
643.30121,0.18402
641.81142,0.13390
640.32163,0.10886
638.83185,0.06135
637.34206,0.01138
635.85227,0.02907
634.36248,0.04680
632.87269,0.16223
631.38290,0.04236
629.89312,0.14037
628.40333,0.12076
626.91354,0.10120
625.42375,0.00657
623.93396,0.07169
622.44417,0.10431
620.95438,0.13698
619.46460,0.10210
617.97481,0.02971
616.48502,0.08758
614.99523,0.07413
613.50544,0.06074
612.01565,0.06868
610.52587,0.00657
609.03608,0.06230
607.54629,0.10181
606.05650,0.14137
604.56671,0.07958
603.07692,0.12801
601.58714,0.14895
600.09735,0.16993
598.60756,0.12087
597.11777,0.03681
595.62798,0.02540
594.13819,0.03283
592.64840,0.04030
591.15862,0.04908
589.66883,0.06542
588.17904,0.21201
586.68925,0.15209
585.19946,0.09222
583.70967,0.25899
582.21989,0.24054
580.73010,0.24592
579.24031,0.25136
577.75052,0.36826
576.26073,0.36503
574.77094,0.31679
573.28115,0.34372
571.79137,0.37069
570.30158,0.44779
568.81179,0.42480
567.32200,0.47946
565.83221,0.53419
564.34242,0.63903
562.85264,0.73141
561.36285,0.73872
559.87306,0.77487
558.38327,0.81107
556.89348,0.84106
555.40369,0.80351
553.91391,0.81733
552.42412,0.83120
550.93433,0.79130
549.44454,0.88414
547.95475,0.95951
546.46496,0.93353
544.97517,0.90760
543.48539,0.93806
541.99560,1.09876
540.50581,1.06548
539.01602,1.03224
537.52623,1.08043
536.03644,1.00850
534.54666,1.00421
533.05687,0.94615
531.56708,0.88813
530.07729,0.83393
528.58750,0.93501
527.09771,0.86087
525.60792,0.78679
524.11814,0.88051
522.62835,0.88665
521.13856,0.66751
519.64877,0.69879
518.15898,0.73013
516.66919,0.63132
515.17941,0.52756
513.68962,0.49895
512.19983,0.47040
510.71004,0.50199
509.22025,0.50609
507.73046,0.38006
506.24068,0.32167
504.75089,0.26333
503.26110,0.39282
501.77131,0.38717
500.28152,0.33900
498.79173,0.29088
497.30194,0.25283
495.81216,0.19981
494.32237,0.14559
492.83258,0.09142
491.34279,0.17376
489.85300,0.02330
488.36321,0.16082
486.87343,0.15568
485.38364,0.15059
483.89385,0.15557
482.40406,0.01538
480.91427,0.03047
479.42448,0.04562
477.93469,0.08085
476.44491,0.06605
474.95512,0.03629
473.46533,0.00657
471.97554,0.04921
470.48575,0.06185
468.99596,0.16468
467.50618,0.11107
466.01639,0.05752
464.52660,0.07538
463.03681,0.05573
461.54702,0.03113
460.05723,0.00657
458.56745,0.03165
457.07766,0.11688
455.58787,0.12203
454.09808,0.12724
452.60829,0.05738
451.11850,0.13530
449.62871,0.15944
448.13893,0.18363
446.64914,0.31177
445.15935,0.32730
443.66956,0.45555
442.17977,0.47494
440.68998,0.49438
439.20020,0.50261
437.71041,0.54844
436.22062,0.58556
434.73083,0.62273
433.24104,0.74633
431.75125,0.70474
430.26146,0.73706
428.77168,0.76943
427.28189,0.94081
425.79210,0.91444
424.30231,0.99955
422.81252,1.08470
421.32273,1.26129
419.83295,1.29773
418.34316,1.26787
416.85337,1.23806
415.36358,0.86905
413.87379,0.75046
412.38400,0.78340
410.89422,0.81639
409.40443,0.94332
407.91464,1.02523
406.42485,1.00204
404.93506,0.99017
403.44527,0.97835
401.95548,0.80760
400.46570,0.73454
398.97591,0.74916
397.48612,0.76384
395.99633,0.86369
394.50654,0.91352
393.01675,0.84197
391.52697,0.77048
390.03718,0.84800
388.54739,0.89553
387.05760,0.84172
385.56781,0.78795
384.07802,0.80309
382.58824,0.83831
381.09845,0.75841
379.60866,0.67856
378.11887,0.62130
376.62908,0.50651
375.13929,0.49441
373.64950,0.48237
372.15972,0.37274
370.66993,0.33827
369.18014,0.36393
367.69035,0.38965
366.20056,0.21012
364.71077,0.18337
363.22099,0.24805
361.73120,0.31278
360.24141,0.16601
358.75162,0.02429
357.26183,0.06414
355.77204,0.10404
354.28225,0.08766
352.79247,0.07634
351.30268,0.07008
349.81289,0.06387
348.32310,0.15035
346.83331,0.13673
345.34352,0.13568
343.85374,0.13469
342.36395,0.15628
340.87416,0.03521
339.38437,0.02435
337.89458,0.01354
336.40479,0.14300
334.91501,0.06720
333.42522,0.07908
331.93543,0.09102
330.44564,0.15057
328.95585,0.06246
327.46606,0.03449
325.97627,0.00657
324.48649,0.02573
322.99670,0.00738
321.50691,0.13680
320.01712,0.26627
318.52733,0.16546
317.03754,0.08222
315.54776,0.04159
314.05797,0.00102
312.56818,0.04200
311.07839,0.10055
309.58860,0.05025
308.09881,0.00000
306.60902,0.06372
305.11924,0.11998
303.62945,0.06863
302.13966,0.01733
300.64987,0.00657
299.16008,0.00657
