1778.52000,0.00699
1777.03021,0.01700
1775.54042,0.04066
1774.05063,0.00376
1772.56085,0.00324
1771.07106,0.06031
1769.58127,0.03864
1768.09148,0.00790
1766.60169,0.07414
1765.11190,0.03437
1763.62212,0.06582
1762.13233,0.04126
1760.64254,0.00157
1759.15275,0.05431
1757.66296,0.04346
1756.17317,0.02203
1754.68339,0.09757
1753.19360,0.04288
1751.70381,0.00335
1750.21402,0.05019
1748.72423,0.00921
1747.23444,0.00157
1745.74465,0.05193
1744.25487,0.06292
1742.76508,0.01336
1741.27529,0.04713
1739.78550,0.05669
1738.29571,0.05568
1736.80592,0.03803
1735.31614,0.07342
1733.82635,0.04371
1732.33656,0.05492
1730.84677,0.04041
1729.35698,0.07137
1727.86719,0.04631
1726.37740,0.06520
1724.88762,0.04019
1723.39783,0.03794
1721.90804,0.03722
1720.41825,0.05925
1718.92846,0.03284
1717.43867,0.03978
1715.94889,0.01948
1714.45910,0.04464
1712.96931,0.04712
1711.47952,0.04659
1709.98973,0.02943
1708.49994,0.03956
1707.01016,0.04820
1705.52037,0.05686
1704.03058,0.04587
1702.54079,0.00157
1701.05100,0.10025
1699.56121,0.05961
1698.07142,0.06897
1696.58164,0.04504
1695.09185,0.07718
1693.60206,0.07603
1692.11227,0.06884
1690.62248,0.05411
1689.13269,0.08030
1687.64291,0.05956
1686.15312,0.04490
1684.66333,0.05603
1683.17354,0.02780
1681.68375,0.07684
1680.19396,0.06835
1678.70417,0.07353
1677.21439,0.05752
1675.72460,0.06578
1674.23481,0.01499
1672.74502,0.05359
1671.25523,0.01043
1669.76544,0.05969
1668.27566,0.06353
1666.78587,0.07195
1665.29608,0.04859
1663.80629,0.07523
1662.31650,0.09131
1660.82671,0.04076
1659.33693,0.06900
1657.84714,0.08970
1656.35735,0.07104
1654.86756,0.10088
1653.37777,0.03683
1651.88798,0.08036
1650.39819,0.07696
1648.90841,0.07812
1647.41862,0.08689
1645.92883,0.07145
1644.43904,0.05604
1642.94925,0.09215
1641.45946,0.07528
1639.96968,0.08721
1638.47989,0.04615
1636.99010,0.07177
1635.50031,0.06258
1634.01052,0.06402
1632.52073,0.05185
1631.03094,0.07606
1629.54116,0.09121
1628.05137,0.05337
1626.56158,0.06706
1625.07179,0.05503
1623.58200,0.05211
1622.09221,0.06588
1620.60243,0.06908
1619.11264,0.06321
1617.62285,0.07403
1616.13306,0.00157
1614.64327,0.06079
1613.15348,0.09125
1611.66370,0.05358
1610.17391,0.04925
1608.68412,0.05102
1607.19433,0.06038
1605.70454,0.07280
1604.21475,0.07010
1602.72496,0.06743
1601.23518,0.05418
1599.74539,0.04853
1598.25560,0.02625
1596.76581,0.05549
1595.27602,0.08476
1593.78623,0.03984
1592.29645,0.07068
1590.80666,0.00157
1589.31687,0.05548
1587.82708,0.05488
1586.33729,0.02704
1584.84750,0.05225
1583.35771,0.07899
1581.86793,0.04215
1580.37814,0.05380
1578.88835,0.05337
1577.39856,0.07113
1575.90877,0.04197
1574.41898,0.05222
1572.92920,0.01099
1571.43941,0.06219
1569.94962,0.05207
1568.45983,0.04197
1566.97004,0.04327
1565.48025,0.03550
1563.99047,0.02927
1562.50068,0.05337
1561.01089,0.01993
1559.52110,0.01075
1558.03131,0.07128
1556.54152,0.00157
1555.05173,0.03859
1553.56195,0.03020
1552.07216,0.07939
1550.58237,0.06348
1549.09258,0.04456
1547.60279,0.08777
1546.11300,0.14768
1544.62322,0.09703
1543.13343,0.11155
1541.64364,0.06853
1540.15385,0.06189
1538.66406,0.05529
1537.17427,0.08354
1535.68448,0.01034
1534.19470,0.01593
1532.70491,0.07304
1531.21512,0.03324
1529.72533,0.03891
1528.23554,0.04158
1526.74575,0.06851
1525.25597,0.05305
1523.76618,0.03611
1522.27639,0.01011
1520.78660,0.02654
1519.29681,0.01725
1517.80702,0.06555
1516.31724,0.04571
1514.82745,0.01075
1513.33766,0.01445
1511.84787,0.01817
1510.35808,0.00601
1508.86829,0.03175
1507.37850,0.00299
1505.88872,0.00000
1504.39893,0.02069
1502.90914,0.04293
1501.41935,0.00157
1499.92956,0.07903
1498.43977,0.05807
1496.94999,0.05076
1495.46020,0.05862
1493.97041,0.07106
1492.48062,0.09867
1490.99083,0.11419
1489.50104,0.12216
1488.01125,0.10895
1486.52147,0.09577
1485.03168,0.13564
1483.54189,0.17250
1482.05210,0.14577
1480.56231,0.16299
1479.07252,0.23174
1477.58274,0.25204
1476.09295,0.26026
1474.60316,0.20186
1473.11337,0.21618
1471.62358,0.22599
1470.13379,0.20554
1468.64401,0.24115
1467.15422,0.23287
1465.66443,0.21855
1464.17464,0.20426
1462.68485,0.16577
1461.19506,0.13336
1459.70527,0.14338
1458.21549,0.14132
1456.72570,0.06052
1455.23591,0.06760
1453.74612,0.11863
1452.25633,0.09698
1450.76654,0.06930
1449.27676,0.08861
1447.78697,0.04432
1446.29718,0.00157
1444.80739,0.03981
1443.31760,0.07807
1441.82781,0.02774
1440.33802,0.04864
1438.84824,0.05441
1437.35845,0.04052
1435.86866,0.02666
1434.37887,0.03252
1432.88908,0.05506
1431.39929,0.05188
1429.90951,0.01995
1428.41972,0.04864
1426.92993,0.07735
1425.44014,0.09851
1423.95035,0.09547
1422.46056,0.09245
1420.97078,0.08795
1419.48099,0.12285
1417.99120,0.11385
1416.50141,0.10489
1415.01162,0.10958
1413.52183,0.08552
1412.03204,0.04179
1410.54226,0.11624
1409.05247,0.08469
1407.56268,0.10466
1406.07289,0.09740
1404.58310,0.10758
1403.09331,0.11779
1401.60353,0.12120
1400.11374,0.09436
1398.62395,0.16145
1397.13416,0.16949
1395.64437,0.16696
1394.15458,0.11296
1392.66479,0.19833
1391.17501,0.15801
1389.68522,0.15104
1388.19543,0.11987
1386.70564,0.11901
1385.21585,0.11819
1383.72606,0.14616
1382.23628,0.09238
1380.74649,0.14161
1379.25670,0.11211
1377.76691,0.14474
1376.27712,0.20769
1374.78733,0.21463
1373.29755,0.23370
1371.80776,0.28765
1370.31797,0.40675
1368.82818,0.44635
1367.33839,0.48599
1365.84860,0.55216
1364.35881,0.63501
1362.86903,0.69366
1361.37924,0.75537
1359.88945,0.75803
1358.39966,0.68195
1356.90987,0.60136
1355.42008,0.50110
1353.93030,0.57960
1352.44051,0.54150
1350.95072,0.50342
1349.46093,0.47295
1347.97114,0.37737
1346.48135,0.30908
1344.99156,0.24688
1343.50178,0.19076
1342.01199,0.19072
1340.52220,0.16343
1339.03241,0.16193
1337.54262,0.13318
1336.05283,0.12567
1334.56305,0.11819
1333.07326,0.08346
1331.58347,0.09724
1330.09368,0.12316
1328.60389,0.12032
1327.11410,0.04633
1325.62432,0.07081
1324.13453,0.04837
1322.64474,0.01535
1321.15495,0.06112
1319.66516,0.06072
1318.17537,0.06035
1316.68558,0.02896
1315.19580,0.07786
1313.70601,0.01926
1312.21622,0.00157
1310.72643,0.05020
1309.23664,0.04431
1307.74685,0.09299
1306.25707,0.06596
1304.76728,0.04349
1303.27749,0.02106
1301.78770,0.11528
1300.29791,0.07170
1298.80812,0.05692
1297.31834,0.03156
1295.82855,0.03955
1294.33876,0.06121
1292.84897,0.06925
1291.35918,0.07127
1289.86939,0.05211
1288.37960,0.03297
1286.88982,0.06688
1285.40003,0.05537
1283.91024,0.01056
1282.42045,0.04606
1280.93066,0.05584
1279.44087,0.07019
1277.95109,0.08154
1276.46130,0.04899
1274.97151,0.06569
1273.48172,0.08242
1271.99193,0.01662
1270.50214,0.01750
1269.01235,0.07596
1267.52257,0.08750
1266.03278,0.07483
1264.54299,0.08793
1263.05320,0.12227
1261.56341,0.13618
1260.07362,0.15012
1258.58384,0.11487
1257.09405,0.15083
1255.60426,0.09745
1254.11447,0.05772
1252.62468,0.07559
1251.13489,0.11317
1249.64511,0.08262
1248.15532,0.10208
1246.66553,0.09203
1245.17574,0.08200
1243.68595,0.00157
1242.19616,0.07429
1240.70637,0.09857
1239.21659,0.10166
1237.72680,0.05632
1236.23701,0.03069
1234.74722,0.06870
1233.25743,0.03934
1231.76764,0.01000
1230.27786,0.10869
1228.78807,0.07562
1227.29828,0.04106
1225.80849,0.02168
1224.31870,0.05988
1222.82891,0.06934
1221.33912,0.06821
1219.84934,0.05878
1218.35955,0.04938
1216.86976,0.00896
1215.37997,0.04581
1213.89018,0.08117
1212.40039,0.03628
1210.91061,0.01565
1209.42082,0.00414
1207.93103,0.02901
1206.44124,0.05390
1204.95145,0.00157
1203.46166,0.03810
1201.97188,0.05345
1200.48209,0.03702
1198.99230,0.00396
1197.50251,0.05120
1196.01272,0.03182
1194.52293,0.02382
1193.03314,0.01586
1191.54336,0.00716
1190.05357,0.03030
1188.56378,0.03984
1187.07399,0.04788
1185.58420,0.04535
1184.09441,0.01710
1182.60463,0.00933
1181.11484,0.00157
1179.62505,0.00535
1178.13526,0.07882
1176.64547,0.02055
1175.15568,0.03198
1173.66589,0.04949
1172.17611,0.05795
1170.68632,0.07778
1169.19653,0.09765
1167.70674,0.05469
1166.21695,0.06931
1164.72716,0.10970
1163.23738,0.06076
1161.74759,0.07243
1160.25780,0.05838
1158.76801,0.02996
1157.27822,0.00157
1155.78843,0.07174
1154.29865,0.08135
1152.80886,0.12127
1151.31907,0.10367
1149.82928,0.16182
1148.33949,0.19426
1146.84970,0.17900
1145.35991,0.16378
1143.87013,0.11450
1142.38034,0.16067
1140.89055,0.14477
1139.40076,0.09709
1137.91097,0.13123
1136.42118,0.17448
1134.93140,0.14354
1133.44161,0.11263
1131.95182,0.14536
1130.46203,0.16297
1128.97224,0.17454
1127.48245,0.20887
1125.99266,0.19021
1124.50288,0.15946
1123.01309,0.16963
1121.52330,0.17983
1120.03351,0.22489
1118.54372,0.17607
1117.05393,0.24542
1115.56415,0.26785
1114.07436,0.28272
1112.58457,0.28930
1111.09478,0.29590
1109.60499,0.30783
1108.11520,0.36522
1106.62542,0.32722
1105.13563,0.42557
1103.64584,0.43306
1102.15605,0.46633
1100.66626,0.46327
1099.17647,0.46025
1097.68668,0.46785
1096.19690,0.48456
1094.70711,0.48313
1093.21732,0.53625
1091.72753,0.48943
1090.23774,0.50852
1088.74795,0.52765
1087.25817,0.55058
1085.76838,0.56900
1084.27859,0.56473
1082.78880,0.57411
1081.29901,0.61382
1079.80922,0.64901
1078.31943,0.64938
1076.82965,0.64979
1075.33986,0.70021
1073.85007,0.60070
1072.36028,0.55877
1070.87049,0.51233
1069.38070,0.48863
1067.89092,0.52101
1066.40113,0.55341
1064.91134,0.51162
1063.42155,0.48803
1061.93176,0.38874
1060.44197,0.33945
1058.95219,0.34776
1057.46240,0.32049
1055.97261,0.29325
1054.48282,0.34101
1052.99303,0.24491
1051.50324,0.31090
1050.01345,0.29968
1048.52367,0.25515
1047.03388,0.25155
1045.54409,0.24798
1044.05430,0.19294
1042.56451,0.17275
1041.07472,0.14351
1039.58494,0.12944
1038.09515,0.13661
1036.60536,0.10518
1035.11557,0.07377
1033.62578,0.15523
1032.13599,0.12918
1030.64620,0.20464
1029.15642,0.18168
1027.66663,0.17312
1026.17684,0.16460
1024.68705,0.19927
1023.19726,0.17338
1021.70747,0.20659
1020.21769,0.22166
1018.72790,0.21705
1017.23811,0.28215
1015.74832,0.34728
1014.25853,0.38214
1012.76874,0.41854
1011.27896,0.56251
1009.78917,0.53080
1008.29938,0.70361
1006.80959,0.73254
1005.31980,0.76151
1003.83001,0.87380
1002.34022,0.88464
1000.85044,1.06667
999.36065,1.21086
997.87086,1.29297
996.38107,1.37510
994.89128,1.42546
993.40149,1.58490
991.91171,1.58684
990.42192,1.80238
988.93213,1.88162
987.44234,1.90409
985.95255,1.92659
984.46276,1.95442
982.97297,1.88382
981.48319,1.82990
979.99340,1.97898
978.50361,1.96148
977.01382,1.94400
975.52403,1.96138
974.03424,2.00000
972.54446,1.93110
971.05467,1.83042
969.56488,1.67827
968.07509,1.70942
966.58530,1.74060
965.09551,1.60065
963.60573,1.58947
962.11594,1.52379
960.62615,1.53387
959.13636,1.47128
957.64657,1.40871
956.15678,1.31436
954.66699,1.25184
953.17721,1.26357
951.68742,1.23746
950.19763,1.20002
948.70784,1.16260
947.21805,1.07599
945.72826,1.06059
944.23848,0.97706
942.74869,0.96474
941.25890,0.85248
939.76911,0.82886
938.27932,0.80527
936.78953,0.85668
935.29974,0.88539
933.80996,0.85809
932.32017,0.92170
930.83038,0.86340
929.34059,0.80513
927.85080,0.89608
926.36101,0.83256
924.87123,0.90842
923.38144,0.93129
921.89165,0.92996
920.40186,0.92865
918.91207,0.95918
917.42228,1.02911
915.93250,1.06121
914.44271,1.11605
912.95292,1.10276
911.46313,1.08949
909.97334,1.08838
908.48355,1.11909
906.99376,1.17710
905.50398,1.14122
904.01419,1.20231
902.52440,1.26343
901.03461,1.25641
899.54482,1.22216
898.05503,1.30002
896.56525,1.39153
895.07546,1.40583
893.58567,1.42015
892.09588,1.52841
890.60609,1.31559
889.11630,1.29213
887.62651,1.18538
886.13673,1.13698
884.64694,1.08861
883.15715,1.06829
881.66736,1.03587
880.17757,0.96864
878.68778,0.93552
877.19800,0.90243
875.70821,0.79742
874.21842,0.81058
872.72863,0.76166
871.23884,0.74004
869.74905,0.73435
868.25927,0.72868
866.76948,0.59505
865.27969,0.60534
863.78990,0.57174
862.30011,0.55330
860.81032,0.50460
859.32053,0.45593
857.83075,0.46030
856.34096,0.37078
854.85117,0.44185
853.36138,0.35088
851.87159,0.33793
850.38180,0.32502
848.89202,0.24624
847.40223,0.23262
845.91244,0.18722
844.42265,0.17895
842.93286,0.17072
841.44307,0.12843
839.95329,0.18007
838.46350,0.07270
836.97371,0.13652
835.48392,0.12463
833.99413,0.11277
832.50434,0.08579
831.01455,0.13305
829.52477,0.09552
828.03498,0.00652
826.54519,0.04175
825.05540,0.07700
823.56561,0.09714
822.07582,0.09155
820.58604,0.04206
819.09625,0.03274
817.60646,0.02345
816.11667,0.05280
814.62688,0.02160
813.13709,0.04344
811.64730,0.02441
810.15752,0.01298
808.66773,0.00157
807.17794,0.00892
805.68815,0.00720
804.19836,0.02671
802.70857,0.02126
801.21879,0.01583
799.72900,0.13236
798.23921,0.11563
796.74942,0.14891
795.25963,0.14662
793.76984,0.14436
792.28006,0.17620
790.79027,0.22625
789.30048,0.18393
787.81069,0.25070
786.32090,0.21373
784.83111,0.17680
783.34132,0.26030
781.85154,0.17571
780.36175,0.27290
778.87196,0.28908
777.38217,0.30529
775.89238,0.34652
774.40259,0.27873
772.91281,0.33667
771.42302,0.32573
769.93323,0.31481
768.44344,0.30316
766.95365,0.38545
765.46386,0.30266
763.97407,0.26535
762.48429,0.27047
760.99450,0.27561
759.50471,0.22626
758.01492,0.12998
756.52513,0.14581
755.03534,0.13895
753.54556,0.13211
752.05577,0.05109
750.56598,0.07611
749.07619,0.08148
747.58640,0.08081
746.09661,0.08017
744.60683,0.07652
743.11704,0.04261
741.62725,0.05114
740.13746,0.03167
738.64767,0.01223
737.15788,0.06325
735.66809,0.05219
734.17831,0.00482
732.68852,0.02032
731.19873,0.03585
729.70894,0.02339
728.21915,0.05185
726.72936,0.00157
725.23958,0.00115
723.74979,0.00583
722.26000,0.01053
720.77021,0.03571
719.28042,0.09121
717.79063,0.07252
716.30084,0.09096
714.81106,0.10943
713.32127,0.02872
711.83148,0.02983
710.34169,0.05822
708.85190,0.06317
707.36211,0.06815
705.87233,0.03452
704.38254,0.09938
702.89275,0.09459
701.40296,0.07771
699.91317,0.06085
698.42338,0.10764
696.93360,0.12265
695.44381,0.15132
693.95402,0.13609
692.46423,0.12088
690.97444,0.12540
689.48465,0.08601
687.99486,0.07089
686.50508,0.05731
685.01529,0.04375
683.52550,0.08929
682.03571,0.00157
680.54592,0.02158
679.05613,0.04389
677.56635,0.06622
676.07656,0.03329
674.58677,0.10491
673.09698,0.08264
671.60719,0.06948
670.11740,0.05636
668.62761,0.04931
667.13783,0.07259
665.64804,0.06106
664.15825,0.04956
662.66846,0.05777
661.17867,0.09479
659.68888,0.11972
658.19910,0.10605
656.70931,0.09240
655.21952,0.05380
653.72973,0.10004
652.23994,0.11601
650.75015,0.08961
649.26037,0.06322
647.77058,0.05504
646.28079,0.10294
644.79100,0.08118
643.30121,0.11246
641.81142,0.14377
640.32163,0.11149
638.83185,0.05198
637.34206,0.00157
635.85227,0.02605
634.36248,0.05056
632.87269,0.05767
631.38290,0.05421
629.89312,0.05835
628.40333,0.07993
626.91354,0.10154
625.42375,0.06790
623.93396,0.03882
622.44417,0.04537
620.95438,0.05194
619.46460,0.08807
617.97481,0.11818
616.48502,0.06954
614.99523,0.06108
613.50544,0.05264
612.01565,0.07528
610.52587,0.06462
609.03608,0.10246
607.54629,0.08731
606.05650,0.07219
604.56671,0.08436
603.07692,0.11019
601.58714,0.11862
600.09735,0.12709
598.60756,0.07878
597.11777,0.13955
595.62798,0.17612
594.13819,0.16197
592.64840,0.14785
591.15862,0.11331
589.66883,0.15301
588.17904,0.16094
586.68925,0.14541
585.19946,0.12991
583.70967,0.17123
582.21989,0.28529
580.73010,0.29032
579.24031,0.29537
577.75052,0.32015
576.26073,0.36161
574.77094,0.36069
573.28115,0.36585
571.79137,0.37104
570.30158,0.42775
568.81179,0.45420
567.32200,0.49280
565.83221,0.53142
564.34242,0.61399
562.85264,0.63297
561.36285,0.66259
559.87306,0.71343
558.38327,0.76430
556.89348,0.85307
555.40369,0.82372
553.91391,0.82999
552.42412,0.83629
550.93433,0.88578
549.44454,0.86108
547.95475,0.90003
546.46496,0.94051
544.97517,0.98102
543.48539,0.98067
541.99560,0.99094
540.50581,1.00351
539.01602,1.01611
537.52623,1.00829
536.03644,1.01261
534.54666,1.02605
533.05687,1.00619
531.56708,0.98636
530.07729,0.85295
528.58750,0.82257
527.09771,0.78389
525.60792,0.74523
524.11814,0.70281
522.62835,0.67557
521.13856,0.71197
519.64877,0.68630
518.15898,0.66065
516.66919,0.56990
515.17941,0.45039
513.68962,0.44830
512.19983,0.44624
510.71004,0.44648
509.22025,0.41493
507.73046,0.37736
506.24068,0.35723
504.75089,0.33712
503.26110,0.36324
501.77131,0.34698
500.28152,0.30878
498.79173,0.27061
497.30194,0.25443
495.81216,0.26402
494.32237,0.25017
492.83258,0.23634
491.34279,0.25661
489.85300,0.13454
488.36321,0.15033
486.87343,0.14797
485.38364,0.14563
483.89385,0.13272
482.40406,0.11226
480.91427,0.10547
479.42448,0.09870
477.93469,0.13436
476.44491,0.07312
474.95512,0.07173
473.46533,0.07037
471.97554,0.15916
470.48575,0.11771
468.99596,0.11870
467.50618,0.13714
466.01639,0.15560
464.52660,0.19303
463.03681,0.21230
461.54702,0.16496
460.05723,0.11764
458.56745,0.09459
457.07766,0.14881
455.58787,0.15080
454.09808,0.15282
452.60829,0.17683
451.11850,0.23418
449.62871,0.22871
448.13893,0.22326
446.64914,0.32766
445.15935,0.34726
443.66956,0.46382
442.17977,0.48196
440.68998,0.50012
439.20020,0.50014
437.71041,0.60621
436.22062,0.61158
434.73083,0.61698
433.24104,0.67617
431.75125,0.74297
430.26146,0.74769
428.77168,0.75244
427.28189,0.83901
425.79210,0.87411
424.30231,0.90696
422.81252,0.93983
421.32273,0.99773
419.83295,1.05263
418.34316,1.04999
416.85337,1.04738
415.36358,0.91908
413.87379,0.85140
412.38400,0.86098
410.89422,0.87060
409.40443,0.90599
407.91464,0.83539
406.42485,0.94808
404.93506,0.92448
403.44527,0.90091
401.95548,0.92281
400.46570,0.87657
398.97591,0.87352
397.48612,0.87051
395.99633,0.87585
394.50654,0.84335
393.01675,0.82603
391.52697,0.80873
390.03718,0.83993
388.54739,0.84086
387.05760,0.78881
385.56781,0.73678
384.07802,0.69236
382.58824,0.58888
381.09845,0.59525
379.60866,0.60165
378.11887,0.48917
376.62908,0.53576
375.13929,0.50664
373.64950,0.47755
372.15972,0.44697
370.66993,0.38915
369.18014,0.30940
367.69035,0.22968
366.20056,0.29766
364.71077,0.25510
363.22099,0.26785
361.73120,0.28062
360.24141,0.22906
358.75162,0.12904
357.26183,0.14569
355.77204,0.16236
354.28225,0.10636
352.79247,0.12914
351.30268,0.12848
349.81289,0.12784
348.32310,0.10223
346.83331,0.10392
345.34352,0.05944
343.85374,0.01498
342.36395,0.07582
340.87416,0.09428
339.38437,0.05445
337.89458,0.01465
336.40479,0.08165
334.91501,0.06386
333.42522,0.05671
331.93543,0.04958
330.44564,0.00157
328.95585,0.06193
327.46606,0.04507
325.97627,0.02823
324.48649,0.09624
322.99670,0.01584
321.50691,0.06506
320.01712,0.11430
318.52733,0.09466
317.03754,0.04021
315.54776,0.02137
314.05797,0.00257
312.56818,0.06331
311.07839,0.08924
309.58860,0.07733
308.09881,0.06545
306.60902,0.00058
305.11924,0.07963
303.62945,0.04132
302.13966,0.00304
300.64987,0.01895
299.16008,0.00157
