1778.52000,0.04685
1777.03021,0.03147
1775.54042,0.01974
1774.05063,0.02958
1772.56085,0.06818
1771.07106,0.03149
1769.58127,0.04507
1768.09148,0.07485
1766.60169,0.03293
1765.11190,0.05564
1763.62212,0.05329
1762.13233,0.03843
1760.64254,0.00748
1759.15275,0.03039
1757.66296,0.04619
1756.17317,0.03512
1754.68339,0.09766
1753.19360,0.03826
1751.70381,0.03991
1750.21402,0.07748
1748.72423,0.00748
1747.23444,0.03693
1745.74465,0.03235
1744.25487,0.03141
1742.76508,0.02155
1741.27529,0.04763
1739.78550,0.05940
1738.29571,0.06764
1736.80592,0.04722
1735.31614,0.07888
1733.82635,0.04422
1732.33656,0.08136
1730.84677,0.06295
1729.35698,0.07149
1727.86719,0.05139
1726.37740,0.04927
1724.88762,0.03644
1723.39783,0.02905
1721.90804,0.05759
1720.41825,0.04133
1718.92846,0.01077
1717.43867,0.07354
1715.94889,0.01618
1714.45910,0.10417
1712.96931,0.08458
1711.47952,0.07580
1709.98973,0.01506
1708.49994,0.05661
1707.01016,0.05875
1705.52037,0.06095
1704.03058,0.05602
1702.54079,0.06728
1701.05100,0.07681
1699.56121,0.08100
1698.07142,0.07628
1696.58164,0.03932
1695.09185,0.05622
1693.60206,0.11623
1692.11227,0.05252
1690.62248,0.10904
1689.13269,0.08131
1687.64291,0.10744
1686.15312,0.14259
1684.66333,0.05940
1683.17354,0.12336
1681.68375,0.08333
1680.19396,0.11869
1678.70417,0.10746
1677.21439,0.12139
1675.72460,0.14256
1674.23481,0.17992
1672.74502,0.09534
1671.25523,0.08796
1669.76544,0.03219
1668.27566,0.08411
1666.78587,0.10558
1665.29608,0.07867
1663.80629,0.11280
1662.31650,0.11470
1660.82671,0.11485
1659.33693,0.10429
1657.84714,0.09737
1656.35735,0.11023
1654.86756,0.08189
1653.37777,0.06615
1651.88798,0.07738
1650.39819,0.13350
1648.90841,0.16456
1647.41862,0.07548
1645.92883,0.08243
1644.43904,0.08943
1642.94925,0.09558
1641.45946,0.06232
1639.96968,0.06140
1638.47989,0.09641
1636.99010,0.05612
1635.50031,0.07150
1634.01052,0.09052
1632.52073,0.06295
1631.03094,0.03184
1629.54116,0.13353
1628.05137,0.12764
1626.56158,0.12181
1625.07179,0.11422
1623.58200,0.10669
1622.09221,0.05078
1620.60243,0.00748
1619.11264,0.07231
1617.62285,0.09056
1616.13306,0.09809
1614.64327,0.12182
1613.15348,0.13125
1611.66370,0.09229
1610.17391,0.11079
1608.68412,0.11858
1607.19433,0.08516
1605.70454,0.09126
1604.21475,0.10369
1602.72496,0.11617
1601.23518,0.07399
1599.74539,0.04801
1598.25560,0.08127
1596.76581,0.05001
1595.27602,0.05109
1593.78623,0.02889
1592.29645,0.06954
1590.80666,0.07257
1589.31687,0.00748
1587.82708,0.03633
1586.33729,0.02040
1584.84750,0.07447
1583.35771,0.07837
1581.86793,0.04644
1580.37814,0.08631
1578.88835,0.05628
1577.39856,0.05859
1575.90877,0.02149
1574.41898,0.05081
1572.92920,0.05686
1571.43941,0.07193
1569.94962,0.05207
1568.45983,0.03227
1566.97004,0.03673
1565.48025,0.03407
1563.99047,0.05478
1562.50068,0.05222
1561.01089,0.03178
1559.52110,0.03829
1558.03131,0.06639
1556.54152,0.05686
1555.05173,0.05097
1553.56195,0.06487
1552.07216,0.04294
1550.58237,0.09102
1549.09258,0.05485
1547.60279,0.18555
1546.11300,0.19253
1544.62322,0.22109
1543.13343,0.13668
1541.64364,0.00748
1540.15385,0.01577
1538.66406,0.02412
1537.17427,0.08902
1535.68448,0.06249
1534.19470,0.05215
1532.70491,0.06519
1531.21512,0.01369
1529.72533,0.05374
1528.23554,0.08128
1526.74575,0.08017
1525.25597,0.05759
1523.76618,0.08349
1522.27639,0.07895
1520.78660,0.05293
1519.29681,0.05567
1517.80702,0.04231
1516.31724,0.00748
1514.82745,0.03188
1513.33766,0.04557
1511.84787,0.05931
1510.35808,0.10360
1508.86829,0.05825
1507.37850,0.01833
1505.88872,0.03945
1504.39893,0.03372
1502.90914,0.02445
1501.41935,0.04035
1499.92956,0.02759
1498.43977,0.08306
1496.94999,0.06861
1495.46020,0.02013
1493.97041,0.04885
1492.48062,0.06326
1490.99083,0.08131
1489.50104,0.14067
1488.01125,0.11846
1486.52147,0.09631
1485.03168,0.12533
1483.54189,0.18489
1482.05210,0.11356
1480.56231,0.19296
1479.07252,0.22937
1477.58274,0.26761
1476.09295,0.31668
1474.60316,0.19896
1473.11337,0.24095
1471.62358,0.21124
1470.13379,0.22821
1468.64401,0.21654
1467.15422,0.20851
1465.66443,0.21757
1464.17464,0.22668
1462.68485,0.18293
1461.19506,0.13563
1459.70527,0.13683
1458.21549,0.14884
1456.72570,0.15731
1455.23591,0.11202
1453.74612,0.12956
1452.25633,0.12025
1450.76654,0.08588
1449.27676,0.10178
1447.78697,0.08904
1446.29718,0.12657
1444.80739,0.13456
1443.31760,0.14260
1441.82781,0.14980
1440.33802,0.09425
1438.84824,0.05132
1437.35845,0.02279
1435.86866,0.04993
1434.37887,0.08429
1432.88908,0.00748
1431.39929,0.06432
1429.90951,0.04227
1428.41972,0.07769
1426.92993,0.13109
1425.44014,0.06615
1423.95035,0.07660
1422.46056,0.08711
1420.97078,0.07075
1419.48099,0.09930
1417.99120,0.07588
1416.50141,0.09735
1415.01162,0.11349
1413.52183,0.08664
1412.03204,0.05445
1410.54226,0.06716
1409.05247,0.16962
1407.56268,0.07300
1406.07289,0.10739
1404.58310,0.07905
1403.09331,0.05076
1401.60353,0.09069
1400.11374,0.03559
1398.62395,0.13662
1397.13416,0.12288
1395.64437,0.09664
1394.15458,0.13683
1392.66479,0.10172
1391.17501,0.06488
1389.68522,0.01731
1388.19543,0.00748
1386.70564,0.02203
1385.21585,0.03663
1383.72606,0.11227
1382.23628,0.08033
1380.74649,0.03768
1379.25670,0.05249
1377.76691,0.08169
1376.27712,0.10916
1374.78733,0.11336
1373.29755,0.17680
1371.80776,0.15778
1370.31797,0.28591
1368.82818,0.31005
1367.33839,0.33424
1365.84860,0.36027
1364.35881,0.40788
1362.86903,0.44298
1361.37924,0.45841
1359.88945,0.50438
1358.39966,0.49300
1356.90987,0.40633
1355.42008,0.38967
1353.93030,0.48428
1352.44051,0.47490
1350.95072,0.46557
1349.46093,0.41144
1347.97114,0.33046
1346.48135,0.22083
1344.99156,0.14353
1343.50178,0.17751
1342.01199,0.16311
1340.52220,0.09674
1339.03241,0.09679
1337.54262,0.10586
1336.05283,0.08718
1334.56305,0.06855
1333.07326,0.07240
1331.58347,0.04759
1330.09368,0.08024
1328.60389,0.06989
1327.11410,0.11162
1325.62432,0.08522
1324.13453,0.11629
1322.64474,0.00748
1321.15495,0.02775
1319.66516,0.02565
1318.17537,0.02360
1316.68558,0.10143
1315.19580,0.04656
1313.70601,0.02403
1312.21622,0.03385
1310.72643,0.03654
1309.23664,0.03031
1307.74685,0.01876
1306.25707,0.02340
1304.76728,0.04155
1303.27749,0.05974
1301.78770,0.05378
1300.29791,0.08553
1298.80812,0.03661
1297.31834,0.00748
1295.82855,0.07774
1294.33876,0.02786
1292.84897,0.00853
1291.35918,0.05998
1289.86939,0.06663
1288.37960,0.07333
1286.88982,0.04242
1285.40003,0.03308
1283.91024,0.07761
1282.42045,0.08990
1280.93066,0.07713
1279.44087,0.10746
1277.95109,0.05712
1276.46130,0.05348
1274.97151,0.07948
1273.48172,0.10553
1271.99193,0.04643
1270.50214,0.10398
1269.01235,0.01807
1267.52257,0.10263
1266.03278,0.02759
1264.54299,0.09432
1263.05320,0.11266
1261.56341,0.09608
1260.07362,0.07954
1258.58384,0.11956
1257.09405,0.12017
1255.60426,0.08855
1254.11447,0.06235
1252.62468,0.09720
1251.13489,0.04420
1249.64511,0.05404
1248.15532,0.04419
1246.66553,0.05324
1245.17574,0.06233
1243.68595,0.05802
1242.19616,0.05018
1240.70637,0.09800
1239.21659,0.06155
1237.72680,0.03234
1236.23701,0.10363
1234.74722,0.07272
1233.25743,0.04007
1231.76764,0.00748
1230.27786,0.04469
1228.78807,0.01558
1227.29828,0.06007
1225.80849,0.05976
1224.31870,0.04875
1222.82891,0.08084
1221.33912,0.08786
1219.84934,0.08776
1218.35955,0.08772
1216.86976,0.03570
1215.37997,0.05190
1213.89018,0.05559
1212.40039,0.02167
1210.91061,0.05776
1209.42082,0.06161
1207.93103,0.05295
1206.44124,0.04435
1204.95145,0.08243
1203.46166,0.03088
1201.97188,0.01884
1200.48209,0.03915
1198.99230,0.00748
1197.50251,0.06990
1196.01272,0.02654
1194.52293,0.07472
1193.03314,0.12295
1191.54336,0.09947
1190.05357,0.08143
1188.56378,0.00783
1187.07399,0.06703
1185.58420,0.02761
1184.09441,0.12638
1182.60463,0.10501
1181.11484,0.08369
1179.62505,0.05165
1178.13526,0.00891
1176.64547,0.00748
1175.15568,0.08640
1173.66589,0.05774
1172.17611,0.07398
1170.68632,0.09925
1169.19653,0.12456
1167.70674,0.08535
1166.21695,0.05874
1164.72716,0.15238
1163.23738,0.00748
1161.74759,0.02832
1160.25780,0.10662
1158.76801,0.08181
1157.27822,0.05706
1155.78843,0.10502
1154.29865,0.09203
1152.80886,0.09704
1151.31907,0.07519
1149.82928,0.03903
1148.33949,0.10339
1146.84970,0.11757
1145.35991,0.13180
1143.87013,0.10304
1142.38034,0.18733
1140.89055,0.03489
1139.40076,0.07085
1137.91097,0.15351
1136.42118,0.16267
1134.93140,0.13062
1133.44161,0.09862
1131.95182,0.16893
1130.46203,0.14242
1128.97224,0.13031
1127.48245,0.13619
1125.99266,0.12239
1124.50288,0.07455
1123.01309,0.09942
1121.52330,0.12435
1120.03351,0.14663
1118.54372,0.15641
1117.05393,0.18956
1115.56415,0.24608
1114.07436,0.23090
1112.58457,0.25254
1111.09478,0.27424
1109.60499,0.30944
1108.11520,0.33213
1106.62542,0.33515
1105.13563,0.41535
1103.64584,0.40412
1102.15605,0.40549
1100.66626,0.37822
1099.17647,0.35099
1097.68668,0.41531
1096.19690,0.44021
1094.70711,0.42749
1093.21732,0.48658
1091.72753,0.45423
1090.23774,0.52598
1088.74795,0.59778
1087.25817,0.57097
1085.76838,0.51551
1084.27859,0.47983
1082.78880,0.55542
1081.29901,0.65080
1079.80922,0.61886
1078.31943,0.60402
1076.82965,0.58923
1075.33986,0.56463
1073.85007,0.48984
1072.36028,0.43664
1070.87049,0.53238
1069.38070,0.45954
1067.89092,0.44326
1066.40113,0.42704
1064.91134,0.39741
1063.42155,0.30326
1061.93176,0.34908
1060.44197,0.32140
1058.95219,0.23996
1057.46240,0.23032
1055.97261,0.22073
1054.48282,0.28116
1052.99303,0.26809
1051.50324,0.26584
1050.01345,0.19188
1048.52367,0.30274
1047.03388,0.19929
1045.54409,0.09588
1044.05430,0.13514
1042.56451,0.09732
1041.07472,0.10260
1039.58494,0.00748
1038.09515,0.09242
1036.60536,0.05095
1035.11557,0.00953
1033.62578,0.08029
1032.13599,0.03628
1030.64620,0.09278
1029.15642,0.18701
1027.66663,0.18980
1026.17684,0.19263
1024.68705,0.08072
1023.19726,0.11595
1021.70747,0.13330
1020.21769,0.12917
1018.72790,0.21837
1017.23811,0.23767
1015.74832,0.25701
1014.25853,0.28358
1012.76874,0.41067
1011.27896,0.50372
1009.78917,0.69010
1008.29938,0.79223
1006.80959,0.78049
1005.31980,0.76880
1003.83001,0.72398
1002.34022,0.86219
1000.85044,1.01838
999.36065,1.09211
997.87086,1.18024
996.38107,1.26843
994.89128,1.41227
993.40149,1.45571
991.91171,1.52073
990.42192,1.63065
988.93213,1.90386
987.44234,1.88293
985.95255,1.86204
984.46276,1.89503
982.97297,1.86169
981.48319,1.95218
979.99340,1.82925
978.50361,1.84451
977.01382,1.85981
975.52403,1.93078
974.03424,2.00000
972.54446,1.91679
971.05467,1.77444
969.56488,1.78103
968.07509,1.72579
966.58530,1.67059
965.09551,1.55715
963.60573,1.59983
962.11594,1.49366
960.62615,1.53464
959.13636,1.49227
957.64657,1.44994
956.15678,1.40497
954.66699,1.30445
953.17721,1.16630
951.68742,1.10355
950.19763,1.16283
948.70784,1.22217
947.21805,1.08781
945.72826,0.95351
944.23848,0.85693
942.74869,0.89495
941.25890,0.90252
939.76911,0.95589
938.27932,1.00931
936.78953,0.90581
935.29974,0.84363
933.80996,0.85504
932.32017,0.90956
930.83038,0.87265
929.34059,0.83579
927.85080,0.94069
926.36101,1.03130
924.87123,0.97844
923.38144,0.99022
921.89165,1.04779
920.40186,1.10542
918.91207,1.18552
917.42228,1.05578
915.93250,1.10190
914.44271,1.28261
912.95292,1.26874
911.46313,1.25492
909.97334,1.20975
908.48355,1.26689
906.99376,1.20928
905.50398,1.29522
904.01419,1.33458
902.52440,1.37398
901.03461,1.38115
899.54482,1.55341
898.05503,1.46381
896.56525,1.67205
895.07546,1.60587
893.58567,1.53975
892.09588,1.41448
890.60609,1.41483
889.11630,1.28787
887.62651,1.24528
886.13673,1.14353
884.64694,1.04184
883.15715,1.11421
881.66736,1.05208
880.17757,1.04921
878.68778,1.02665
877.19800,1.00415
875.70821,1.06422
874.21842,0.92521
872.72863,0.88493
871.23884,0.74064
869.74905,0.70225
868.25927,0.66391
866.76948,0.60051
865.27969,0.54972
863.78990,0.52768
862.30011,0.53080
860.81032,0.47748
859.32053,0.42420
857.83075,0.46156
856.34096,0.43081
854.85117,0.39473
853.36138,0.40713
851.87159,0.41241
850.38180,0.41775
848.89202,0.31191
847.40223,0.22944
845.91244,0.20982
844.42265,0.19562
842.93286,0.18148
841.44307,0.14407
839.95329,0.11209
838.46350,0.11963
836.97371,0.08596
835.48392,0.09001
833.99413,0.09412
832.50434,0.15030
831.01455,0.18680
829.52477,0.14442
828.03498,0.13437
826.54519,0.11990
825.05540,0.10548
823.56561,0.07586
822.07582,0.06962
820.58604,0.07239
819.09625,0.08957
817.60646,0.10680
816.11667,0.00748
814.62688,0.14721
813.13709,0.11838
811.64730,0.09677
810.15752,0.05817
808.66773,0.01962
807.17794,0.02149
805.68815,0.04672
804.19836,0.03793
802.70857,0.05161
801.21879,0.06534
799.72900,0.13742
798.23921,0.18983
796.74942,0.19026
795.25963,0.18895
793.76984,0.18769
792.28006,0.18469
790.79027,0.24991
789.30048,0.24522
787.81069,0.21726
786.32090,0.22074
784.83111,0.22428
783.34132,0.28437
781.85154,0.22791
780.36175,0.24506
778.87196,0.27481
777.38217,0.30462
775.89238,0.35959
774.40259,0.36079
772.91281,0.31899
771.42302,0.29519
769.93323,0.27143
768.44344,0.30513
766.95365,0.32095
765.46386,0.37269
763.97407,0.27918
762.48429,0.25479
760.99450,0.23044
759.50471,0.29136
758.01492,0.19268
756.52513,0.17297
755.03534,0.17306
753.54556,0.17319
752.05577,0.05318
750.56598,0.12158
749.07619,0.10931
747.58640,0.12400
746.09661,0.13875
744.60683,0.09434
743.11704,0.09842
741.62725,0.00748
740.13746,0.03341
738.64767,0.05939
737.15788,0.01456
735.66809,0.12048
734.17831,0.00579
732.68852,0.04723
731.19873,0.08872
729.70894,0.11053
728.21915,0.05883
726.72936,0.08433
725.23958,0.11167
723.74979,0.06373
722.26000,0.01583
720.77021,0.07741
719.28042,0.06908
717.79063,0.03748
716.30084,0.04630
714.81106,0.05517
713.32127,0.03628
711.83148,0.07485
710.34169,0.03992
708.85190,0.05886
707.36211,0.07785
705.87233,0.05384
704.38254,0.09985
702.89275,0.03468
701.40296,0.04581
699.91317,0.05698
698.42338,0.04579
696.93360,0.17098
695.44381,0.18321
693.95402,0.21343
692.46423,0.24370
690.97444,0.13948
689.48465,0.04966
687.99486,0.03703
686.50508,0.03701
685.01529,0.03704
683.52550,0.05865
682.03571,0.04623
680.54592,0.07871
679.05613,0.04307
677.56635,0.00748
676.07656,0.08074
674.58677,0.07692
673.09698,0.04087
671.60719,0.02639
670.11740,0.01196
668.62761,0.04781
667.13783,0.06577
665.64804,0.07123
664.15825,0.07674
662.66846,0.07154
661.17867,0.04307
659.68888,0.00748
658.19910,0.06748
656.70931,0.12754
655.21952,0.11947
653.72973,0.13658
652.23994,0.12144
650.75015,0.12610
649.26037,0.13080
647.77058,0.17322
646.28079,0.21032
644.79100,0.19006
643.30121,0.16716
641.81142,0.14431
640.32163,0.14933
638.83185,0.06828
637.34206,0.04469
635.85227,0.04358
634.36248,0.04252
632.87269,0.09443
631.38290,0.10692
629.89312,0.13562
628.40333,0.10426
626.91354,0.07296
625.42375,0.11437
623.93396,0.10560
622.44417,0.05651
620.95438,0.00748
619.46460,0.12874
617.97481,0.12269
616.48502,0.07722
614.99523,0.09728
613.50544,0.11739
612.01565,0.07746
610.52587,0.03758
609.03608,0.06234
607.54629,0.06920
606.05650,0.07612
604.56671,0.10999
603.07692,0.15827
601.58714,0.13664
600.09735,0.11506
598.60756,0.05766
597.11777,0.00748
595.62798,0.02845
594.13819,0.02166
592.64840,0.01493
591.15862,0.07732
589.66883,0.03571
588.17904,0.14484
586.68925,0.15445
585.19946,0.16413
583.70967,0.21600
582.21989,0.27152
580.73010,0.27058
579.24031,0.26970
577.75052,0.32537
576.26073,0.32369
574.77094,0.36511
573.28115,0.37520
571.79137,0.38533
570.30158,0.44664
568.81179,0.49186
567.32200,0.49228
565.83221,0.49276
564.34242,0.64397
562.85264,0.63737
561.36285,0.75819
559.87306,0.76695
558.38327,0.77575
556.89348,0.82497
555.40369,0.83836
553.91391,0.86974
552.42412,0.90118
550.93433,0.92369
549.44454,0.91397
547.95475,0.97247
546.46496,0.95836
544.97517,0.94431
543.48539,0.97964
541.99560,1.06525
540.50581,1.03700
539.01602,1.00881
537.52623,1.09098
536.03644,1.05841
534.54666,1.07072
533.05687,1.03107
531.56708,0.99147
530.07729,0.87658
528.58750,0.83888
527.09771,0.81737
525.60792,0.79591
524.11814,0.80501
522.62835,0.78545
521.13856,0.69598
519.64877,0.62629
518.15898,0.55666
516.66919,0.58036
515.17941,0.56824
513.68962,0.54361
512.19983,0.51903
510.71004,0.60393
509.22025,0.55972
507.73046,0.38461
506.24068,0.35485
504.75089,0.32515
503.26110,0.29550
501.77131,0.30895
500.28152,0.26684
498.79173,0.22479
497.30194,0.23122
495.81216,0.19824
494.32237,0.24872
492.83258,0.29926
491.34279,0.07090
489.85300,0.17087
488.36321,0.19734
486.87343,0.17274
485.38364,0.14820
483.89385,0.06719
482.40406,0.09746
480.91427,0.07486
479.42448,0.05231
477.93469,0.18319
476.44491,0.07553
474.95512,0.04148
473.46533,0.00748
471.97554,0.11415
470.48575,0.06301
468.99596,0.14288
467.50618,0.16629
466.01639,0.18975
464.52660,0.07962
463.03681,0.05027
461.54702,0.06222
460.05723,0.07423
458.56745,0.07194
457.07766,0.14684
455.58787,0.16618
454.09808,0.18557
452.60829,0.09020
451.11850,0.12763
449.62871,0.16601
448.13893,0.20444
446.64914,0.26176
445.15935,0.37833
443.66956,0.42320
442.17977,0.44748
440.68998,0.47182
439.20020,0.52581
437.71041,0.60676
436.22062,0.65996
434.73083,0.71320
433.24104,0.69026
431.75125,0.69069
430.26146,0.77907
428.77168,0.86751
427.28189,0.81786
425.79210,1.03556
424.30231,1.15823
422.81252,1.28096
421.32273,1.37324
419.83295,1.26286
418.34316,1.28169
416.85337,1.30057
415.36358,1.05222
413.87379,0.92949
412.38400,0.88843
410.89422,0.84743
409.40443,1.03699
407.91464,0.97905
406.42485,0.99291
404.93506,1.01131
403.44527,1.02976
401.95548,0.98458
400.46570,1.03811
398.97591,0.98407
397.48612,0.93007
395.99633,0.92456
394.50654,0.98548
393.01675,0.94958
391.52697,0.91373
390.03718,0.93174
388.54739,0.79913
387.05760,0.84595
385.56781,0.89283
384.07802,0.74242
382.58824,0.78761
381.09845,0.73956
379.60866,0.69156
378.11887,0.67591
376.62908,0.60111
375.13929,0.53623
373.64950,0.47140
372.15972,0.50080
370.66993,0.39032
369.18014,0.35704
367.69035,0.32381
366.20056,0.30856
364.71077,0.34719
363.22099,0.27555
361.73120,0.20395
360.24141,0.11536
358.75162,0.21160
357.26183,0.18949
355.77204,0.16744
354.28225,0.17055
352.79247,0.14680
351.30268,0.17782
349.81289,0.20889
348.32310,0.05434
346.83331,0.00748
345.34352,0.02693
343.85374,0.04642
342.36395,0.10365
340.87416,0.11069
339.38437,0.09088
337.89458,0.07112
336.40479,0.05500
334.91501,0.04431
333.42522,0.04982
331.93543,0.05538
330.44564,0.00000
328.95585,0.07055
327.46606,0.05952
325.97627,0.04855
324.48649,0.08225
322.99670,0.12856
321.50691,0.09509
320.01712,0.06167
318.52733,0.12069
317.03754,0.11698
315.54776,0.06488
314.05797,0.01283
312.56818,0.00748
311.07839,0.09747
309.58860,0.12115
308.09881,0.14487
306.60902,0.08792
305.11924,0.09202
303.62945,0.05939
302.13966,0.02681
300.64987,0.00748
299.16008,0.00748
