1778.52000,0.07940
1777.03021,0.11827
1775.54042,0.04266
1774.05063,0.08824
1772.56085,0.05239
1771.07106,0.05184
1769.58127,0.08218
1768.09148,0.07513
1766.60169,0.08576
1765.11190,0.12288
1763.62212,0.00367
1762.13233,0.10697
1760.64254,0.00330
1759.15275,0.07368
1757.66296,0.06702
1756.17317,0.05162
1754.68339,0.12657
1753.19360,0.07384
1751.70381,0.06961
1750.21402,0.06104
1748.72423,0.02389
1747.23444,0.00441
1745.74465,0.07531
1744.25487,0.05594
1742.76508,0.08069
1741.27529,0.11431
1739.78550,0.05106
1738.29571,0.00330
1736.80592,0.06700
1735.31614,0.09332
1733.82635,0.11749
1732.33656,0.04260
1730.84677,0.11975
1729.35698,0.10004
1727.86719,0.00330
1726.37740,0.02499
1724.88762,0.10620
1723.39783,0.06413
1721.90804,0.12124
1720.41825,0.05285
1718.92846,0.02416
1717.43867,0.02637
1715.94889,0.15858
1714.45910,0.11465
1712.96931,0.02231
1711.47952,0.10624
1709.98973,0.06027
1708.49994,0.06722
1707.01016,0.08084
1705.52037,0.09451
1704.03058,0.07740
1702.54079,0.03832
1701.05100,0.12264
1699.56121,0.06606
1698.07142,0.07120
1696.58164,0.10283
1695.09185,0.26227
1693.60206,0.17948
1692.11227,0.13639
1690.62248,0.22111
1689.13269,0.25522
1687.64291,0.20349
1686.15312,0.34565
1684.66333,0.25439
1683.17354,0.36362
1681.68375,0.33854
1680.19396,0.28049
1678.70417,0.40310
1677.21439,0.44868
1675.72460,0.44146
1674.23481,0.42327
1672.74502,0.43819
1671.25523,0.44655
1669.76544,0.48360
1668.27566,0.61762
1666.78587,0.73628
1665.29608,0.70522
1663.80629,0.81739
1662.31650,0.78644
1660.82671,0.82163
1659.33693,0.79300
1657.84714,0.77984
1656.35735,0.67424
1654.86756,0.61273
1653.37777,0.55570
1651.88798,0.54937
1650.39819,0.57174
1648.90841,0.56553
1647.41862,0.53515
1645.92883,0.51694
1644.43904,0.49878
1642.94925,0.38707
1641.45946,0.33929
1639.96968,0.26955
1638.47989,0.34082
1636.99010,0.34167
1635.50031,0.22144
1634.01052,0.24222
1632.52073,0.24324
1631.03094,0.26194
1629.54116,0.19259
1628.05137,0.29289
1626.56158,0.34700
1625.07179,0.20953
1623.58200,0.30340
1622.09221,0.24094
1620.60243,0.20497
1619.11264,0.22852
1617.62285,0.14420
1616.13306,0.15245
1614.64327,0.26428
1613.15348,0.29686
1611.66370,0.38017
1610.17391,0.33798
1608.68412,0.25621
1607.19433,0.26920
1605.70454,0.26683
1604.21475,0.20064
1602.72496,0.13450
1601.23518,0.22481
1599.74539,0.09932
1598.25560,0.09503
1596.76581,0.13485
1595.27602,0.07120
1593.78623,0.15959
1592.29645,0.25464
1590.80666,0.22861
1589.31687,0.20043
1587.82708,0.10843
1586.33729,0.08476
1584.84750,0.12944
1583.35771,0.09047
1581.86793,0.12645
1580.37814,0.12063
1578.88835,0.03778
1577.39856,0.06512
1575.90877,0.00000
1574.41898,0.02257
1572.92920,0.04520
1571.43941,0.03705
1569.94962,0.02014
1568.45983,0.00330
1566.97004,0.04964
1565.48025,0.06081
1563.99047,0.09626
1562.50068,0.18022
1561.01089,0.03296
1559.52110,0.00911
1558.03131,0.07688
1556.54152,0.02137
1555.05173,0.06282
1553.56195,0.05808
1552.07216,0.09745
1550.58237,0.05097
1549.09258,0.11688
1547.60279,0.12778
1546.11300,0.11011
1544.62322,0.11011
1543.13343,0.11457
1541.64364,0.12129
1540.15385,0.06309
1538.66406,0.00495
1537.17427,0.11151
1535.68448,0.14545
1534.19470,0.06491
1532.70491,0.02847
1531.21512,0.10222
1529.72533,0.05048
1528.23554,0.08029
1526.74575,0.01765
1525.25597,0.08062
1523.76618,0.09077
1522.27639,0.08337
1520.78660,0.12888
1519.29681,0.16784
1517.80702,0.14518
1516.31724,0.05871
1514.82745,0.09564
1513.33766,0.10178
1511.84787,0.10799
1510.35808,0.09883
1508.86829,0.08312
1507.37850,0.06086
1505.88872,0.11575
1504.39893,0.00330
1502.90914,0.09795
1501.41935,0.12659
1499.92956,0.12885
1498.43977,0.10253
1496.94999,0.03222
1495.46020,0.10733
1493.97041,0.15828
1492.48062,0.14100
1490.99083,0.16122
1489.50104,0.25858
1488.01125,0.25909
1486.52147,0.25966
1485.03168,0.27349
1483.54189,0.28298
1482.05210,0.37182
1480.56231,0.37041
1479.07252,0.52985
1477.58274,0.55938
1476.09295,0.66607
1474.60316,0.64947
1473.11337,0.72983
1471.62358,0.74858
1470.13379,0.82466
1468.64401,0.83471
1467.15422,0.85143
1465.66443,0.86710
1464.17464,0.88283
1462.68485,0.83364
1461.19506,1.05543
1459.70527,0.96890
1458.21549,0.99037
1456.72570,0.91937
1455.23591,0.94756
1453.74612,0.97800
1452.25633,1.02832
1450.76654,0.91350
1449.27676,0.79213
1447.78697,0.75672
1446.29718,0.70815
1444.80739,0.67836
1443.31760,0.64862
1441.82781,0.54516
1440.33802,0.52104
1438.84824,0.46174
1437.35845,0.44875
1435.86866,0.37855
1434.37887,0.29739
1432.88908,0.24272
1431.39929,0.30925
1429.90951,0.32738
1428.41972,0.40063
1426.92993,0.34178
1425.44014,0.41955
1423.95035,0.42469
1422.46056,0.42989
1420.97078,0.38668
1419.48099,0.37217
1417.99120,0.41718
1416.50141,0.36974
1415.01162,0.31574
1413.52183,0.32568
1412.03204,0.27841
1410.54226,0.20476
1409.05247,0.31839
1407.56268,0.23825
1406.07289,0.22645
1404.58310,0.23012
1403.09331,0.23384
1401.60353,0.22882
1400.11374,0.25689
1398.62395,0.20131
1397.13416,0.18324
1395.64437,0.20707
1394.15458,0.20012
1392.66479,0.13376
1391.17501,0.16657
1389.68522,0.17962
1388.19543,0.00330
1386.70564,0.03505
1385.21585,0.06685
1383.72606,0.04475
1382.23628,0.11522
1380.74649,0.06460
1379.25670,0.12636
1377.76691,0.15955
1376.27712,0.18399
1374.78733,0.20187
1373.29755,0.24625
1371.80776,0.24002
1370.31797,0.22723
1368.82818,0.30151
1367.33839,0.37584
1365.84860,0.31477
1364.35881,0.49825
1362.86903,0.50998
1361.37924,0.64511
1359.88945,0.74726
1358.39966,0.62039
1356.90987,0.74908
1355.42008,0.80955
1353.93030,0.72030
1352.44051,0.75445
1350.95072,0.78865
1349.46093,0.78767
1347.97114,0.79776
1346.48135,0.84976
1344.99156,0.65292
1343.50178,0.79093
1342.01199,0.74398
1340.52220,0.63541
1339.03241,0.68989
1337.54262,0.56602
1336.05283,0.60960
1334.56305,0.65324
1333.07326,0.54936
1331.58347,0.52262
1330.09368,0.58846
1328.60389,0.63012
1327.11410,0.68725
1325.62432,0.54401
1324.13453,0.58143
1322.64474,0.56385
1321.15495,0.50888
1319.66516,0.49031
1318.17537,0.47179
1316.68558,0.54474
1315.19580,0.43493
1313.70601,0.49257
1312.21622,0.43133
1310.72643,0.41420
1309.23664,0.34866
1307.74685,0.43517
1306.25707,0.40719
1304.76728,0.43764
1303.27749,0.46815
1301.78770,0.43373
1300.29791,0.39497
1298.80812,0.35406
1297.31834,0.29118
1295.82855,0.32527
1294.33876,0.30436
1292.84897,0.33636
1291.35918,0.27150
1289.86939,0.34437
1288.37960,0.41729
1286.88982,0.40546
1285.40003,0.30119
1283.91024,0.20578
1282.42045,0.27341
1280.93066,0.25080
1279.44087,0.28552
1277.95109,0.27623
1276.46130,0.36833
1274.97151,0.33823
1273.48172,0.30820
1271.99193,0.28813
1270.50214,0.23948
1269.01235,0.26798
1267.52257,0.15116
1266.03278,0.20841
1264.54299,0.41549
1263.05320,0.28123
1261.56341,0.25935
1260.07362,0.23753
1258.58384,0.21576
1257.09405,0.29758
1255.60426,0.30456
1254.11447,0.27856
1252.62468,0.21076
1251.13489,0.18708
1249.64511,0.14143
1248.15532,0.13547
1246.66553,0.16152
1245.17574,0.18762
1243.68595,0.13558
1242.19616,0.21355
1240.70637,0.24973
1239.21659,0.22430
1237.72680,0.11963
1236.23701,0.06567
1234.74722,0.14393
1233.25743,0.11761
1231.76764,0.09136
1230.27786,0.14335
1228.78807,0.10950
1227.29828,0.09994
1225.80849,0.13888
1224.31870,0.10080
1222.82891,0.00330
1221.33912,0.21231
1219.84934,0.18461
1218.35955,0.15695
1216.86976,0.21636
1215.37997,0.17671
1213.89018,0.21641
1212.40039,0.30022
1210.91061,0.30699
1209.42082,0.25214
1207.93103,0.21828
1206.44124,0.18447
1204.95145,0.08134
1203.46166,0.06857
1201.97188,0.07789
1200.48209,0.07624
1198.99230,0.00638
1197.50251,0.13480
1196.01272,0.08266
1194.52293,0.06473
1193.03314,0.04685
1191.54336,0.08519
1190.05357,0.11918
1188.56378,0.07394
1187.07399,0.22478
1185.58420,0.11798
1184.09441,0.15881
1182.60463,0.20299
1181.11484,0.24724
1179.62505,0.20674
1178.13526,0.24118
1176.64547,0.14132
1175.15568,0.09439
1173.66589,0.12460
1172.17611,0.20552
1170.68632,0.19620
1169.19653,0.18693
1167.70674,0.19974
1166.21695,0.17957
1164.72716,0.14404
1163.23738,0.21870
1161.74759,0.25817
1160.25780,0.09947
1158.76801,0.11592
1157.27822,0.13244
1155.78843,0.15011
1154.29865,0.11938
1152.80886,0.05346
1151.31907,0.11976
1149.82928,0.00330
1148.33949,0.11338
1146.84970,0.09137
1145.35991,0.06941
1143.87013,0.10918
1142.38034,0.10716
1140.89055,0.14705
1139.40076,0.27068
1137.91097,0.23359
1136.42118,0.26704
1134.93140,0.28512
1133.44161,0.30326
1131.95182,0.37652
1130.46203,0.37716
1128.97224,0.41089
1127.48245,0.34996
1125.99266,0.17235
1124.50288,0.27012
1123.01309,0.25562
1121.52330,0.24117
1120.03351,0.29727
1118.54372,0.37544
1117.05393,0.39420
1115.56415,0.42183
1114.07436,0.40987
1112.58457,0.38915
1111.09478,0.36849
1109.60499,0.44480
1108.11520,0.44408
1106.62542,0.55795
1105.13563,0.46483
1103.64584,0.44666
1102.15605,0.59594
1100.66626,0.48977
1099.17647,0.38366
1097.68668,0.51769
1096.19690,0.52623
1094.70711,0.67579
1093.21732,0.63158
1091.72753,0.53457
1090.23774,0.56976
1088.74795,0.60501
1087.25817,0.66675
1085.76838,0.66467
1084.27859,0.69129
1082.78880,0.66289
1081.29901,0.65217
1079.80922,0.74062
1078.31943,0.67054
1076.82965,0.60052
1075.33986,0.54377
1073.85007,0.65007
1072.36028,0.60005
1070.87049,0.57430
1069.38070,0.56844
1067.89092,0.57144
1066.40113,0.57450
1064.91134,0.58202
1063.42155,0.51251
1061.93176,0.43204
1060.44197,0.36044
1058.95219,0.30872
1057.46240,0.37819
1055.97261,0.44773
1054.48282,0.33891
1052.99303,0.39093
1051.50324,0.35050
1050.01345,0.46211
1048.52367,0.29184
1047.03388,0.25048
1045.54409,0.20918
1044.05430,0.32983
1042.56451,0.29194
1041.07472,0.38186
1039.58494,0.27801
1038.09515,0.26011
1036.60536,0.30946
1035.11557,0.35886
1033.62578,0.16933
1032.13599,0.22875
1030.64620,0.17149
1029.15642,0.12310
1027.66663,0.10671
1026.17684,0.09036
1024.68705,0.13906
1023.19726,0.08649
1021.70747,0.17934
1020.21769,0.17975
1018.72790,0.30135
1017.23811,0.34592
1015.74832,0.39055
1014.25853,0.51893
1012.76874,0.81917
1011.27896,1.32211
1009.78917,1.58502
1008.29938,1.62552
1006.80959,1.40948
1005.31980,1.19349
1003.83001,0.80906
1002.34022,0.77931
1000.85044,0.89498
999.36065,1.02172
997.87086,1.17826
996.38107,1.33485
994.89128,1.30978
993.40149,1.44996
991.91171,1.32589
990.42192,1.58073
988.93213,1.86205
987.44234,1.76348
985.95255,1.66496
984.46276,1.79887
982.97297,1.79188
981.48319,1.80697
979.99340,1.74722
978.50361,1.77784
977.01382,1.80852
975.52403,1.87669
974.03424,1.98457
972.54446,2.00000
971.05467,1.88113
969.56488,1.84600
968.07509,1.87592
966.58530,1.90589
965.09551,1.78724
963.60573,1.80520
962.11594,1.75715
960.62615,1.71356
959.13636,1.65460
957.64657,1.59571
956.15678,1.49942
954.66699,1.68512
953.17721,1.51847
951.68742,1.41795
950.19763,1.45515
948.70784,1.49240
947.21805,1.39425
945.72826,1.32920
944.23848,1.33909
942.74869,1.22789
941.25890,1.26653
939.76911,1.21602
938.27932,1.16557
936.78953,1.22860
935.29974,1.21460
933.80996,1.15220
932.32017,1.21761
930.83038,1.17185
929.34059,1.12614
927.85080,1.10581
926.36101,1.24633
924.87123,1.16445
923.38144,1.26103
921.89165,1.31142
920.40186,1.36186
918.91207,1.39694
917.42228,1.30212
915.93250,1.38577
914.44271,1.38357
912.95292,1.44751
911.46313,1.51151
909.97334,1.51168
908.48355,1.53835
906.99376,1.61132
905.50398,1.59405
904.01419,1.67264
902.52440,1.75129
901.03461,1.66371
899.54482,1.72595
898.05503,1.69574
896.56525,1.74048
895.07546,1.77756
893.58567,1.81470
892.09588,1.49618
890.60609,1.57638
889.11630,1.39894
887.62651,1.30305
886.13673,1.27549
884.64694,1.24800
883.15715,1.08179
881.66736,1.17555
880.17757,1.06232
878.68778,1.04716
877.19800,1.03206
875.70821,0.97627
874.21842,0.96678
872.72863,0.79437
871.23884,0.86429
869.74905,0.81864
868.25927,0.77304
866.76948,0.75943
865.27969,0.72166
863.78990,0.75882
862.30011,0.70134
860.81032,0.69126
859.32053,0.68124
857.83075,0.69221
856.34096,0.73186
854.85117,0.60197
853.36138,0.55363
851.87159,0.49654
850.38180,0.43950
848.89202,0.47503
847.40223,0.32119
845.91244,0.47798
844.42265,0.41346
842.93286,0.34900
841.44307,0.36058
839.95329,0.36341
838.46350,0.24736
836.97371,0.28113
835.48392,0.29625
833.99413,0.31142
832.50434,0.26607
831.01455,0.37056
829.52477,0.29008
828.03498,0.31319
826.54519,0.21631
825.05540,0.11948
823.56561,0.21104
822.07582,0.14406
820.58604,0.07714
819.09625,0.10059
817.60646,0.12409
816.11667,0.12782
814.62688,0.14702
813.13709,0.00330
811.64730,0.04267
810.15752,0.02263
808.66773,0.00265
807.17794,0.02334
805.68815,0.11457
804.19836,0.07591
802.70857,0.08135
801.21879,0.08685
799.72900,0.00871
798.23921,0.10243
796.74942,0.04422
795.25963,0.07858
793.76984,0.11300
792.28006,0.11443
790.79027,0.08949
789.30048,0.17473
787.81069,0.23360
786.32090,0.18460
784.83111,0.13566
783.34132,0.19029
781.85154,0.22516
780.36175,0.23145
778.87196,0.25211
777.38217,0.27283
775.89238,0.28150
774.40259,0.27259
772.91281,0.32101
771.42302,0.31222
769.93323,0.30349
768.44344,0.28160
766.95365,0.36769
765.46386,0.35693
763.97407,0.36384
762.48429,0.33556
760.99450,0.30735
759.50471,0.25716
758.01492,0.31716
756.52513,0.33096
755.03534,0.33711
753.54556,0.34331
752.05577,0.18107
750.56598,0.16206
749.07619,0.19817
747.58640,0.21672
746.09661,0.23532
744.60683,0.18349
743.11704,0.19340
741.62725,0.23419
740.13746,0.19575
738.64767,0.15737
737.15788,0.06618
735.66809,0.16006
734.17831,0.20775
732.68852,0.23457
731.19873,0.26144
729.70894,0.16833
728.21915,0.16999
726.72936,0.20034
725.23958,0.20431
723.74979,0.10482
722.26000,0.00538
720.77021,0.11503
719.28042,0.17626
717.79063,0.10320
716.30084,0.09297
714.81106,0.08280
713.32127,0.00330
711.83148,0.05077
710.34169,0.05204
708.85190,0.09412
707.36211,0.13625
705.87233,0.06060
704.38254,0.13699
702.89275,0.17379
701.40296,0.12143
699.91317,0.06914
698.42338,0.13694
696.93360,0.10568
695.44381,0.10091
693.95402,0.13474
692.46423,0.16863
690.97444,0.11557
689.48465,0.07358
687.99486,0.09772
686.50508,0.07347
685.01529,0.04927
683.52550,0.16609
682.03571,0.01646
680.54592,0.08274
679.05613,0.16008
677.56635,0.23749
676.07656,0.22244
674.58677,0.15238
673.09698,0.16167
671.60719,0.11155
670.11740,0.06148
668.62761,0.28900
667.13783,0.19499
665.64804,0.13849
664.15825,0.08204
662.66846,0.11596
661.17867,0.11689
659.68888,0.16413
658.19910,0.13544
656.70931,0.10681
655.21952,0.14762
653.72973,0.19068
652.23994,0.24261
650.75015,0.20650
649.26037,0.17044
647.77058,0.09699
646.28079,0.17337
644.79100,0.05819
643.30121,0.10716
641.81142,0.15618
640.32163,0.07420
638.83185,0.00330
637.34206,0.01593
635.85227,0.01540
634.36248,0.01493
632.87269,0.10041
631.38290,0.19036
629.89312,0.18345
628.40333,0.21404
626.91354,0.24469
625.42375,0.07716
623.93396,0.00440
622.44417,0.00438
620.95438,0.00441
619.46460,0.06618
617.97481,0.01126
616.48502,0.13261
614.99523,0.11305
613.50544,0.09355
612.01565,0.07410
610.52587,0.05030
609.03608,0.03537
607.54629,0.03702
606.05650,0.03872
604.56671,0.12528
603.07692,0.07974
601.58714,0.09372
600.09735,0.10776
598.60756,0.04697
597.11777,0.03029
595.62798,0.01147
594.13819,0.03344
592.64840,0.05548
591.15862,0.10951
589.66883,0.10632
588.17904,0.13844
586.68925,0.19043
585.19946,0.24248
583.70967,0.35626
582.21989,0.30711
580.73010,0.33950
579.24031,0.37196
577.75052,0.34279
576.26073,0.33792
574.77094,0.25600
573.28115,0.29749
571.79137,0.33904
570.30158,0.34980
568.81179,0.49939
567.32200,0.55983
565.83221,0.62032
564.34242,0.60268
562.85264,0.53664
561.36285,0.63364
559.87306,0.69216
558.38327,0.75073
556.89348,0.75100
555.40369,0.71387
553.91391,0.79133
552.42412,0.86886
550.93433,0.87595
549.44454,0.86768
547.95475,0.87709
546.46496,0.81938
544.97517,0.76172
543.48539,1.02901
541.99560,1.00120
540.50581,0.97675
539.01602,0.95236
537.52623,1.00622
536.03644,0.96322
534.54666,0.86741
533.05687,0.87518
531.56708,0.88301
530.07729,0.89971
528.58750,0.97593
527.09771,0.96520
525.60792,0.95453
524.11814,0.85031
522.62835,0.93557
521.13856,0.94820
519.64877,0.87498
518.15898,0.80182
516.66919,0.85867
515.17941,0.73276
513.68962,0.73246
512.19983,0.73221
510.71004,0.73863
509.22025,0.71206
507.73046,0.62168
506.24068,0.55337
504.75089,0.48513
503.26110,0.42795
501.77131,0.38625
500.28152,0.39196
498.79173,0.39772
497.30194,0.22624
495.81216,0.25745
494.32237,0.25017
492.83258,0.24294
491.34279,0.15318
489.85300,0.12074
488.36321,0.18307
486.87343,0.17056
485.38364,0.15811
483.89385,0.16114
482.40406,0.19506
480.91427,0.17948
479.42448,0.16395
477.93469,0.22447
476.44491,0.13748
474.95512,0.07036
473.46533,0.00330
471.97554,0.07815
470.48575,0.16408
468.99596,0.17517
467.50618,0.20173
466.01639,0.22836
464.52660,0.05460
463.03681,0.02627
461.54702,0.03654
460.05723,0.04687
458.56745,0.00330
457.07766,0.10171
455.58787,0.19908
454.09808,0.29650
452.60829,0.13298
451.11850,0.14571
449.62871,0.20146
448.13893,0.25726
446.64914,0.24374
445.15935,0.32718
443.66956,0.29835
442.17977,0.33346
440.68998,0.36862
439.20020,0.39722
437.71041,0.40386
436.22062,0.45681
434.73083,0.50982
433.24104,0.48358
431.75125,0.57415
430.26146,0.63944
428.77168,0.70478
427.28189,0.66776
425.79210,0.61538
424.30231,0.64125
422.81252,0.66718
421.32273,0.90791
419.83295,0.75003
418.34316,0.79154
416.85337,0.83311
415.36358,0.68201
413.87379,0.71818
412.38400,0.74450
410.89422,0.77088
409.40443,0.71692
407.91464,0.75112
406.42485,0.74793
404.93506,0.73268
403.44527,0.71749
401.95548,0.77614
400.46570,0.72472
398.97591,0.63811
397.48612,0.55156
395.99633,0.66110
394.50654,0.67819
393.01675,0.61714
391.52697,0.55614
390.03718,0.57340
388.54739,0.70304
387.05760,0.70389
385.56781,0.70479
384.07802,0.56809
382.58824,0.57021
381.09845,0.56688
379.60866,0.56361
378.11887,0.47338
376.62908,0.52198
375.13929,0.47262
373.64950,0.42332
372.15972,0.43905
370.66993,0.24118
369.18014,0.22949
367.69035,0.21786
366.20056,0.18756
364.71077,0.26524
363.22099,0.26589
361.73120,0.26660
360.24141,0.11318
358.75162,0.10299
357.26183,0.10827
355.77204,0.11361
354.28225,0.03750
352.79247,0.04289
351.30268,0.06154
349.81289,0.08025
348.32310,0.12324
346.83331,0.04955
345.34352,0.13698
343.85374,0.22445
342.36395,0.15780
340.87416,0.01632
339.38437,0.05001
337.89458,0.08375
336.40479,0.10763
334.91501,0.15140
333.42522,0.12914
331.93543,0.10694
330.44564,0.00330
328.95585,0.13376
327.46606,0.10679
325.97627,0.07988
324.48649,0.12240
322.99670,0.07689
321.50691,0.13274
320.01712,0.18865
318.52733,0.04418
317.03754,0.00330
315.54776,0.01308
314.05797,0.02292
312.56818,0.02181
311.07839,0.11546
309.58860,0.11666
308.09881,0.11792
306.60902,0.06196
305.11924,0.00827
303.62945,0.01960
302.13966,0.03100
300.64987,0.03474
299.16008,0.00330
