1778.52000,0.04726
1777.03021,0.01623
1775.54042,0.01693
1774.05063,0.02456
1772.56085,0.01154
1771.07106,0.01784
1769.58127,0.03658
1768.09148,0.02915
1766.60169,0.04933
1765.11190,0.02402
1763.62212,0.02770
1762.13233,0.05485
1760.64254,0.03239
1759.15275,0.00167
1757.66296,0.04407
1756.17317,0.06719
1754.68339,0.01174
1753.19360,0.05835
1751.70381,0.02088
1750.21402,0.00274
1748.72423,0.02186
1747.23444,0.04514
1745.74465,0.06983
1744.25487,0.00767
1742.76508,0.06688
1741.27529,0.04063
1739.78550,0.01440
1738.29571,0.04887
1736.80592,0.03511
1735.31614,0.03792
1733.82635,0.03387
1732.33656,0.04087
1730.84677,0.02721
1729.35698,0.02048
1727.86719,0.06479
1726.37740,0.04432
1724.88762,0.04456
1723.39783,0.03794
1721.90804,0.03410
1720.41825,0.04683
1718.92846,0.00167
1717.43867,0.03076
1715.94889,0.07505
1714.45910,0.05731
1712.96931,0.02856
1711.47952,0.03431
1709.98973,0.02768
1708.49994,0.01557
1707.01016,0.02830
1705.52037,0.04105
1704.03058,0.05246
1702.54079,0.04458
1701.05100,0.02157
1699.56121,0.05374
1698.07142,0.04456
1696.58164,0.05334
1695.09185,0.06767
1693.60206,0.05858
1692.11227,0.03572
1690.62248,0.06253
1689.13269,0.07283
1687.64291,0.06522
1686.15312,0.08109
1684.66333,0.03354
1683.17354,0.06187
1681.68375,0.04472
1680.19396,0.04414
1678.70417,0.04497
1677.21439,0.05824
1675.72460,0.05774
1674.23481,0.05176
1672.74502,0.00167
1671.25523,0.09179
1669.76544,0.06610
1668.27566,0.08456
1666.78587,0.07823
1665.29608,0.07744
1663.80629,0.07944
1662.31650,0.08146
1660.82671,0.07800
1659.33693,0.06904
1657.84714,0.06839
1656.35735,0.05121
1654.86756,0.07957
1653.37777,0.06934
1651.88798,0.03984
1650.39819,0.08345
1648.90841,0.08571
1647.41862,0.10179
1645.92883,0.07722
1644.43904,0.05268
1642.94925,0.08125
1641.45946,0.01332
1639.96968,0.07228
1638.47989,0.01958
1636.99010,0.02206
1635.50031,0.00940
1634.01052,0.05468
1632.52073,0.05172
1631.03094,0.03914
1629.54116,0.03899
1628.05137,0.10645
1626.56158,0.07188
1625.07179,0.04700
1623.58200,0.11591
1622.09221,0.01937
1620.60243,0.02353
1619.11264,0.02495
1617.62285,0.08845
1616.13306,0.00167
1614.64327,0.06587
1613.15348,0.04735
1611.66370,0.05231
1610.17391,0.08073
1608.68412,0.04988
1607.19433,0.04113
1605.70454,0.04619
1604.21475,0.04645
1602.72496,0.04674
1601.23518,0.06291
1599.74539,0.06257
1598.25560,0.05811
1596.76581,0.07988
1595.27602,0.04927
1593.78623,0.04352
1592.29645,0.02951
1590.80666,0.01416
1589.31687,0.02365
1587.82708,0.00284
1586.33729,0.00825
1584.84750,0.03299
1583.35771,0.09223
1581.86793,0.04256
1580.37814,0.03705
1578.88835,0.05087
1577.39856,0.04816
1575.90877,0.01101
1574.41898,0.03594
1572.92920,0.02918
1571.43941,0.04038
1569.94962,0.03781
1568.45983,0.03527
1566.97004,0.05757
1565.48025,0.03992
1563.99047,0.07055
1562.50068,0.00469
1561.01089,0.06847
1559.52110,0.02748
1558.03131,0.01271
1556.54152,0.01314
1555.05173,0.05910
1553.56195,0.00167
1552.07216,0.07681
1550.58237,0.01958
1549.09258,0.03685
1547.60279,0.09552
1546.11300,0.10457
1544.62322,0.10675
1543.13343,0.06345
1541.64364,0.02708
1540.15385,0.03485
1538.66406,0.04266
1537.17427,0.09461
1535.68448,0.04180
1534.19470,0.04555
1532.70491,0.04381
1531.21512,0.03933
1529.72533,0.03213
1528.23554,0.00703
1526.74575,0.01781
1525.25597,0.03826
1523.76618,0.06702
1522.27639,0.04202
1520.78660,0.03498
1519.29681,0.01693
1517.80702,0.03339
1516.31724,0.01402
1514.82745,0.03328
1513.33766,0.02844
1511.84787,0.02363
1510.35808,0.00850
1508.86829,0.00167
1507.37850,0.03474
1505.88872,0.05957
1504.39893,0.03477
1502.90914,0.02656
1501.41935,0.00733
1499.92956,0.05433
1498.43977,0.04895
1496.94999,0.03394
1495.46020,0.04241
1493.97041,0.06606
1492.48062,0.03597
1490.99083,0.06520
1489.50104,0.06136
1488.01125,0.07272
1486.52147,0.08410
1485.03168,0.12033
1483.54189,0.12211
1482.05210,0.14047
1480.56231,0.16437
1479.07252,0.20071
1477.58274,0.21225
1476.09295,0.20589
1474.60316,0.18164
1473.11337,0.22912
1471.62358,0.20353
1470.13379,0.16971
1468.64401,0.18279
1467.15422,0.16694
1465.66443,0.16422
1464.17464,0.16153
1462.68485,0.12783
1461.19506,0.10106
1459.70527,0.16671
1458.21549,0.14826
1456.72570,0.08710
1455.23591,0.06043
1453.74612,0.05862
1452.25633,0.09406
1450.76654,0.10195
1449.27676,0.06850
1447.78697,0.01577
1446.29718,0.00167
1444.80739,0.01082
1443.31760,0.02000
1441.82781,0.07470
1440.33802,0.05773
1438.84824,0.05182
1437.35845,0.05834
1435.86866,0.05662
1434.37887,0.00804
1432.88908,0.00499
1431.39929,0.01300
1429.90951,0.01966
1428.41972,0.02910
1426.92993,0.08132
1425.44014,0.08116
1423.95035,0.09620
1422.46056,0.11127
1420.97078,0.10844
1419.48099,0.06564
1417.99120,0.12353
1416.50141,0.07803
1415.01162,0.12633
1413.52183,0.07261
1412.03204,0.11544
1410.54226,0.11280
1409.05247,0.12397
1407.56268,0.10069
1406.07289,0.08572
1404.58310,0.08180
1403.09331,0.07791
1401.60353,0.12231
1400.11374,0.12675
1398.62395,0.14086
1397.13416,0.13846
1395.64437,0.15952
1394.15458,0.21647
1392.66479,0.19484
1391.17501,0.10015
1389.68522,0.13236
1388.19543,0.07082
1386.70564,0.09274
1385.21585,0.11468
1383.72606,0.14699
1382.23628,0.11314
1380.74649,0.08207
1379.25670,0.09930
1377.76691,0.19377
1376.27712,0.18760
1374.78733,0.25455
1373.29755,0.30497
1371.80776,0.33750
1370.31797,0.42245
1368.82818,0.45986
1367.33839,0.49729
1365.84860,0.57543
1364.35881,0.60257
1362.86903,0.63940
1361.37924,0.70107
1359.88945,0.74070
1358.39966,0.77071
1356.90987,0.62424
1355.42008,0.53158
1353.93030,0.56719
1352.44051,0.54284
1350.95072,0.51851
1349.46093,0.39148
1347.97114,0.35825
1346.48135,0.27126
1344.99156,0.17741
1343.50178,0.22561
1342.01199,0.19387
1340.52220,0.21592
1339.03241,0.16906
1337.54262,0.14291
1336.05283,0.12437
1334.56305,0.10586
1333.07326,0.08806
1331.58347,0.07029
1330.09368,0.03462
1328.60389,0.04724
1327.11410,0.07643
1325.62432,0.06704
1324.13453,0.05630
1322.64474,0.02215
1321.15495,0.07627
1319.66516,0.05733
1318.17537,0.03843
1316.68558,0.06229
1315.19580,0.05999
1313.70601,0.03151
1312.21622,0.00167
1310.72643,0.07230
1309.23664,0.06986
1307.74685,0.07435
1306.25707,0.07059
1304.76728,0.08892
1303.27749,0.10728
1301.78770,0.05533
1300.29791,0.03376
1298.80812,0.02599
1297.31834,0.01964
1295.82855,0.04916
1294.33876,0.06354
1292.84897,0.06002
1291.35918,0.04826
1289.86939,0.04617
1288.37960,0.04411
1286.88982,0.08897
1285.40003,0.02629
1283.91024,0.04775
1282.42045,0.00167
1280.93066,0.10187
1279.44087,0.05730
1277.95109,0.06102
1276.46130,0.03581
1274.97151,0.04924
1273.48172,0.06269
1271.99193,0.09134
1270.50214,0.07175
1269.01235,0.05771
1267.52257,0.07954
1266.03278,0.08761
1264.54299,0.12605
1263.05320,0.09832
1261.56341,0.11406
1260.07362,0.12982
1258.58384,0.06081
1257.09405,0.10489
1255.60426,0.05662
1254.11447,0.05387
1252.62468,0.09666
1251.13489,0.01675
1249.64511,0.00167
1248.15532,0.07054
1246.66553,0.06291
1245.17574,0.05530
1243.68595,0.00567
1242.19616,0.01535
1240.70637,0.01679
1239.21659,0.03618
1237.72680,0.01837
1236.23701,0.02540
1234.74722,0.00488
1233.25743,0.00714
1231.76764,0.00943
1230.27786,0.07035
1228.78807,0.00167
1227.29828,0.00692
1225.80849,0.03287
1224.31870,0.07678
1222.82891,0.02970
1221.33912,0.03643
1219.84934,0.03836
1218.35955,0.04032
1216.86976,0.01542
1215.37997,0.00846
1213.89018,0.03739
1212.40039,0.02911
1210.91061,0.05810
1209.42082,0.00988
1207.93103,0.03616
1206.44124,0.06246
1204.95145,0.00606
1203.46166,0.07792
1201.97188,0.03673
1200.48209,0.00799
1198.99230,0.05511
1197.50251,0.06089
1196.01272,0.08049
1194.52293,0.06426
1193.03314,0.04806
1191.54336,0.00016
1190.05357,0.07299
1188.56378,0.06310
1187.07399,0.01326
1185.58420,0.05031
1184.09441,0.02672
1182.60463,0.01418
1181.11484,0.00167
1179.62505,0.00985
1178.13526,0.05943
1176.64547,0.01802
1175.15568,0.03317
1173.66589,0.07042
1172.17611,0.01116
1170.68632,0.02019
1169.19653,0.02925
1167.70674,0.01144
1166.21695,0.03503
1164.72716,0.03245
1163.23738,0.05196
1161.74759,0.03426
1160.25780,0.07037
1158.76801,0.06996
1157.27822,0.06958
1155.78843,0.03406
1154.29865,0.04821
1152.80886,0.08445
1151.31907,0.06832
1149.82928,0.07152
1148.33949,0.05682
1146.84970,0.06421
1145.35991,0.07163
1143.87013,0.07080
1142.38034,0.12378
1140.89055,0.06647
1139.40076,0.10295
1137.91097,0.10912
1136.42118,0.12360
1134.93140,0.11948
1133.44161,0.11539
1131.95182,0.13822
1130.46203,0.07972
1128.97224,0.16465
1127.48245,0.16136
1125.99266,0.12638
1124.50288,0.17830
1123.01309,0.16268
1121.52330,0.14708
1120.03351,0.15220
1118.54372,0.20285
1117.05393,0.20664
1115.56415,0.24769
1114.07436,0.22395
1112.58457,0.26161
1111.09478,0.29929
1109.60499,0.27150
1108.11520,0.29200
1106.62542,0.31942
1105.13563,0.40754
1103.64584,0.40330
1102.15605,0.41977
1100.66626,0.37973
1099.17647,0.33972
1097.68668,0.47899
1096.19690,0.41145
1094.70711,0.46115
1093.21732,0.49571
1091.72753,0.56063
1090.23774,0.49665
1088.74795,0.43269
1087.25817,0.48528
1085.76838,0.59443
1084.27859,0.61123
1082.78880,0.61563
1081.29901,0.57181
1079.80922,0.56662
1078.31943,0.58351
1076.82965,0.60044
1075.33986,0.55810
1073.85007,0.55026
1072.36028,0.54796
1070.87049,0.53603
1069.38070,0.49518
1067.89092,0.49434
1066.40113,0.49353
1064.91134,0.46930
1063.42155,0.44648
1061.93176,0.41817
1060.44197,0.34438
1058.95219,0.27475
1057.46240,0.27548
1055.97261,0.27623
1054.48282,0.29494
1052.99303,0.27644
1051.50324,0.27590
1050.01345,0.22850
1048.52367,0.26110
1047.03388,0.23099
1045.54409,0.20091
1044.05430,0.20188
1042.56451,0.17116
1041.07472,0.15977
1039.58494,0.13462
1038.09515,0.10398
1036.60536,0.12439
1035.11557,0.14482
1033.62578,0.10323
1032.13599,0.09614
1030.64620,0.16768
1029.15642,0.11928
1027.66663,0.14536
1026.17684,0.17147
1024.68705,0.16452
1023.19726,0.20723
1021.70747,0.22929
1020.21769,0.18794
1018.72790,0.25831
1017.23811,0.28390
1015.74832,0.30951
1014.25853,0.38961
1012.76874,0.40355
1011.27896,0.56369
1009.78917,0.59010
1008.29938,0.67031
1006.80959,0.70229
1005.31980,0.73429
1003.83001,0.78563
1002.34022,0.86871
1000.85044,1.05248
999.36065,1.21145
997.87086,1.28909
996.38107,1.36676
994.89128,1.44584
993.40149,1.60354
991.91171,1.71301
990.42192,1.70391
988.93213,1.94167
987.44234,1.96090
985.95255,1.98015
984.46276,1.90497
982.97297,1.88911
981.48319,1.96292
979.99340,1.85059
978.50361,1.89479
977.01382,1.93903
975.52403,1.88470
974.03424,2.00000
972.54446,1.92366
971.05467,1.85837
969.56488,1.75175
968.07509,1.73409
966.58530,1.71646
965.09551,1.69679
963.60573,1.51029
962.11594,1.53618
960.62615,1.45729
959.13636,1.43152
957.64657,1.40578
956.15678,1.39592
954.66699,1.26061
953.17721,1.23012
951.68742,1.10589
950.19763,1.09752
948.70784,1.08917
947.21805,1.07120
945.72826,1.05464
944.23848,0.95536
942.74869,0.91541
941.25890,0.90444
939.76911,0.91832
938.27932,0.93223
936.78953,0.92823
935.29974,0.93530
933.80996,0.90792
932.32017,0.90400
930.83038,0.85461
929.34059,0.80525
927.85080,0.90484
926.36101,0.93689
924.87123,0.89312
923.38144,0.96521
921.89165,0.97251
920.40186,0.97985
918.91207,1.01341
917.42228,1.03045
915.93250,1.05027
914.44271,1.09219
912.95292,1.14930
911.46313,1.20643
909.97334,1.14363
908.48355,1.20495
906.99376,1.17116
905.50398,1.24909
904.01419,1.28568
902.52440,1.32229
901.03461,1.29412
899.54482,1.34457
898.05503,1.29715
896.56525,1.36145
895.07546,1.37958
893.58567,1.39774
892.09588,1.30217
890.60609,1.31279
889.11630,1.22141
887.62651,1.16590
886.13673,1.08560
884.64694,1.00532
883.15715,1.09193
881.66736,1.06824
880.17757,0.99908
878.68778,0.95545
877.19800,0.91186
875.70821,0.89655
874.21842,0.81647
872.72863,0.77502
871.23884,0.76117
869.74905,0.72115
868.25927,0.68116
866.76948,0.67016
865.27969,0.59713
863.78990,0.57377
862.30011,0.55457
860.81032,0.52988
859.32053,0.50522
857.83075,0.43370
856.34096,0.40633
854.85117,0.40795
853.36138,0.37926
851.87159,0.35474
850.38180,0.33024
848.89202,0.23957
847.40223,0.25098
845.91244,0.24449
844.42265,0.22630
842.93286,0.20814
841.44307,0.18380
839.95329,0.17604
838.46350,0.19864
836.97371,0.09578
835.48392,0.08534
833.99413,0.07492
832.50434,0.09763
831.01455,0.15483
829.52477,0.06314
828.03498,0.05973
826.54519,0.08737
825.05540,0.11504
823.56561,0.11170
822.07582,0.11253
820.58604,0.04996
819.09625,0.06808
817.60646,0.08623
816.11667,0.00167
814.62688,0.06051
813.13709,0.03940
811.64730,0.01280
810.15752,0.02483
808.66773,0.03689
807.17794,0.08346
805.68815,0.00732
804.19836,0.05669
802.70857,0.06128
801.21879,0.06589
799.72900,0.08777
798.23921,0.14276
796.74942,0.14263
795.25963,0.16735
793.76984,0.19209
792.28006,0.14101
790.79027,0.18787
789.30048,0.25406
787.81069,0.23478
786.32090,0.21691
784.83111,0.19906
783.34132,0.26122
781.85154,0.27791
780.36175,0.27255
778.87196,0.26033
777.38217,0.24813
775.89238,0.35318
774.40259,0.37964
772.91281,0.29445
771.42302,0.31890
769.93323,0.34338
768.44344,0.31756
766.95365,0.33175
765.46386,0.30736
763.97407,0.24300
762.48429,0.22211
760.99450,0.20125
759.50471,0.19489
758.01492,0.22166
756.52513,0.13951
755.03534,0.13461
753.54556,0.12974
752.05577,0.04078
750.56598,0.08974
749.07619,0.04772
747.58640,0.05813
746.09661,0.06856
744.60683,0.05695
743.11704,0.01917
741.62725,0.02555
740.13746,0.03471
738.64767,0.04390
737.15788,0.02139
735.66809,0.06511
734.17831,0.03025
732.68852,0.02162
731.19873,0.01301
729.70894,0.00167
728.21915,0.03664
726.72936,0.07163
725.23958,0.05425
723.74979,0.03966
722.26000,0.02509
720.77021,0.09190
719.28042,0.06636
717.79063,0.06704
716.30084,0.05603
714.81106,0.04504
713.32127,0.00167
711.83148,0.03311
710.34169,0.07008
708.85190,0.06020
707.36211,0.05035
705.87233,0.01984
704.38254,0.04451
702.89275,0.03612
701.40296,0.02361
699.91317,0.01114
698.42338,0.07177
696.93360,0.14208
695.44381,0.09383
693.95402,0.12214
692.46423,0.15048
690.97444,0.04439
689.48465,0.03762
687.99486,0.07224
686.50508,0.04759
685.01529,0.02297
683.52550,0.03147
682.03571,0.00553
680.54592,0.00167
679.05613,0.02048
677.56635,0.03931
676.07656,0.03266
674.58677,0.05224
673.09698,0.03875
671.60719,0.07906
670.11740,0.11941
668.62761,0.03843
667.13783,0.04021
665.64804,0.04064
664.15825,0.04110
662.66846,0.02642
661.17867,0.05865
659.68888,0.01092
658.19910,0.04183
656.70931,0.07276
655.21952,0.00167
653.72973,0.10433
652.23994,0.07051
650.75015,0.05118
649.26037,0.03189
647.77058,0.02710
646.28079,0.08990
644.79100,0.12377
643.30121,0.10045
641.81142,0.07715
640.32163,0.06560
638.83185,0.00167
637.34206,0.02845
635.85227,0.03663
634.36248,0.04484
632.87269,0.07721
631.38290,0.04893
629.89312,-0.00000
628.40333,0.04210
626.91354,0.08423
625.42375,0.04779
623.93396,0.03481
622.44417,0.02393
620.95438,0.01308
619.46460,0.05810
617.97481,0.07971
616.48502,0.02550
614.99523,0.03820
613.50544,0.05092
612.01565,0.06712
610.52587,0.08748
609.03608,0.02375
607.54629,0.03796
606.05650,0.05220
604.56671,0.11955
603.07692,0.12074
601.58714,0.08059
600.09735,0.04047
598.60756,0.08035
597.11777,0.07337
595.62798,0.08297
594.13819,0.08846
592.64840,0.09397
591.15862,0.08159
589.66883,0.10509
588.17904,0.18514
586.68925,0.17491
585.19946,0.16470
583.70967,0.20761
582.21989,0.24778
580.73010,0.26592
579.24031,0.28409
577.75052,0.32573
576.26073,0.27638
574.77094,0.33462
573.28115,0.33910
571.79137,0.34361
570.30158,0.35643
568.81179,0.45890
567.32200,0.48900
565.83221,0.51913
564.34242,0.53619
562.85264,0.53259
561.36285,0.60210
559.87306,0.65578
558.38327,0.70948
556.89348,0.74322
555.40369,0.76595
553.91391,0.79630
552.42412,0.82667
550.93433,0.88947
549.44454,0.85715
547.95475,0.95448
546.46496,0.95394
544.97517,0.95342
543.48539,1.00532
541.99560,0.95935
540.50581,1.00304
539.01602,1.04675
537.52623,1.03809
536.03644,1.01291
534.54666,0.98086
533.05687,0.97986
531.56708,0.97889
530.07729,0.77456
528.58750,0.81019
527.09771,0.78930
525.60792,0.76845
524.11814,0.67591
522.62835,0.70062
521.13856,0.65916
519.64877,0.64806
518.15898,0.63699
516.66919,0.59010
515.17941,0.48255
513.68962,0.45846
512.19983,0.43440
510.71004,0.46897
509.22025,0.39601
507.73046,0.39340
506.24068,0.35566
504.75089,0.31794
503.26110,0.25336
501.77131,0.26879
500.28152,0.28769
498.79173,0.30662
497.30194,0.25731
495.81216,0.21493
494.32237,0.23601
492.83258,0.25711
491.34279,0.12104
489.85300,0.11599
488.36321,0.15786
486.87343,0.15012
485.38364,0.14239
483.89385,0.11953
482.40406,0.14910
480.91427,0.12905
479.42448,0.10902
477.93469,0.15659
476.44491,0.06216
474.95512,0.05669
473.46533,0.05126
471.97554,0.06722
470.48575,0.10665
468.99596,0.13508
467.50618,0.14905
466.01639,0.16305
464.52660,0.09228
463.03681,0.14977
461.54702,0.13076
460.05723,0.11177
458.56745,0.11832
457.07766,0.18419
455.58787,0.18046
454.09808,0.17675
452.60829,0.15859
451.11850,0.19147
449.62871,0.19681
448.13893,0.20217
446.64914,0.34683
445.15935,0.31363
443.66956,0.46800
442.17977,0.46657
440.68998,0.46517
439.20020,0.44449
437.71041,0.63620
436.22062,0.60109
434.73083,0.56602
433.24104,0.65576
431.75125,0.70003
430.26146,0.71674
428.77168,0.73348
427.28189,0.85367
425.79210,0.79600
424.30231,0.88591
422.81252,0.97584
421.32273,1.01892
419.83295,0.99031
418.34316,1.01965
416.85337,1.04902
415.36358,0.85226
413.87379,0.89134
412.38400,0.86080
410.89422,0.83029
409.40443,0.77154
407.91464,0.86449
406.42485,0.88302
404.93506,0.88985
403.44527,0.89670
401.95548,0.81740
400.46570,0.90911
398.97591,0.86641
397.48612,0.82373
395.99633,0.88518
394.50654,0.88600
393.01675,0.84340
391.52697,0.80082
390.03718,0.77552
388.54739,0.79022
387.05760,0.76704
385.56781,0.74388
384.07802,0.67317
382.58824,0.67282
381.09845,0.67387
379.60866,0.67495
378.11887,0.56574
376.62908,0.47035
375.13929,0.43496
373.64950,0.39961
372.15972,0.33877
370.66993,0.29175
369.18014,0.29301
367.69035,0.29431
366.20056,0.25426
364.71077,0.23079
363.22099,0.21630
361.73120,0.20185
360.24141,0.19224
358.75162,0.07925
357.26183,0.10555
355.77204,0.13188
354.28225,0.13893
352.79247,0.04948
351.30268,0.05521
349.81289,0.06096
348.32310,0.07363
346.83331,0.09047
345.34352,0.08665
343.85374,0.08286
342.36395,0.02256
340.87416,0.01330
339.38437,0.04682
337.89458,0.08037
336.40479,0.09602
334.91501,0.05378
333.42522,0.05086
331.93543,0.04797
330.44564,0.00167
328.95585,0.01621
327.46606,0.03490
325.97627,0.05363
324.48649,0.06410
322.99670,0.02083
321.50691,0.05687
320.01712,0.09294
318.52733,0.09249
317.03754,0.05208
315.54776,0.02686
314.05797,0.00167
312.56818,0.00373
311.07839,0.02099
309.58860,0.06309
308.09881,0.10522
306.60902,0.09221
305.11924,0.08200
303.62945,0.05043
302.13966,0.01889
300.64987,0.00167
299.16008,0.00167
