1778.52000,0.03971
1777.03021,0.05401
1775.54042,0.05898
1774.05063,0.07959
1772.56085,0.06119
1771.07106,0.04749
1769.58127,0.02134
1768.09148,0.08733
1766.60169,0.00346
1765.11190,0.08199
1763.62212,0.04813
1762.13233,0.05022
1760.64254,0.05076
1759.15275,0.02323
1757.66296,0.03163
1756.17317,0.05568
1754.68339,0.05008
1753.19360,0.06325
1751.70381,0.02649
1750.21402,0.05844
1748.72423,0.02953
1747.23444,0.03500
1745.74465,0.01239
1744.25487,0.04914
1742.76508,0.02502
1741.27529,0.05401
1739.78550,0.03619
1738.29571,0.02308
1736.80592,0.00687
1735.31614,0.05315
1733.82635,0.03075
1732.33656,0.04897
1730.84677,0.03911
1729.35698,0.00274
1727.86719,0.05539
1726.37740,0.00346
1724.88762,0.03547
1723.39783,0.05346
1721.90804,0.00902
1720.41825,0.01769
1718.92846,0.03731
1717.43867,0.04448
1715.94889,0.06260
1714.45910,0.01673
1712.96931,0.02397
1711.47952,0.02499
1709.98973,0.04478
1708.49994,0.01150
1707.01016,0.02900
1705.52037,0.04652
1704.03058,0.05080
1702.54079,0.04105
1701.05100,0.05631
1699.56121,0.04193
1698.07142,0.04163
1696.58164,0.08976
1695.09185,0.03799
1693.60206,0.05806
1692.11227,0.03601
1690.62248,0.03584
1689.13269,0.05600
1687.64291,0.00748
1686.15312,0.06672
1684.66333,0.06041
1683.17354,0.04944
1681.68375,0.07754
1680.19396,0.04164
1678.70417,0.03700
1677.21439,0.06049
1675.72460,0.07932
1674.23481,0.06851
1672.74502,0.01401
1671.25523,0.08601
1669.76544,0.00346
1668.27566,0.09326
1666.78587,0.07849
1665.29608,0.06998
1663.80629,0.03809
1662.31650,0.07804
1660.82671,0.06961
1659.33693,0.08151
1657.84714,0.02318
1656.35735,0.07416
1654.86756,0.03461
1653.37777,0.06692
1651.88798,0.04928
1650.39819,0.03480
1648.90841,0.12807
1647.41862,0.09334
1645.92883,0.08284
1644.43904,0.07236
1642.94925,0.07674
1641.45946,0.07647
1639.96968,0.05280
1638.47989,0.11815
1636.99010,0.05082
1635.50031,0.06782
1634.01052,0.08173
1632.52073,0.05195
1631.03094,0.00346
1629.54116,0.05614
1628.05137,0.06670
1626.56158,0.06479
1625.07179,0.05354
1623.58200,0.07666
1622.09221,0.07952
1620.60243,0.05273
1619.11264,0.08218
1617.62285,0.05857
1616.13306,0.01937
1614.64327,0.04109
1613.15348,0.07533
1611.66370,0.07681
1610.17391,0.05177
1608.68412,0.05330
1607.19433,0.05954
1605.70454,0.04707
1604.21475,0.05493
1602.72496,0.06281
1601.23518,0.04417
1599.74539,0.08177
1598.25560,0.06631
1596.76581,0.04775
1595.27602,0.04015
1593.78623,0.04663
1592.29645,0.05626
1590.80666,0.00346
1589.31687,0.07329
1587.82708,0.04791
1586.33729,0.05691
1584.84750,0.03158
1583.35771,0.05624
1581.86793,0.07156
1580.37814,0.03850
1578.88835,0.05075
1577.39856,0.03180
1575.90877,0.03786
1574.41898,0.04238
1572.92920,0.01726
1571.43941,0.04682
1569.94962,0.02488
1568.45983,0.00296
1566.97004,0.03572
1565.48025,0.01854
1563.99047,0.05291
1562.50068,0.03735
1561.01089,0.07958
1559.52110,0.03284
1558.03131,0.05951
1556.54152,0.00346
1555.05173,0.05296
1553.56195,0.00725
1552.07216,0.03807
1550.58237,0.04706
1549.09258,0.08886
1547.60279,0.07917
1546.11300,0.15537
1544.62322,0.11763
1543.13343,0.06742
1541.64364,0.08749
1540.15385,0.05373
1538.66406,0.01999
1537.17427,0.05732
1535.68448,0.02442
1534.19470,0.00872
1532.70491,0.01802
1531.21512,0.00706
1529.72533,0.00080
1528.23554,0.02736
1526.74575,0.03521
1525.25597,0.01030
1523.76618,0.06972
1522.27639,0.01051
1520.78660,0.06062
1519.29681,0.01240
1517.80702,0.02665
1516.31724,0.00346
1514.82745,0.03255
1513.33766,0.04684
1511.84787,0.06116
1510.35808,0.02319
1508.86829,0.03678
1507.37850,0.00043
1505.88872,0.01160
1504.39893,0.01967
1502.90914,0.03090
1501.41935,0.03434
1499.92956,0.00346
1498.43977,0.06802
1496.94999,0.07797
1495.46020,0.06296
1493.97041,0.02768
1492.48062,0.03302
1490.99083,0.06337
1489.50104,0.08125
1488.01125,0.08433
1486.52147,0.08743
1485.03168,0.14443
1483.54189,0.15149
1482.05210,0.13360
1480.56231,0.18911
1479.07252,0.26183
1477.58274,0.25026
1476.09295,0.21529
1474.60316,0.21939
1473.11337,0.26723
1471.62358,0.23390
1470.13379,0.21466
1468.64401,0.21886
1467.15422,0.23402
1465.66443,0.21876
1464.17464,0.20352
1462.68485,0.13757
1461.19506,0.14658
1459.70527,0.09630
1458.21549,0.13191
1456.72570,0.07543
1455.23591,0.12671
1453.74612,0.09838
1452.25633,0.08726
1450.76654,0.03713
1449.27676,0.07447
1447.78697,0.05874
1446.29718,0.04772
1444.80739,0.05235
1443.31760,0.05700
1441.82781,0.05699
1440.33802,0.04608
1438.84824,0.05861
1437.35845,0.04151
1435.86866,0.02131
1434.37887,0.06359
1432.88908,0.01534
1431.39929,0.01708
1429.90951,0.04694
1428.41972,0.00346
1426.92993,0.07379
1425.44014,0.10979
1423.95035,0.10445
1422.46056,0.09913
1420.97078,0.05559
1419.48099,0.11981
1417.99120,0.07632
1416.50141,0.07032
1415.01162,0.10964
1413.52183,0.10682
1412.03204,0.08061
1410.54226,0.11532
1409.05247,0.12976
1407.56268,0.12080
1406.07289,0.11187
1404.58310,0.11234
1403.09331,0.11283
1401.60353,0.15863
1400.11374,0.14668
1398.62395,0.13944
1397.13416,0.10569
1395.64437,0.12349
1394.15458,0.16005
1392.66479,0.16072
1391.17501,0.14581
1389.68522,0.10282
1388.19543,0.13012
1386.70564,0.10280
1385.21585,0.07550
1383.72606,0.12786
1382.23628,0.09749
1380.74649,0.14834
1379.25670,0.12896
1377.76691,0.15800
1376.27712,0.13711
1374.78733,0.18962
1373.29755,0.24841
1371.80776,0.32128
1370.31797,0.41291
1368.82818,0.42494
1367.33839,0.43699
1365.84860,0.53963
1364.35881,0.59701
1362.86903,0.62944
1361.37924,0.75714
1359.88945,0.76152
1358.39966,0.63633
1356.90987,0.57051
1355.42008,0.53749
1353.93030,0.55915
1352.44051,0.54961
1350.95072,0.54009
1349.46093,0.47596
1347.97114,0.41809
1346.48135,0.28375
1344.99156,0.27590
1343.50178,0.23529
1342.01199,0.15255
1340.52220,0.15259
1339.03241,0.15109
1337.54262,0.18553
1336.05283,0.15052
1334.56305,0.11553
1333.07326,0.13600
1331.58347,0.05812
1330.09368,0.07396
1328.60389,0.09295
1327.11410,0.09166
1325.62432,0.09040
1324.13453,0.06575
1322.64474,0.02550
1321.15495,0.00403
1319.66516,0.03956
1318.17537,0.07513
1316.68558,0.04280
1315.19580,0.06202
1313.70601,0.03443
1312.21622,0.02248
1310.72643,0.04022
1309.23664,0.05486
1307.74685,0.01332
1306.25707,0.07642
1304.76728,0.06928
1303.27749,0.06217
1301.78770,0.03635
1300.29791,0.04959
1298.80812,0.05506
1297.31834,0.03868
1295.82855,0.05981
1294.33876,0.01382
1292.84897,0.01939
1291.35918,0.05621
1289.86939,0.02982
1288.37960,0.00346
1286.88982,0.04407
1285.40003,0.05192
1283.91024,0.01295
1282.42045,0.07707
1280.93066,0.01786
1279.44087,0.01957
1277.95109,0.03067
1276.46130,0.06210
1274.97151,0.06467
1273.48172,0.06727
1271.99193,0.10190
1270.50214,0.08034
1269.01235,0.08068
1267.52257,0.07479
1266.03278,0.09704
1264.54299,0.07559
1263.05320,0.08384
1261.56341,0.08664
1260.07362,0.08948
1258.58384,0.08375
1257.09405,0.08429
1255.60426,0.08487
1254.11447,0.07922
1252.62468,0.10014
1251.13489,0.07737
1249.64511,0.05619
1248.15532,0.07406
1246.66553,0.07401
1245.17574,0.07399
1243.68595,0.06540
1242.19616,0.09119
1240.70637,0.05924
1239.21659,0.07259
1237.72680,0.03132
1236.23701,0.03379
1234.74722,0.07689
1233.25743,0.06771
1231.76764,0.05855
1230.27786,0.05489
1228.78807,0.04500
1227.29828,0.06637
1225.80849,0.00346
1224.31870,0.06072
1222.82891,0.04463
1221.33912,0.08477
1219.84934,0.08201
1218.35955,0.07927
1216.86976,0.06016
1215.37997,0.07387
1213.89018,0.04857
1212.40039,0.06545
1210.91061,0.07923
1209.42082,0.03840
1207.93103,0.02257
1206.44124,0.00677
1204.95145,0.04877
1203.46166,0.01896
1201.97188,0.04384
1200.48209,0.06093
1198.99230,0.02184
1197.50251,0.06085
1196.01272,0.03898
1194.52293,0.03823
1193.03314,0.03750
1191.54336,0.06568
1190.05357,0.08608
1188.56378,0.00346
1187.07399,0.06003
1185.58420,0.00889
1184.09441,0.07332
1182.60463,0.03941
1181.11484,0.00553
1179.62505,0.04974
1178.13526,0.04245
1176.64547,0.02114
1175.15568,0.02484
1173.66589,0.05822
1172.17611,0.04948
1170.68632,0.04857
1169.19653,0.04769
1167.70674,0.06869
1166.21695,0.05537
1164.72716,0.06237
1163.23738,0.01788
1161.74759,0.04055
1160.25780,0.07105
1158.76801,0.07035
1157.27822,0.06968
1155.78843,0.00346
1154.29865,0.08868
1152.80886,0.03809
1151.31907,0.05935
1149.82928,0.05878
1148.33949,0.09258
1146.84970,0.09128
1145.35991,0.09001
1143.87013,0.06768
1142.38034,0.05319
1140.89055,0.06839
1139.40076,0.13201
1137.91097,0.06295
1136.42118,0.11570
1134.93140,0.13803
1133.44161,0.16039
1131.95182,0.15545
1130.46203,0.10057
1128.97224,0.14565
1127.48245,0.10800
1125.99266,0.12190
1124.50288,0.14520
1123.01309,0.15212
1121.52330,0.15908
1120.03351,0.09190
1118.54372,0.14809
1117.05393,0.18244
1115.56415,0.18872
1114.07436,0.20440
1112.58457,0.21151
1111.09478,0.21865
1109.60499,0.24845
1108.11520,0.29546
1106.62542,0.31751
1105.13563,0.35520
1103.64584,0.36325
1102.15605,0.37133
1100.66626,0.40832
1099.17647,0.44534
1097.68668,0.44569
1096.19690,0.45231
1094.70711,0.44647
1093.21732,0.44690
1091.72753,0.51293
1090.23774,0.48609
1088.74795,0.45927
1087.25817,0.52226
1085.76838,0.58059
1084.27859,0.55932
1082.78880,0.51934
1081.29901,0.59024
1079.80922,0.55344
1078.31943,0.60097
1076.82965,0.64853
1075.33986,0.57590
1073.85007,0.59228
1072.36028,0.49003
1070.87049,0.50335
1069.38070,0.51045
1067.89092,0.49259
1066.40113,0.47475
1064.91134,0.46944
1063.42155,0.38921
1061.93176,0.34647
1060.44197,0.28503
1058.95219,0.25484
1057.46240,0.24341
1055.97261,0.23201
1054.48282,0.26904
1052.99303,0.26237
1051.50324,0.28696
1050.01345,0.20852
1048.52367,0.24253
1047.03388,0.23051
1045.54409,0.21851
1044.05430,0.23699
1042.56451,0.16337
1041.07472,0.10383
1039.58494,0.10677
1038.09515,0.14877
1036.60536,0.10492
1035.11557,0.06110
1033.62578,0.05946
1032.13599,0.13436
1030.64620,0.07657
1029.15642,0.11560
1027.66663,0.13281
1026.17684,0.15004
1024.68705,0.13763
1023.19726,0.11119
1021.70747,0.16753
1020.21769,0.18019
1018.72790,0.21004
1017.23811,0.25397
1015.74832,0.29793
1014.25853,0.27790
1012.76874,0.40466
1011.27896,0.54862
1009.78917,0.60986
1008.29938,0.70391
1006.80959,0.73085
1005.31980,0.75782
1003.83001,0.86288
1002.34022,0.89459
1000.85044,1.04342
999.36065,1.17354
997.87086,1.28027
996.38107,1.38702
994.89128,1.53752
993.40149,1.58656
991.91171,1.70276
990.42192,1.71126
988.93213,1.86811
987.44234,1.92428
985.95255,1.98047
984.46276,2.00000
982.97297,1.86186
981.48319,1.87051
979.99340,1.89325
978.50361,1.89415
977.01382,1.89507
975.52403,1.86636
974.03424,1.82830
972.54446,1.76998
971.05467,1.77569
969.56488,1.68463
968.07509,1.63185
966.58530,1.57909
965.09551,1.57554
963.60573,1.49864
962.11594,1.47172
960.62615,1.35584
959.13636,1.33913
957.64657,1.32244
956.15678,1.24879
954.66699,1.18453
953.17721,1.17027
951.68742,1.04674
950.19763,1.05126
948.70784,1.05581
947.21805,0.98856
945.72826,0.91354
944.23848,0.87757
942.74869,0.83226
941.25890,0.83850
939.76911,0.84711
938.27932,0.85575
936.78953,0.85115
935.29974,0.83720
933.80996,0.84513
932.32017,0.80313
930.83038,0.80487
929.34059,0.80665
927.85080,0.85528
926.36101,0.83837
924.87123,0.85739
923.38144,0.87800
921.89165,0.88927
920.40186,0.90057
918.91207,0.90096
917.42228,0.93261
915.93250,0.93462
914.44271,0.99598
912.95292,1.01600
911.46313,1.03604
909.97334,1.03971
908.48355,1.03248
906.99376,1.16112
905.50398,1.12272
904.01419,1.19363
902.52440,1.26458
901.03461,1.30432
899.54482,1.28476
898.05503,1.25429
896.56525,1.32222
895.07546,1.30820
893.58567,1.29421
892.09588,1.27634
890.60609,1.32720
889.11630,1.20634
887.62651,1.16669
886.13673,1.14893
884.64694,1.13119
883.15715,1.03854
881.66736,0.93498
880.17757,0.91264
878.68778,0.90125
877.19800,0.88989
875.70821,0.84733
874.21842,0.75015
872.72863,0.69828
871.23884,0.73542
869.74905,0.67814
868.25927,0.62088
866.76948,0.67060
865.27969,0.57357
863.78990,0.45784
862.30011,0.46392
860.81032,0.45910
859.32053,0.45430
857.83075,0.45265
856.34096,0.43698
854.85117,0.41352
853.36138,0.35262
851.87159,0.35186
850.38180,0.35113
848.89202,0.27469
847.40223,0.23732
845.91244,0.16562
844.42265,0.16577
842.93286,0.16595
841.44307,0.20518
839.95329,0.15701
838.46350,0.11823
836.97371,0.05606
835.48392,0.07042
833.99413,0.08481
832.50434,0.08673
831.01455,0.10898
829.52477,0.07192
828.03498,0.05363
826.54519,0.05722
825.05540,0.06083
823.56561,0.03481
822.07582,0.08532
820.58604,0.00626
819.09625,0.01623
817.60646,0.02623
816.11667,0.00346
814.62688,0.04108
813.13709,0.01159
811.64730,0.00242
810.15752,0.03622
808.66773,0.07005
807.17794,0.04691
805.68815,0.00350
804.19836,0.03194
802.70857,0.05337
801.21879,0.07484
799.72900,0.03310
798.23921,0.16313
796.74942,0.14954
795.25963,0.15472
793.76984,0.15992
792.28006,0.15578
790.79027,0.19070
789.30048,0.28186
787.81069,0.23096
786.32090,0.23239
784.83111,0.23385
783.34132,0.30325
781.85154,0.24465
780.36175,0.33753
778.87196,0.27664
777.38217,0.21577
775.89238,0.27125
774.40259,0.31739
772.91281,0.23553
771.42302,0.25206
769.93323,0.26861
768.44344,0.21025
766.95365,0.28307
765.46386,0.29814
763.97407,0.19301
762.48429,0.19409
760.99450,0.19518
759.50471,0.21192
758.01492,0.13813
756.52513,0.17054
755.03534,0.14129
753.54556,0.11208
752.05577,0.02278
750.56598,0.04904
749.07619,0.05972
747.58640,0.07043
746.09661,0.08116
744.60683,0.09035
743.11704,0.08240
741.62725,0.06199
740.13746,0.06345
738.64767,0.06495
737.15788,0.02119
735.66809,0.05240
734.17831,0.02744
732.68852,0.04621
731.19873,0.06501
729.70894,0.07916
728.21915,0.04805
726.72936,0.04663
725.23958,0.03431
723.74979,0.05246
722.26000,0.07064
720.77021,0.04279
719.28042,0.02589
717.79063,0.05117
716.30084,0.02730
714.81106,0.00346
713.32127,0.12079
711.83148,0.09138
710.34169,0.07293
708.85190,0.07402
707.36211,0.07514
705.87233,0.09737
704.38254,0.06653
702.89275,0.04509
701.40296,0.04943
699.91317,0.05381
698.42338,0.05430
696.93360,0.12821
695.44381,0.22868
693.95402,0.17539
692.46423,0.12213
690.97444,0.06967
689.48465,0.09843
687.99486,0.06164
686.50508,0.05610
685.01529,0.05059
683.52550,0.01388
682.03571,0.02715
680.54592,0.05295
679.05613,0.03583
677.56635,0.01874
676.07656,0.05866
674.58677,0.04397
673.09698,0.08551
671.60719,0.06384
670.11740,0.04220
668.62761,0.01512
667.13783,0.01929
665.64804,0.03286
664.15825,0.04645
662.66846,0.09910
661.17867,0.00346
659.68888,0.04860
658.19910,0.05239
656.70931,0.05621
655.21952,0.02024
653.72973,0.03582
652.23994,0.09359
650.75015,0.06394
649.26037,0.03432
647.77058,0.08280
646.28079,0.09383
644.79100,0.11113
643.30121,0.09645
641.81142,0.08179
640.32163,0.12416
638.83185,0.04320
637.34206,0.02472
635.85227,0.01407
634.36248,0.00346
632.87269,0.08453
631.38290,0.02355
629.89312,0.04535
628.40333,0.06873
626.91354,0.09214
625.42375,0.08904
623.93396,0.07191
622.44417,0.03607
620.95438,0.00025
619.46460,0.05034
617.97481,0.04112
616.48502,0.04754
614.99523,0.03837
613.50544,0.02923
612.01565,0.01856
610.52587,0.01416
609.03608,0.10034
607.54629,0.09911
606.05650,0.09791
604.56671,0.05302
603.07692,0.04874
601.58714,0.07573
600.09735,0.10274
598.60756,0.12509
597.11777,0.08189
595.62798,0.09024
594.13819,0.06739
592.64840,0.04457
591.15862,0.10452
589.66883,0.09893
588.17904,0.11990
586.68925,0.13700
585.19946,0.15412
583.70967,0.19860
582.21989,0.19469
580.73010,0.24078
579.24031,0.28690
577.75052,0.26746
576.26073,0.36203
574.77094,0.28487
573.28115,0.29753
571.79137,0.31020
570.30158,0.33930
568.81179,0.39809
567.32200,0.41943
565.83221,0.44080
564.34242,0.59023
562.85264,0.52422
561.36285,0.65808
559.87306,0.70454
558.38327,0.75102
556.89348,0.74132
555.40369,0.80816
553.91391,0.77509
552.42412,0.74205
550.93433,0.79804
549.44454,0.84468
547.95475,0.82421
546.46496,0.85295
544.97517,0.88171
543.48539,0.93783
541.99560,0.91746
540.50581,0.93381
539.01602,0.95019
537.52623,0.94708
536.03644,0.99396
534.54666,0.86444
533.05687,0.90200
531.56708,0.93959
530.07729,0.91319
528.58750,0.88213
527.09771,0.81051
525.60792,0.73891
524.11814,0.69388
522.62835,0.63483
521.13856,0.72881
519.64877,0.66278
518.15898,0.59678
516.66919,0.51285
515.17941,0.48671
513.68962,0.45358
512.19983,0.42047
510.71004,0.44906
509.22025,0.42615
507.73046,0.31740
506.24068,0.31406
504.75089,0.31075
503.26110,0.36133
501.77131,0.27923
500.28152,0.27677
498.79173,0.27435
497.30194,0.21418
495.81216,0.25709
494.32237,0.22195
492.83258,0.18685
491.34279,0.14864
489.85300,0.09954
488.36321,0.17224
486.87343,0.14036
485.38364,0.10851
483.89385,0.15163
482.40406,0.09641
480.91427,0.10601
479.42448,0.11564
477.93469,0.15105
476.44491,0.04754
474.95512,0.07442
473.46533,0.10133
471.97554,0.11812
470.48575,0.08184
468.99596,0.11117
467.50618,0.12882
466.01639,0.14649
464.52660,0.11969
463.03681,0.03359
461.54702,0.02714
460.05723,0.02071
458.56745,0.04554
457.07766,0.20468
455.58787,0.18506
454.09808,0.16547
452.60829,0.17636
451.11850,0.23411
449.62871,0.21928
448.13893,0.20448
446.64914,0.30291
445.15935,0.32485
443.66956,0.32340
442.17977,0.41020
440.68998,0.49702
439.20020,0.43163
437.71041,0.48494
436.22062,0.52734
434.73083,0.56976
433.24104,0.63564
431.75125,0.64221
430.26146,0.67222
428.77168,0.70227
427.28189,0.82758
425.79210,0.83113
424.30231,0.90262
422.81252,0.97415
421.32273,1.11518
419.83295,1.08917
418.34316,1.09207
416.85337,1.09500
415.36358,0.90825
413.87379,0.80116
412.38400,0.81354
410.89422,0.82594
409.40443,0.87038
407.91464,0.91952
406.42485,0.91717
404.93506,0.88518
403.44527,0.85322
401.95548,0.92121
400.46570,0.93770
398.97591,0.90582
397.48612,0.87396
395.99633,0.88272
394.50654,0.89151
393.01675,0.84490
391.52697,0.79831
390.03718,0.81967
388.54739,0.76455
387.05760,0.75396
385.56781,0.74339
384.07802,0.70396
382.58824,0.67705
381.09845,0.65641
379.60866,0.63580
378.11887,0.52466
376.62908,0.49317
375.13929,0.45546
373.64950,0.41778
372.15972,0.28020
370.66993,0.30815
369.18014,0.29553
367.69035,0.28293
366.20056,0.28442
364.71077,0.29217
363.22099,0.28981
361.73120,0.28747
360.24141,0.05017
358.75162,0.06584
357.26183,0.06358
355.77204,0.06134
354.28225,0.10676
352.79247,0.15844
351.30268,0.14770
349.81289,0.13698
348.32310,0.11224
346.83331,0.07972
345.34352,0.05893
343.85374,0.03817
342.36395,0.07911
340.87416,0.05606
339.38437,0.04865
337.89458,0.04127
336.40479,0.05890
334.91501,0.00473
333.42522,0.00679
331.93543,0.00888
330.44564,0.02973
328.95585,0.07247
327.46606,0.03795
325.97627,0.00346
324.48649,0.03196
322.99670,0.03551
321.50691,0.07968
320.01712,0.12387
318.52733,0.05099
317.03754,0.00000
315.54776,0.01267
314.05797,0.02537
312.56818,0.00296
311.07839,0.03523
309.58860,0.05582
308.09881,0.07643
306.60902,0.04632
305.11924,0.01936
303.62945,0.01351
302.13966,0.00400
300.64987,0.02401
299.16008,0.00346
