1778.52000,0.07751
1777.03021,0.04115
1775.54042,0.09631
1774.05063,0.02869
1772.56085,0.09964
1771.07106,0.07394
1769.58127,0.19203
1768.09148,0.14553
1766.60169,0.08339
1765.11190,0.09710
1763.62212,0.00109
1762.13233,0.03058
1760.64254,0.11240
1759.15275,0.04529
1757.66296,0.04096
1756.17317,0.05498
1754.68339,0.13178
1753.19360,0.02044
1751.70381,0.02939
1750.21402,0.00964
1748.72423,0.06050
1747.23444,0.03563
1745.74465,0.07092
1744.25487,0.06444
1742.76508,0.05540
1741.27529,0.05686
1739.78550,0.01134
1738.29571,0.05472
1736.80592,0.01191
1735.31614,0.06063
1733.82635,0.06497
1732.33656,0.00663
1730.84677,0.06857
1729.35698,0.02863
1727.86719,0.01488
1726.37740,0.06129
1724.88762,0.06071
1723.39783,0.05757
1721.90804,0.03096
1720.41825,0.05144
1718.92846,0.01448
1717.43867,0.00109
1715.94889,0.08288
1714.45910,0.00267
1712.96931,0.03435
1711.47952,0.01903
1709.98973,0.01683
1708.49994,0.10615
1707.01016,0.06747
1705.52037,0.02883
1704.03058,0.02945
1702.54079,0.04581
1701.05100,0.06482
1699.56121,0.12571
1698.07142,0.00109
1696.58164,0.01761
1695.09185,0.06556
1693.60206,0.04821
1692.11227,0.02569
1690.62248,0.06072
1689.13269,0.00432
1687.64291,0.09957
1686.15312,0.06157
1684.66333,0.06806
1683.17354,0.04323
1681.68375,0.07334
1680.19396,0.00680
1678.70417,0.06838
1677.21439,0.10648
1675.72460,0.06101
1674.23481,0.07831
1672.74502,0.00157
1671.25523,0.05557
1669.76544,0.00246
1668.27566,0.04610
1666.78587,0.01400
1665.29608,0.05775
1663.80629,0.07280
1662.31650,0.02517
1660.82671,0.04555
1659.33693,0.11825
1657.84714,0.11521
1656.35735,0.08870
1654.86756,0.07531
1653.37777,0.08810
1651.88798,0.08004
1650.39819,0.00669
1648.90841,0.10851
1647.41862,0.12674
1645.92883,0.08621
1644.43904,0.04574
1642.94925,0.09810
1641.45946,0.08517
1639.96968,0.01741
1638.47989,0.10652
1636.99010,0.04148
1635.50031,0.08625
1634.01052,0.05529
1632.52073,0.05313
1631.03094,0.08238
1629.54116,0.08554
1628.05137,0.14626
1626.56158,0.04760
1625.07179,0.07183
1623.58200,0.05430
1622.09221,0.03420
1620.60243,0.00109
1619.11264,0.05679
1617.62285,0.08118
1616.13306,0.08733
1614.64327,0.05433
1613.15348,0.09455
1611.66370,0.03813
1610.17391,0.09676
1608.68412,0.06657
1607.19433,0.07825
1605.70454,0.11090
1604.21475,0.07956
1602.72496,0.04828
1601.23518,0.09676
1599.74539,0.09302
1598.25560,0.04229
1596.76581,0.08047
1595.27602,0.00109
1593.78623,0.06033
1592.29645,0.05166
1590.80666,0.05350
1589.31687,0.05540
1587.82708,0.00507
1586.33729,0.08741
1584.84750,0.06787
1583.35771,0.04576
1581.86793,0.09167
1580.37814,0.08012
1578.88835,0.06079
1577.39856,0.12514
1575.90877,0.10852
1574.41898,0.05013
1572.92920,0.13294
1571.43941,0.10079
1569.94962,0.07523
1568.45983,0.04973
1566.97004,0.05171
1565.48025,0.04329
1563.99047,0.01141
1562.50068,0.00571
1561.01089,0.16994
1559.52110,0.04935
1558.03131,0.00460
1556.54152,0.06706
1555.05173,0.09037
1553.56195,0.03271
1552.07216,0.09794
1550.58237,0.05868
1549.09258,0.02730
1547.60279,0.19985
1546.11300,0.29142
1544.62322,0.24452
1543.13343,0.14801
1541.64364,0.13520
1540.15385,0.08976
1538.66406,0.04438
1537.17427,0.17546
1535.68448,0.07399
1534.19470,0.11893
1532.70491,0.03585
1531.21512,0.02601
1529.72533,0.06587
1528.23554,0.01432
1526.74575,0.09872
1525.25597,0.14397
1523.76618,0.00109
1522.27639,0.05004
1520.78660,0.13563
1519.29681,0.11673
1517.80702,0.04038
1516.31724,0.05295
1514.82745,0.04988
1513.33766,0.06908
1511.84787,0.08834
1510.35808,0.08804
1508.86829,0.09564
1507.37850,0.00136
1505.88872,0.02212
1504.39893,0.02988
1502.90914,0.00109
1501.41935,0.04924
1499.92956,0.06348
1498.43977,0.05424
1496.94999,0.01891
1495.46020,0.01762
1493.97041,0.04251
1492.48062,0.07268
1490.99083,0.03756
1489.50104,0.07045
1488.01125,0.05635
1486.52147,0.04229
1485.03168,0.01784
1483.54189,0.15547
1482.05210,0.21476
1480.56231,0.18523
1479.07252,0.17666
1477.58274,0.11326
1476.09295,0.31388
1474.60316,0.21660
1473.11337,0.20040
1471.62358,0.22868
1470.13379,0.22042
1468.64401,0.26187
1467.15422,0.21712
1465.66443,0.19726
1464.17464,0.17745
1462.68485,0.11979
1461.19506,0.20854
1459.70527,0.15882
1458.21549,0.15098
1456.72570,0.12489
1455.23591,0.09101
1453.74612,0.09639
1452.25633,0.17761
1450.76654,0.07854
1449.27676,0.05010
1447.78697,0.13670
1446.29718,0.10052
1444.80739,0.10490
1443.31760,0.10933
1441.82781,0.12819
1440.33802,0.13141
1438.84824,0.03537
1437.35845,0.07529
1435.86866,0.06300
1434.37887,0.00109
1432.88908,0.07695
1431.39929,0.01435
1429.90951,0.03544
1428.41972,0.07487
1426.92993,0.09344
1425.44014,0.19831
1423.95035,0.17779
1422.46056,0.15731
1420.97078,0.07416
1419.48099,0.19231
1417.99120,0.08835
1416.50141,0.14910
1415.01162,0.06093
1413.52183,0.05122
1412.03204,0.06508
1410.54226,0.07638
1409.05247,0.09296
1407.56268,0.06516
1406.07289,0.06093
1404.58310,0.07114
1403.09331,0.08139
1401.60353,0.06425
1400.11374,0.07329
1398.62395,0.03796
1397.13416,0.06279
1395.64437,0.05370
1394.15458,0.11784
1392.66479,0.06442
1391.17501,0.03457
1389.68522,0.02046
1388.19543,0.04822
1386.70564,0.02898
1385.21585,0.00979
1383.72606,0.08475
1382.23628,0.01078
1380.74649,0.03618
1379.25670,0.02243
1377.76691,0.07668
1376.27712,0.14405
1374.78733,0.14875
1373.29755,0.06725
1371.80776,0.17398
1370.31797,0.22065
1368.82818,0.26345
1367.33839,0.30630
1365.84860,0.31915
1364.35881,0.34512
1362.86903,0.39205
1361.37924,0.40766
1359.88945,0.53571
1358.39966,0.41553
1356.90987,0.42868
1355.42008,0.38439
1353.93030,0.45254
1352.44051,0.50636
1350.95072,0.56024
1349.46093,0.44559
1347.97114,0.38849
1346.48135,0.26871
1344.99156,0.17251
1343.50178,0.13909
1342.01199,0.13446
1340.52220,0.11421
1339.03241,0.14628
1337.54262,0.07909
1336.05283,0.07729
1334.56305,0.07554
1333.07326,0.09997
1331.58347,0.06435
1330.09368,0.09935
1328.60389,0.00110
1327.11410,0.13813
1325.62432,0.09748
1324.13453,0.06996
1322.64474,0.03725
1321.15495,0.05688
1319.66516,0.04388
1318.17537,0.03094
1316.68558,0.07162
1315.19580,0.08622
1313.70601,0.08781
1312.21622,0.08161
1310.72643,0.05977
1309.23664,0.04060
1307.74685,0.07899
1306.25707,0.08606
1304.76728,0.09971
1303.27749,0.11342
1301.78770,0.05008
1300.29791,0.08088
1298.80812,0.03071
1297.31834,0.12172
1295.82855,0.00109
1294.33876,0.08372
1292.84897,0.09322
1291.35918,0.02697
1289.86939,0.09146
1288.37960,0.15600
1286.88982,0.12651
1285.40003,0.06831
1283.91024,0.08073
1282.42045,0.06184
1280.93066,0.01949
1279.44087,0.09479
1277.95109,0.09174
1276.46130,0.05737
1274.97151,0.04658
1273.48172,0.03585
1271.99193,0.13232
1270.50214,0.08509
1269.01235,0.12678
1267.52257,0.06136
1266.03278,0.08747
1264.54299,0.07443
1263.05320,0.03530
1261.56341,0.08901
1260.07362,0.14277
1258.58384,0.08289
1257.09405,0.07795
1255.60426,0.13055
1254.11447,0.06560
1252.62468,0.04513
1251.13489,0.09005
1249.64511,0.13503
1248.15532,0.08596
1246.66553,0.05655
1245.17574,0.02719
1243.68595,0.08282
1242.19616,0.03658
1240.70637,0.06879
1239.21659,0.11935
1237.72680,0.05497
1236.23701,0.00109
1234.74722,0.07522
1233.25743,0.06184
1231.76764,0.04852
1230.27786,0.04962
1228.78807,0.02726
1227.29828,0.04676
1225.80849,0.08984
1224.31870,0.08069
1222.82891,0.02717
1221.33912,0.11744
1219.84934,0.08362
1218.35955,0.04986
1216.86976,0.03313
1215.37997,0.04259
1213.89018,0.07040
1212.40039,0.07996
1210.91061,0.07912
1209.42082,0.07834
1207.93103,0.05016
1206.44124,0.02203
1204.95145,0.06321
1203.46166,0.03911
1201.97188,0.09085
1200.48209,0.03026
1198.99230,0.00109
1197.50251,0.02088
1196.01272,0.05641
1194.52293,0.03971
1193.03314,0.02307
1191.54336,0.04307
1190.05357,0.08141
1188.56378,0.06231
1187.07399,0.06940
1185.58420,0.00074
1184.09441,0.02346
1182.60463,0.01225
1181.11484,0.00109
1179.62505,0.02081
1178.13526,0.04321
1176.64547,0.05258
1175.15568,0.05156
1173.66589,0.01399
1172.17611,0.00000
1170.68632,0.04075
1169.19653,0.08156
1167.70674,0.08974
1166.21695,0.04832
1164.72716,0.12979
1163.23738,0.02052
1161.74759,0.03937
1160.25780,0.05304
1158.76801,0.03410
1157.27822,0.01520
1155.78843,0.05517
1154.29865,0.00109
1152.80886,0.07360
1151.31907,0.04685
1149.82928,0.05152
1148.33949,0.04055
1146.84970,0.08583
1145.35991,0.13116
1143.87013,0.04978
1142.38034,0.07561
1140.89055,0.10149
1139.40076,0.03072
1137.91097,0.14295
1136.42118,0.18990
1134.93140,0.12974
1133.44161,0.06963
1131.95182,0.17162
1130.46203,0.10116
1128.97224,0.12745
1127.48245,0.10675
1125.99266,0.14883
1124.50288,0.05506
1123.01309,0.11684
1121.52330,0.17868
1120.03351,0.12426
1118.54372,0.20058
1117.05393,0.12012
1115.56415,0.18347
1114.07436,0.19722
1112.58457,0.23976
1111.09478,0.28236
1109.60499,0.33284
1108.11520,0.22134
1106.62542,0.23273
1105.13563,0.37485
1103.64584,0.50395
1102.15605,0.31947
1100.66626,0.34544
1099.17647,0.37146
1097.68668,0.41975
1096.19690,0.41059
1094.70711,0.50602
1093.21732,0.46298
1091.72753,0.48534
1090.23774,0.47770
1088.74795,0.47010
1087.25817,0.55534
1085.76838,0.55699
1084.27859,0.56393
1082.78880,0.48728
1081.29901,0.55965
1079.80922,0.61379
1078.31943,0.53468
1076.82965,0.45562
1075.33986,0.52036
1073.85007,0.53550
1072.36028,0.53500
1070.87049,0.45354
1069.38070,0.37997
1067.89092,0.38747
1066.40113,0.39502
1064.91134,0.44183
1063.42155,0.39721
1061.93176,0.27947
1060.44197,0.29507
1058.95219,0.29504
1057.46240,0.29506
1055.97261,0.29513
1054.48282,0.32923
1052.99303,0.36077
1051.50324,0.21464
1050.01345,0.24105
1048.52367,0.27798
1047.03388,0.26006
1045.54409,0.24220
1044.05430,0.16951
1042.56451,0.06027
1041.07472,0.06348
1039.58494,0.09025
1038.09515,0.09094
1036.60536,0.05118
1035.11557,0.01146
1033.62578,0.07504
1032.13599,0.11252
1030.64620,0.00109
1029.15642,0.07674
1027.66663,0.10540
1026.17684,0.13411
1024.68705,0.02697
1023.19726,0.06362
1021.70747,0.13692
1020.21769,0.18152
1018.72790,0.19742
1017.23811,0.19900
1015.74832,0.20062
1014.25853,0.33952
1012.76874,0.30858
1011.27896,0.47633
1009.78917,0.53958
1008.29938,0.65516
1006.80959,0.73812
1005.31980,0.82113
1003.83001,0.72255
1002.34022,0.81743
1000.85044,0.77384
999.36065,1.20858
997.87086,1.29316
996.38107,1.37779
994.89128,1.50951
993.40149,1.66481
991.91171,1.62937
990.42192,1.81352
988.93213,1.90102
987.44234,1.92976
985.95255,1.95856
984.46276,1.96781
982.97297,1.86733
981.48319,1.96816
979.99340,1.90438
978.50361,1.89946
977.01382,1.89459
975.52403,1.97994
974.03424,2.00000
972.54446,1.93648
971.05467,1.89914
969.56488,1.70766
968.07509,1.69787
966.58530,1.68813
965.09551,1.68498
963.60573,1.53552
962.11594,1.62395
960.62615,1.47198
959.13636,1.45858
957.64657,1.44523
956.15678,1.23592
954.66699,1.31938
953.17721,1.07880
951.68742,1.14668
950.19763,1.19371
948.70784,1.24078
947.21805,1.06575
945.72826,1.07634
944.23848,0.91187
942.74869,0.93301
941.25890,0.97250
939.76911,0.92972
938.27932,0.88699
936.78953,0.89266
935.29974,0.92713
933.80996,0.88324
932.32017,0.78191
930.83038,0.82699
929.34059,0.87212
927.85080,0.97481
926.36101,0.89198
924.87123,1.00260
923.38144,1.11589
921.89165,1.09725
920.40186,1.07866
918.91207,1.07972
917.42228,1.19061
915.93250,1.10030
914.44271,1.17208
912.95292,1.25176
911.46313,1.33148
909.97334,1.18127
908.48355,1.22451
906.99376,1.23905
905.50398,1.32421
904.01419,1.38329
902.52440,1.44242
901.03461,1.43626
899.54482,1.41969
898.05503,1.52341
896.56525,1.66638
895.07546,1.53497
893.58567,1.40362
892.09588,1.54674
890.60609,1.43379
889.11630,1.24509
887.62651,1.24201
886.13673,1.19977
884.64694,1.15759
883.15715,1.09194
881.66736,1.06554
880.17757,0.87192
878.68778,0.92665
877.19800,0.98143
875.70821,1.00489
874.21842,0.86637
872.72863,0.79846
871.23884,0.78811
869.74905,0.69025
868.25927,0.59244
866.76948,0.63712
865.27969,0.53811
863.78990,0.59597
862.30011,0.40820
860.81032,0.43741
859.32053,0.46667
857.83075,0.41235
856.34096,0.40251
854.85117,0.47113
853.36138,0.38821
851.87159,0.34194
850.38180,0.29571
848.89202,0.22863
847.40223,0.13286
845.91244,0.16781
844.42265,0.13355
842.93286,0.09935
841.44307,0.12139
839.95329,0.10166
838.46350,0.03494
836.97371,0.04930
835.48392,0.03495
833.99413,0.02066
832.50434,0.17107
831.01455,0.07064
829.52477,0.12184
828.03498,0.00582
826.54519,0.08196
825.05540,0.15814
823.56561,0.10762
822.07582,0.10681
820.58604,0.05378
819.09625,0.04522
817.60646,0.03673
816.11667,0.07010
814.62688,0.08784
813.13709,0.00109
811.64730,0.07840
810.15752,0.03946
808.66773,0.00057
807.17794,0.04511
805.68815,0.11844
804.19836,0.05592
802.70857,0.07055
801.21879,0.08524
799.72900,0.09867
798.23921,0.22715
796.74942,0.19102
795.25963,0.17324
793.76984,0.15551
792.28006,0.28159
790.79027,0.17771
789.30048,0.19412
787.81069,0.28375
786.32090,0.25583
784.83111,0.22796
783.34132,0.24196
781.85154,0.15669
780.36175,0.31454
778.87196,0.33522
777.38217,0.35596
775.89238,0.33885
774.40259,0.33225
772.91281,0.38058
771.42302,0.37016
769.93323,0.35980
768.44344,0.38737
766.95365,0.32092
765.46386,0.26235
763.97407,0.26657
762.48429,0.27344
760.99450,0.28037
759.50471,0.26906
758.01492,0.28916
756.52513,0.21522
755.03534,0.15833
753.54556,0.10148
752.05577,0.09827
750.56598,0.04545
749.07619,0.12074
747.58640,0.13990
746.09661,0.15911
744.60683,0.04899
743.11704,0.09313
741.62725,0.08766
740.13746,0.04435
738.64767,0.00109
737.15788,0.08692
735.66809,0.05259
734.17831,0.08103
732.68852,0.06247
731.19873,0.04397
729.70894,0.08825
728.21915,0.14042
726.72936,0.07502
725.23958,0.00446
723.74979,0.05547
722.26000,0.10654
720.77021,0.18249
719.28042,0.04679
717.79063,0.19864
716.30084,0.11531
714.81106,0.03204
713.32127,0.00109
711.83148,0.08169
710.34169,0.03950
708.85190,0.05486
707.36211,0.07027
705.87233,0.07267
704.38254,0.03592
702.89275,0.14035
701.40296,0.11415
699.91317,0.08800
698.42338,0.10634
696.93360,0.33643
695.44381,0.41498
693.95402,0.38904
692.46423,0.36315
690.97444,0.23539
689.48465,0.07631
687.99486,0.09500
686.50508,0.08239
685.01529,0.06983
683.52550,0.13834
682.03571,0.03702
680.54592,0.00109
679.05613,0.07125
677.56635,0.14147
676.07656,0.26139
674.58677,0.13046
673.09698,0.15640
671.60719,0.17977
670.11740,0.20320
668.62761,0.11952
667.13783,0.22669
665.64804,0.14704
664.15825,0.06743
662.66846,0.09373
661.17867,0.06520
659.68888,0.09160
658.19910,0.09453
656.70931,0.09752
655.21952,0.11362
653.72973,0.10625
652.23994,0.17995
650.75015,0.16224
649.26037,0.14457
647.77058,0.15047
646.28079,0.17734
644.79100,0.28528
643.30121,0.19333
641.81142,0.10144
640.32163,0.19908
638.83185,0.16609
637.34206,0.06258
635.85227,0.07936
634.36248,0.09618
632.87269,0.13397
631.38290,0.09340
629.89312,0.07901
628.40333,0.13656
626.91354,0.19415
625.42375,0.01788
623.93396,0.00109
622.44417,0.08512
620.95438,0.16920
619.46460,0.14879
617.97481,0.12321
616.48502,0.08199
614.99523,0.10094
613.50544,0.11995
612.01565,0.12332
610.52587,0.08754
609.03608,0.13544
607.54629,0.11936
606.05650,0.10334
604.56671,0.17492
603.07692,0.04270
601.58714,0.08433
600.09735,0.12601
598.60756,0.13768
597.11777,0.14157
595.62798,0.13244
594.13819,0.08024
592.64840,0.02809
591.15862,0.11059
589.66883,0.09644
588.17904,0.08234
586.68925,0.16892
585.19946,0.25555
583.70967,0.23637
582.21989,0.31657
580.73010,0.33148
579.24031,0.34644
577.75052,0.24123
576.26073,0.42356
574.77094,0.44390
573.28115,0.40941
571.79137,0.37497
570.30158,0.46342
568.81179,0.43170
567.32200,0.47060
565.83221,0.50954
564.34242,0.56945
562.85264,0.64509
561.36285,0.74431
559.87306,0.76516
558.38327,0.78607
556.89348,0.86454
555.40369,0.80976
553.91391,0.86480
552.42412,0.91989
550.93433,0.92276
549.44454,0.83160
547.95475,0.99139
546.46496,0.97612
544.97517,0.96090
543.48539,0.97710
541.99560,1.06131
540.50581,1.08676
539.01602,1.11226
537.52623,1.16786
536.03644,1.11898
534.54666,1.05186
533.05687,1.04620
531.56708,1.04060
530.07729,0.91351
528.58750,0.95636
527.09771,0.90256
525.60792,0.84881
524.11814,0.84738
522.62835,0.72578
521.13856,0.75060
519.64877,0.72580
518.15898,0.70106
516.66919,0.62149
515.17941,0.69355
513.68962,0.61277
512.19983,0.53204
510.71004,0.59119
509.22025,0.54847
507.73046,0.46659
506.24068,0.43964
504.75089,0.41275
503.26110,0.44603
501.77131,0.28594
500.28152,0.23307
498.79173,0.18025
497.30194,0.22157
495.81216,0.12442
494.32237,0.15539
492.83258,0.18641
491.34279,0.10771
489.85300,0.08134
488.36321,0.26149
486.87343,0.17641
485.38364,0.09138
483.89385,0.14624
482.40406,0.07830
480.91427,0.11757
479.42448,0.15690
477.93469,0.09173
476.44491,0.03969
474.95512,0.02036
473.46533,0.00109
471.97554,0.13402
470.48575,0.09973
468.99596,0.03936
467.50618,0.09665
466.01639,0.15399
464.52660,0.10946
463.03681,0.09372
461.54702,0.09502
460.05723,0.09638
458.56745,0.02853
457.07766,0.04959
455.58787,0.07462
454.09808,0.09971
452.60829,0.11047
451.11850,0.15265
449.62871,0.16874
448.13893,0.18488
446.64914,0.24028
445.15935,0.37937
443.66956,0.32510
442.17977,0.37935
440.68998,0.43365
439.20020,0.53374
437.71041,0.61035
436.22062,0.60078
434.73083,0.59125
433.24104,0.54779
431.75125,0.75530
430.26146,0.74854
428.77168,0.74183
427.28189,0.83188
425.79210,0.87232
424.30231,1.00167
422.81252,1.13108
421.32273,1.40951
419.83295,1.53641
418.34316,1.53398
416.85337,1.53160
415.36358,0.91117
413.87379,0.91543
412.38400,0.94457
410.89422,0.97377
409.40443,1.00171
407.91464,0.94345
406.42485,1.07865
404.93506,1.10674
403.44527,1.13489
401.95548,0.79196
400.46570,0.87509
398.97591,0.89032
397.48612,0.90561
395.99633,0.97844
394.50654,0.93633
393.01675,0.87336
391.52697,0.81045
390.03718,0.72667
388.54739,0.88340
387.05760,0.90166
385.56781,0.91997
384.07802,0.77368
382.58824,0.72152
381.09845,0.71124
379.60866,0.70101
378.11887,0.66469
376.62908,0.50297
375.13929,0.52687
373.64950,0.55082
372.15972,0.37357
370.66993,0.35842
369.18014,0.34725
367.69035,0.33612
366.20056,0.26885
364.71077,0.31141
363.22099,0.25862
361.73120,0.20588
360.24141,0.13359
358.75162,0.18681
357.26183,0.15121
355.77204,0.11567
354.28225,0.13768
352.79247,0.04735
351.30268,0.06946
349.81289,0.09163
348.32310,0.07725
346.83331,0.06293
345.34352,0.04734
343.85374,0.03182
342.36395,0.02026
340.87416,0.15512
339.38437,0.12145
337.89458,0.08783
336.40479,0.04250
334.91501,0.02336
333.42522,0.04087
331.93543,0.05842
330.44564,0.06819
328.95585,0.02312
327.46606,0.01208
325.97627,0.00109
324.48649,0.04218
322.99670,0.04935
321.50691,0.08532
320.01712,0.12133
318.52733,0.08945
317.03754,0.04455
315.54776,0.06112
314.05797,0.07775
312.56818,0.04607
311.07839,0.11115
309.58860,0.15537
308.09881,0.19964
306.60902,0.07147
305.11924,0.03483
303.62945,0.04266
302.13966,0.03622
300.64987,0.00109
299.16008,0.00109
