1778.52000,0.03386
1777.03021,0.10642
1775.54042,0.06795
1774.05063,0.04509
1772.56085,0.07097
1771.07106,0.05011
1769.58127,0.13060
1768.09148,0.00459
1766.60169,0.05201
1765.11190,0.05659
1763.62212,0.08848
1762.13233,0.09311
1760.64254,0.09193
1759.15275,0.12585
1757.66296,0.09939
1756.17317,0.02620
1754.68339,0.09722
1753.19360,0.08643
1751.70381,0.08542
1750.21402,0.04935
1748.72423,0.03085
1747.23444,0.00459
1745.74465,0.04957
1744.25487,0.05560
1742.76508,0.14935
1741.27529,0.08335
1739.78550,0.09532
1738.29571,0.04106
1736.80592,0.05113
1735.31614,0.06123
1733.82635,0.03628
1732.33656,0.13996
1730.84677,0.09558
1729.35698,0.06098
1727.86719,0.08485
1726.37740,0.04835
1724.88762,0.01577
1723.39783,0.04557
1721.90804,0.07150
1720.41825,0.01757
1718.92846,0.00459
1717.43867,0.06746
1715.94889,0.07580
1714.45910,0.04521
1712.96931,0.04581
1711.47952,0.03086
1709.98973,0.02178
1708.49994,0.00882
1707.01016,0.02610
1705.52037,0.04340
1704.03058,0.05196
1702.54079,0.06640
1701.05100,0.07696
1699.56121,0.02131
1698.07142,0.05920
1696.58164,0.06595
1695.09185,0.12728
1693.60206,0.07563
1692.11227,0.03960
1690.62248,0.05425
1689.13269,0.03775
1687.64291,0.02128
1686.15312,0.13344
1684.66333,0.01960
1683.17354,0.07531
1681.68375,0.07648
1680.19396,0.02118
1678.70417,0.11788
1677.21439,0.09576
1675.72460,0.01326
1674.23481,0.02236
1672.74502,0.09579
1671.25523,0.08157
1669.76544,0.11998
1668.27566,0.10776
1666.78587,0.07804
1665.29608,0.10094
1663.80629,0.13752
1662.31650,0.10592
1660.82671,0.09968
1659.33693,0.07204
1657.84714,0.05417
1656.35735,0.15127
1654.86756,0.10228
1653.37777,0.03188
1651.88798,0.05698
1650.39819,0.07626
1648.90841,0.04881
1647.41862,0.08958
1645.92883,0.07971
1644.43904,0.06987
1642.94925,0.03863
1641.45946,0.12627
1639.96968,0.06001
1638.47989,0.05808
1636.99010,0.00551
1635.50031,0.12054
1634.01052,0.06218
1632.52073,0.05451
1631.03094,0.11311
1629.54116,0.08017
1628.05137,0.03361
1626.56158,0.09619
1625.07179,0.10035
1623.58200,0.13181
1622.09221,0.09705
1620.60243,0.05842
1619.11264,0.01397
1617.62285,0.05918
1616.13306,0.01674
1614.64327,0.04057
1613.15348,0.09755
1611.66370,0.07662
1610.17391,0.05182
1608.68412,0.07381
1607.19433,0.03737
1605.70454,0.10618
1604.21475,0.10487
1602.72496,0.10359
1601.23518,0.09064
1599.74539,0.09136
1598.25560,0.07457
1596.76581,0.06755
1595.27602,0.08589
1593.78623,0.06334
1592.29645,0.09147
1590.80666,0.01637
1589.31687,0.06209
1587.82708,0.04744
1586.33729,0.01529
1584.84750,0.00459
1583.35771,0.07486
1581.86793,0.06527
1580.37814,0.08883
1578.88835,0.08904
1577.39856,0.04251
1575.90877,0.05641
1574.41898,0.01773
1572.92920,0.08040
1571.43941,0.06126
1569.94962,0.05189
1568.45983,0.04255
1566.97004,0.03128
1565.48025,0.06485
1563.99047,0.06533
1562.50068,0.06779
1561.01089,0.07612
1559.52110,0.00459
1558.03131,0.08074
1556.54152,0.04001
1555.05173,0.06361
1553.56195,0.05606
1552.07216,0.06023
1550.58237,0.08002
1549.09258,0.08814
1547.60279,0.13330
1546.11300,0.21552
1544.62322,0.21593
1543.13343,0.10725
1541.64364,0.07849
1540.15385,0.04975
1538.66406,0.02104
1537.17427,0.03912
1535.68448,0.05138
1534.19470,0.02665
1532.70491,0.00000
1531.21512,0.01780
1529.72533,0.01030
1528.23554,0.01841
1526.74575,0.02850
1525.25597,0.06004
1523.76618,0.03706
1522.27639,0.04723
1520.78660,0.03404
1519.29681,0.10272
1517.80702,0.04477
1516.31724,0.01608
1514.82745,0.05172
1513.33766,0.02990
1511.84787,0.00811
1510.35808,0.06136
1508.86829,0.00943
1507.37850,0.00817
1505.88872,0.04592
1504.39893,0.00965
1502.90914,0.00459
1501.41935,0.05678
1499.92956,0.05054
1498.43977,0.06382
1496.94999,0.01087
1495.46020,0.04369
1493.97041,0.07653
1492.48062,0.07238
1490.99083,0.06631
1489.50104,0.12066
1488.01125,0.11562
1486.52147,0.11060
1485.03168,0.11048
1483.54189,0.13182
1482.05210,0.17657
1480.56231,0.18628
1479.07252,0.21744
1477.58274,0.29540
1476.09295,0.27596
1474.60316,0.20394
1473.11337,0.29171
1471.62358,0.17104
1470.13379,0.28420
1468.64401,0.26295
1467.15422,0.24562
1465.66443,0.22637
1464.17464,0.20715
1462.68485,0.20744
1461.19506,0.20191
1459.70527,0.23342
1458.21549,0.16560
1456.72570,0.11144
1455.23591,0.13330
1453.74612,0.11621
1452.25633,0.13618
1450.76654,0.12110
1449.27676,0.09630
1447.78697,0.10855
1446.29718,0.08771
1444.80739,0.07858
1443.31760,0.06948
1441.82781,0.02533
1440.33802,0.10007
1438.84824,0.05208
1437.35845,0.02945
1435.86866,0.04582
1434.37887,0.04272
1432.88908,0.00459
1431.39929,0.08693
1429.90951,0.07383
1428.41972,0.10362
1426.92993,0.09642
1425.44014,0.11262
1423.95035,0.12788
1422.46056,0.14317
1420.97078,0.09710
1419.48099,0.18941
1417.99120,0.13366
1416.50141,0.14808
1415.01162,0.10017
1413.52183,0.08932
1412.03204,0.13694
1410.54226,0.07159
1409.05247,0.11732
1407.56268,0.06176
1406.07289,0.13677
1404.58310,0.13874
1403.09331,0.14074
1401.60353,0.12426
1400.11374,0.05909
1398.62395,0.14009
1397.13416,0.11589
1395.64437,0.14043
1394.15458,0.12214
1392.66479,0.13504
1391.17501,0.12459
1389.68522,0.06741
1388.19543,0.12132
1386.70564,0.10218
1385.21585,0.08308
1383.72606,0.05718
1382.23628,0.09950
1380.74649,0.09119
1379.25670,0.13357
1377.76691,0.17987
1376.27712,0.15216
1374.78733,0.19267
1373.29755,0.25074
1371.80776,0.17635
1370.31797,0.29292
1368.82818,0.27996
1367.33839,0.26703
1365.84860,0.40317
1364.35881,0.43803
1362.86903,0.32872
1361.37924,0.43572
1359.88945,0.44728
1358.39966,0.44133
1356.90987,0.41981
1355.42008,0.42950
1353.93030,0.46260
1352.44051,0.45286
1350.95072,0.44314
1349.46093,0.42371
1347.97114,0.30299
1346.48135,0.28751
1344.99156,0.13567
1343.50178,0.24690
1342.01199,0.12044
1340.52220,0.16158
1339.03241,0.20858
1337.54262,0.16794
1336.05283,0.15460
1334.56305,0.14128
1333.07326,0.13774
1331.58347,0.14786
1330.09368,0.16386
1328.60389,0.04544
1327.11410,0.10436
1325.62432,0.03860
1324.13453,0.08977
1322.64474,0.00459
1321.15495,0.09383
1319.66516,0.08763
1318.17537,0.08145
1316.68558,0.12012
1315.19580,0.10231
1313.70601,0.10790
1312.21622,0.04533
1310.72643,0.08021
1309.23664,0.07809
1307.74685,0.02340
1306.25707,0.18695
1304.76728,0.13523
1303.27749,0.08354
1301.78770,0.06013
1300.29791,0.09715
1298.80812,0.09912
1297.31834,0.04266
1295.82855,0.08950
1294.33876,0.09545
1292.84897,0.07610
1291.35918,0.10159
1289.86939,0.07645
1288.37960,0.05133
1286.88982,0.09833
1285.40003,0.05184
1283.91024,0.02875
1282.42045,0.11480
1280.93066,0.07034
1279.44087,0.05513
1277.95109,0.08086
1276.46130,0.16507
1274.97151,0.15384
1273.48172,0.14263
1271.99193,0.05741
1270.50214,0.04431
1269.01235,0.10333
1267.52257,0.12341
1266.03278,0.11039
1264.54299,0.10324
1263.05320,0.13315
1261.56341,0.13580
1260.07362,0.13847
1258.58384,0.15676
1257.09405,0.17314
1255.60426,0.10380
1254.11447,0.07347
1252.62468,0.11330
1251.13489,0.09860
1249.64511,0.09952
1248.15532,0.11216
1246.66553,0.09657
1245.17574,0.08101
1243.68595,0.10737
1242.19616,0.05192
1240.70637,0.03352
1239.21659,0.18660
1237.72680,0.00459
1236.23701,0.10989
1234.74722,0.10612
1233.25743,0.10432
1231.76764,0.10254
1230.27786,0.10275
1228.78807,0.12441
1227.29828,0.06816
1225.80849,0.01779
1224.31870,0.08045
1222.82891,0.09247
1221.33912,0.07336
1219.84934,0.06303
1218.35955,0.05274
1216.86976,0.03175
1215.37997,0.06535
1213.89018,0.08533
1212.40039,0.14821
1210.91061,0.06498
1209.42082,0.02075
1207.93103,0.01552
1206.44124,0.01031
1204.95145,0.03825
1203.46166,0.09544
1201.97188,0.00459
1200.48209,0.08941
1198.99230,0.05736
1197.50251,0.04871
1196.01272,0.04984
1194.52293,0.04222
1193.03314,0.03464
1191.54336,0.05143
1190.05357,0.10137
1188.56378,0.04613
1187.07399,0.03768
1185.58420,0.05848
1184.09441,0.08515
1182.60463,0.06216
1181.11484,0.03920
1179.62505,0.01530
1178.13526,0.00896
1176.64547,0.00459
1175.15568,0.02209
1173.66589,0.05910
1172.17611,0.10782
1170.68632,0.08351
1169.19653,0.05923
1167.70674,0.06517
1166.21695,0.07114
1164.72716,0.07714
1163.23738,0.09486
1161.74759,0.08337
1160.25780,0.09919
1158.76801,0.06146
1157.27822,0.02376
1155.78843,0.00459
1154.29865,0.09043
1152.80886,0.09251
1151.31907,0.10631
1149.82928,0.13768
1148.33949,0.05996
1146.84970,0.07384
1145.35991,0.08775
1143.87013,0.17963
1142.38034,0.19164
1140.89055,0.05756
1139.40076,0.07742
1137.91097,0.16940
1136.42118,0.15230
1134.93140,0.17517
1133.44161,0.19806
1131.95182,0.17130
1130.46203,0.09001
1128.97224,0.11202
1127.48245,0.13015
1125.99266,0.08791
1124.50288,0.16845
1123.01309,0.16328
1121.52330,0.15814
1120.03351,0.11796
1118.54372,0.20250
1117.05393,0.27538
1115.56415,0.23722
1114.07436,0.24001
1112.58457,0.25550
1111.09478,0.27101
1109.60499,0.28946
1108.11520,0.31380
1106.62542,0.34595
1105.13563,0.35475
1103.64584,0.44930
1102.15605,0.44841
1100.66626,0.43294
1099.17647,0.41749
1097.68668,0.46929
1096.19690,0.41785
1094.70711,0.55738
1093.21732,0.52353
1091.72753,0.54621
1090.23774,0.54944
1088.74795,0.55269
1087.25817,0.57156
1085.76838,0.60409
1084.27859,0.69705
1082.78880,0.54259
1081.29901,0.56936
1079.80922,0.51627
1078.31943,0.51874
1076.82965,0.52123
1075.33986,0.54226
1073.85007,0.50487
1072.36028,0.65455
1070.87049,0.57045
1069.38070,0.52340
1067.89092,0.50949
1066.40113,0.49562
1064.91134,0.47202
1063.42155,0.40949
1061.93176,0.47558
1060.44197,0.41700
1058.95219,0.34676
1057.46240,0.33304
1055.97261,0.31935
1054.48282,0.30764
1052.99303,0.31739
1051.50324,0.30574
1050.01345,0.24929
1048.52367,0.25328
1047.03388,0.27872
1045.54409,0.30420
1044.05430,0.23032
1042.56451,0.17207
1041.07472,0.23075
1039.58494,0.18229
1038.09515,0.12216
1036.60536,0.14293
1035.11557,0.16372
1033.62578,0.10758
1032.13599,0.11770
1030.64620,0.17657
1029.15642,0.17506
1027.66663,0.20184
1026.17684,0.22863
1024.68705,0.16096
1023.19726,0.21217
1021.70747,0.23418
1020.21769,0.23868
1018.72790,0.17307
1017.23811,0.22049
1015.74832,0.26793
1014.25853,0.41867
1012.76874,0.40967
1011.27896,0.49617
1009.78917,0.59438
1008.29938,0.71406
1006.80959,0.71978
1005.31980,0.72553
1003.83001,0.78098
1002.34022,0.99624
1000.85044,0.96407
999.36065,1.14041
997.87086,1.18137
996.38107,1.22235
994.89128,1.44943
993.40149,1.58107
991.91171,1.61921
990.42192,1.73336
988.93213,1.75986
987.44234,1.87992
985.95255,2.00000
984.46276,1.93891
982.97297,1.84277
981.48319,1.92786
979.99340,1.89608
978.50361,1.92959
977.01382,1.96313
975.52403,1.94312
974.03424,1.95235
972.54446,1.92265
971.05467,1.92610
969.56488,1.72889
968.07509,1.71973
966.58530,1.71059
965.09551,1.54659
963.60573,1.60863
962.11594,1.54989
960.62615,1.60224
959.13636,1.54842
957.64657,1.49464
956.15678,1.31521
954.66699,1.41053
953.17721,1.27987
951.68742,1.22716
950.19763,1.19203
948.70784,1.15691
947.21805,1.17638
945.72826,1.17055
944.23848,1.05953
942.74869,0.96413
941.25890,0.93889
939.76911,0.92538
938.27932,0.91189
936.78953,1.12444
935.29974,1.00189
933.80996,0.96705
932.32017,0.87379
930.83038,0.89648
929.34059,0.91920
927.85080,1.02475
926.36101,1.07383
924.87123,1.00213
923.38144,1.07854
921.89165,1.07119
920.40186,1.06387
918.91207,1.15595
917.42228,1.08244
915.93250,1.13950
914.44271,1.22192
912.95292,1.25078
911.46313,1.27967
909.97334,1.26280
908.48355,1.21673
906.99376,1.25057
905.50398,1.33120
904.01419,1.33198
902.52440,1.33278
901.03461,1.49143
899.54482,1.49228
898.05503,1.48537
896.56525,1.48433
895.07546,1.49111
893.58567,1.49792
892.09588,1.38591
890.60609,1.42979
889.11630,1.28470
887.62651,1.20199
886.13673,1.25278
884.64694,1.30359
883.15715,1.13913
881.66736,1.12083
880.17757,0.96616
878.68778,0.98591
877.19800,1.00568
875.70821,0.94852
874.21842,0.90502
872.72863,0.82648
871.23884,0.68756
869.74905,0.71721
868.25927,0.74689
866.76948,0.61585
865.27969,0.68553
863.78990,0.58766
862.30011,0.51906
860.81032,0.54497
859.32053,0.57092
857.83075,0.46732
856.34096,0.45337
854.85117,0.39464
853.36138,0.32230
851.87159,0.34253
850.38180,0.36279
848.89202,0.35483
847.40223,0.27091
845.91244,0.24156
844.42265,0.25024
842.93286,0.25895
841.44307,0.26086
839.95329,0.16928
838.46350,0.16151
836.97371,0.13038
835.48392,0.10610
833.99413,0.08185
832.50434,0.09561
831.01455,0.15227
829.52477,0.07257
828.03498,0.00459
826.54519,0.04800
825.05540,0.09143
823.56561,0.12028
822.07582,0.07122
820.58604,0.08064
819.09625,0.07742
817.60646,0.07423
816.11667,0.05451
814.62688,0.09521
813.13709,0.00735
811.64730,0.05200
810.15752,0.03726
808.66773,0.02254
807.17794,0.02441
805.68815,0.05748
804.19836,0.07889
802.70857,0.07987
801.21879,0.08087
799.72900,0.06145
798.23921,0.08881
796.74942,0.15712
795.25963,0.14167
793.76984,0.12625
792.28006,0.13813
790.79027,0.16563
789.30048,0.13081
787.81069,0.21486
786.32090,0.22978
784.83111,0.24472
783.34132,0.21390
781.85154,0.27664
780.36175,0.26146
778.87196,0.26580
777.38217,0.27016
775.89238,0.33884
774.40259,0.32573
772.91281,0.28536
771.42302,0.27132
769.93323,0.25730
768.44344,0.21702
766.95365,0.21962
765.46386,0.31967
763.97407,0.22881
762.48429,0.22857
760.99450,0.22836
759.50471,0.19992
758.01492,0.13060
756.52513,0.13144
755.03534,0.08263
753.54556,0.03385
752.05577,0.09712
750.56598,0.05521
749.07619,0.05230
747.58640,0.04941
746.09661,0.04655
744.60683,0.02618
743.11704,0.05649
741.62725,0.04982
740.13746,0.05583
738.64767,0.06187
737.15788,0.01047
735.66809,0.08378
734.17831,0.06360
732.68852,0.06586
731.19873,0.06814
729.70894,0.02076
728.21915,0.00459
726.72936,0.05019
725.23958,0.04516
723.74979,0.03528
722.26000,0.02543
720.77021,0.01854
719.28042,0.10519
717.79063,0.05353
716.30084,0.03989
714.81106,0.02629
713.32127,0.02537
711.83148,0.07514
710.34169,0.04310
708.85190,0.04226
707.36211,0.04146
705.87233,0.01340
704.38254,0.03018
702.89275,0.01971
701.40296,0.03947
699.91317,0.05925
698.42338,0.07030
696.93360,0.17684
695.44381,0.25419
693.95402,0.24486
692.46423,0.23555
690.97444,0.15321
689.48465,0.05725
687.99486,0.05485
686.50508,0.03396
685.01529,0.01310
683.52550,0.05170
682.03571,0.00459
680.54592,0.15531
679.05613,0.14143
677.56635,0.12757
676.07656,0.05626
674.58677,0.08045
673.09698,0.07544
671.60719,0.09189
670.11740,0.10837
668.62761,0.07616
667.13783,0.07321
665.64804,0.05956
664.15825,0.04595
662.66846,0.14829
661.17867,0.10258
659.68888,0.08808
658.19910,0.04632
656.70931,0.00459
655.21952,0.14135
653.72973,0.08720
652.23994,0.17337
650.75015,0.13096
649.26037,0.08858
647.77058,0.10468
646.28079,0.13445
644.79100,0.19152
643.30121,0.19114
641.81142,0.19079
640.32163,0.19923
638.83185,0.10444
637.34206,0.03500
635.85227,0.03865
634.36248,0.04233
632.87269,0.12300
631.38290,0.09459
629.89312,0.07984
628.40333,0.10701
626.91354,0.13421
625.42375,0.00459
623.93396,0.05602
622.44417,0.06461
620.95438,0.07323
619.46460,0.03901
617.97481,0.10419
616.48502,0.08561
614.99523,0.07193
613.50544,0.05828
612.01565,0.09823
610.52587,0.13822
609.03608,0.15485
607.54629,0.14812
606.05650,0.14143
604.56671,0.11917
603.07692,0.17293
601.58714,0.17021
600.09735,0.16752
598.60756,0.10250
597.11777,0.12325
595.62798,0.22390
594.13819,0.20865
592.64840,0.19343
591.15862,0.12271
589.66883,0.22932
588.17904,0.19957
586.68925,0.21174
585.19946,0.22393
583.70967,0.22738
582.21989,0.35751
580.73010,0.31815
579.24031,0.27882
577.75052,0.37590
576.26073,0.47886
574.77094,0.42207
573.28115,0.48612
571.79137,0.55019
570.30158,0.49933
568.81179,0.55761
567.32200,0.58572
565.83221,0.61385
564.34242,0.66247
562.85264,0.71111
561.36285,0.86110
559.87306,0.87473
558.38327,0.88839
556.89348,1.01898
555.40369,0.92163
553.91391,0.97336
552.42412,1.02512
550.93433,1.08372
549.44454,1.08001
547.95475,1.07827
546.46496,1.03856
544.97517,0.99888
543.48539,1.11412
541.99560,1.20017
540.50581,1.15765
539.01602,1.11515
537.52623,1.21881
536.03644,1.11987
534.54666,1.09694
533.05687,1.10132
531.56708,1.10572
530.07729,1.01078
528.58750,1.07954
527.09771,0.98660
525.60792,0.89369
524.11814,0.97032
522.62835,0.96514
521.13856,0.84114
519.64877,0.75808
518.15898,0.67505
516.66919,0.71480
515.17941,0.63961
513.68962,0.65506
512.19983,0.67053
510.71004,0.59738
509.22025,0.54374
507.73046,0.51935
506.24068,0.48524
504.75089,0.45117
503.26110,0.43270
501.77131,0.39089
500.28152,0.36956
498.79173,0.34826
497.30194,0.27340
495.81216,0.33106
494.32237,0.30594
492.83258,0.28085
491.34279,0.26845
489.85300,0.26777
488.36321,0.20282
486.87343,0.23628
485.38364,0.26978
483.89385,0.21270
482.40406,0.16929
480.91427,0.18826
479.42448,0.20725
477.93469,0.16587
476.44491,0.11087
474.95512,0.14456
473.46533,0.17828
471.97554,0.20909
470.48575,0.20097
468.99596,0.16365
467.50618,0.17994
466.01639,0.19625
464.52660,0.18824
463.03681,0.23091
461.54702,0.21418
460.05723,0.19748
458.56745,0.29089
457.07766,0.23625
455.58787,0.25665
454.09808,0.27708
452.60829,0.34527
451.11850,0.35699
449.62871,0.34242
448.13893,0.32789
446.64914,0.34358
445.15935,0.50348
443.66956,0.51533
442.17977,0.53987
440.68998,0.56444
439.20020,0.65431
437.71041,0.68576
436.22062,0.72502
434.73083,0.76431
433.24104,0.78220
431.75125,0.83713
430.26146,0.84825
428.77168,0.85940
427.28189,0.97676
425.79210,1.01816
424.30231,1.10051
422.81252,1.18288
421.32273,1.40751
419.83295,1.42175
418.34316,1.41263
416.85337,1.40353
415.36358,1.15481
413.87379,1.06589
412.38400,0.98868
410.89422,0.91150
409.40443,1.11297
407.91464,1.07481
406.42485,1.15554
404.93506,1.05119
403.44527,0.94687
401.95548,1.16211
400.46570,1.05395
398.97591,1.04908
397.48612,1.04424
395.99633,1.07449
394.50654,1.05606
393.01675,0.99187
391.52697,0.92771
390.03718,1.03211
388.54739,1.01769
387.05760,0.92439
385.56781,0.83110
384.07802,0.74467
382.58824,0.78297
381.09845,0.76965
379.60866,0.75637
378.11887,0.70706
376.62908,0.62661
375.13929,0.59782
373.64950,0.56906
372.15972,0.52765
370.66993,0.35573
369.18014,0.38940
367.69035,0.42310
366.20056,0.29412
364.71077,0.32690
363.22099,0.31780
361.73120,0.30874
360.24141,0.18767
358.75162,0.19328
357.26183,0.19988
355.77204,0.20652
354.28225,0.21610
352.79247,0.17505
351.30268,0.19151
349.81289,0.20799
348.32310,0.15143
346.83331,0.07932
345.34352,0.10563
343.85374,0.13196
342.36395,0.09695
340.87416,0.11262
339.38437,0.15072
337.89458,0.18886
336.40479,0.13642
334.91501,0.07621
333.42522,0.04039
331.93543,0.00459
330.44564,0.08543
328.95585,0.08056
327.46606,0.09424
325.97627,0.10794
324.48649,0.00768
322.99670,0.02241
321.50691,0.08491
320.01712,0.14743
318.52733,0.09404
317.03754,0.03094
315.54776,0.02827
314.05797,0.02563
312.56818,0.13602
311.07839,0.05939
309.58860,0.11139
308.09881,0.16341
306.60902,0.04205
305.11924,0.07854
303.62945,0.04296
302.13966,0.00741
300.64987,0.09659
299.16008,0.00459
