1778.52000,0.03881
1777.03021,0.03119
1775.54042,0.07942
1774.05063,0.05232
1772.56085,0.03082
1771.07106,0.02471
1769.58127,0.04932
1768.09148,0.04465
1766.60169,0.07351
1765.11190,0.05913
1763.62212,0.00151
1762.13233,0.05557
1760.64254,0.02034
1759.15275,0.02421
1757.66296,0.06997
1756.17317,0.05854
1754.68339,0.05133
1753.19360,0.05810
1751.70381,0.01884
1750.21402,0.02567
1748.72423,0.02973
1747.23444,0.00591
1745.74465,0.04351
1744.25487,0.07277
1742.76508,0.09229
1741.27529,0.02532
1739.78550,0.01698
1738.29571,0.04635
1736.80592,0.03947
1735.31614,0.05075
1733.82635,0.08997
1732.33656,0.03711
1730.84677,0.08336
1729.35698,0.04033
1727.86719,0.00151
1726.37740,0.06989
1724.88762,0.02248
1723.39783,0.05602
1721.90804,0.02959
1720.41825,0.04366
1718.92846,0.03123
1717.43867,0.02861
1715.94889,0.08043
1714.45910,0.04018
1712.96931,0.05020
1711.47952,0.04349
1709.98973,0.04798
1708.49994,0.07761
1707.01016,0.06471
1705.52037,0.05184
1704.03058,0.05922
1702.54079,0.04710
1701.05100,0.00151
1699.56121,0.05135
1698.07142,0.06911
1696.58164,0.07155
1695.09185,0.03634
1693.60206,0.08907
1692.11227,0.05811
1690.62248,0.05926
1689.13269,0.06044
1687.64291,0.08816
1686.15312,0.10475
1684.66333,0.07531
1683.17354,0.04869
1681.68375,0.08211
1680.19396,0.08485
1678.70417,0.05273
1677.21439,0.03180
1675.72460,0.09184
1674.23481,0.05840
1672.74502,0.04174
1671.25523,0.07116
1669.76544,0.08525
1668.27566,0.06449
1666.78587,0.09957
1665.29608,0.09700
1663.80629,0.03864
1662.31650,0.12822
1660.82671,0.10759
1659.33693,0.06327
1657.84714,0.06781
1656.35735,0.08913
1654.86756,0.12024
1653.37777,0.04393
1651.88798,0.02207
1650.39819,0.03233
1648.90841,0.08866
1647.41862,0.09200
1645.92883,0.07653
1644.43904,0.06108
1642.94925,0.05613
1641.45946,0.03027
1639.96968,0.08259
1638.47989,0.07493
1636.99010,0.02961
1635.50031,0.06247
1634.01052,0.07303
1632.52073,0.07525
1631.03094,0.05795
1629.54116,0.03790
1628.05137,0.04857
1626.56158,0.04531
1625.07179,0.04905
1623.58200,0.09329
1622.09221,0.09710
1620.60243,0.02557
1619.11264,0.00151
1617.62285,0.04852
1616.13306,0.04951
1614.64327,0.02959
1613.15348,0.05435
1611.66370,0.02472
1610.17391,0.04256
1608.68412,0.01995
1607.19433,0.02529
1605.70454,0.07530
1604.21475,0.06534
1602.72496,0.05541
1601.23518,0.05387
1599.74539,0.04260
1598.25560,0.03833
1596.76581,0.06897
1595.27602,0.06476
1593.78623,0.00196
1592.29645,0.00198
1590.80666,0.04248
1589.31687,0.00905
1587.82708,0.01891
1586.33729,0.04694
1584.84750,0.06941
1583.35771,0.08632
1581.86793,0.04186
1580.37814,0.07279
1578.88835,0.05351
1577.39856,0.02448
1575.90877,0.03734
1574.41898,-0.00000
1572.92920,0.04042
1571.43941,0.02645
1569.94962,0.01460
1568.45983,0.00278
1566.97004,0.01401
1565.48025,0.01689
1563.99047,0.06445
1562.50068,0.05762
1561.01089,0.05919
1559.52110,0.01055
1558.03131,0.06520
1556.54152,0.01382
1555.05173,0.07411
1553.56195,0.00046
1552.07216,0.05280
1550.58237,0.04795
1549.09258,0.04313
1547.60279,0.10253
1546.11300,0.13544
1544.62322,0.18931
1543.13343,0.16227
1541.64364,0.06130
1540.15385,0.03431
1538.66406,0.00735
1537.17427,0.02833
1535.68448,0.07166
1534.19470,0.04804
1532.70491,0.05236
1531.21512,0.04135
1529.72533,0.06386
1528.23554,0.04035
1526.74575,0.02802
1525.25597,0.04922
1523.76618,0.00346
1522.27639,0.00547
1520.78660,0.07589
1519.29681,0.04307
1517.80702,0.02982
1516.31724,0.02217
1514.82745,0.02991
1513.33766,0.02511
1511.84787,0.02033
1510.35808,0.05745
1508.86829,0.02622
1507.37850,0.02711
1505.88872,0.00151
1504.39893,0.01202
1502.90914,0.05047
1501.41935,0.01499
1499.92956,0.04930
1498.43977,0.06411
1496.94999,0.04266
1495.46020,0.02264
1493.97041,0.03892
1492.48062,0.02174
1490.99083,0.05203
1489.50104,0.11445
1488.01125,0.12316
1486.52147,0.13191
1485.03168,0.16091
1483.54189,0.12296
1482.05210,0.11295
1480.56231,0.14622
1479.07252,0.21581
1477.58274,0.26588
1476.09295,0.20295
1474.60316,0.22377
1473.11337,0.26416
1471.62358,0.22364
1470.13379,0.22082
1468.64401,0.20826
1467.15422,0.21945
1465.66443,0.20206
1464.17464,0.18470
1462.68485,0.16527
1461.19506,0.15424
1459.70527,0.14045
1458.21549,0.16716
1456.72570,0.10876
1455.23591,0.10343
1453.74612,0.08556
1452.25633,0.07190
1450.76654,0.11688
1449.27676,0.01118
1447.78697,0.07994
1446.29718,0.03151
1444.80739,0.04729
1443.31760,0.06310
1441.82781,0.05801
1440.33802,0.05713
1438.84824,0.05628
1437.35845,0.04569
1435.86866,0.07140
1434.37887,0.07761
1432.88908,0.00151
1431.39929,0.03191
1429.90951,0.04837
1428.41972,0.10952
1426.92993,0.10092
1425.44014,0.07979
1423.95035,0.09079
1422.46056,0.10181
1420.97078,0.08355
1419.48099,0.07230
1417.99120,0.13085
1416.50141,0.12802
1415.01162,0.06243
1413.52183,0.06245
1412.03204,0.06249
1410.54226,0.09327
1409.05247,0.13942
1407.56268,0.07257
1406.07289,0.06993
1404.58310,0.08895
1403.09331,0.10800
1401.60353,0.08731
1400.11374,0.08897
1398.62395,0.09763
1397.13416,0.08679
1395.64437,0.11504
1394.15458,0.11402
1392.66479,0.08232
1391.17501,0.13299
1389.68522,0.07483
1388.19543,0.08508
1386.70564,0.06047
1385.21585,0.03589
1383.72606,0.08111
1382.23628,0.04821
1380.74649,0.10046
1379.25670,0.09273
1377.76691,0.11434
1376.27712,0.08852
1374.78733,0.12693
1373.29755,0.17513
1371.80776,0.20661
1370.31797,0.16276
1368.82818,0.18592
1367.33839,0.20912
1365.84860,0.33839
1364.35881,0.38954
1362.86903,0.37793
1361.37924,0.42634
1359.88945,0.47897
1358.39966,0.43395
1356.90987,0.32755
1355.42008,0.30770
1353.93030,0.33253
1352.44051,0.35041
1350.95072,0.36832
1349.46093,0.36113
1347.97114,0.30235
1346.48135,0.17939
1344.99156,0.12066
1343.50178,0.09544
1342.01199,0.14979
1340.52220,0.18743
1339.03241,0.08694
1337.54262,0.08695
1336.05283,0.07862
1334.56305,0.07031
1333.07326,0.09133
1331.58347,0.06494
1330.09368,0.07904
1328.60389,0.05968
1327.11410,0.05151
1325.62432,0.05732
1324.13453,0.05897
1322.64474,0.01041
1321.15495,0.03305
1319.66516,0.01734
1318.17537,0.00165
1316.68558,0.05926
1315.19580,0.04712
1313.70601,0.00151
1312.21622,0.05824
1310.72643,0.07173
1309.23664,0.02944
1307.74685,0.08625
1306.25707,0.07331
1304.76728,0.05900
1303.27749,0.04473
1301.78770,0.04024
1300.29791,0.08323
1298.80812,0.08299
1297.31834,0.04789
1295.82855,0.06026
1294.33876,0.03219
1292.84897,0.05717
1291.35918,0.02637
1289.86939,0.04094
1288.37960,0.05554
1286.88982,0.03179
1285.40003,0.01924
1283.91024,0.05694
1282.42045,0.00258
1280.93066,0.00824
1279.44087,0.04045
1277.95109,0.00151
1276.46130,0.04485
1274.97151,0.04496
1273.48172,0.04510
1271.99193,0.07875
1270.50214,0.03429
1269.01235,0.05823
1267.52257,0.05429
1266.03278,0.07549
1264.54299,0.07021
1263.05320,0.08309
1261.56341,0.07717
1260.07362,0.07127
1258.58384,0.07168
1257.09405,0.12095
1255.60426,0.03769
1254.11447,0.05492
1252.62468,0.04009
1251.13489,0.01412
1249.64511,0.07888
1248.15532,0.08646
1246.66553,0.06336
1245.17574,0.04029
1243.68595,0.03539
1242.19616,0.00958
1240.70637,0.01589
1239.21659,0.02782
1237.72680,0.03419
1236.23701,0.00151
1234.74722,0.05368
1233.25743,0.03680
1231.76764,0.01995
1230.27786,0.02475
1228.78807,0.02679
1227.29828,0.05956
1225.80849,0.04072
1224.31870,0.06796
1222.82891,0.07430
1221.33912,0.06671
1219.84934,0.05635
1218.35955,0.04602
1216.86976,0.03154
1215.37997,0.02545
1213.89018,0.01660
1212.40039,0.08452
1210.91061,0.07433
1209.42082,0.07393
1207.93103,0.06938
1206.44124,0.06485
1204.95145,0.01011
1203.46166,0.07959
1201.97188,0.03049
1200.48209,0.02328
1198.99230,0.06214
1197.50251,0.02429
1196.01272,0.04228
1194.52293,0.04913
1193.03314,0.05601
1191.54336,0.00151
1190.05357,0.07558
1188.56378,0.04502
1187.07399,0.01449
1185.58420,0.06631
1184.09441,0.07072
1182.60463,0.05213
1181.11484,0.03356
1179.62505,0.01712
1178.13526,0.00628
1176.64547,0.05548
1175.15568,0.02935
1173.66589,0.01859
1172.17611,0.05531
1170.68632,0.07043
1169.19653,0.08557
1167.70674,0.04423
1166.21695,0.00151
1164.72716,0.05331
1163.23738,0.02978
1161.74759,0.02721
1160.25780,0.03025
1158.76801,0.04517
1157.27822,0.06013
1155.78843,0.07441
1154.29865,0.11384
1152.80886,0.09608
1151.31907,0.06021
1149.82928,0.07879
1148.33949,0.08902
1146.84970,0.08881
1145.35991,0.08863
1143.87013,0.12965
1142.38034,0.11627
1140.89055,0.05686
1139.40076,0.07842
1137.91097,0.12513
1136.42118,0.12023
1134.93140,0.11186
1133.44161,0.10353
1131.95182,0.11685
1130.46203,0.09253
1128.97224,0.09892
1127.48245,0.14582
1125.99266,0.15088
1124.50288,0.13503
1123.01309,0.15689
1121.52330,0.17878
1120.03351,0.17976
1118.54372,0.17797
1117.05393,0.18041
1115.56415,0.24147
1114.07436,0.21744
1112.58457,0.23042
1111.09478,0.24343
1109.60499,0.25995
1108.11520,0.30999
1106.62542,0.35587
1105.13563,0.35712
1103.64584,0.42120
1102.15605,0.43506
1100.66626,0.40779
1099.17647,0.38055
1097.68668,0.41263
1096.19690,0.41126
1094.70711,0.48248
1093.21732,0.43929
1091.72753,0.52312
1090.23774,0.49325
1088.74795,0.46340
1087.25817,0.45242
1085.76838,0.50008
1084.27859,0.52962
1082.78880,0.47965
1081.29901,0.55809
1079.80922,0.47468
1078.31943,0.51340
1076.82965,0.55215
1075.33986,0.55813
1073.85007,0.46228
1072.36028,0.47948
1070.87049,0.44926
1069.38070,0.48465
1067.89092,0.45100
1066.40113,0.41738
1064.91134,0.44169
1063.42155,0.43115
1061.93176,0.34527
1060.44197,0.30827
1058.95219,0.33967
1057.46240,0.34458
1055.97261,0.34952
1054.48282,0.30705
1052.99303,0.29530
1051.50324,0.22496
1050.01345,0.24815
1048.52367,0.19602
1047.03388,0.19694
1045.54409,0.19788
1044.05430,0.13606
1042.56451,0.14543
1041.07472,0.15622
1039.58494,0.08192
1038.09515,0.13045
1036.60536,0.12528
1035.11557,0.12013
1033.62578,0.09199
1032.13599,0.14481
1030.64620,0.12370
1029.15642,0.17099
1027.66663,0.18692
1026.17684,0.20287
1024.68705,0.19443
1023.19726,0.17206
1021.70747,0.17204
1020.21769,0.20554
1018.72790,0.20000
1017.23811,0.24402
1015.74832,0.28807
1014.25853,0.30634
1012.76874,0.38742
1011.27896,0.51737
1009.78917,0.54967
1008.29938,0.69224
1006.80959,0.67924
1005.31980,0.66626
1003.83001,0.75588
1002.34022,0.85669
1000.85044,0.90032
999.36065,1.12399
997.87086,1.21162
996.38107,1.29928
994.89128,1.32069
993.40149,1.36305
991.91171,1.51290
990.42192,1.71300
988.93213,1.75964
987.44234,1.78257
985.95255,1.80554
984.46276,1.87737
982.97297,1.69805
981.48319,1.79505
979.99340,1.71626
978.50361,1.81192
977.01382,1.90761
975.52403,1.86100
974.03424,2.00000
972.54446,1.91018
971.05467,1.81340
969.56488,1.71247
968.07509,1.65971
966.58530,1.60697
965.09551,1.60799
963.60573,1.56717
962.11594,1.54871
960.62615,1.48841
959.13636,1.45953
957.64657,1.43068
956.15678,1.35092
954.66699,1.25445
953.17721,1.19428
951.68742,1.18578
950.19763,1.17242
948.70784,1.15908
947.21805,1.11158
945.72826,1.08086
944.23848,1.02225
942.74869,0.93018
941.25890,0.87861
939.76911,0.90171
938.27932,0.92485
936.78953,0.90127
935.29974,0.93632
933.80996,0.84720
932.32017,0.92697
930.83038,0.93000
929.34059,0.93307
927.85080,0.93616
926.36101,1.00068
924.87123,0.98429
923.38144,0.97909
921.89165,1.03881
920.40186,1.09856
918.91207,1.09204
917.42228,1.07021
915.93250,1.09166
914.44271,1.10337
912.95292,1.12488
911.46313,1.14641
909.97334,1.11215
908.48355,1.22165
906.99376,1.32979
905.50398,1.25793
904.01419,1.28448
902.52440,1.31106
901.03461,1.30488
899.54482,1.30849
898.05503,1.36934
896.56525,1.45115
895.07546,1.43460
893.58567,1.41809
892.09588,1.39253
890.60609,1.33211
889.11630,1.20334
887.62651,1.19600
886.13673,1.12032
884.64694,1.04466
883.15715,1.00810
881.66736,1.01064
880.17757,0.97273
878.68778,0.95300
877.19800,0.93330
875.70821,0.76012
874.21842,0.79489
872.72863,0.70270
871.23884,0.66915
869.74905,0.66563
868.25927,0.66213
866.76948,0.57424
865.27969,0.54777
863.78990,0.50878
862.30011,0.46841
860.81032,0.50273
859.32053,0.53707
857.83075,0.43399
856.34096,0.37978
854.85117,0.37444
853.36138,0.28958
851.87159,0.29127
850.38180,0.29299
848.89202,0.25007
847.40223,0.19742
845.91244,0.19364
844.42265,0.16964
842.93286,0.14568
841.44307,0.11546
839.95329,0.09225
838.46350,0.07744
836.97371,0.07242
835.48392,0.04441
833.99413,0.01642
832.50434,0.04916
831.01455,0.10147
829.52477,0.06030
828.03498,0.09034
826.54519,0.07993
825.05540,0.06955
823.56561,0.04803
822.07582,0.06701
820.58604,0.08322
819.09625,0.04853
817.60646,0.01386
816.11667,0.07760
814.62688,0.09811
813.13709,0.06841
811.64730,0.06944
810.15752,0.04119
808.66773,0.01296
807.17794,0.00151
805.68815,0.02227
804.19836,0.05142
802.70857,0.05060
801.21879,0.04981
799.72900,0.08882
798.23921,0.13483
796.74942,0.13481
795.25963,0.14529
793.76984,0.15580
792.28006,0.16843
790.79027,0.19364
789.30048,0.20074
787.81069,0.22182
786.32090,0.22270
784.83111,0.22360
783.34132,0.18197
781.85154,0.21153
780.36175,0.26205
778.87196,0.27283
777.38217,0.28364
775.89238,0.32447
774.40259,0.29696
772.91281,0.28342
771.42302,0.26783
769.93323,0.25225
768.44344,0.28346
766.95365,0.26166
765.46386,0.26222
763.97407,0.18884
762.48429,0.20062
760.99450,0.21242
759.50471,0.17820
758.01492,0.16913
756.52513,0.16008
755.03534,0.13989
753.54556,0.11974
752.05577,0.02286
750.56598,0.02927
749.07619,0.02873
747.58640,0.03031
746.09661,0.03192
744.60683,0.02449
743.11704,0.01289
741.62725,0.11854
740.13746,0.08398
738.64767,0.04944
737.15788,0.03377
735.66809,0.02650
734.17831,0.02902
732.68852,0.05669
731.19873,0.08439
729.70894,0.05350
728.21915,0.01288
726.72936,0.05880
725.23958,0.03358
723.74979,0.04048
722.26000,0.04740
720.77021,0.01947
719.28042,0.05436
717.79063,0.00276
716.30084,0.00213
714.81106,0.00151
713.32127,0.01954
711.83148,0.02503
710.34169,0.04729
708.85190,0.04238
707.36211,0.03748
705.87233,0.02634
704.38254,0.07662
702.89275,0.04878
701.40296,0.05796
699.91317,0.06715
698.42338,0.08824
696.93360,0.07447
695.44381,0.23097
693.95402,0.19423
692.46423,0.15751
690.97444,0.07407
689.48465,0.06044
687.99486,0.05799
686.50508,0.07720
685.01529,0.09644
683.52550,0.05082
682.03571,0.03173
680.54592,0.00151
679.05613,0.02111
677.56635,0.04073
676.07656,0.04084
674.58677,0.06191
673.09698,0.05929
671.60719,0.04553
670.11740,0.03179
668.62761,0.04181
667.13783,0.02674
665.64804,0.02634
664.15825,0.02597
662.66846,0.06261
661.17867,0.05602
659.68888,0.07457
658.19910,0.03803
656.70931,0.00151
655.21952,0.01899
653.72973,0.08953
652.23994,0.03729
650.75015,0.04857
649.26037,0.05988
647.77058,0.08029
646.28079,0.12026
644.79100,0.13514
643.30121,0.13260
641.81142,0.13009
640.32163,0.10458
638.83185,0.10003
637.34206,0.05086
635.85227,0.05055
634.36248,0.05027
632.87269,0.05141
631.38290,0.05398
629.89312,0.01610
628.40333,0.03965
626.91354,0.06323
625.42375,0.05055
623.93396,0.08116
622.44417,0.08947
620.95438,0.09781
619.46460,0.00151
617.97481,0.04891
616.48502,0.09355
614.99523,0.05379
613.50544,0.01405
612.01565,0.10482
610.52587,0.07839
609.03608,0.08269
607.54629,0.08074
606.05650,0.07882
604.56671,0.07902
603.07692,0.10436
601.58714,0.08508
600.09735,0.06582
598.60756,0.08846
597.11777,0.05530
595.62798,0.07380
594.13819,0.11884
592.64840,0.16391
591.15862,0.08621
589.66883,0.14110
588.17904,0.17788
586.68925,0.17701
585.19946,0.17617
583.70967,0.21303
582.21989,0.19270
580.73010,0.25264
579.24031,0.31261
577.75052,0.30353
576.26073,0.33076
574.77094,0.40965
573.28115,0.39437
571.79137,0.37912
570.30158,0.50553
568.81179,0.49382
567.32200,0.51354
565.83221,0.53328
564.34242,0.55794
562.85264,0.52820
561.36285,0.63384
559.87306,0.68091
558.38327,0.72800
556.89348,0.81419
555.40369,0.71062
553.91391,0.78571
552.42412,0.86082
550.93433,0.82292
549.44454,0.89669
547.95475,0.93560
546.46496,0.91453
544.97517,0.89348
543.48539,0.91294
541.99560,1.03568
540.50581,0.99519
539.01602,0.95472
537.52623,1.03289
536.03644,0.99526
534.54666,0.99255
533.05687,0.96126
531.56708,0.93000
530.07729,0.90086
528.58750,0.82709
527.09771,0.80707
525.60792,0.78708
524.11814,0.78595
522.62835,0.63694
521.13856,0.71262
519.64877,0.67390
518.15898,0.63520
516.66919,0.57839
515.17941,0.50906
513.68962,0.50603
512.19983,0.50303
510.71004,0.45889
509.22025,0.46083
507.73046,0.36092
506.24068,0.33221
504.75089,0.30353
503.26110,0.34744
501.77131,0.31463
500.28152,0.29510
498.79173,0.27560
497.30194,0.22752
495.81216,0.27994
494.32237,0.23959
492.83258,0.19926
491.34279,0.23502
489.85300,0.14661
488.36321,0.14334
486.87343,0.14639
485.38364,0.14946
483.89385,0.18814
482.40406,0.08172
480.91427,0.10232
479.42448,0.12294
477.93469,0.09335
476.44491,0.09170
474.95512,0.06566
473.46533,0.03964
471.97554,0.19157
470.48575,0.13142
468.99596,0.14247
467.50618,0.17866
466.01639,0.21488
464.52660,0.13809
463.03681,0.13668
461.54702,0.10949
460.05723,0.08232
458.56745,0.10333
457.07766,0.22204
455.58787,0.21728
454.09808,0.21255
452.60829,0.25320
451.11850,0.21015
449.62871,0.20201
448.13893,0.19390
446.64914,0.31559
445.15935,0.43731
443.66956,0.46277
442.17977,0.46384
440.68998,0.46494
439.20020,0.56444
437.71041,0.56350
436.22062,0.57933
434.73083,0.59518
433.24104,0.68084
431.75125,0.70512
430.26146,0.71199
428.77168,0.71889
427.28189,0.79349
425.79210,0.83184
424.30231,0.86602
422.81252,0.90024
421.32273,1.14659
419.83295,1.06085
418.34316,1.07352
416.85337,1.08621
415.36358,0.94613
413.87379,0.88701
412.38400,0.79583
410.89422,0.70467
409.40443,0.83681
407.91464,0.91316
406.42485,0.94489
404.93506,0.90547
403.44527,0.86608
401.95548,0.84764
400.46570,0.87668
398.97591,0.87017
397.48612,0.86368
395.99633,0.89280
394.50654,0.86334
393.01675,0.82554
391.52697,0.78776
390.03718,0.78908
388.54739,0.72205
387.05760,0.70180
385.56781,0.68157
384.07802,0.73882
382.58824,0.67749
381.09845,0.63222
379.60866,0.58699
378.11887,0.49503
376.62908,0.48404
375.13929,0.46540
373.64950,0.44679
372.15972,0.41913
370.66993,0.33150
369.18014,0.32901
367.69035,0.32656
366.20056,0.25296
364.71077,0.33010
363.22099,0.27958
361.73120,0.22909
360.24141,0.19746
358.75162,0.16866
357.26183,0.13081
355.77204,0.09298
354.28225,0.07961
352.79247,0.12208
351.30268,0.17783
349.81289,0.23361
348.32310,0.11010
346.83331,0.14152
345.34352,0.11435
343.85374,0.08721
342.36395,0.06847
340.87416,0.07209
339.38437,0.09317
337.89458,0.11429
336.40479,0.08728
334.91501,0.11473
333.42522,0.08080
331.93543,0.04690
330.44564,0.01024
328.95585,0.00151
327.46606,0.00150
325.97627,0.00151
324.48649,0.08390
322.99670,0.09236
321.50691,0.13643
320.01712,0.18053
318.52733,0.08441
317.03754,0.04553
315.54776,0.04156
314.05797,0.03762
312.56818,0.07418
311.07839,0.07588
309.58860,0.06574
308.09881,0.05563
306.60902,0.04206
305.11924,0.03550
303.62945,0.01849
302.13966,0.00151
300.64987,0.02592
299.16008,0.00151
