1778.52000,0.00429
1777.03021,0.00403
1775.54042,0.01317
1774.05063,0.03641
1772.56085,0.08312
1771.07106,0.07592
1769.58127,0.02655
1768.09148,0.08975
1766.60169,0.04512
1765.11190,0.08024
1763.62212,0.05676
1762.13233,0.05676
1760.64254,0.09665
1759.15275,0.02167
1757.66296,0.06161
1756.17317,0.06171
1754.68339,0.11343
1753.19360,0.09014
1751.70381,0.04812
1750.21402,0.09522
1748.72423,0.01574
1747.23444,0.10832
1745.74465,0.05087
1744.25487,0.07082
1742.76508,0.08611
1741.27529,0.05218
1739.78550,0.14959
1738.29571,0.13916
1736.80592,0.07717
1735.31614,0.11838
1733.82635,0.07990
1732.33656,0.03206
1730.84677,0.16480
1729.35698,0.07950
1727.86719,0.08567
1726.37740,0.07311
1724.88762,0.04651
1723.39783,0.05979
1721.90804,0.08014
1720.41825,0.04424
1718.92846,0.03650
1717.43867,0.12258
1715.94889,0.07269
1714.45910,0.12131
1712.96931,0.03395
1711.47952,0.04979
1709.98973,0.02111
1708.49994,0.05342
1707.01016,0.08575
1705.52037,0.11811
1704.03058,0.06843
1702.54079,0.07974
1701.05100,0.06998
1699.56121,0.06493
1698.07142,0.10446
1696.58164,0.08539
1695.09185,0.08276
1693.60206,0.12472
1692.11227,0.04476
1690.62248,0.06332
1689.13269,0.09597
1687.64291,0.05596
1686.15312,0.10508
1684.66333,0.07685
1683.17354,0.09554
1681.68375,0.07439
1680.19396,0.00403
1678.70417,0.07566
1677.21439,0.14497
1675.72460,0.09941
1674.23481,0.06091
1672.74502,0.09512
1671.25523,0.05667
1669.76544,0.10267
1668.27566,0.07365
1666.78587,0.07046
1665.29608,0.06025
1663.80629,0.07587
1662.31650,0.15951
1660.82671,0.08842
1659.33693,0.10412
1657.84714,0.09874
1656.35735,0.08869
1654.86756,0.06695
1653.37777,0.09213
1651.88798,0.05168
1650.39819,0.12850
1648.90841,0.09279
1647.41862,0.08760
1645.92883,0.10353
1644.43904,0.11949
1642.94925,0.03934
1641.45946,0.15852
1639.96968,0.06904
1638.47989,0.06870
1636.99010,0.08948
1635.50031,0.05870
1634.01052,0.03029
1632.52073,0.12150
1631.03094,0.12363
1629.54116,0.10468
1628.05137,0.12562
1626.56158,0.04576
1625.07179,0.07613
1623.58200,0.11825
1622.09221,0.07130
1620.60243,0.09003
1619.11264,0.05719
1617.62285,0.02204
1616.13306,0.04085
1614.64327,0.05499
1613.15348,0.11137
1611.66370,0.11853
1610.17391,0.06944
1608.68412,0.07900
1607.19433,0.07687
1605.70454,0.09351
1604.21475,0.06446
1602.72496,0.03544
1601.23518,0.11079
1599.74539,0.12754
1598.25560,0.05052
1596.76581,0.02278
1595.27602,0.06306
1593.78623,0.07054
1592.29645,0.06632
1590.80666,0.10433
1589.31687,0.00403
1587.82708,0.07591
1586.33729,0.09154
1584.84750,0.04154
1583.35771,0.09005
1581.86793,0.02603
1580.37814,0.09101
1578.88835,0.08567
1577.39856,0.05222
1575.90877,0.04927
1574.41898,0.05104
1572.92920,0.03643
1571.43941,0.02184
1569.94962,0.01783
1568.45983,0.01384
1566.97004,0.07671
1565.48025,0.07864
1563.99047,0.03839
1562.50068,0.05445
1561.01089,0.11273
1559.52110,0.02332
1558.03131,0.07931
1556.54152,0.02513
1555.05173,0.05304
1553.56195,0.06221
1552.07216,0.03859
1550.58237,0.06658
1549.09258,0.09928
1547.60279,0.15077
1546.11300,0.22574
1544.62322,0.25149
1543.13343,0.21161
1541.64364,0.08968
1540.15385,0.08151
1538.66406,0.07336
1537.17427,0.06407
1535.68448,0.07591
1534.19470,0.08543
1532.70491,0.03167
1531.21512,0.01779
1529.72533,0.03443
1528.23554,0.05109
1526.74575,0.03026
1525.25597,0.08449
1523.76618,0.05668
1522.27639,0.06406
1520.78660,0.12306
1519.29681,0.09768
1517.80702,0.05121
1516.31724,0.06339
1514.82745,0.03339
1513.33766,0.09253
1511.84787,0.15169
1510.35808,0.06314
1508.86829,0.08484
1507.37850,0.03621
1505.88872,0.00403
1504.39893,0.07283
1502.90914,0.10650
1501.41935,0.11439
1499.92956,0.07776
1498.43977,0.04350
1496.94999,0.11478
1495.46020,0.12513
1493.97041,0.10267
1492.48062,0.16231
1490.99083,0.10942
1489.50104,0.17849
1488.01125,0.16435
1486.52147,0.15023
1485.03168,0.11152
1483.54189,0.20883
1482.05210,0.24286
1480.56231,0.20188
1479.07252,0.30397
1477.58274,0.23959
1476.09295,0.30187
1474.60316,0.31258
1473.11337,0.30925
1471.62358,0.23795
1470.13379,0.31909
1468.64401,0.30177
1467.15422,0.28448
1465.66443,0.26956
1464.17464,0.25467
1462.68485,0.23042
1461.19506,0.23199
1459.70527,0.24297
1458.21549,0.19301
1456.72570,0.11025
1455.23591,0.18461
1453.74612,0.18632
1452.25633,0.17867
1450.76654,0.15933
1449.27676,0.13532
1447.78697,0.14182
1446.29718,0.05924
1444.80739,0.10331
1443.31760,0.14741
1441.82781,0.11415
1440.33802,0.16065
1438.84824,0.15089
1437.35845,0.16930
1435.86866,0.12677
1434.37887,0.12178
1432.88908,0.06993
1431.39929,0.00403
1429.90951,0.21751
1428.41972,0.15197
1426.92993,0.18964
1425.44014,0.12885
1423.95035,0.15368
1422.46056,0.17853
1420.97078,0.16706
1419.48099,0.10403
1417.99120,0.18641
1416.50141,0.17502
1415.01162,0.20586
1413.52183,0.17811
1412.03204,0.15039
1410.54226,0.24462
1409.05247,0.26385
1407.56268,0.12834
1406.07289,0.17341
1404.58310,0.20444
1403.09331,0.23550
1401.60353,0.21734
1400.11374,0.18279
1398.62395,0.28662
1397.13416,0.20991
1395.64437,0.21062
1394.15458,0.21838
1392.66479,0.26135
1391.17501,0.15427
1389.68522,0.22543
1388.19543,0.21923
1386.70564,0.17671
1385.21585,0.13423
1383.72606,0.22190
1382.23628,0.08919
1380.74649,0.21443
1379.25670,0.18495
1377.76691,0.20942
1376.27712,0.25736
1374.78733,0.29830
1373.29755,0.32754
1371.80776,0.30287
1370.31797,0.41189
1368.82818,0.43066
1367.33839,0.44945
1365.84860,0.58669
1364.35881,0.62077
1362.86903,0.67365
1361.37924,0.66089
1359.88945,0.73727
1358.39966,0.64249
1356.90987,0.62044
1355.42008,0.57496
1353.93030,0.80151
1352.44051,0.76546
1350.95072,0.72944
1349.46093,0.58793
1347.97114,0.39721
1346.48135,0.36830
1344.99156,0.29721
1343.50178,0.30588
1342.01199,0.27002
1340.52220,0.18025
1339.03241,0.16555
1337.54262,0.18135
1336.05283,0.14091
1334.56305,0.10049
1333.07326,0.12575
1331.58347,0.14166
1330.09368,0.12008
1328.60389,0.10791
1327.11410,0.07700
1325.62432,0.10474
1324.13453,0.11844
1322.64474,0.07354
1321.15495,0.12950
1319.66516,0.10810
1318.17537,0.08674
1316.68558,0.07008
1315.19580,0.06753
1313.70601,0.00403
1312.21622,0.04585
1310.72643,0.10412
1309.23664,0.08034
1307.74685,0.03782
1306.25707,0.06803
1304.76728,0.06778
1303.27749,0.06755
1301.78770,0.14473
1300.29791,0.04608
1298.80812,0.02717
1297.31834,0.09271
1295.82855,0.05979
1294.33876,0.13475
1292.84897,0.11361
1291.35918,0.09953
1289.86939,0.10892
1288.37960,0.11834
1286.88982,0.06916
1285.40003,0.07160
1283.91024,0.09985
1282.42045,0.10000
1280.93066,0.00403
1279.44087,0.08139
1277.95109,0.08843
1276.46130,0.10957
1274.97151,0.08501
1273.48172,0.06048
1271.99193,0.12625
1270.50214,0.01618
1269.01235,0.11014
1267.52257,0.05640
1266.03278,0.09414
1264.54299,0.11783
1263.05320,0.15093
1261.56341,0.13716
1260.07362,0.12342
1258.58384,0.12846
1257.09405,0.09601
1255.60426,0.09876
1254.11447,0.15312
1252.62468,0.12544
1251.13489,0.06027
1249.64511,0.08189
1248.15532,0.07070
1246.66553,0.08533
1245.17574,0.09999
1243.68595,0.08888
1242.19616,0.04028
1240.70637,0.09019
1239.21659,0.09089
1237.72680,0.05175
1236.23701,0.05719
1234.74722,0.00403
1233.25743,0.01844
1231.76764,0.03288
1230.27786,0.05790
1228.78807,0.08764
1227.29828,0.06816
1225.80849,0.07450
1224.31870,0.12073
1222.82891,0.04505
1221.33912,0.00692
1219.84934,0.07957
1218.35955,0.15225
1216.86976,0.05496
1215.37997,0.02804
1213.89018,0.04804
1212.40039,0.05868
1210.91061,0.06701
1209.42082,0.04723
1207.93103,0.06147
1206.44124,0.07574
1204.95145,0.00445
1203.46166,0.04339
1201.97188,0.05187
1200.48209,0.03458
1198.99230,0.04546
1197.50251,0.07747
1196.01272,0.07198
1194.52293,0.04308
1193.03314,0.01420
1191.54336,0.04397
1190.05357,0.01514
1188.56378,0.03089
1187.07399,0.06309
1185.58420,0.04841
1184.09441,0.03141
1182.60463,0.03672
1181.11484,0.04205
1179.62505,0.00403
1178.13526,0.00697
1176.64547,0.06386
1175.15568,0.02230
1173.66589,0.08628
1172.17611,0.07760
1170.68632,0.06191
1169.19653,0.04625
1167.70674,0.06109
1166.21695,0.09707
1164.72716,0.07679
1163.23738,0.11751
1161.74759,0.02460
1160.25780,0.05599
1158.76801,0.06865
1157.27822,0.08134
1155.78843,0.04716
1154.29865,0.02941
1152.80886,0.12659
1151.31907,0.14876
1149.82928,0.08186
1148.33949,0.09939
1146.84970,0.08999
1145.35991,0.08061
1143.87013,0.06774
1142.38034,0.12993
1140.89055,0.08663
1139.40076,0.06915
1137.91097,0.12205
1136.42118,0.10228
1134.93140,0.12005
1133.44161,0.13785
1131.95182,0.22602
1130.46203,0.09614
1128.97224,0.12106
1127.48245,0.15069
1125.99266,0.18738
1124.50288,0.15609
1123.01309,0.14594
1121.52330,0.13581
1120.03351,0.19136
1118.54372,0.19067
1117.05393,0.22752
1115.56415,0.22922
1114.07436,0.26378
1112.58457,0.24912
1111.09478,0.23448
1109.60499,0.25974
1108.11520,0.33896
1106.62542,0.30330
1105.13563,0.34974
1103.64584,0.37276
1102.15605,0.41925
1100.66626,0.40246
1099.17647,0.38569
1097.68668,0.44164
1096.19690,0.46948
1094.70711,0.45748
1093.21732,0.52524
1091.72753,0.53909
1090.23774,0.54945
1088.74795,0.55983
1087.25817,0.55735
1085.76838,0.51033
1084.27859,0.61108
1082.78880,0.56412
1081.29901,0.55939
1079.80922,0.62504
1078.31943,0.63561
1076.82965,0.64621
1075.33986,0.57593
1073.85007,0.53382
1072.36028,0.62071
1070.87049,0.46141
1069.38070,0.43579
1067.89092,0.46882
1066.40113,0.50188
1064.91134,0.49276
1063.42155,0.40862
1061.93176,0.43473
1060.44197,0.41162
1058.95219,0.31818
1057.46240,0.29161
1055.97261,0.26505
1054.48282,0.28894
1052.99303,0.37383
1051.50324,0.22191
1050.01345,0.27636
1048.52367,0.25346
1047.03388,0.23762
1045.54409,0.22180
1044.05430,0.26229
1042.56451,0.23480
1041.07472,0.03383
1039.58494,0.08846
1038.09515,0.13140
1036.60536,0.16264
1035.11557,0.19391
1033.62578,0.02355
1032.13599,0.17211
1030.64620,0.12608
1029.15642,0.15745
1027.66663,0.15134
1026.17684,0.14524
1024.68705,0.09932
1023.19726,0.17769
1021.70747,0.23265
1020.21769,0.21259
1018.72790,0.26526
1017.23811,0.24291
1015.74832,0.22059
1014.25853,0.33430
1012.76874,0.36127
1011.27896,0.49848
1009.78917,0.56771
1008.29938,0.64635
1006.80959,0.69337
1005.31980,0.74041
1003.83001,0.77692
1002.34022,0.93539
1000.85044,0.98602
999.36065,1.05075
997.87086,1.17530
996.38107,1.29988
994.89128,1.42800
993.40149,1.57022
991.91171,1.57646
990.42192,1.66714
988.93213,1.77895
987.44234,1.82044
985.95255,1.86196
984.46276,1.95041
982.97297,1.91694
981.48319,1.76627
979.99340,1.80086
978.50361,1.88237
977.01382,1.96391
975.52403,1.89072
974.03424,1.76597
972.54446,2.00000
971.05467,1.65019
969.56488,1.60056
968.07509,1.56267
966.58530,1.52481
965.09551,1.48932
963.60573,1.42571
962.11594,1.47235
960.62615,1.45100
959.13636,1.42969
957.64657,1.40840
956.15678,1.32617
954.66699,1.10562
953.17721,1.14303
951.68742,1.05854
950.19763,1.04676
948.70784,1.03501
947.21805,0.97639
945.72826,1.07021
944.23848,0.89909
942.74869,0.91793
941.25890,0.82424
939.76911,0.79506
938.27932,0.76591
936.78953,0.77547
935.29974,0.82492
933.80996,0.84626
932.32017,0.78791
930.83038,0.75654
929.34059,0.72520
927.85080,0.84513
926.36101,0.74937
924.87123,0.78493
923.38144,0.92605
921.89165,0.85381
920.40186,0.78159
918.91207,0.84071
917.42228,0.90455
915.93250,0.92856
914.44271,0.92210
912.95292,0.93443
911.46313,0.94679
909.97334,1.01311
908.48355,1.03490
906.99376,1.07548
905.50398,1.05042
904.01419,1.05353
902.52440,1.05667
901.03461,1.19349
899.54482,1.23889
898.05503,1.28197
896.56525,1.32976
895.07546,1.35648
893.58567,1.38323
892.09588,1.23882
890.60609,1.19059
889.11630,1.14706
887.62651,1.08247
886.13673,1.06362
884.64694,1.04480
883.15715,1.00373
881.66736,0.95799
880.17757,0.94042
878.68778,0.87833
877.19800,0.81626
875.70821,0.89022
874.21842,0.77192
872.72863,0.72166
871.23884,0.69018
869.74905,0.69272
868.25927,0.69530
866.76948,0.66155
865.27969,0.54107
863.78990,0.48159
862.30011,0.56985
860.81032,0.52801
859.32053,0.48619
857.83075,0.45025
856.34096,0.50111
854.85117,0.42771
853.36138,0.32855
851.87159,0.31734
850.38180,0.30616
848.89202,0.25632
847.40223,0.22526
845.91244,0.20361
844.42265,0.17964
842.93286,0.15570
841.44307,0.23261
839.95329,0.11962
838.46350,0.16844
836.97371,0.11881
835.48392,0.14307
833.99413,0.16735
832.50434,0.20222
831.01455,0.11752
829.52477,0.11492
828.03498,0.09827
826.54519,0.08517
825.05540,0.07210
823.56561,0.10478
822.07582,0.13513
820.58604,0.04828
819.09625,0.04586
817.60646,0.04347
816.11667,0.02469
814.62688,0.03877
813.13709,0.09742
811.64730,0.10686
810.15752,0.09288
808.66773,0.07892
807.17794,0.00403
805.68815,0.10913
804.19836,0.05950
802.70857,0.08962
801.21879,0.11977
799.72900,0.13588
798.23921,0.11684
796.74942,0.15410
795.25963,0.18904
793.76984,0.22401
792.28006,0.16990
790.79027,0.16741
789.30048,0.27046
787.81069,0.26098
786.32090,0.25739
784.83111,0.25383
783.34132,0.22099
781.85154,0.23506
780.36175,0.27027
778.87196,0.29613
777.38217,0.32201
775.89238,0.37371
774.40259,0.25426
772.91281,0.27553
771.42302,0.29918
769.93323,0.32285
768.44344,0.33482
766.95365,0.26474
765.46386,0.24394
763.97407,0.24661
762.48429,0.22586
760.99450,0.20513
759.50471,0.25947
758.01492,0.21769
756.52513,0.18298
755.03534,0.14008
753.54556,0.09722
752.05577,0.04617
750.56598,0.09128
749.07619,0.13643
747.58640,0.07021
746.09661,0.00403
744.60683,0.07431
743.11704,0.03441
741.62725,0.09302
740.13746,0.10828
738.64767,0.12356
737.15788,0.07438
735.66809,0.10965
734.17831,0.15667
732.68852,0.13923
731.19873,0.12182
729.70894,0.05167
728.21915,0.05424
726.72936,0.11312
725.23958,0.05477
723.74979,0.03984
722.26000,0.02493
720.77021,0.05577
719.28042,0.06554
717.79063,0.07767
716.30084,0.06287
714.81106,0.04809
713.32127,0.00403
711.83148,0.05586
710.34169,0.12179
708.85190,0.09512
707.36211,0.06848
705.87233,0.12980
704.38254,0.08093
702.89275,0.13058
701.40296,0.11108
699.91317,0.09161
698.42338,0.06630
696.93360,0.18170
695.44381,0.22914
693.95402,0.27308
692.46423,0.31705
690.97444,0.12070
689.48465,0.05803
687.99486,0.05401
686.50508,0.04767
685.01529,0.04135
683.52550,0.10072
682.03571,0.03115
680.54592,0.06009
679.05613,0.05505
677.56635,0.05005
676.07656,0.00403
674.58677,0.15276
673.09698,0.08815
671.60719,0.11500
670.11740,0.14188
668.62761,0.08438
667.13783,0.13476
665.64804,0.09958
664.15825,0.06443
662.66846,0.00000
661.17867,0.13458
659.68888,0.14960
658.19910,0.12830
656.70931,0.10703
655.21952,0.02130
653.72973,0.14428
652.23994,0.12192
650.75015,0.10309
649.26037,0.08430
647.77058,0.19098
646.28079,0.17106
644.79100,0.19338
643.30121,0.16531
641.81142,0.13727
640.32163,0.17608
638.83185,0.05547
637.34206,0.09902
635.85227,0.08749
634.36248,0.07600
632.87269,0.03756
631.38290,0.08591
629.89312,0.07566
628.40333,0.11469
626.91354,0.15374
625.42375,0.10605
623.93396,0.10294
622.44417,0.11628
620.95438,0.12964
619.46460,0.16413
617.97481,0.00403
616.48502,0.12816
614.99523,0.10576
613.50544,0.08339
612.01565,0.15132
610.52587,0.17942
609.03608,0.12782
607.54629,0.08328
606.05650,0.03876
604.56671,0.10917
603.07692,0.21009
601.58714,0.19379
600.09735,0.17752
598.60756,0.06514
597.11777,0.09816
595.62798,0.18045
594.13819,0.15022
592.64840,0.12001
591.15862,0.17425
589.66883,0.11126
588.17904,0.21948
586.68925,0.22103
585.19946,0.22261
583.70967,0.28870
582.21989,0.31730
580.73010,0.28731
579.24031,0.25734
577.75052,0.45953
576.26073,0.40617
574.77094,0.39738
573.28115,0.42145
571.79137,0.44554
570.30158,0.34070
568.81179,0.49850
567.32200,0.50391
565.83221,0.50935
564.34242,0.56875
562.85264,0.70556
561.36285,0.76267
559.87306,0.75063
558.38327,0.73861
556.89348,0.83801
555.40369,0.91867
553.91391,0.91494
552.42412,0.91124
550.93433,0.85129
549.44454,0.93909
547.95475,0.93078
546.46496,0.90725
544.97517,0.88375
543.48539,0.89662
541.99560,1.02442
540.50581,1.07955
539.01602,1.13471
537.52623,1.07734
536.03644,1.17711
534.54666,1.12448
533.05687,1.02499
531.56708,0.92552
530.07729,0.88001
528.58750,0.86500
527.09771,0.82189
525.60792,0.77880
524.11814,0.68650
522.62835,0.72554
521.13856,0.74818
519.64877,0.71341
518.15898,0.67866
516.66919,0.63573
515.17941,0.52249
513.68962,0.55347
512.19983,0.58449
510.71004,0.55808
509.22025,0.39335
507.73046,0.36230
506.24068,0.36059
504.75089,0.35891
503.26110,0.33498
501.77131,0.36735
500.28152,0.30361
498.79173,0.23990
497.30194,0.33096
495.81216,0.33530
494.32237,0.30450
492.83258,0.27371
491.34279,0.22420
489.85300,0.18175
488.36321,0.15105
486.87343,0.16727
485.38364,0.18352
483.89385,0.12475
482.40406,0.19030
480.91427,0.17966
479.42448,0.16905
477.93469,0.11274
476.44491,0.16666
474.95512,0.11509
473.46533,0.06355
471.97554,0.12224
470.48575,0.13407
468.99596,0.23033
467.50618,0.19531
466.01639,0.16031
464.52660,0.19100
463.03681,0.06461
461.54702,0.08362
460.05723,0.10266
458.56745,0.18035
457.07766,0.24166
455.58787,0.23498
454.09808,0.22834
452.60829,0.26861
451.11850,0.30657
449.62871,0.30939
448.13893,0.31223
446.64914,0.27758
445.15935,0.30157
443.66956,0.55539
442.17977,0.54661
440.68998,0.53786
439.20020,0.49161
437.71041,0.56498
436.22062,0.60321
434.73083,0.64146
433.24104,0.60001
431.75125,0.72976
430.26146,0.73644
428.77168,0.74314
427.28189,0.87531
425.79210,0.95124
424.30231,1.07643
422.81252,1.20165
421.32273,1.46525
419.83295,1.33962
418.34316,1.30547
416.85337,1.27135
415.36358,0.94180
413.87379,0.99449
412.38400,0.94403
410.89422,0.89360
409.40443,0.99092
407.91464,0.94992
406.42485,1.07778
404.93506,1.04035
403.44527,1.00295
401.95548,0.92923
400.46570,0.95402
398.97591,0.95187
397.48612,0.94974
395.99633,0.94413
394.50654,0.91040
393.01675,0.89429
391.52697,0.87820
390.03718,0.87504
388.54739,0.95397
387.05760,0.85941
385.56781,0.76488
384.07802,0.71023
382.58824,0.70016
381.09845,0.63268
379.60866,0.56521
378.11887,0.47550
376.62908,0.47726
375.13929,0.44857
373.64950,0.41991
372.15972,0.41940
370.66993,0.30872
369.18014,0.25668
367.69035,0.20467
366.20056,0.26759
364.71077,0.32819
363.22099,0.26805
361.73120,0.20794
360.24141,0.10213
358.75162,0.12531
357.26183,0.10397
355.77204,0.08266
354.28225,0.15047
352.79247,0.07762
351.30268,0.12791
349.81289,0.17822
348.32310,0.09841
346.83331,0.07960
345.34352,0.04557
343.85374,0.01157
342.36395,0.05791
340.87416,0.10193
339.38437,0.10377
337.89458,0.10564
336.40479,0.04422
334.91501,0.09304
333.42522,0.05512
331.93543,0.01723
330.44564,0.14116
328.95585,0.05642
327.46606,0.04792
325.97627,0.03945
324.48649,0.06299
322.99670,0.13110
321.50691,0.09373
320.01712,0.05638
318.52733,0.13630
317.03754,0.05680
315.54776,0.05588
314.05797,0.05498
312.56818,0.11156
311.07839,0.00403
309.58860,0.07370
308.09881,0.14340
306.60902,0.09354
305.11924,0.13046
303.62945,0.08299
302.13966,0.03555
300.64987,0.01159
299.16008,0.00403
