1778.52000,0.04599
1777.03021,0.00088
1775.54042,0.04948
1774.05063,0.00770
1772.56085,0.06611
1771.07106,0.14718
1769.58127,0.15724
1768.09148,0.08659
1766.60169,0.06769
1765.11190,0.08113
1763.62212,0.03649
1762.13233,0.10819
1760.64254,0.06688
1759.15275,0.01917
1757.66296,0.10717
1756.17317,0.10478
1754.68339,0.11214
1753.19360,0.05172
1751.70381,0.07856
1750.21402,0.12160
1748.72423,0.03550
1747.23444,0.04312
1745.74465,0.09278
1744.25487,0.05206
1742.76508,0.02753
1741.27529,0.06120
1739.78550,0.06262
1738.29571,0.05764
1736.80592,0.11731
1735.31614,0.14474
1733.82635,0.18190
1732.33656,0.04146
1730.84677,0.08196
1729.35698,0.11283
1727.86719,0.07268
1726.37740,0.15210
1724.88762,0.04746
1723.39783,0.06238
1721.90804,0.06444
1720.41825,0.13115
1718.92846,0.00088
1717.43867,0.13128
1715.94889,0.08408
1714.45910,0.14676
1712.96931,0.13843
1711.47952,0.13338
1709.98973,0.08962
1708.49994,0.11052
1707.01016,0.09755
1705.52037,0.08464
1704.03058,0.13154
1702.54079,0.09773
1701.05100,0.20934
1699.56121,0.11427
1698.07142,0.14523
1696.58164,0.04380
1695.09185,0.10393
1693.60206,0.13828
1692.11227,0.10808
1690.62248,0.12315
1689.13269,0.15765
1687.64291,0.16960
1686.15312,0.13960
1684.66333,0.07090
1683.17354,0.09592
1681.68375,0.13392
1680.19396,0.13967
1678.70417,0.10994
1677.21439,0.23208
1675.72460,0.12170
1674.23481,0.02753
1672.74502,0.12399
1671.25523,0.11067
1669.76544,0.12002
1668.27566,0.21663
1666.78587,0.12918
1665.29608,0.13546
1663.80629,0.11595
1662.31650,0.15140
1660.82671,0.13846
1659.33693,0.16432
1657.84714,0.19671
1656.35735,0.04179
1654.86756,0.13565
1653.37777,0.11651
1651.88798,0.14587
1650.39819,0.08161
1648.90841,0.17568
1647.41862,0.10184
1645.92883,0.08942
1644.43904,0.07705
1642.94925,0.15841
1641.45946,0.09124
1639.96968,0.17594
1638.47989,0.07980
1636.99010,0.14199
1635.50031,0.08472
1634.01052,0.14701
1632.52073,0.11246
1631.03094,0.10057
1629.54116,0.16948
1628.05137,0.30628
1626.56158,0.11689
1625.07179,0.18920
1623.58200,0.12589
1622.09221,0.00449
1620.60243,0.10925
1619.11264,0.00088
1617.62285,0.12617
1616.13306,0.08678
1614.64327,0.06359
1613.15348,0.12121
1611.66370,0.07875
1610.17391,0.11387
1608.68412,0.06505
1607.19433,0.12288
1605.70454,0.13554
1604.21475,0.13049
1602.72496,0.12549
1601.23518,0.09955
1599.74539,0.13503
1598.25560,0.18026
1596.76581,0.10279
1595.27602,0.13843
1593.78623,0.10306
1592.29645,0.07744
1590.80666,0.07448
1589.31687,0.05218
1587.82708,0.00088
1586.33729,0.05633
1584.84750,0.15060
1583.35771,0.09957
1581.86793,0.15518
1580.37814,0.21408
1578.88835,0.08891
1577.39856,0.12853
1575.90877,0.05192
1574.41898,0.10134
1572.92920,0.09913
1571.43941,0.06467
1569.94962,0.07871
1568.45983,0.09281
1566.97004,0.07789
1565.48025,0.11470
1563.99047,0.12249
1562.50068,0.09158
1561.01089,0.11240
1559.52110,0.07190
1558.03131,0.10252
1556.54152,0.00398
1555.05173,0.02825
1553.56195,0.00088
1552.07216,0.14148
1550.58237,0.10448
1549.09258,0.11922
1547.60279,0.32136
1546.11300,0.47832
1544.62322,0.53844
1543.13343,0.41449
1541.64364,0.22922
1540.15385,0.14414
1538.66406,0.05911
1537.17427,0.16794
1535.68448,0.02164
1534.19470,0.13704
1532.70491,0.10713
1531.21512,0.03206
1529.72533,0.05394
1528.23554,0.06941
1526.74575,0.11078
1525.25597,0.15220
1523.76618,0.12584
1522.27639,0.08985
1520.78660,0.10881
1519.29681,0.06646
1517.80702,0.09200
1516.31724,0.03037
1514.82745,0.08185
1513.33766,0.10108
1511.84787,0.12036
1510.35808,0.12355
1508.86829,0.07188
1507.37850,0.00088
1505.88872,0.05538
1504.39893,0.14224
1502.90914,0.11609
1501.41935,0.11907
1499.92956,0.05104
1498.43977,0.10258
1496.94999,0.10895
1495.46020,0.10245
1493.97041,0.06693
1492.48062,0.07345
1490.99083,0.07034
1489.50104,0.14158
1488.01125,0.09496
1486.52147,0.04840
1485.03168,0.16825
1483.54189,0.13956
1482.05210,0.20783
1480.56231,0.14694
1479.07252,0.15717
1477.58274,0.26759
1476.09295,0.20363
1474.60316,0.24633
1473.11337,0.27938
1471.62358,0.26080
1470.13379,0.24874
1468.64401,0.22058
1467.15422,0.22154
1465.66443,0.19994
1464.17464,0.17840
1462.68485,0.20536
1461.19506,0.15485
1459.70527,0.15285
1458.21549,0.10568
1456.72570,0.01656
1455.23591,0.07286
1453.74612,0.11306
1452.25633,0.07579
1450.76654,0.20008
1449.27676,0.09184
1447.78697,0.09026
1446.29718,0.07581
1444.80739,0.06142
1443.31760,0.04707
1441.82781,0.12969
1440.33802,0.03146
1438.84824,0.11095
1437.35845,0.02252
1435.86866,0.05367
1434.37887,0.00088
1432.88908,0.10791
1431.39929,0.10194
1429.90951,0.07341
1428.41972,0.04493
1426.92993,0.15218
1425.44014,0.10443
1423.95035,0.11648
1422.46056,0.12860
1420.97078,0.05839
1419.48099,0.12391
1417.99120,0.12487
1416.50141,0.07098
1415.01162,0.18187
1413.52183,0.07640
1412.03204,0.08080
1410.54226,0.09495
1409.05247,0.13500
1407.56268,0.19770
1406.07289,0.12480
1404.58310,0.13754
1403.09331,0.15034
1401.60353,0.14542
1400.11374,0.13733
1398.62395,0.22620
1397.13416,0.18591
1395.64437,0.23611
1394.15458,0.22500
1392.66479,0.25594
1391.17501,0.26754
1389.68522,0.22105
1388.19543,0.19077
1386.70564,0.17831
1385.21585,0.16590
1383.72606,0.21007
1382.23628,0.17677
1380.74649,0.20812
1379.25670,0.21046
1377.76691,0.30975
1376.27712,0.33803
1374.78733,0.33730
1373.29755,0.35922
1371.80776,0.33598
1370.31797,0.57767
1368.82818,0.59491
1367.33839,0.61220
1365.84860,0.73776
1364.35881,0.89567
1362.86903,0.94058
1361.37924,0.90478
1359.88945,0.94980
1358.39966,1.08854
1356.90987,0.84617
1355.42008,0.92364
1353.93030,1.17883
1352.44051,1.11267
1350.95072,1.04656
1349.46093,1.08871
1347.97114,0.73361
1346.48135,0.36886
1344.99156,0.47901
1343.50178,0.23066
1342.01199,0.36675
1340.52220,0.26709
1339.03241,0.26116
1337.54262,0.12285
1336.05283,0.15255
1334.56305,0.18231
1333.07326,0.11199
1331.58347,0.24845
1330.09368,0.19115
1328.60389,0.13714
1327.11410,0.09610
1325.62432,0.16171
1324.13453,0.00449
1322.64474,0.10896
1321.15495,0.05521
1319.66516,0.05320
1318.17537,0.05124
1316.68558,0.00088
1315.19580,0.03997
1313.70601,0.05974
1312.21622,0.06664
1310.72643,0.04775
1309.23664,0.13551
1307.74685,0.02306
1306.25707,0.01402
1304.76728,0.07448
1303.27749,0.13500
1301.78770,0.06474
1300.29791,0.03977
1298.80812,0.03422
1297.31834,0.04488
1295.82855,0.14926
1294.33876,0.06635
1292.84897,0.03195
1291.35918,0.05251
1289.86939,0.05051
1288.37960,0.04856
1286.88982,0.10481
1285.40003,0.10297
1283.91024,0.09150
1282.42045,0.07684
1280.93066,0.04932
1279.44087,0.06384
1277.95109,0.04934
1276.46130,0.08012
1274.97151,0.07703
1273.48172,0.07400
1271.99193,0.07264
1270.50214,0.17146
1269.01235,0.10236
1267.52257,0.12700
1266.03278,0.11615
1264.54299,0.06337
1263.05320,0.13662
1261.56341,0.13400
1260.07362,0.13144
1258.58384,0.17578
1257.09405,0.17494
1255.60426,0.04495
1254.11447,0.16050
1252.62468,0.08876
1251.13489,0.14304
1249.64511,0.11986
1248.15532,0.02243
1246.66553,0.08333
1245.17574,0.14429
1243.68595,0.09871
1242.19616,0.09839
1240.70637,0.17243
1239.21659,0.16900
1237.72680,0.00088
1236.23701,0.09138
1234.74722,0.12379
1233.25743,0.10295
1231.76764,0.08217
1230.27786,0.13736
1228.78807,0.11506
1227.29828,0.08314
1225.80849,0.15785
1224.31870,0.19064
1222.82891,0.12333
1221.33912,0.17883
1219.84934,0.15847
1218.35955,0.13817
1216.86976,0.08400
1215.37997,0.11386
1213.89018,0.09533
1212.40039,0.03163
1210.91061,0.16825
1209.42082,0.08204
1207.93103,0.04111
1206.44124,0.00023
1204.95145,0.09479
1203.46166,0.15388
1201.97188,0.05474
1200.48209,0.00088
1198.99230,0.10546
1197.50251,0.02921
1196.01272,0.16297
1194.52293,0.14658
1193.03314,0.13025
1191.54336,0.13496
1190.05357,0.15588
1188.56378,0.05733
1187.07399,0.05897
1185.58420,0.15434
1184.09441,0.19162
1182.60463,0.13366
1181.11484,0.07575
1179.62505,0.05828
1178.13526,0.13453
1176.64547,0.00088
1175.15568,0.11200
1173.66589,0.10043
1172.17611,0.11152
1170.68632,0.11782
1169.19653,0.12418
1167.70674,0.12251
1166.21695,0.15643
1164.72716,0.16455
1163.23738,0.22442
1161.74759,0.12605
1160.25780,0.01482
1158.76801,0.06838
1157.27822,0.12200
1155.78843,0.14336
1154.29865,0.07433
1152.80886,0.10227
1151.31907,0.14963
1149.82928,0.13890
1148.33949,0.16699
1146.84970,0.16122
1145.35991,0.15549
1143.87013,0.17405
1142.38034,0.15713
1140.89055,0.06919
1139.40076,0.17512
1137.91097,0.18420
1136.42118,0.18687
1134.93140,0.12822
1133.44161,0.06962
1131.95182,0.12090
1130.46203,0.08502
1128.97224,0.22362
1127.48245,0.17169
1125.99266,0.17796
1124.50288,0.18428
1123.01309,0.17127
1121.52330,0.15832
1120.03351,0.13250
1118.54372,0.24239
1117.05393,0.19407
1115.56415,0.25562
1114.07436,0.15571
1112.58457,0.16892
1111.09478,0.18217
1109.60499,0.36668
1108.11520,0.30575
1106.62542,0.33531
1105.13563,0.36493
1103.64584,0.43982
1102.15605,0.46955
1100.66626,0.49448
1099.17647,0.51946
1097.68668,0.35877
1096.19690,0.42100
1094.70711,0.47037
1093.21732,0.42612
1091.72753,0.45621
1090.23774,0.47989
1088.74795,0.50363
1087.25817,0.62433
1085.76838,0.50604
1084.27859,0.54286
1082.78880,0.54097
1081.29901,0.59404
1079.80922,0.54380
1078.31943,0.55499
1076.82965,0.56623
1075.33986,0.39340
1073.85007,0.68254
1072.36028,0.57442
1070.87049,0.50511
1069.38070,0.47140
1067.89092,0.47165
1066.40113,0.47195
1064.91134,0.55791
1063.42155,0.34997
1061.93176,0.35527
1060.44197,0.35094
1058.95219,0.39512
1057.46240,0.36828
1055.97261,0.34150
1054.48282,0.28892
1052.99303,0.27517
1051.50324,0.25177
1050.01345,0.31564
1048.52367,0.25682
1047.03388,0.27880
1045.54409,0.30084
1044.05430,0.23572
1042.56451,0.22233
1041.07472,0.19607
1039.58494,0.03743
1038.09515,0.10172
1036.60536,0.11923
1035.11557,0.13679
1033.62578,0.10434
1032.13599,0.00088
1030.64620,0.11333
1029.15642,0.17092
1027.66663,0.14620
1026.17684,0.12152
1024.68705,0.20835
1023.19726,0.09495
1021.70747,0.29171
1020.21769,0.21072
1018.72790,0.22346
1017.23811,0.25401
1015.74832,0.28462
1014.25853,0.32982
1012.76874,0.38477
1011.27896,0.45591
1009.78917,0.55941
1008.29938,0.55314
1006.80959,0.62929
1005.31980,0.70549
1003.83001,0.73168
1002.34022,0.82575
1000.85044,0.92311
999.36065,1.17233
997.87086,1.17451
996.38107,1.17673
994.89128,1.50041
993.40149,1.56896
991.91171,1.64079
990.42192,1.61254
988.93213,1.75554
987.44234,1.71124
985.95255,1.66700
984.46276,1.75202
982.97297,1.58190
981.48319,1.48613
979.99340,1.43887
978.50361,1.46434
977.01382,1.48986
975.52403,1.45568
974.03424,1.42478
972.54446,1.40362
971.05467,1.45681
969.56488,1.25810
968.07509,1.27748
966.58530,1.29691
965.09551,1.29540
963.60573,1.25195
962.11594,1.12456
960.62615,1.00046
959.13636,0.99432
957.64657,0.98822
956.15678,0.99349
954.66699,0.92451
953.17721,0.98802
951.68742,0.70919
950.19763,0.73405
948.70784,0.75895
947.21805,0.69024
945.72826,0.58928
944.23848,0.71448
942.74869,0.60717
941.25890,0.56774
939.76911,0.60104
938.27932,0.63439
936.78953,0.54989
935.29974,0.60435
933.80996,0.52965
932.32017,0.61974
930.83038,0.58230
929.34059,0.54490
927.85080,0.62223
926.36101,0.50258
924.87123,0.56709
923.38144,0.56059
921.89165,0.54285
920.40186,0.52515
918.91207,0.62541
917.42228,0.58036
915.93250,0.58059
914.44271,0.75206
912.95292,0.76855
911.46313,0.78509
909.97334,0.80168
908.48355,0.74725
906.99376,0.80917
905.50398,0.74840
904.01419,0.88956
902.52440,1.03077
901.03461,0.90555
899.54482,1.02911
898.05503,0.99120
896.56525,1.09548
895.07546,1.08191
893.58567,1.06840
892.09588,0.97256
890.60609,0.98984
889.11630,0.86181
887.62651,0.92118
886.13673,0.88693
884.64694,0.85274
883.15715,0.87674
881.66736,0.76835
880.17757,0.70201
878.68778,0.72940
877.19800,0.75684
875.70821,0.76172
874.21842,0.62453
872.72863,0.61983
871.23884,0.50858
869.74905,0.52337
868.25927,0.53820
866.76948,0.44004
865.27969,0.44852
863.78990,0.40537
862.30011,0.37197
860.81032,0.33377
859.32053,0.29562
857.83075,0.32375
856.34096,0.36485
854.85117,0.29295
853.36138,0.36322
851.87159,0.26235
850.38180,0.16154
848.89202,0.11892
847.40223,0.17002
845.91244,0.26640
844.42265,0.20456
842.93286,0.14277
841.44307,0.10364
839.95329,0.11948
838.46350,0.01909
836.97371,0.05764
835.48392,0.12532
833.99413,0.19305
832.50434,0.10902
831.01455,0.09287
829.52477,0.07032
828.03498,0.02521
826.54519,0.04798
825.05540,0.07080
823.56561,0.08399
822.07582,0.11985
820.58604,0.10084
819.09625,0.08996
817.60646,0.07913
816.11667,0.04090
814.62688,0.10286
813.13709,0.06150
811.64730,0.07188
810.15752,0.05324
808.66773,0.03466
807.17794,0.01936
805.68815,0.00088
804.19836,0.06857
802.70857,0.12985
801.21879,0.19119
799.72900,0.01678
798.23921,0.20097
796.74942,0.15910
795.25963,0.14151
793.76984,0.12398
792.28006,0.18886
790.79027,0.22473
789.30048,0.28003
787.81069,0.31600
786.32090,0.25996
784.83111,0.20398
783.34132,0.18843
781.85154,0.21492
780.36175,0.42881
778.87196,0.37466
777.38217,0.32056
775.89238,0.40540
774.40259,0.27388
772.91281,0.26193
771.42302,0.33401
769.93323,0.40615
768.44344,0.32329
766.95365,0.21464
765.46386,0.33862
763.97407,0.17839
762.48429,0.22495
760.99450,0.27156
759.50471,0.24717
758.01492,0.14853
756.52513,0.18884
755.03534,0.14360
753.54556,0.09841
752.05577,0.08720
750.56598,0.10188
749.07619,0.00679
747.58640,0.00380
746.09661,0.00088
744.60683,0.00484
743.11704,0.06699
741.62725,0.00000
740.13746,0.00087
738.64767,0.00180
737.15788,0.06900
735.66809,0.13625
734.17831,0.10665
732.68852,0.07871
731.19873,0.05083
729.70894,0.02139
728.21915,0.05014
726.72936,0.02080
725.23958,0.10134
723.74979,0.11733
722.26000,0.13337
720.77021,0.12685
719.28042,0.00088
717.79063,0.12208
716.30084,0.13998
714.81106,0.15793
713.32127,0.11133
711.83148,0.00664
710.34169,0.08612
708.85190,0.09943
707.36211,0.11280
705.87233,0.06646
704.38254,0.03633
702.89275,0.11930
701.40296,0.10381
699.91317,0.08837
698.42338,0.23287
696.93360,0.40973
695.44381,0.54788
693.95402,0.50520
692.46423,0.46256
690.97444,0.18095
689.48465,0.04475
687.99486,0.05396
686.50508,0.07291
685.01529,0.09192
683.52550,0.04637
682.03571,0.00088
680.54592,0.03655
679.05613,0.03353
677.56635,0.03055
676.07656,0.18590
674.58677,0.12812
673.09698,0.18667
671.60719,0.15807
670.11740,0.12951
668.62761,0.14300
667.13783,0.17916
665.64804,0.11039
664.15825,0.04167
662.66846,0.02307
661.17867,0.07881
659.68888,0.08293
658.19910,0.04188
656.70931,0.00088
655.21952,0.08686
653.72973,0.02754
652.23994,0.16531
650.75015,0.15293
649.26037,0.14061
647.77058,0.26562
646.28079,0.33577
644.79100,0.28968
643.30121,0.30180
641.81142,0.31396
640.32163,0.23896
638.83185,0.07358
637.34206,0.12789
635.85227,0.06436
634.36248,0.00088
632.87269,0.12949
631.38290,0.19677
629.89312,0.16721
628.40333,0.10863
626.91354,0.05010
625.42375,0.07238
623.93396,0.05272
622.44417,0.12356
620.95438,0.19444
619.46460,0.09096
617.97481,0.11996
616.48502,0.03596
614.99523,0.10060
613.50544,0.16529
612.01565,0.10406
610.52587,0.01704
609.03608,0.10127
607.54629,0.07734
606.05650,0.05347
604.56671,0.13786
603.07692,0.11894
601.58714,0.14529
600.09735,0.17169
598.60756,0.12063
597.11777,0.03085
595.62798,0.02511
594.13819,0.01297
592.64840,0.00088
591.15862,0.04367
589.66883,0.08005
588.17904,0.11972
586.68925,0.16267
585.19946,0.20567
583.70967,0.23904
582.21989,0.28861
580.73010,0.23971
579.24031,0.19087
577.75052,0.26321
576.26073,0.24515
574.77094,0.33375
573.28115,0.33842
571.79137,0.34313
570.30158,0.34467
568.81179,0.31396
567.32200,0.37052
565.83221,0.42713
564.34242,0.46764
562.85264,0.54697
561.36285,0.56497
559.87306,0.65409
558.38327,0.74327
556.89348,0.66453
555.40369,0.64399
553.91391,0.72040
552.42412,0.79686
550.93433,0.66988
549.44454,0.75937
547.95475,0.81339
546.46496,0.74148
544.97517,0.66962
543.48539,0.74963
541.99560,0.83939
540.50581,0.89851
539.01602,0.95768
537.52623,0.99591
536.03644,1.08588
534.54666,0.96594
533.05687,0.90420
531.56708,0.84250
530.07729,0.75502
528.58750,0.66113
527.09771,0.67551
525.60792,0.68993
524.11814,0.64466
522.62835,0.57359
521.13856,0.55103
519.64877,0.48491
518.15898,0.41885
516.66919,0.33507
515.17941,0.33856
513.68962,0.38894
512.19983,0.43938
510.71004,0.54639
509.22025,0.41120
507.73046,0.38265
506.24068,0.30247
504.75089,0.22235
503.26110,0.25533
501.77131,0.30452
500.28152,0.29723
498.79173,0.29000
497.30194,0.08416
495.81216,0.19493
494.32237,0.16363
492.83258,0.13238
491.34279,0.12056
489.85300,0.27031
488.36321,0.14877
486.87343,0.10804
485.38364,0.06737
483.89385,0.17533
482.40406,0.00878
480.91427,0.07970
479.42448,0.15068
477.93469,0.12965
476.44491,0.06021
474.95512,0.03283
473.46533,0.00549
471.97554,0.05574
470.48575,0.02205
468.99596,0.21775
467.50618,0.15187
466.01639,0.08603
464.52660,0.00088
463.03681,0.01313
461.54702,0.01897
460.05723,0.02487
458.56745,0.06312
457.07766,0.24355
455.58787,0.15270
454.09808,0.06191
452.60829,0.14559
451.11850,0.10658
449.62871,0.10801
448.13893,0.10948
446.64914,0.27736
445.15935,0.37746
443.66956,0.34840
442.17977,0.36462
440.68998,0.38090
439.20020,0.30032
437.71041,0.50728
436.22062,0.52371
434.73083,0.54019
433.24104,0.50828
431.75125,0.58624
430.26146,0.65295
428.77168,0.71972
427.28189,0.80107
425.79210,0.96322
424.30231,1.14320
422.81252,1.32323
421.32273,1.84086
419.83295,2.00000
418.34316,1.84587
416.85337,1.69179
415.36358,0.82390
413.87379,0.74421
412.38400,0.78410
410.89422,0.82404
409.40443,0.87372
407.91464,1.07527
406.42485,0.99909
404.93506,1.00209
403.44527,1.00515
401.95548,0.89682
400.46570,0.73362
398.97591,0.74653
397.48612,0.75949
395.99633,0.75150
394.50654,0.64667
393.01675,0.62263
391.52697,0.59866
390.03718,0.60703
388.54739,0.63484
387.05760,0.57226
385.56781,0.50973
384.07802,0.66691
382.58824,0.55603
381.09845,0.55503
379.60866,0.55409
378.11887,0.41753
376.62908,0.37793
375.13929,0.38845
373.64950,0.39902
372.15972,0.34343
370.66993,0.26527
369.18014,0.17587
367.69035,0.08652
366.20056,0.21848
364.71077,0.23422
363.22099,0.20639
361.73120,0.17862
360.24141,0.22036
358.75162,0.01019
357.26183,0.07274
355.77204,0.13535
354.28225,0.05749
352.79247,0.06368
351.30268,0.04407
349.81289,0.02452
348.32310,0.02763
346.83331,0.14678
345.34352,0.10286
343.85374,0.05899
342.36395,0.11369
340.87416,0.25890
339.38437,0.18773
337.89458,0.11662
336.40479,0.11016
334.91501,0.12314
333.42522,0.07964
331.93543,0.03619
330.44564,0.00088
328.95585,0.00414
327.46606,0.02845
325.97627,0.05282
324.48649,0.09058
322.99670,0.08963
321.50691,0.09842
320.01712,0.10727
318.52733,0.13232
317.03754,0.07021
315.54776,0.08083
314.05797,0.09151
312.56818,0.08770
311.07839,0.07425
309.58860,0.09154
308.09881,0.10889
306.60902,0.02454
305.11924,0.03714
303.62945,0.03203
302.13966,0.02698
300.64987,0.03328
299.16008,0.00088
