1778.52000,0.00179
1777.03021,0.03030
1775.54042,0.01146
1774.05063,0.02973
1772.56085,0.01301
1771.07106,0.02720
1769.58127,0.03113
1768.09148,0.03715
1766.60169,0.01024
1765.11190,0.12753
1763.62212,0.01417
1762.13233,0.04707
1760.64254,0.04499
1759.15275,0.04911
1757.66296,0.03266
1756.17317,0.02860
1754.68339,0.02250
1753.19360,0.01232
1751.70381,0.08866
1750.21402,0.00851
1748.72423,0.02406
1747.23444,0.01287
1745.74465,0.07998
1744.25487,0.06472
1742.76508,0.11746
1741.27529,0.06725
1739.78550,0.10563
1738.29571,0.03900
1736.80592,0.05066
1735.31614,0.09324
1733.82635,0.04316
1732.33656,0.04873
1730.84677,0.04608
1729.35698,0.05375
1727.86719,0.00997
1726.37740,0.05065
1724.88762,0.05223
1723.39783,0.07238
1721.90804,0.06783
1720.41825,0.05302
1718.92846,0.00528
1717.43867,0.01637
1715.94889,0.05221
1714.45910,0.04482
1712.96931,0.08483
1711.47952,0.00954
1709.98973,0.04754
1708.49994,0.06086
1707.01016,0.08245
1705.52037,0.10406
1704.03058,0.07421
1702.54079,0.10205
1701.05100,0.04549
1699.56121,0.08986
1698.07142,0.07660
1696.58164,0.02835
1695.09185,0.07487
1693.60206,0.02256
1692.11227,0.05265
1690.62248,0.02923
1689.13269,0.06144
1687.64291,0.08750
1686.15312,0.11565
1684.66333,0.04702
1683.17354,0.03609
1681.68375,0.06432
1680.19396,0.05757
1678.70417,0.12292
1677.21439,0.07915
1675.72460,0.04158
1674.23481,0.04935
1672.74502,0.07157
1671.25523,0.05880
1669.76544,0.06665
1668.27566,0.11572
1666.78587,0.12157
1665.29608,0.10479
1663.80629,0.07362
1662.31650,0.09809
1660.82671,0.08963
1659.33693,0.06060
1657.84714,0.06456
1656.35735,0.03765
1654.86756,0.02724
1653.37777,0.05393
1651.88798,0.08065
1650.39819,0.09298
1648.90841,0.13417
1647.41862,0.06623
1645.92883,0.08893
1644.43904,0.11167
1642.94925,0.08501
1641.45946,0.03777
1639.96968,0.07707
1638.47989,0.10403
1636.99010,0.06924
1635.50031,0.06536
1634.01052,0.00179
1632.52073,0.07361
1631.03094,0.01158
1629.54116,0.07109
1628.05137,0.10798
1626.56158,0.07899
1625.07179,0.09121
1623.58200,0.07258
1622.09221,0.01895
1620.60243,0.07863
1619.11264,0.12186
1617.62285,0.04978
1616.13306,0.05805
1614.64327,0.07871
1613.15348,0.02937
1611.66370,0.10363
1610.17391,0.03169
1608.68412,0.08129
1607.19433,0.08766
1605.70454,0.02198
1604.21475,0.04180
1602.72496,0.06165
1601.23518,0.00223
1599.74539,0.12614
1598.25560,0.09561
1596.76581,0.03421
1595.27602,0.03669
1593.78623,0.10922
1592.29645,0.07880
1590.80666,0.04635
1589.31687,0.03246
1587.82708,0.03301
1586.33729,0.07890
1584.84750,0.00743
1583.35771,0.09251
1581.86793,0.01491
1580.37814,0.11652
1578.88835,0.04309
1577.39856,0.02324
1575.90877,0.03020
1574.41898,0.00422
1572.92920,0.07508
1571.43941,0.00179
1569.94962,0.00897
1568.45983,0.01618
1566.97004,0.03269
1565.48025,0.08423
1563.99047,0.07814
1562.50068,0.04736
1561.01089,0.06809
1559.52110,0.05384
1558.03131,0.06227
1556.54152,0.07073
1555.05173,0.05450
1553.56195,0.09597
1552.07216,0.06538
1550.58237,0.07189
1549.09258,0.09078
1547.60279,0.22092
1546.11300,0.33049
1544.62322,0.25473
1543.13343,0.22842
1541.64364,0.09298
1540.15385,0.09763
1538.66406,0.10229
1537.17427,0.09669
1535.68448,0.03551
1534.19470,0.09999
1532.70491,0.00179
1531.21512,0.07276
1529.72533,0.09639
1528.23554,0.09327
1526.74575,0.09636
1525.25597,0.08506
1523.76618,0.07584
1522.27639,0.09549
1520.78660,0.06779
1519.29681,0.06278
1517.80702,0.07839
1516.31724,0.05283
1514.82745,0.06850
1513.33766,0.05741
1511.84787,0.04636
1510.35808,0.07034
1508.86829,0.06552
1507.37850,0.04013
1505.88872,0.11981
1504.39893,0.00179
1502.90914,0.03399
1501.41935,0.07652
1499.92956,0.05523
1498.43977,0.11429
1496.94999,0.07246
1495.46020,0.01624
1493.97041,0.05273
1492.48062,0.12013
1490.99083,0.07429
1489.50104,0.13146
1488.01125,0.13201
1486.52147,0.13260
1485.03168,0.16719
1483.54189,0.18121
1482.05210,0.19320
1480.56231,0.23611
1479.07252,0.22345
1477.58274,0.22934
1476.09295,0.30323
1474.60316,0.25975
1473.11337,0.26985
1471.62358,0.19965
1470.13379,0.27365
1468.64401,0.26529
1467.15422,0.28785
1465.66443,0.24042
1464.17464,0.19301
1462.68485,0.20124
1461.19506,0.24039
1459.70527,0.19719
1458.21549,0.17872
1456.72570,0.11086
1455.23591,0.07186
1453.74612,0.11114
1452.25633,0.13604
1450.76654,0.09918
1449.27676,0.08088
1447.78697,0.09968
1446.29718,0.12263
1444.80739,0.09000
1443.31760,0.05739
1441.82781,0.11131
1440.33802,0.14673
1438.84824,0.07507
1437.35845,0.06935
1435.86866,0.05542
1434.37887,0.09094
1432.88908,0.09354
1431.39929,0.07763
1429.90951,0.05145
1428.41972,0.10356
1426.92993,0.14746
1425.44014,0.10077
1423.95035,0.15811
1422.46056,0.21548
1420.97078,0.11326
1419.48099,0.13464
1417.99120,0.11692
1416.50141,0.17131
1415.01162,0.14746
1413.52183,0.11953
1412.03204,0.12457
1410.54226,0.10287
1409.05247,0.08119
1407.56268,0.10897
1406.07289,0.12854
1404.58310,0.10797
1403.09331,0.08743
1401.60353,0.17299
1400.11374,0.09381
1398.62395,0.12176
1397.13416,0.17650
1395.64437,0.16331
1394.15458,0.13573
1392.66479,0.13701
1391.17501,0.16303
1389.68522,0.10052
1388.19543,0.08952
1386.70564,0.09297
1385.21585,0.09645
1383.72606,0.07318
1382.23628,0.12408
1380.74649,0.10498
1379.25670,0.10445
1377.76691,0.16779
1376.27712,0.16525
1374.78733,0.12361
1373.29755,0.22822
1371.80776,0.16398
1370.31797,0.25423
1368.82818,0.29508
1367.33839,0.33596
1365.84860,0.31302
1364.35881,0.46929
1362.86903,0.40315
1361.37924,0.38441
1359.88945,0.49133
1358.39966,0.38408
1356.90987,0.38190
1355.42008,0.40240
1353.93030,0.48266
1352.44051,0.49601
1350.95072,0.50938
1349.46093,0.43319
1347.97114,0.37351
1346.48135,0.22941
1344.99156,0.12653
1343.50178,0.11224
1342.01199,0.17212
1340.52220,0.17642
1339.03241,0.10042
1337.54262,0.15421
1336.05283,0.12667
1334.56305,0.09915
1333.07326,0.20039
1331.58347,0.09364
1330.09368,0.07753
1328.60389,0.06969
1327.11410,0.10719
1325.62432,0.09529
1324.13453,0.10813
1322.64474,0.06950
1321.15495,0.06180
1319.66516,0.05619
1318.17537,0.05060
1316.68558,0.00179
1315.19580,0.09144
1313.70601,0.07814
1312.21622,0.06899
1310.72643,0.08664
1309.23664,0.10431
1307.74685,0.08907
1306.25707,0.11297
1304.76728,0.10396
1303.27749,0.09497
1301.78770,0.08189
1300.29791,0.06884
1298.80812,0.04963
1297.31834,0.01604
1295.82855,0.09369
1294.33876,0.07457
1292.84897,0.06577
1291.35918,0.07142
1289.86939,0.06680
1288.37960,0.06221
1286.88982,0.13384
1285.40003,0.09223
1283.91024,0.05476
1282.42045,0.07705
1280.93066,0.04788
1279.44087,0.03315
1277.95109,0.05964
1276.46130,0.09440
1274.97151,0.08387
1273.48172,0.07337
1271.99193,0.06908
1270.50214,0.07305
1269.01235,0.01938
1267.52257,0.03783
1266.03278,0.12220
1264.54299,0.12423
1263.05320,0.09332
1261.56341,0.08098
1260.07362,0.06867
1258.58384,0.09346
1257.09405,0.11416
1255.60426,0.06279
1254.11447,0.10208
1252.62468,0.09402
1251.13489,0.03451
1249.64511,0.00179
1248.15532,0.10502
1246.66553,0.06823
1245.17574,0.03147
1243.68595,0.04211
1242.19616,0.08160
1240.70637,0.02845
1239.21659,0.05564
1237.72680,0.05609
1236.23701,0.00920
1234.74722,0.05913
1233.25743,0.06274
1231.76764,0.06639
1230.27786,0.09169
1228.78807,0.09230
1227.29828,0.04351
1225.80849,0.02976
1224.31870,0.07988
1222.82891,0.04971
1221.33912,0.02575
1219.84934,0.04506
1218.35955,0.06440
1216.86976,0.03434
1215.37997,0.04137
1213.89018,0.06491
1212.40039,0.10084
1210.91061,0.05235
1209.42082,0.05538
1207.93103,0.02857
1206.44124,0.00179
1204.95145,0.07204
1203.46166,0.05169
1201.97188,0.06844
1200.48209,0.02138
1198.99230,0.00729
1197.50251,0.03237
1196.01272,0.09248
1194.52293,0.05891
1193.03314,0.02537
1191.54336,0.02378
1190.05357,0.00162
1188.56378,0.00272
1187.07399,0.00179
1185.58420,0.06215
1184.09441,0.07105
1182.60463,0.06658
1181.11484,0.06215
1179.62505,0.03818
1178.13526,0.07808
1176.64547,0.08505
1175.15568,0.07352
1173.66589,0.03936
1172.17611,0.02788
1170.68632,0.04526
1169.19653,0.06267
1167.70674,0.03480
1166.21695,0.07698
1164.72716,0.00179
1163.23738,0.03073
1161.74759,0.06999
1160.25780,0.09281
1158.76801,0.08475
1157.27822,0.07673
1155.78843,0.04402
1154.29865,0.04223
1152.80886,0.10225
1151.31907,0.03049
1149.82928,0.06379
1148.33949,0.03328
1146.84970,0.02853
1145.35991,0.02382
1143.87013,0.07165
1142.38034,0.16688
1140.89055,0.10972
1139.40076,0.13910
1137.91097,0.14585
1136.42118,0.12791
1134.93140,0.14295
1133.44161,0.15802
1131.95182,0.13399
1130.46203,0.14293
1128.97224,0.13543
1127.48245,0.11971
1125.99266,0.23172
1124.50288,0.19135
1123.01309,0.16953
1121.52330,0.14775
1120.03351,0.25987
1118.54372,0.19695
1117.05393,0.27204
1115.56415,0.18241
1114.07436,0.19783
1112.58457,0.23491
1111.09478,0.27202
1109.60499,0.32666
1108.11520,0.33189
1106.62542,0.32274
1105.13563,0.41865
1103.64584,0.43427
1102.15605,0.41902
1100.66626,0.43984
1099.17647,0.46069
1097.68668,0.42287
1096.19690,0.47158
1094.70711,0.48324
1093.21732,0.45580
1091.72753,0.53137
1090.23774,0.51840
1088.74795,0.50546
1087.25817,0.50902
1085.76838,0.57645
1084.27859,0.51828
1082.78880,0.48280
1081.29901,0.57709
1079.80922,0.58079
1078.31943,0.56701
1076.82965,0.55326
1075.33986,0.57763
1073.85007,0.59174
1072.36028,0.53173
1070.87049,0.49440
1069.38070,0.57450
1067.89092,0.53929
1066.40113,0.50410
1064.91134,0.41745
1063.42155,0.40086
1061.93176,0.35546
1060.44197,0.34098
1058.95219,0.32035
1057.46240,0.32343
1055.97261,0.32654
1054.48282,0.32246
1052.99303,0.30606
1051.50324,0.28351
1050.01345,0.29393
1048.52367,0.22612
1047.03388,0.22528
1045.54409,0.22446
1044.05430,0.27413
1042.56451,0.17553
1041.07472,0.13464
1039.58494,0.13702
1038.09515,0.12501
1036.60536,0.15113
1035.11557,0.17727
1033.62578,0.11798
1032.13599,0.15139
1030.64620,0.18071
1029.15642,0.17916
1027.66663,0.19206
1026.17684,0.20498
1024.68705,0.17262
1023.19726,0.09292
1021.70747,0.20479
1020.21769,0.22606
1018.72790,0.23089
1017.23811,0.23883
1015.74832,0.24679
1014.25853,0.31349
1012.76874,0.38638
1011.27896,0.58082
1009.78917,0.61876
1008.29938,0.67321
1006.80959,0.73695
1005.31980,0.80071
1003.83001,0.74609
1002.34022,0.87890
1000.85044,1.06736
999.36065,1.10137
997.87086,1.17454
996.38107,1.24774
994.89128,1.43836
993.40149,1.51574
991.91171,1.60550
990.42192,1.71176
988.93213,1.81393
987.44234,1.80903
985.95255,1.80416
984.46276,1.85080
982.97297,1.84393
981.48319,1.78147
979.99340,1.81790
978.50361,1.90894
977.01382,2.00000
975.52403,1.90676
974.03424,1.88151
972.54446,1.83776
971.05467,1.74666
969.56488,1.69060
968.07509,1.68812
966.58530,1.68567
965.09551,1.62351
963.60573,1.52226
962.11594,1.48693
960.62615,1.45575
959.13636,1.41533
957.64657,1.37494
956.15678,1.32943
954.66699,1.25099
953.17721,1.17052
951.68742,1.14980
950.19763,1.15280
948.70784,1.15582
947.21805,1.09194
945.72826,1.08369
944.23848,0.97661
942.74869,0.89839
941.25890,0.89434
939.76911,0.89547
938.27932,0.89662
936.78953,0.94826
935.29974,0.94639
933.80996,0.92600
932.32017,0.90770
930.83038,0.86677
929.34059,0.82587
927.85080,0.97653
926.36101,0.92333
924.87123,0.98755
923.38144,0.98795
921.89165,0.97293
920.40186,0.95794
918.91207,0.96254
917.42228,1.02896
915.93250,1.12835
914.44271,1.02182
912.95292,1.11097
911.46313,1.20015
909.97334,1.24199
908.48355,1.20971
906.99376,1.34016
905.50398,1.33677
904.01419,1.41064
902.52440,1.48454
901.03461,1.43386
899.54482,1.33996
898.05503,1.39438
896.56525,1.42411
895.07546,1.41370
893.58567,1.40332
892.09588,1.36723
890.60609,1.35793
889.11630,1.13447
887.62651,1.19114
886.13673,1.16751
884.64694,1.14391
883.15715,1.10592
881.66736,1.01029
880.17757,1.05679
878.68778,1.02197
877.19800,0.98718
875.70821,0.77632
874.21842,0.74262
872.72863,0.70688
871.23884,0.63821
869.74905,0.61798
868.25927,0.59776
866.76948,0.60745
865.27969,0.56154
863.78990,0.56922
862.30011,0.52749
860.81032,0.52287
859.32053,0.51827
857.83075,0.38806
856.34096,0.35881
854.85117,0.40166
853.36138,0.32303
851.87159,0.33504
850.38180,0.34708
848.89202,0.29736
847.40223,0.24561
845.91244,0.19801
844.42265,0.18133
842.93286,0.16467
841.44307,0.13363
839.95329,0.17676
838.46350,0.08398
836.97371,0.07773
835.48392,0.08490
833.99413,0.09209
832.50434,0.09829
831.01455,0.09627
829.52477,0.04691
828.03498,0.12320
826.54519,0.10376
825.05540,0.08435
823.56561,0.05363
822.07582,0.02706
820.58604,0.04995
819.09625,0.05639
817.60646,0.06286
816.11667,0.01992
814.62688,0.05939
813.13709,0.10713
811.64730,0.07664
810.15752,0.05647
808.66773,0.03632
807.17794,0.00179
805.68815,0.02471
804.19836,0.09091
802.70857,0.10873
801.21879,0.12659
799.72900,0.13108
798.23921,0.18091
796.74942,0.16487
795.25963,0.13752
793.76984,0.11020
792.28006,0.12925
790.79027,0.15038
789.30048,0.21685
787.81069,0.19067
786.32090,0.22425
784.83111,0.25785
783.34132,0.20498
781.85154,0.19332
780.36175,0.31763
778.87196,0.30500
777.38217,0.29240
775.89238,0.33646
774.40259,0.29199
772.91281,0.23313
771.42302,0.29891
769.93323,0.36470
768.44344,0.29975
766.95365,0.19363
765.46386,0.33057
763.97407,0.22038
762.48429,0.22041
760.99450,0.22047
759.50471,0.20511
758.01492,0.24538
756.52513,0.14976
755.03534,0.14580
753.54556,0.14188
752.05577,0.03604
750.56598,0.07027
749.07619,0.12924
747.58640,0.10895
746.09661,0.08869
744.60683,0.10655
743.11704,0.05854
741.62725,0.11971
740.13746,0.06867
738.64767,0.01765
737.15788,0.09126
735.66809,0.02279
734.17831,0.01201
732.68852,0.07541
731.19873,0.13883
729.70894,0.06017
728.21915,0.07628
726.72936,0.00179
725.23958,0.05646
723.74979,0.07100
722.26000,0.08556
720.77021,0.11972
719.28042,0.16420
717.79063,0.05219
716.30084,0.05862
714.81106,0.06508
713.32127,0.07878
711.83148,0.04720
710.34169,0.06919
708.85190,0.05311
707.36211,0.03705
705.87233,0.08178
704.38254,0.03180
702.89275,0.08070
701.40296,0.09256
699.91317,0.10445
698.42338,0.12666
696.93360,0.28071
695.44381,0.30709
693.95402,0.30673
692.46423,0.30640
690.97444,0.09602
689.48465,0.08132
687.99486,0.05429
686.50508,0.05098
685.01529,0.04769
683.52550,0.07636
682.03571,0.07622
680.54592,0.09258
679.05613,0.08528
677.56635,0.07801
676.07656,0.07592
674.58677,0.11505
673.09698,0.11095
671.60719,0.07702
670.11740,0.04311
668.62761,0.02674
667.13783,0.07836
665.64804,0.07234
664.15825,0.06635
662.66846,0.09334
661.17867,0.10594
659.68888,0.12474
658.19910,0.06325
656.70931,0.00179
655.21952,0.08265
653.72973,0.07704
652.23994,0.10235
650.75015,0.08032
649.26037,0.05831
647.77058,0.13107
646.28079,0.29448
644.79100,0.23342
643.30121,0.22388
641.81142,0.21437
640.32163,0.14310
638.83185,0.01831
637.34206,0.13863
635.85227,0.13129
634.36248,0.12397
632.87269,0.10844
631.38290,0.08471
629.89312,0.08365
628.40333,0.06306
626.91354,0.04250
625.42375,0.03535
623.93396,0.03440
622.44417,0.05408
620.95438,0.07379
619.46460,0.07292
617.97481,0.03914
616.48502,0.06716
614.99523,0.10551
613.50544,0.14389
612.01565,0.06490
610.52587,0.07656
609.03608,0.07589
607.54629,0.09070
606.05650,0.10553
604.56671,0.11524
603.07692,0.13115
601.58714,0.14503
600.09735,0.15895
598.60756,0.20584
597.11777,0.14978
595.62798,0.11640
594.13819,0.10777
592.64840,0.09916
591.15862,0.14207
589.66883,0.12940
588.17904,0.13117
586.68925,0.16901
585.19946,0.20688
583.70967,0.21492
582.21989,0.35067
580.73010,0.36391
579.24031,0.37717
577.75052,0.34619
576.26073,0.43056
574.77094,0.42022
573.28115,0.44493
571.79137,0.46966
570.30158,0.42233
568.81179,0.48419
567.32200,0.55225
565.83221,0.62034
564.34242,0.69051
562.85264,0.65362
561.36285,0.78358
559.87306,0.86311
558.38327,0.94266
556.89348,0.87293
555.40369,0.95151
553.91391,0.95494
552.42412,0.95840
550.93433,1.01441
549.44454,0.94893
547.95475,0.94114
546.46496,0.96943
544.97517,0.99774
543.48539,1.02505
541.99560,1.12242
540.50581,1.14360
539.01602,1.16481
537.52623,1.10985
536.03644,1.09405
534.54666,1.10299
533.05687,1.06459
531.56708,1.02621
530.07729,1.01464
528.58750,0.91659
527.09771,0.90404
525.60792,0.89152
524.11814,0.79973
522.62835,0.92834
521.13856,0.77688
519.64877,0.75314
518.15898,0.72943
516.66919,0.63778
515.17941,0.63678
513.68962,0.60594
512.19983,0.57513
510.71004,0.58451
509.22025,0.44975
507.73046,0.43240
506.24068,0.44289
504.75089,0.45341
503.26110,0.40320
501.77131,0.40038
500.28152,0.38215
498.79173,0.36394
497.30194,0.25000
495.81216,0.29466
494.32237,0.29919
492.83258,0.30375
491.34279,0.15078
489.85300,0.15230
488.36321,0.18887
486.87343,0.17603
485.38364,0.16322
483.89385,0.14631
482.40406,0.24065
480.91427,0.14863
479.42448,0.05664
477.93469,0.11193
476.44491,0.00248
474.95512,0.05062
473.46533,0.09879
471.97554,0.09446
470.48575,0.13135
468.99596,0.10031
467.50618,0.15991
466.01639,0.21954
464.52660,0.18240
463.03681,0.16382
461.54702,0.18234
460.05723,0.20089
458.56745,0.20093
457.07766,0.23601
455.58787,0.19697
454.09808,0.15796
452.60829,0.18900
451.11850,0.27156
449.62871,0.28206
448.13893,0.29259
446.64914,0.34434
445.15935,0.38994
443.66956,0.46028
442.17977,0.51417
440.68998,0.56808
439.20020,0.58496
437.71041,0.65129
436.22062,0.69705
434.73083,0.74284
433.24104,0.71863
431.75125,0.78506
430.26146,0.80931
428.77168,0.83358
427.28189,0.98249
425.79210,1.00372
424.30231,1.13106
422.81252,1.25842
421.32273,1.58043
419.83295,1.55441
418.34316,1.47590
416.85337,1.39741
415.36358,1.03165
413.87379,1.01810
412.38400,1.00045
410.89422,0.98283
409.40443,1.06204
407.91464,1.13509
406.42485,1.07637
404.93506,1.09593
403.44527,1.11552
401.95548,1.03216
400.46570,1.04151
398.97591,1.01896
397.48612,0.99644
395.99633,0.96056
394.50654,0.99061
393.01675,0.96406
391.52697,0.93753
390.03718,0.88528
388.54739,0.77127
387.05760,0.75615
385.56781,0.74106
384.07802,0.80426
382.58824,0.76656
381.09845,0.78142
379.60866,0.79630
378.11887,0.70514
376.62908,0.52545
375.13929,0.51673
373.64950,0.50803
372.15972,0.45611
370.66993,0.44541
369.18014,0.39458
367.69035,0.34377
366.20056,0.37023
364.71077,0.32669
363.22099,0.26875
361.73120,0.21085
360.24141,0.13238
358.75162,0.16721
357.26183,0.16705
355.77204,0.16692
354.28225,0.21008
352.79247,0.09673
351.30268,0.15332
349.81289,0.20994
348.32310,0.06990
346.83331,0.06582
345.34352,0.06794
343.85374,0.07009
342.36395,0.09081
340.87416,0.14038
339.38437,0.11275
337.89458,0.08515
336.40479,0.09980
334.91501,0.07328
333.42522,0.03752
331.93543,0.00179
330.44564,0.01939
328.95585,0.03083
327.46606,0.04540
325.97627,0.05999
324.48649,0.06945
322.99670,0.00481
321.50691,0.04854
320.01712,0.09229
318.52733,0.04237
317.03754,0.02954
315.54776,0.02086
314.05797,0.01221
312.56818,0.02006
311.07839,0.17211
309.58860,0.14191
308.09881,0.11174
306.60902,0.04968
305.11924,0.00000
303.62945,0.00975
302.13966,0.01531
300.64987,0.06929
299.16008,0.00179
