1778.52000,0.16252
1777.03021,0.10488
1775.54042,0.11114
1774.05063,0.12020
1772.56085,0.12374
1771.07106,0.00511
1769.58127,0.11702
1768.09148,0.12342
1766.60169,0.12430
1765.11190,0.14187
1763.62212,0.04838
1762.13233,0.09933
1760.64254,0.17808
1759.15275,0.12078
1757.66296,0.14682
1756.17317,0.17567
1754.68339,0.14067
1753.19360,0.14736
1751.70381,0.11519
1750.21402,0.07472
1748.72423,0.07871
1747.23444,0.07163
1745.74465,0.12289
1744.25487,0.12697
1742.76508,0.11164
1741.27529,0.06301
1739.78550,0.10050
1738.29571,0.09359
1736.80592,0.15891
1735.31614,0.12706
1733.82635,0.14522
1732.33656,0.00511
1730.84677,0.06738
1729.35698,0.11579
1727.86719,0.10312
1726.37740,0.06827
1724.88762,0.05011
1723.39783,0.05975
1721.90804,0.03054
1720.41825,0.01802
1718.92846,0.05274
1717.43867,0.03195
1715.94889,0.13616
1714.45910,0.09598
1712.96931,0.04750
1711.47952,0.11569
1709.98973,0.12558
1708.49994,0.12162
1707.01016,0.13435
1705.52037,0.14711
1704.03058,0.09325
1702.54079,0.11717
1701.05100,0.08836
1699.56121,0.08734
1698.07142,0.05859
1696.58164,0.04930
1695.09185,0.07892
1693.60206,0.13079
1692.11227,0.14658
1690.62248,0.08742
1689.13269,0.09771
1687.64291,0.08859
1686.15312,0.10727
1684.66333,0.06489
1683.17354,0.06419
1681.68375,0.10517
1680.19396,0.07120
1678.70417,0.11780
1677.21439,0.04778
1675.72460,0.04722
1674.23481,0.01892
1672.74502,0.03786
1671.25523,0.04294
1669.76544,0.04805
1668.27566,0.04763
1666.78587,0.06391
1665.29608,0.07466
1663.80629,0.18542
1662.31650,0.14345
1660.82671,0.10152
1659.33693,0.12905
1657.84714,0.16493
1656.35735,0.08143
1654.86756,0.09237
1653.37777,0.06725
1651.88798,0.08658
1650.39819,0.11983
1648.90841,0.06424
1647.41862,0.09200
1645.92883,0.09756
1644.43904,0.10315
1642.94925,0.06434
1641.45946,0.06721
1639.96968,0.08122
1638.47989,0.13414
1636.99010,0.03989
1635.50031,0.12342
1634.01052,0.05422
1632.52073,0.09337
1631.03094,0.09922
1629.54116,0.07732
1628.05137,0.09711
1626.56158,0.08638
1625.07179,0.11179
1623.58200,0.17888
1622.09221,0.03215
1620.60243,0.05208
1619.11264,0.08037
1617.62285,0.09481
1616.13306,0.11760
1614.64327,0.12377
1613.15348,0.08552
1611.66370,0.10285
1610.17391,0.10909
1608.68412,0.06260
1607.19433,0.06612
1605.70454,0.11134
1604.21475,0.08992
1602.72496,0.06854
1601.23518,0.10828
1599.74539,0.16750
1598.25560,0.09621
1596.76581,0.07771
1595.27602,0.11201
1593.78623,0.07969
1592.29645,0.10016
1590.80666,0.05401
1589.31687,0.00511
1587.82708,0.09582
1586.33729,0.12268
1584.84750,0.07458
1583.35771,0.15149
1581.86793,0.09789
1580.37814,0.06654
1578.88835,0.04355
1577.39856,0.13446
1575.90877,0.16152
1574.41898,0.07474
1572.92920,0.07686
1571.43941,0.01236
1569.94962,0.05619
1568.45983,0.10006
1566.97004,0.12173
1565.48025,0.08511
1563.99047,0.07907
1562.50068,0.06473
1561.01089,0.09762
1559.52110,0.08056
1558.03131,0.02186
1556.54152,0.10206
1555.05173,0.17395
1553.56195,0.07646
1552.07216,0.17896
1550.58237,0.02320
1549.09258,0.09243
1547.60279,0.28389
1546.11300,0.36151
1544.62322,0.40027
1543.13343,0.20022
1541.64364,0.15294
1540.15385,0.11959
1538.66406,0.08626
1537.17427,0.12516
1535.68448,0.09744
1534.19470,0.11141
1532.70491,0.06986
1531.21512,0.07278
1529.72533,0.10072
1528.23554,0.05092
1526.74575,0.04004
1525.25597,0.00696
1523.76618,0.13500
1522.27639,0.07698
1520.78660,0.00511
1519.29681,0.03052
1517.80702,0.04762
1516.31724,0.12029
1514.82745,0.12356
1513.33766,0.07270
1511.84787,0.02188
1510.35808,0.03912
1508.86829,0.08416
1507.37850,0.05703
1505.88872,0.02159
1504.39893,0.03339
1502.90914,0.06188
1501.41935,0.00987
1499.92956,0.11340
1498.43977,0.05033
1496.94999,0.07061
1495.46020,0.02703
1493.97041,0.10014
1492.48062,0.18715
1490.99083,0.11034
1489.50104,0.15853
1488.01125,0.14704
1486.52147,0.13557
1485.03168,0.16996
1483.54189,0.15717
1482.05210,0.14995
1480.56231,0.22609
1479.07252,0.21338
1477.58274,0.30623
1476.09295,0.26858
1474.60316,0.18375
1473.11337,0.31002
1471.62358,0.17803
1470.13379,0.29602
1468.64401,0.22518
1467.15422,0.29324
1465.66443,0.23774
1464.17464,0.18226
1462.68485,0.20875
1461.19506,0.24915
1459.70527,0.25069
1458.21549,0.12451
1456.72570,0.08446
1455.23591,0.13608
1453.74612,0.17939
1452.25633,0.11998
1450.76654,0.13836
1449.27676,0.11789
1447.78697,0.10577
1446.29718,0.08536
1444.80739,0.12468
1443.31760,0.16403
1441.82781,0.07982
1440.33802,0.09285
1438.84824,0.14756
1437.35845,0.00511
1435.86866,0.14209
1434.37887,0.03193
1432.88908,0.08288
1431.39929,0.01998
1429.90951,0.11820
1428.41972,0.12757
1426.92993,0.12308
1425.44014,0.14362
1423.95035,0.16002
1422.46056,0.17645
1420.97078,0.11931
1419.48099,0.10941
1417.99120,0.10509
1416.50141,0.15635
1415.01162,0.12154
1413.52183,0.13398
1412.03204,0.07701
1410.54226,0.13115
1409.05247,0.17422
1407.56268,0.15900
1406.07289,0.14935
1404.58310,0.14668
1403.09331,0.14404
1401.60353,0.17892
1400.11374,0.17494
1398.62395,0.15155
1397.13416,0.20318
1395.64437,0.23262
1394.15458,0.23431
1392.66479,0.23881
1391.17501,0.17946
1389.68522,0.18679
1388.19543,0.14417
1386.70564,0.13906
1385.21585,0.13398
1383.72606,0.18586
1382.23628,0.12391
1380.74649,0.22584
1379.25670,0.18615
1377.76691,0.26592
1376.27712,0.23741
1374.78733,0.20337
1373.29755,0.25545
1371.80776,0.29367
1370.31797,0.30693
1368.82818,0.38687
1367.33839,0.46684
1365.84860,0.53295
1364.35881,0.69074
1362.86903,0.74302
1361.37924,0.72312
1359.88945,0.82545
1358.39966,0.80838
1356.90987,0.66637
1355.42008,0.66324
1353.93030,0.90177
1352.44051,0.86538
1350.95072,0.82902
1349.46093,0.71214
1347.97114,0.57029
1346.48135,0.32294
1344.99156,0.27003
1343.50178,0.33379
1342.01199,0.20872
1340.52220,0.20033
1339.03241,0.17252
1337.54262,0.23084
1336.05283,0.18504
1334.56305,0.13927
1333.07326,0.16434
1331.58347,0.14224
1330.09368,0.16181
1328.60389,0.14254
1327.11410,0.17606
1325.62432,0.12074
1324.13453,0.03490
1322.64474,0.03517
1321.15495,0.13546
1319.66516,0.09414
1318.17537,0.05285
1316.68558,0.09490
1315.19580,0.08699
1313.70601,0.13743
1312.21622,0.07126
1310.72643,0.00511
1309.23664,0.06909
1307.74685,0.04977
1306.25707,0.12214
1304.76728,0.09872
1303.27749,0.07532
1301.78770,0.16722
1300.29791,0.11472
1298.80812,0.09558
1297.31834,0.07091
1295.82855,0.11848
1294.33876,0.08275
1292.84897,0.03595
1291.35918,0.09749
1289.86939,0.08963
1288.37960,0.08180
1286.88982,0.05177
1285.40003,0.00511
1283.91024,0.02142
1282.42045,0.03776
1280.93066,0.05135
1279.44087,0.06774
1277.95109,0.13138
1276.46130,0.07840
1274.97151,0.08100
1273.48172,0.08362
1271.99193,0.14459
1270.50214,0.13061
1269.01235,0.12776
1267.52257,0.08606
1266.03278,0.07216
1264.54299,0.17494
1263.05320,0.22219
1261.56341,0.19172
1260.07362,0.16127
1258.58384,0.16973
1257.09405,0.16989
1255.60426,0.15896
1254.11447,0.11752
1252.62468,0.07610
1251.13489,0.07915
1249.64511,0.09056
1248.15532,0.06589
1246.66553,0.06070
1245.17574,0.05553
1243.68595,0.06983
1242.19616,0.10915
1240.70637,0.05130
1239.21659,0.07402
1237.72680,0.00511
1236.23701,0.04049
1234.74722,0.05367
1233.25743,0.04606
1231.76764,0.03847
1230.27786,0.15172
1228.78807,0.08448
1227.29828,0.07559
1225.80849,0.04174
1224.31870,0.13011
1222.82891,0.10464
1221.33912,0.12641
1219.84934,0.12877
1218.35955,0.13116
1216.86976,0.01416
1215.37997,0.06104
1213.89018,0.02741
1212.40039,0.08268
1210.91061,0.10743
1209.42082,0.08500
1207.93103,0.04870
1206.44124,0.01244
1204.95145,0.01508
1203.46166,0.05108
1201.97188,0.07323
1200.48209,0.03708
1198.99230,0.09538
1197.50251,0.06762
1196.01272,0.06766
1194.52293,0.07050
1193.03314,0.07337
1191.54336,0.11238
1190.05357,0.08754
1188.56378,0.14882
1187.07399,0.06015
1185.58420,0.06594
1184.09441,0.00511
1182.60463,0.01221
1181.11484,0.01933
1179.62505,0.05009
1178.13526,0.13643
1176.64547,0.08115
1175.15568,0.03979
1173.66589,0.15398
1172.17611,0.00436
1170.68632,0.02432
1169.19653,0.04430
1167.70674,0.11292
1166.21695,0.00938
1164.72716,0.16137
1163.23738,0.00511
1161.74759,0.07594
1160.25780,0.10235
1158.76801,0.06354
1157.27822,0.02474
1155.78843,0.07902
1154.29865,0.10833
1152.80886,0.17099
1151.31907,0.11704
1149.82928,0.09644
1148.33949,0.14531
1146.84970,0.14560
1145.35991,0.14592
1143.87013,0.05600
1142.38034,0.14108
1140.89055,0.13177
1139.40076,0.14470
1137.91097,0.10766
1136.42118,0.17064
1134.93140,0.13644
1133.44161,0.10227
1131.95182,0.14589
1130.46203,0.14788
1128.97224,0.09158
1127.48245,0.05197
1125.99266,0.18735
1124.50288,0.13669
1123.01309,0.13882
1121.52330,0.14098
1120.03351,0.17650
1118.54372,0.19816
1117.05393,0.18930
1115.56415,0.21657
1114.07436,0.32996
1112.58457,0.35313
1111.09478,0.37631
1109.60499,0.35926
1108.11520,0.36168
1106.62542,0.33635
1105.13563,0.41937
1103.64584,0.48019
1102.15605,0.48828
1100.66626,0.48528
1099.17647,0.48231
1097.68668,0.53770
1096.19690,0.43481
1094.70711,0.44026
1093.21732,0.48184
1091.72753,0.57067
1090.23774,0.54704
1088.74795,0.52344
1087.25817,0.63735
1085.76838,0.48466
1084.27859,0.56252
1082.78880,0.62097
1081.29901,0.56002
1079.80922,0.60464
1078.31943,0.63262
1076.82965,0.66063
1075.33986,0.60534
1073.85007,0.59453
1072.36028,0.51709
1070.87049,0.57021
1069.38070,0.46505
1067.89092,0.51406
1066.40113,0.56310
1064.91134,0.43580
1063.42155,0.45574
1061.93176,0.39516
1060.44197,0.36794
1058.95219,0.32685
1057.46240,0.34135
1055.97261,0.35587
1054.48282,0.26488
1052.99303,0.23780
1051.50324,0.30795
1050.01345,0.30037
1048.52367,0.29003
1047.03388,0.28250
1045.54409,0.27501
1044.05430,0.14256
1042.56451,0.15734
1041.07472,0.19158
1039.58494,0.05089
1038.09515,0.09074
1036.60536,0.10286
1035.11557,0.11500
1033.62578,0.17161
1032.13599,0.15325
1030.64620,0.14048
1029.15642,0.08053
1027.66663,0.13447
1026.17684,0.18844
1024.68705,0.20356
1023.19726,0.12428
1021.70747,0.29776
1020.21769,0.24908
1018.72790,0.13656
1017.23811,0.17959
1015.74832,0.22265
1014.25853,0.34351
1012.76874,0.41717
1011.27896,0.42977
1009.78917,0.57848
1008.29938,0.73000
1006.80959,0.75518
1005.31980,0.78038
1003.83001,0.84589
1002.34022,0.93364
1000.85044,1.16584
999.36065,1.20921
997.87086,1.32483
996.38107,1.44047
994.89128,1.53391
993.40149,1.68016
991.91171,1.73201
990.42192,1.87831
988.93213,1.82468
987.44234,1.89466
985.95255,1.96467
984.46276,2.00000
982.97297,1.92982
981.48319,1.96520
979.99340,1.89508
978.50361,1.89858
977.01382,1.90210
975.52403,1.97093
974.03424,1.87592
972.54446,1.81705
971.05467,1.79430
969.56488,1.67161
968.07509,1.67392
966.58530,1.67626
965.09551,1.55643
963.60573,1.51439
962.11594,1.44460
960.62615,1.43039
959.13636,1.39260
957.64657,1.35484
956.15678,1.20741
954.66699,1.12110
953.17721,1.19313
951.68742,1.06800
950.19763,1.06648
948.70784,1.06500
947.21805,0.96772
945.72826,0.97046
944.23848,0.93157
942.74869,0.93436
941.25890,0.76221
939.76911,0.76090
938.27932,0.75961
936.78953,0.76252
935.29974,0.70713
933.80996,0.64622
932.32017,0.80196
930.83038,0.79804
929.34059,0.79415
927.85080,0.76945
926.36101,0.77256
924.87123,0.82846
923.38144,0.84273
921.89165,0.85842
920.40186,0.87414
918.91207,0.94127
917.42228,0.92233
915.93250,0.92008
914.44271,1.00118
912.95292,1.01009
911.46313,1.01904
909.97334,1.09744
908.48355,0.96480
906.99376,1.10992
905.50398,1.08287
904.01419,1.13779
902.52440,1.19273
901.03461,1.24353
899.54482,1.25270
898.05503,1.25913
896.56525,1.36834
895.07546,1.37898
893.58567,1.38966
892.09588,1.29066
890.60609,1.25001
889.11630,1.06497
887.62651,1.05771
886.13673,1.03520
884.64694,1.01272
883.15715,0.98888
881.66736,0.94562
880.17757,0.89962
878.68778,0.87308
877.19800,0.84658
875.70821,0.82843
874.21842,0.77421
872.72863,0.73946
871.23884,0.64363
869.74905,0.65060
868.25927,0.65759
866.76948,0.67572
865.27969,0.56057
863.78990,0.51210
862.30011,0.51087
860.81032,0.49857
859.32053,0.48629
857.83075,0.45737
856.34096,0.42016
854.85117,0.36075
853.36138,0.35136
851.87159,0.36006
850.38180,0.36878
848.89202,0.27893
847.40223,0.27799
845.91244,0.24097
844.42265,0.20537
842.93286,0.16980
841.44307,0.00511
839.95329,0.12857
838.46350,0.11597
836.97371,0.07285
835.48392,0.07002
833.99413,0.06723
832.50434,0.07140
831.01455,0.10060
829.52477,0.07151
828.03498,0.10632
826.54519,0.08006
825.05540,0.05383
823.56561,0.00819
822.07582,0.09310
820.58604,0.06696
819.09625,0.08667
817.60646,0.10640
816.11667,0.04423
814.62688,0.01265
813.13709,0.01997
811.64730,0.13286
810.15752,0.09164
808.66773,0.05044
807.17794,0.00511
805.68815,0.03079
804.19836,0.01485
802.70857,0.03642
801.21879,0.05802
799.72900,0.05882
798.23921,0.10409
796.74942,0.09661
795.25963,0.11694
793.76984,0.13730
792.28006,0.14101
790.79027,0.27807
789.30048,0.21242
787.81069,0.31343
786.32090,0.28532
784.83111,0.25725
783.34132,0.23059
781.85154,0.25950
780.36175,0.28289
778.87196,0.27437
777.38217,0.26588
775.89238,0.28657
774.40259,0.28230
772.91281,0.28917
771.42302,0.32661
769.93323,0.36409
768.44344,0.34604
766.95365,0.34191
765.46386,0.30449
763.97407,0.27820
762.48429,0.23944
760.99450,0.20071
759.50471,0.22727
758.01492,0.15943
756.52513,0.12495
755.03534,0.14188
753.54556,0.15884
752.05577,0.04668
750.56598,0.09008
749.07619,0.05852
747.58640,0.07559
746.09661,0.09269
744.60683,0.08621
743.11704,0.09364
741.62725,0.13166
740.13746,0.10165
738.64767,0.07168
737.15788,0.12089
735.66809,0.07570
734.17831,0.13052
732.68852,0.12426
731.19873,0.11804
729.70894,0.08685
728.21915,0.12790
726.72936,0.00511
725.23958,0.08103
723.74979,0.07366
722.26000,0.06632
720.77021,0.07566
719.28042,0.17114
717.79063,0.10000
716.30084,0.07194
714.81106,0.04391
713.32127,0.02563
711.83148,0.13791
710.34169,0.07802
708.85190,0.03900
707.36211,0.00000
705.87233,0.10583
704.38254,0.12004
702.89275,0.15649
701.40296,0.12771
699.91317,0.09896
698.42338,0.09661
696.93360,0.24149
695.44381,0.39196
693.95402,0.34804
692.46423,0.30416
690.97444,0.25474
689.48465,0.04150
687.99486,0.07824
686.50508,0.05251
685.01529,0.02682
683.52550,0.14974
682.03571,0.00607
680.54592,0.08695
679.05613,0.08593
677.56635,0.08494
676.07656,0.12981
674.58677,0.10805
673.09698,0.09187
671.60719,0.14931
670.11740,0.20679
668.62761,0.09349
667.13783,0.16074
665.64804,0.11415
664.15825,0.06759
662.66846,0.09605
661.17867,0.00511
659.68888,0.13907
658.19910,0.10921
656.70931,0.07937
655.21952,0.07733
653.72973,0.12532
652.23994,0.12889
650.75015,0.14221
649.26037,0.15556
647.77058,0.14534
646.28079,0.20457
644.79100,0.25272
643.30121,0.22869
641.81142,0.20469
640.32163,0.25293
638.83185,0.15123
637.34206,0.00511
635.85227,0.04566
634.36248,0.08625
632.87269,0.16157
631.38290,0.05918
629.89312,0.11512
628.40333,0.08222
626.91354,0.04934
625.42375,0.03316
623.93396,0.06978
622.44417,0.11614
620.95438,0.16253
619.46460,0.11869
617.97481,0.14153
616.48502,0.03943
614.99523,0.11371
613.50544,0.18801
612.01565,0.08044
610.52587,0.07287
609.03608,0.06256
607.54629,0.08560
606.05650,0.10866
604.56671,0.08455
603.07692,0.05768
601.58714,0.09334
600.09735,0.12902
598.60756,0.12168
597.11777,0.01439
595.62798,0.06265
594.13819,0.11788
592.64840,0.17315
591.15862,0.14373
589.66883,0.10879
588.17904,0.16831
586.68925,0.21396
585.19946,0.25965
583.70967,0.31647
582.21989,0.33722
580.73010,0.31911
579.24031,0.30103
577.75052,0.33297
576.26073,0.46215
574.77094,0.40805
573.28115,0.39008
571.79137,0.37215
570.30158,0.39868
568.81179,0.44190
567.32200,0.52264
565.83221,0.60341
564.34242,0.64949
562.85264,0.66783
561.36285,0.70842
559.87306,0.77541
558.38327,0.84244
556.89348,0.79979
555.40369,0.90159
553.91391,0.86872
552.42412,0.83588
550.93433,0.85445
549.44454,0.98413
547.95475,1.00831
546.46496,0.99363
544.97517,0.97898
543.48539,1.03935
541.99560,1.05531
540.50581,1.03936
539.01602,1.02344
537.52623,1.17001
536.03644,1.13609
534.54666,1.21607
533.05687,1.07112
531.56708,0.92620
530.07729,0.92572
528.58750,0.87528
527.09771,0.83876
525.60792,0.80226
524.11814,0.82411
522.62835,0.72935
521.13856,0.77626
519.64877,0.72321
518.15898,0.67019
516.66919,0.60054
515.17941,0.57258
513.68962,0.55575
512.19983,0.53895
510.71004,0.55550
509.22025,0.47211
507.73046,0.40262
506.24068,0.38177
504.75089,0.36095
503.26110,0.36931
501.77131,0.42215
500.28152,0.35003
498.79173,0.27794
497.30194,0.30586
495.81216,0.23938
494.32237,0.28819
492.83258,0.33702
491.34279,0.20675
489.85300,0.16538
488.36321,0.19903
486.87343,0.17855
485.38364,0.15809
483.89385,0.18349
482.40406,0.16171
480.91427,0.17050
479.42448,0.17932
477.93469,0.16595
476.44491,0.06651
474.95512,0.10458
473.46533,0.14268
471.97554,0.12109
470.48575,0.03565
468.99596,0.18632
467.50618,0.19814
466.01639,0.20999
464.52660,0.11634
463.03681,0.07270
461.54702,0.11380
460.05723,0.15493
458.56745,0.15027
457.07766,0.25394
455.58787,0.24378
454.09808,0.23364
452.60829,0.18742
451.11850,0.16068
449.62871,0.20062
448.13893,0.24059
446.64914,0.26392
445.15935,0.42337
443.66956,0.46620
442.17977,0.47017
440.68998,0.47418
439.20020,0.52820
437.71041,0.56281
436.22062,0.57385
434.73083,0.58491
433.24104,0.58628
431.75125,0.64600
430.26146,0.78213
428.77168,0.91828
427.28189,0.94753
425.79210,1.04347
424.30231,1.16583
422.81252,1.28821
421.32273,1.66751
419.83295,1.67469
418.34316,1.57636
416.85337,1.47807
415.36358,1.08818
413.87379,1.00938
412.38400,0.96949
410.89422,0.92962
409.40443,0.93700
407.91464,1.07216
406.42485,1.09904
404.93506,1.09956
403.44527,1.10011
401.95548,1.01876
400.46570,0.98187
398.97591,0.95196
397.48612,0.92207
395.99633,1.09356
394.50654,1.03457
393.01675,0.96311
391.52697,0.89168
390.03718,0.81611
388.54739,0.82944
387.05760,0.75393
385.56781,0.67845
384.07802,0.69464
382.58824,0.79696
381.09845,0.75766
379.60866,0.71839
378.11887,0.54030
376.62908,0.49275
375.13929,0.50912
373.64950,0.52551
372.15972,0.40862
370.66993,0.41674
369.18014,0.34573
367.69035,0.27476
366.20056,0.30518
364.71077,0.24676
363.22099,0.22585
361.73120,0.20498
360.24141,0.15497
358.75162,0.08000
357.26183,0.17169
355.77204,0.26341
354.28225,0.06355
352.79247,0.19976
351.30268,0.18464
349.81289,0.16955
348.32310,0.06978
346.83331,0.13112
345.34352,0.10362
343.85374,0.07614
342.36395,0.08758
340.87416,0.06294
339.38437,0.09109
337.89458,0.11927
336.40479,0.22525
334.91501,0.16740
333.42522,0.14706
331.93543,0.12676
330.44564,0.00511
328.95585,0.11652
327.46606,0.08910
325.97627,0.06170
324.48649,0.07044
322.99670,0.13197
321.50691,0.11438
320.01712,0.09682
318.52733,0.18344
317.03754,0.01179
315.54776,0.08405
314.05797,0.15635
312.56818,0.06619
311.07839,0.09827
309.58860,0.06511
308.09881,0.03197
306.60902,0.01970
305.11924,0.00468
303.62945,0.04501
302.13966,0.08538
300.64987,0.02162
299.16008,0.00511
