1778.52000,0.00549
1777.03021,0.05976
1775.54042,0.03169
1774.05063,0.05722
1772.56085,0.01003
1771.07106,0.07686
1769.58127,0.05860
1768.09148,0.05001
1766.60169,0.06481
1765.11190,0.04396
1763.62212,0.03415
1762.13233,0.04361
1760.64254,0.00506
1759.15275,0.02561
1757.66296,0.03110
1756.17317,0.05313
1754.68339,0.03401
1753.19360,0.05476
1751.70381,0.03848
1750.21402,0.06620
1748.72423,0.03630
1747.23444,0.03803
1745.74465,0.05766
1744.25487,0.02928
1742.76508,0.02704
1741.27529,0.05095
1739.78550,0.02821
1738.29571,0.03986
1736.80592,0.08177
1735.31614,0.04408
1733.82635,0.04077
1732.33656,0.05812
1730.84677,0.07276
1729.35698,0.03803
1727.86719,0.08985
1726.37740,0.04972
1724.88762,0.07693
1723.39783,0.02180
1721.90804,0.03125
1720.41825,0.00506
1718.92846,0.03751
1717.43867,0.02470
1715.94889,0.02293
1714.45910,0.06103
1712.96931,0.05249
1711.47952,0.02889
1709.98973,0.02046
1708.49994,0.06013
1707.01016,0.03257
1705.52037,0.00506
1704.03058,0.05202
1702.54079,0.04822
1701.05100,0.03898
1699.56121,0.02567
1698.07142,0.04674
1696.58164,0.02392
1695.09185,0.04921
1693.60206,0.08280
1692.11227,0.04914
1690.62248,0.04575
1689.13269,0.04516
1687.64291,0.03774
1686.15312,0.07295
1684.66333,0.04779
1683.17354,0.01719
1681.68375,0.00174
1680.19396,0.02068
1678.70417,0.04653
1677.21439,0.02437
1675.72460,0.05581
1674.23481,0.04474
1672.74502,0.03921
1671.25523,0.03785
1669.76544,0.02830
1668.27566,0.00507
1666.78587,0.04368
1665.29608,0.06175
1663.80629,0.05241
1662.31650,0.03075
1660.82671,0.07506
1659.33693,0.06038
1657.84714,0.04025
1656.35735,0.04901
1654.86756,0.05919
1653.37777,0.04196
1651.88798,0.03302
1650.39819,0.03649
1648.90841,0.11279
1647.41862,0.05045
1645.92883,0.05476
1644.43904,0.05912
1642.94925,0.02439
1641.45946,0.02954
1639.96968,0.08005
1638.47989,0.01252
1636.99010,0.01645
1635.50031,0.04789
1634.01052,0.03819
1632.52073,0.01068
1631.03094,0.02580
1629.54116,0.02448
1628.05137,0.02185
1626.56158,0.05634
1625.07179,0.06342
1623.58200,0.05682
1622.09221,0.01868
1620.60243,0.02866
1619.11264,0.00710
1617.62285,0.08859
1616.13306,0.03967
1614.64327,0.04573
1613.15348,0.03948
1611.66370,0.05663
1610.17391,0.03538
1608.68412,0.03203
1607.19433,0.05757
1605.70454,0.04059
1604.21475,0.04083
1602.72496,0.04111
1601.23518,0.00506
1599.74539,0.04041
1598.25560,0.04834
1596.76581,0.04122
1595.27602,0.04514
1593.78623,0.02302
1592.29645,0.02429
1590.80666,0.01875
1589.31687,0.03248
1587.82708,0.01468
1586.33729,0.06421
1584.84750,0.10007
1583.35771,0.08654
1581.86793,0.06619
1580.37814,0.04590
1578.88835,0.00506
1577.39856,0.03002
1575.90877,0.04542
1574.41898,0.03066
1572.92920,0.02281
1571.43941,0.02601
1569.94962,0.03749
1568.45983,0.04902
1566.97004,0.02490
1565.48025,0.01456
1563.99047,0.03449
1562.50068,0.06133
1561.01089,0.06075
1559.52110,0.05337
1558.03131,0.04877
1556.54152,0.02913
1555.05173,0.01228
1553.56195,0.07101
1552.07216,0.04190
1550.58237,0.04443
1549.09258,0.03191
1547.60279,0.10869
1546.11300,0.14433
1544.62322,0.16766
1543.13343,0.10727
1541.64364,0.09775
1540.15385,0.05943
1538.66406,0.02117
1537.17427,0.02691
1535.68448,0.02857
1534.19470,0.02204
1532.70491,0.03342
1531.21512,0.05995
1529.72533,0.06456
1528.23554,0.00194
1526.74575,0.05402
1525.25597,0.04437
1523.76618,0.05947
1522.27639,0.06777
1520.78660,0.03629
1519.29681,0.07352
1517.80702,0.05725
1516.31724,0.01219
1514.82745,0.01525
1513.33766,0.01149
1511.84787,0.00778
1510.35808,0.01881
1508.86829,0.00793
1507.37850,0.01495
1505.88872,0.01515
1504.39893,0.02638
1502.90914,0.01707
1501.41935,0.02292
1499.92956,0.04667
1498.43977,0.01417
1496.94999,0.00506
1495.46020,0.00578
1493.97041,0.04905
1492.48062,0.06355
1490.99083,0.07534
1489.50104,0.10230
1488.01125,0.11419
1486.52147,0.12614
1485.03168,0.12166
1483.54189,0.14058
1482.05210,0.16916
1480.56231,0.16620
1479.07252,0.21823
1477.58274,0.21950
1476.09295,0.21670
1474.60316,0.26750
1473.11337,0.23734
1471.62358,0.22370
1470.13379,0.24857
1468.64401,0.27211
1467.15422,0.25451
1465.66443,0.22048
1464.17464,0.18650
1462.68485,0.20201
1461.19506,0.15165
1459.70527,0.14804
1458.21549,0.14447
1456.72570,0.11074
1455.23591,0.13062
1453.74612,0.08876
1452.25633,0.09913
1450.76654,0.11642
1449.27676,0.07608
1447.78697,0.11681
1446.29718,0.09305
1444.80739,0.07690
1443.31760,0.06080
1441.82781,0.06328
1440.33802,0.04110
1438.84824,0.02721
1437.35845,0.05044
1435.86866,0.02704
1434.37887,0.00506
1432.88908,0.02982
1431.39929,0.01892
1429.90951,0.01082
1428.41972,0.04808
1426.92993,0.11698
1425.44014,0.05273
1423.95035,0.06062
1422.46056,0.06857
1420.97078,0.10471
1419.48099,0.09147
1417.99120,0.12223
1416.50141,0.13655
1415.01162,0.09188
1413.52183,0.08022
1412.03204,0.04664
1410.54226,0.10648
1409.05247,0.09085
1407.56268,0.14393
1406.07289,0.14488
1404.58310,0.13901
1403.09331,0.13320
1401.60353,0.16588
1400.11374,0.19450
1398.62395,0.18746
1397.13416,0.22167
1395.64437,0.24632
1394.15458,0.25042
1392.66479,0.25595
1391.17501,0.19698
1389.68522,0.15867
1388.19543,0.17945
1386.70564,0.18243
1385.21585,0.18547
1383.72606,0.23799
1382.23628,0.18619
1380.74649,0.21547
1379.25670,0.19673
1377.76691,0.30850
1376.27712,0.27751
1374.78733,0.34681
1373.29755,0.39968
1371.80776,0.53500
1370.31797,0.65388
1368.82818,0.73094
1367.33839,0.80805
1365.84860,0.97789
1364.35881,1.10797
1362.86903,1.20239
1361.37924,1.25018
1359.88945,1.27742
1358.39966,1.23605
1356.90987,1.13431
1355.42008,1.02026
1353.93030,1.00788
1352.44051,0.94543
1350.95072,0.88303
1349.46093,0.80627
1347.97114,0.68286
1346.48135,0.50595
1344.99156,0.37441
1343.50178,0.36651
1342.01199,0.30098
1340.52220,0.23138
1339.03241,0.16870
1337.54262,0.23240
1336.05283,0.18630
1334.56305,0.14025
1333.07326,0.09700
1331.58347,0.08126
1330.09368,0.08617
1328.60389,0.07465
1327.11410,0.06868
1325.62432,0.04490
1324.13453,0.03628
1322.64474,0.04557
1321.15495,0.00821
1319.66516,0.00661
1318.17537,0.00506
1316.68558,0.05340
1315.19580,0.02627
1313.70601,0.00880
1312.21622,0.05042
1310.72643,0.02893
1309.23664,0.06105
1307.74685,0.03142
1306.25707,0.08286
1304.76728,0.08492
1303.27749,0.08703
1301.78770,0.08919
1300.29791,0.03785
1298.80812,0.07718
1297.31834,0.09048
1295.82855,0.06538
1294.33876,0.07466
1292.84897,0.02082
1291.35918,0.06865
1289.86939,0.05542
1288.37960,0.04225
1286.88982,0.05315
1285.40003,0.00506
1283.91024,0.02106
1282.42045,0.02063
1280.93066,0.01201
1279.44087,0.04738
1277.95109,0.04024
1276.46130,0.07983
1274.97151,0.06249
1273.48172,0.04520
1271.99193,0.03140
1270.50214,0.05472
1269.01235,0.04513
1267.52257,0.04658
1266.03278,0.04671
1264.54299,0.06336
1263.05320,0.11578
1261.56341,0.12841
1260.07362,0.14110
1258.58384,0.06047
1257.09405,0.06365
1255.60426,0.03255
1254.11447,0.07702
1252.62468,0.03229
1251.13489,0.02606
1249.64511,0.04185
1248.15532,0.00551
1246.66553,0.03239
1245.17574,0.05932
1243.68595,0.04785
1242.19616,0.01995
1240.70637,0.04429
1239.21659,0.00825
1237.72680,0.02445
1236.23701,0.00774
1234.74722,0.02129
1233.25743,0.02803
1231.76764,0.03481
1230.27786,0.06225
1228.78807,0.02657
1227.29828,0.06235
1225.80849,0.04325
1224.31870,0.00909
1222.82891,0.07935
1221.33912,0.03157
1219.84934,0.04974
1218.35955,0.06797
1216.86976,0.06291
1215.37997,0.08124
1213.89018,0.08040
1212.40039,0.05901
1210.91061,0.07612
1209.42082,0.07131
1207.93103,0.07547
1206.44124,0.07969
1204.95145,0.09426
1203.46166,0.06218
1201.97188,0.02193
1200.48209,0.00506
1198.99230,0.02382
1197.50251,0.07009
1196.01272,0.05599
1194.52293,0.03646
1193.03314,0.01697
1191.54336,0.02362
1190.05357,0.04543
1188.56378,0.06317
1187.07399,0.03015
1185.58420,0.06585
1184.09441,0.04254
1182.60463,0.03096
1181.11484,0.01943
1179.62505,0.01002
1178.13526,0.01163
1176.64547,0.00506
1175.15568,0.04241
1173.66589,0.03038
1172.17611,0.03076
1170.68632,0.03119
1169.19653,0.03166
1167.70674,0.04867
1166.21695,0.02179
1164.72716,0.04302
1163.23738,0.02173
1161.74759,0.00461
1160.25780,0.00911
1158.76801,0.01435
1157.27822,0.01963
1155.78843,0.00506
1154.29865,0.03643
1152.80886,0.07747
1151.31907,0.02929
1149.82928,0.01825
1148.33949,0.06767
1146.84970,0.08900
1145.35991,0.11037
1143.87013,0.05147
1142.38034,0.05578
1140.89055,0.07662
1139.40076,0.06731
1137.91097,0.08962
1136.42118,0.07080
1134.93140,0.09390
1133.44161,0.11706
1131.95182,0.09289
1130.46203,0.12370
1128.97224,0.16417
1127.48245,0.12779
1125.99266,0.13816
1124.50288,0.12385
1123.01309,0.14462
1121.52330,0.16543
1120.03351,0.07301
1118.54372,0.17014
1117.05393,0.18767
1115.56415,0.16543
1114.07436,0.18856
1112.58457,0.17261
1111.09478,0.15670
1109.60499,0.22255
1108.11520,0.27197
1106.62542,0.27750
1105.13563,0.32153
1103.64584,0.33678
1102.15605,0.33559
1100.66626,0.34407
1099.17647,0.35260
1097.68668,0.41611
1096.19690,0.41101
1094.70711,0.44990
1093.21732,0.47649
1091.72753,0.46742
1090.23774,0.47351
1088.74795,0.47965
1087.25817,0.48721
1085.76838,0.53465
1084.27859,0.52171
1082.78880,0.53355
1081.29901,0.55230
1079.80922,0.58209
1078.31943,0.60025
1076.82965,0.61847
1075.33986,0.60310
1073.85007,0.58777
1072.36028,0.56838
1070.87049,0.54080
1069.38070,0.52974
1067.89092,0.49677
1066.40113,0.46385
1064.91134,0.44334
1063.42155,0.37619
1061.93176,0.28712
1060.44197,0.27362
1058.95219,0.25194
1057.46240,0.23717
1055.97261,0.22246
1054.48282,0.25585
1052.99303,0.18906
1051.50324,0.16213
1050.01345,0.22315
1048.52367,0.20456
1047.03388,0.16269
1045.54409,0.12087
1044.05430,0.08321
1042.56451,0.05385
1041.07472,0.05200
1039.58494,0.01038
1038.09515,0.03060
1036.60536,0.03714
1035.11557,0.04373
1033.62578,0.00506
1032.13599,0.05584
1030.64620,0.09432
1029.15642,0.06144
1027.66663,0.05677
1026.17684,0.05214
1024.68705,0.10867
1023.19726,0.02656
1021.70747,0.10517
1020.21769,0.14537
1018.72790,0.15816
1017.23811,0.18405
1015.74832,0.20999
1014.25853,0.27100
1012.76874,0.37187
1011.27896,0.47555
1009.78917,0.55593
1008.29938,0.61851
1006.80959,0.62416
1005.31980,0.62986
1003.83001,0.68710
1002.34022,0.83777
1000.85044,1.02693
999.36065,1.23538
997.87086,1.31616
996.38107,1.39700
994.89128,1.45867
993.40149,1.58767
991.91171,1.68926
990.42192,1.80051
988.93213,1.95850
987.44234,1.97923
985.95255,2.00000
984.46276,1.98650
982.97297,1.88378
981.48319,1.90059
979.99340,1.74992
978.50361,1.77850
977.01382,1.80713
975.52403,1.76098
974.03424,1.88240
972.54446,1.65783
971.05467,1.65302
969.56488,1.62080
968.07509,1.59687
966.58530,1.57299
965.09551,1.45715
963.60573,1.48555
962.11594,1.32450
960.62615,1.31318
959.13636,1.23188
957.64657,1.15063
956.15678,1.15732
954.66699,1.17229
953.17721,1.01429
951.68742,0.95110
950.19763,0.95180
948.70784,0.95256
947.21805,0.91698
945.72826,0.84026
944.23848,0.74573
942.74869,0.72678
941.25890,0.79439
939.76911,0.77623
938.27932,0.75812
936.78953,0.69818
935.29974,0.69458
933.80996,0.63749
932.32017,0.67107
930.83038,0.61271
929.34059,0.55439
927.85080,0.72957
926.36101,0.72353
924.87123,0.78484
923.38144,0.74595
921.89165,0.77920
920.40186,0.81251
918.91207,0.78064
917.42228,0.75980
915.93250,0.82416
914.44271,0.91328
912.95292,0.90564
911.46313,0.89806
909.97334,0.93652
908.48355,0.91874
906.99376,1.10973
905.50398,0.95748
904.01419,1.06755
902.52440,1.17768
901.03461,1.23018
899.54482,1.14953
898.05503,1.29551
896.56525,1.40996
895.07546,1.35762
893.58567,1.30533
892.09588,1.29222
890.60609,1.14459
889.11630,1.03821
887.62651,0.97857
886.13673,0.98970
884.64694,1.00088
883.15715,1.02103
881.66736,1.00965
880.17757,0.97361
878.68778,0.92457
877.19800,0.87558
875.70821,0.83694
874.21842,0.78188
872.72863,0.72412
871.23884,0.71996
869.74905,0.66779
868.25927,0.61568
866.76948,0.63776
865.27969,0.51709
863.78990,0.56399
862.30011,0.47912
860.81032,0.49111
859.32053,0.50315
857.83075,0.50632
856.34096,0.40517
854.85117,0.33978
853.36138,0.31564
851.87159,0.30733
850.38180,0.29908
848.89202,0.27097
847.40223,0.21682
845.91244,0.25472
844.42265,0.23843
842.93286,0.22219
841.44307,0.13254
839.95329,0.09786
838.46350,0.10718
836.97371,0.07124
835.48392,0.07104
833.99413,0.07090
832.50434,0.08866
831.01455,0.05841
829.52477,0.07627
828.03498,0.06947
826.54519,0.05310
825.05540,0.03678
823.56561,0.08780
822.07582,0.07296
820.58604,0.04444
819.09625,0.07021
817.60646,0.09603
816.11667,0.03196
814.62688,0.06406
813.13709,0.03991
811.64730,0.03229
810.15752,0.02609
808.66773,0.01995
807.17794,0.02758
805.68815,0.00506
804.19836,0.08298
802.70857,0.10602
801.21879,0.12912
799.72900,0.12479
798.23921,0.14936
796.74942,0.17673
795.25963,0.19796
793.76984,0.21925
792.28006,0.22205
790.79027,0.24138
789.30048,0.26625
787.81069,0.25959
786.32090,0.27632
784.83111,0.29311
783.34132,0.25502
781.85154,0.33095
780.36175,0.32866
778.87196,0.36694
777.38217,0.40526
775.89238,0.36330
774.40259,0.41889
772.91281,0.40038
771.42302,0.39771
769.93323,0.39509
768.44344,0.38222
766.95365,0.36804
765.46386,0.34978
763.97407,0.32333
762.48429,0.31341
760.99450,0.30355
759.50471,0.20722
758.01492,0.28122
756.52513,0.17950
755.03534,0.14375
753.54556,0.10804
752.05577,0.07926
750.56598,0.07112
749.07619,0.08637
747.58640,0.07490
746.09661,0.06348
744.60683,0.04868
743.11704,0.05041
741.62725,0.07141
740.13746,0.04509
738.64767,0.01882
737.15788,0.06606
735.66809,0.04470
734.17831,0.04536
732.68852,0.06873
731.19873,0.09214
729.70894,0.05451
728.21915,0.04026
726.72936,0.03705
725.23958,0.00506
723.74979,0.01325
722.26000,0.02149
720.77021,0.04970
719.28042,0.02440
717.79063,0.03210
716.30084,0.03506
714.81106,0.03806
713.32127,0.00472
711.83148,0.04834
710.34169,0.03845
708.85190,0.01968
707.36211,0.00096
705.87233,0.13930
704.38254,0.08819
702.89275,0.09342
701.40296,0.06301
699.91317,0.03265
698.42338,0.11356
696.93360,0.19315
695.44381,0.21100
693.95402,0.23920
692.46423,0.26745
690.97444,0.15637
689.48465,0.03848
687.99486,0.04560
686.50508,0.02531
685.01529,0.00506
683.52550,0.05390
682.03571,0.01765
680.54592,0.04462
679.05613,0.03938
677.56635,0.03418
676.07656,0.12721
674.58677,0.05963
673.09698,0.06077
671.60719,0.08118
670.11740,0.10164
668.62761,0.10292
667.13783,0.12897
665.64804,0.09946
664.15825,0.07001
662.66846,0.04403
661.17867,0.06067
659.68888,0.02793
658.19910,0.06596
656.70931,0.10404
655.21952,0.00966
653.72973,0.03617
652.23994,0.00506
650.75015,0.02013
649.26037,0.03525
647.77058,0.06896
646.28079,0.11645
644.79100,0.13653
643.30121,0.12439
641.81142,0.11230
640.32163,0.14489
638.83185,0.08965
637.34206,0.06466
635.85227,0.04797
634.36248,0.03133
632.87269,0.03808
631.38290,0.00506
629.89312,0.03989
628.40333,0.03084
626.91354,0.02183
625.42375,0.01699
623.93396,0.02456
622.44417,0.03081
620.95438,0.03712
619.46460,0.02012
617.97481,0.08008
616.48502,0.05358
614.99523,0.05184
613.50544,0.05016
612.01565,0.04166
610.52587,0.03733
609.03608,0.02618
607.54629,0.03912
606.05650,0.05211
604.56671,0.06034
603.07692,0.10844
601.58714,0.10442
600.09735,0.10044
598.60756,0.04022
597.11777,0.06930
595.62798,0.00506
594.13819,0.02833
592.64840,0.05164
591.15862,0.00567
589.66883,0.08332
588.17904,0.11709
586.68925,0.10010
585.19946,0.08316
583.70967,0.17750
582.21989,0.25267
580.73010,0.26747
579.24031,0.28231
577.75052,0.23817
576.26073,0.21741
574.77094,0.26674
573.28115,0.32093
571.79137,0.37516
570.30158,0.33127
568.81179,0.44122
567.32200,0.42146
565.83221,0.40175
564.34242,0.48713
562.85264,0.55197
561.36285,0.60313
559.87306,0.66052
558.38327,0.71796
556.89348,0.71160
555.40369,0.73824
553.91391,0.78142
552.42412,0.82464
550.93433,0.87616
549.44454,0.88927
547.95475,0.88871
546.46496,0.91154
544.97517,0.93442
543.48539,0.90791
541.99560,0.99131
540.50581,0.95118
539.01602,0.91110
537.52623,0.94110
536.03644,0.99174
534.54666,0.95456
533.05687,0.95793
531.56708,0.96136
530.07729,0.83095
528.58750,0.78024
527.09771,0.74193
525.60792,0.70368
524.11814,0.74924
522.62835,0.66303
521.13856,0.57412
519.64877,0.56353
518.15898,0.55300
516.66919,0.51367
515.17941,0.44145
513.68962,0.44411
512.19983,0.44682
510.71004,0.36101
509.22025,0.36726
507.73046,0.30215
506.24068,0.32086
504.75089,0.33961
503.26110,0.24445
501.77131,0.24683
500.28152,0.22248
498.79173,0.19819
497.30194,0.20209
495.81216,0.12228
494.32237,0.09540
492.83258,0.06856
491.34279,0.11523
489.85300,0.06996
488.36321,0.06318
486.87343,0.05371
485.38364,0.04429
483.89385,0.07749
482.40406,0.05581
480.91427,0.04723
479.42448,0.03870
477.93469,0.02679
476.44491,0.03552
474.95512,0.04980
473.46533,0.06413
471.97554,0.00986
470.48575,0.00506
468.99596,0.08505
467.50618,0.09642
466.01639,0.10785
464.52660,0.00261
463.03681,0.03018
461.54702,0.05162
460.05723,0.07311
458.56745,0.05551
457.07766,0.10525
455.58787,0.10492
454.09808,0.10464
452.60829,0.09274
451.11850,0.16054
449.62871,0.15835
448.13893,0.15622
446.64914,0.25987
445.15935,0.29079
443.66956,0.37257
442.17977,0.41870
440.68998,0.46488
439.20020,0.50149
437.71041,0.47362
436.22062,0.53986
434.73083,0.60616
433.24104,0.58118
431.75125,0.70869
430.26146,0.74904
428.77168,0.78945
427.28189,0.76880
425.79210,0.88140
424.30231,0.98031
422.81252,1.07928
421.32273,1.19753
419.83295,1.10710
418.34316,1.13756
416.85337,1.16807
415.36358,0.90477
413.87379,0.83103
412.38400,0.83491
410.89422,0.83885
409.40443,0.86275
407.91464,0.86885
406.42485,0.96563
404.93506,0.97183
403.44527,0.97809
401.95548,0.85943
400.46570,0.93170
398.97591,0.90858
397.48612,0.88551
395.99633,0.88103
394.50654,0.81069
393.01675,0.80150
391.52697,0.79237
390.03718,0.80457
388.54739,0.75503
387.05760,0.72408
385.56781,0.69317
384.07802,0.69047
382.58824,0.65075
381.09845,0.65227
379.60866,0.65384
378.11887,0.50304
376.62908,0.52393
375.13929,0.48034
373.64950,0.43680
372.15972,0.33838
370.66993,0.29357
369.18014,0.29344
367.69035,0.29335
366.20056,0.25693
364.71077,0.24665
363.22099,0.20690
361.73120,0.16719
360.24141,0.05957
358.75162,0.07970
357.26183,0.10607
355.77204,0.13248
354.28225,0.08822
352.79247,0.11680
351.30268,0.12414
349.81289,0.13153
348.32310,0.10258
346.83331,0.07231
345.34352,0.03866
343.85374,0.00506
342.36395,0.06533
340.87416,0.06248
339.38437,0.04663
337.89458,0.03084
336.40479,0.06659
334.91501,0.01588
333.42522,0.05448
331.93543,0.09313
330.44564,0.00000
328.95585,0.04510
327.46606,0.03464
325.97627,0.02423
324.48649,0.09273
322.99670,0.06653
321.50691,0.06098
320.01712,0.05548
318.52733,0.10770
317.03754,0.01167
315.54776,0.07292
314.05797,0.13422
312.56818,0.08229
311.07839,0.12104
309.58860,0.06302
308.09881,0.00506
306.60902,0.03632
305.11924,0.09235
303.62945,0.06604
302.13966,0.03978
300.64987,0.00808
299.16008,0.00506
