1778.52000,0.13414
1777.03021,0.09156
1775.54042,0.02190
1774.05063,0.09699
1772.56085,0.12993
1771.07106,0.06044
1769.58127,0.07842
1768.09148,0.05425
1766.60169,0.00000
1765.11190,0.15982
1763.62212,0.06649
1762.13233,0.08475
1760.64254,0.06086
1759.15275,0.11239
1757.66296,0.10670
1756.17317,0.14025
1754.68339,0.05027
1753.19360,0.04776
1751.70381,0.12066
1750.21402,0.00070
1748.72423,0.01042
1747.23444,0.06540
1745.74465,0.14757
1744.25487,0.04592
1742.76508,0.04078
1741.27529,0.08996
1739.78550,0.11508
1738.29571,0.06791
1736.80592,0.12328
1735.31614,0.11540
1733.82635,0.01716
1732.33656,0.09078
1730.84677,0.11322
1729.35698,0.07241
1727.86719,0.04070
1726.37740,0.00000
1724.88762,0.09016
1723.39783,0.02665
1721.90804,0.01746
1720.41825,0.01736
1718.92846,0.07157
1717.43867,0.07158
1715.94889,0.06863
1714.45910,0.00847
1712.96931,0.00865
1711.47952,0.09630
1709.98973,0.06946
1708.49994,0.05172
1707.01016,0.06568
1705.52037,0.07970
1704.03058,0.10433
1702.54079,0.03556
1701.05100,0.12360
1699.56121,0.08208
1698.07142,0.16721
1696.58164,0.12881
1695.09185,0.15678
1693.60206,0.25113
1692.11227,0.12247
1690.62248,0.16266
1689.13269,0.10043
1687.64291,0.29145
1686.15312,0.20220
1684.66333,0.18534
1683.17354,0.23486
1681.68375,0.25127
1680.19396,0.27377
1678.70417,0.26919
1677.21439,0.35812
1675.72460,0.34160
1674.23481,0.29197
1672.74502,0.29968
1671.25523,0.37074
1669.76544,0.45692
1668.27566,0.56427
1666.78587,0.54506
1665.29608,0.50180
1663.80629,0.58218
1662.31650,0.62644
1660.82671,0.66775
1659.33693,0.57949
1657.84714,0.67818
1656.35735,0.58702
1654.86756,0.58635
1653.37777,0.45612
1651.88798,0.52187
1650.39819,0.38571
1648.90841,0.53899
1647.41862,0.43008
1645.92883,0.37096
1644.43904,0.31190
1642.94925,0.32372
1641.45946,0.32355
1639.96968,0.30233
1638.47989,0.25102
1636.99010,0.30226
1635.50031,0.24503
1634.01052,0.27528
1632.52073,0.16391
1631.03094,0.19728
1629.54116,0.16741
1628.05137,0.19787
1626.56158,0.20428
1625.07179,0.26802
1623.58200,0.31674
1622.09221,0.29920
1620.60243,0.24253
1619.11264,0.26730
1617.62285,0.18361
1616.13306,0.18136
1614.64327,0.16410
1613.15348,0.25842
1611.66370,0.35280
1610.17391,0.26939
1608.68412,0.18905
1607.19433,0.22029
1605.70454,0.08882
1604.21475,0.11414
1602.72496,0.13953
1601.23518,0.15592
1599.74539,0.17237
1598.25560,0.16175
1596.76581,0.20544
1595.27602,0.15574
1593.78623,0.17241
1592.29645,0.11981
1590.80666,0.24510
1589.31687,0.18658
1587.82708,0.19745
1586.33729,0.09684
1584.84750,0.21934
1583.35771,0.15502
1581.86793,0.13897
1580.37814,0.09586
1578.88835,0.14323
1577.39856,0.13036
1575.90877,0.00000
1574.41898,0.06742
1572.92920,0.10475
1571.43941,0.06678
1569.94962,0.05298
1568.45983,0.03924
1566.97004,0.08583
1565.48025,0.07220
1563.99047,0.04355
1562.50068,0.03907
1561.01089,0.11905
1559.52110,0.06645
1558.03131,0.15859
1556.54152,0.03075
1555.05173,0.13205
1553.56195,0.11886
1552.07216,0.12984
1550.58237,0.14690
1549.09258,0.08565
1547.60279,0.11789
1546.11300,0.18034
1544.62322,0.20365
1543.13343,0.04918
1541.64364,0.06657
1540.15385,0.07649
1538.66406,0.08646
1537.17427,0.01359
1535.68448,0.07643
1534.19470,0.06396
1532.70491,0.03949
1531.21512,0.00000
1529.72533,0.03214
1528.23554,0.08544
1526.74575,0.13578
1525.25597,0.15905
1523.76618,0.09797
1522.27639,0.09120
1520.78660,0.04531
1519.29681,0.07784
1517.80702,0.07727
1516.31724,0.08881
1514.82745,0.01601
1513.33766,0.01711
1511.84787,0.01827
1510.35808,0.02702
1508.86829,0.05692
1507.37850,0.10798
1505.88872,0.02948
1504.39893,0.07462
1502.90914,0.14394
1501.41935,0.11685
1499.92956,0.03857
1498.43977,0.03269
1496.94999,0.10524
1495.46020,0.00000
1493.97041,0.18215
1492.48062,0.14130
1490.99083,0.11859
1489.50104,0.20143
1488.01125,0.19842
1486.52147,0.19547
1485.03168,0.18202
1483.54189,0.32236
1482.05210,0.31505
1480.56231,0.28067
1479.07252,0.41817
1477.58274,0.45925
1476.09295,0.49437
1474.60316,0.50241
1473.11337,0.49845
1471.62358,0.62115
1470.13379,0.63237
1468.64401,0.61049
1467.15422,0.67005
1465.66443,0.70404
1464.17464,0.73810
1462.68485,0.75562
1461.19506,0.77321
1459.70527,0.66123
1458.21549,0.73620
1456.72570,0.71777
1455.23591,0.79285
1453.74612,0.76851
1452.25633,0.80150
1450.76654,0.78028
1449.27676,0.63252
1447.78697,0.59635
1446.29718,0.52406
1444.80739,0.49704
1443.31760,0.47007
1441.82781,0.50646
1440.33802,0.43741
1438.84824,0.34128
1437.35845,0.36578
1435.86866,0.26976
1434.37887,0.30944
1432.88908,0.25272
1431.39929,0.18098
1429.90951,0.19370
1428.41972,0.30293
1426.92993,0.37605
1425.44014,0.30152
1423.95035,0.24815
1422.46056,0.19483
1420.97078,0.28927
1419.48099,0.28730
1417.99120,0.39089
1416.50141,0.34081
1415.01162,0.23954
1413.52183,0.31617
1412.03204,0.19994
1410.54226,0.20132
1409.05247,0.16960
1407.56268,0.20727
1406.07289,0.29020
1404.58310,0.25564
1403.09331,0.22113
1401.60353,0.18667
1400.11374,0.13117
1398.62395,0.10888
1397.13416,0.24641
1395.64437,0.15189
1394.15458,0.28349
1392.66479,0.18607
1391.17501,0.20626
1389.68522,0.06373
1388.19543,0.09910
1386.70564,0.05766
1385.21585,0.01628
1383.72606,0.08799
1382.23628,0.00000
1380.74649,0.16096
1379.25670,0.15920
1377.76691,0.12434
1376.27712,0.10763
1374.78733,0.21455
1373.29755,0.17986
1371.80776,0.25675
1370.31797,0.23121
1368.82818,0.26451
1367.33839,0.29786
1365.84860,0.26043
1364.35881,0.25922
1362.86903,0.42085
1361.37924,0.53430
1359.88945,0.49408
1358.39966,0.65285
1356.90987,0.62781
1355.42008,0.68120
1353.93030,0.80096
1352.44051,0.74594
1350.95072,0.69098
1349.46093,0.80488
1347.97114,0.72290
1346.48135,0.67714
1344.99156,0.60432
1343.50178,0.70035
1342.01199,0.56434
1340.52220,0.60019
1339.03241,0.63610
1337.54262,0.46710
1336.05283,0.46695
1334.56305,0.46685
1333.07326,0.57231
1331.58347,0.41559
1330.09368,0.52116
1328.60389,0.50622
1327.11410,0.51243
1325.62432,0.57295
1324.13453,0.47980
1322.64474,0.52537
1321.15495,0.30874
1319.66516,0.39059
1318.17537,0.47249
1316.68558,0.42785
1315.19580,0.52192
1313.70601,0.33873
1312.21622,0.28822
1310.72643,0.37342
1309.23664,0.40139
1307.74685,0.29981
1306.25707,0.29474
1304.76728,0.32590
1303.27749,0.35712
1301.78770,0.44867
1300.29791,0.33531
1298.80812,0.16774
1297.31834,0.24741
1295.82855,0.38440
1294.33876,0.20494
1292.84897,0.22449
1291.35918,0.26519
1289.86939,0.28635
1288.37960,0.30757
1286.88982,0.17963
1285.40003,0.21453
1283.91024,0.17110
1282.42045,0.14582
1280.93066,0.17485
1279.44087,0.30040
1277.95109,0.18485
1276.46130,0.19295
1274.97151,0.27646
1273.48172,0.36003
1271.99193,0.19346
1270.50214,0.23494
1269.01235,0.08657
1267.52257,0.15528
1266.03278,0.06128
1264.54299,0.20848
1263.05320,0.20803
1261.56341,0.22121
1260.07362,0.23444
1258.58384,0.30650
1257.09405,0.23393
1255.60426,0.26089
1254.11447,0.19145
1252.62468,0.18837
1251.13489,0.09191
1249.64511,0.23665
1248.15532,0.08002
1246.66553,0.09374
1245.17574,0.10753
1243.68595,0.08972
1242.19616,0.12622
1240.70637,0.00000
1239.21659,0.11175
1237.72680,0.04571
1236.23701,0.08221
1234.74722,0.04643
1233.25743,0.06345
1231.76764,0.08053
1230.27786,0.00874
1228.78807,0.09374
1227.29828,0.02809
1225.80849,0.07704
1224.31870,0.05069
1222.82891,0.11180
1221.33912,0.12173
1219.84934,0.14980
1218.35955,0.17793
1216.86976,0.08554
1215.37997,0.11076
1213.89018,0.18125
1212.40039,0.21261
1210.91061,0.27116
1209.42082,0.21220
1207.93103,0.17741
1206.44124,0.14268
1204.95145,0.08992
1203.46166,0.11257
1201.97188,0.08404
1200.48209,0.11885
1198.99230,0.00000
1197.50251,0.11700
1196.01272,0.14664
1194.52293,0.14771
1193.03314,0.14882
1191.54336,0.03997
1190.05357,0.19945
1188.56378,0.03646
1187.07399,0.11466
1185.58420,0.16881
1184.09441,0.12052
1182.60463,0.06023
1181.11484,0.00000
1179.62505,0.02973
1178.13526,0.21325
1176.64547,0.17376
1175.15568,0.07706
1173.66589,0.05276
1172.17611,0.09482
1170.68632,0.09927
1169.19653,0.10377
1167.70674,0.12490
1166.21695,0.07073
1164.72716,0.04977
1163.23738,0.25193
1161.74759,0.17080
1160.25780,0.06561
1158.76801,0.13078
1157.27822,0.19601
1155.78843,0.06084
1154.29865,0.09453
1152.80886,0.00469
1151.31907,0.03547
1149.82928,0.00000
1148.33949,0.02040
1146.84970,0.02126
1145.35991,0.02218
1143.87013,0.13016
1142.38034,0.09954
1140.89055,0.08103
1139.40076,0.16205
1137.91097,0.12556
1136.42118,0.15846
1134.93140,0.17635
1133.44161,0.19429
1131.95182,0.23941
1130.46203,0.29966
1128.97224,0.25748
1127.48245,0.20029
1125.99266,0.26070
1124.50288,0.30912
1123.01309,0.26867
1121.52330,0.22827
1120.03351,0.27082
1118.54372,0.29535
1117.05393,0.24155
1115.56415,0.38977
1114.07436,0.30293
1112.58457,0.31864
1111.09478,0.33439
1109.60499,0.45269
1108.11520,0.46554
1106.62542,0.40008
1105.13563,0.37386
1103.64584,0.44415
1102.15605,0.56273
1100.66626,0.50352
1099.17647,0.44436
1097.68668,0.34607
1096.19690,0.37444
1094.70711,0.52042
1093.21732,0.58809
1091.72753,0.48098
1090.23774,0.52313
1088.74795,0.56534
1087.25817,0.50663
1085.76838,0.67706
1084.27859,0.60640
1082.78880,0.55087
1081.29901,0.64912
1079.80922,0.60274
1078.31943,0.58807
1076.82965,0.57345
1075.33986,0.54231
1073.85007,0.56548
1072.36028,0.51938
1070.87049,0.49443
1069.38070,0.48763
1067.89092,0.54569
1066.40113,0.60380
1064.91134,0.55798
1063.42155,0.35546
1061.93176,0.52377
1060.44197,0.42084
1058.95219,0.38126
1057.46240,0.38244
1055.97261,0.38367
1054.48282,0.39852
1052.99303,0.31094
1051.50324,0.30781
1050.01345,0.29871
1048.52367,0.41929
1047.03388,0.34851
1045.54409,0.27778
1044.05430,0.27795
1042.56451,0.17870
1041.07472,0.24227
1039.58494,0.24864
1038.09515,0.27314
1036.60536,0.24796
1035.11557,0.22284
1033.62578,0.16913
1032.13599,0.16974
1030.64620,0.14027
1029.15642,0.05056
1027.66663,0.09504
1026.17684,0.13958
1024.68705,0.11334
1023.19726,0.00275
1021.70747,0.14241
1020.21769,0.12839
1018.72790,0.23199
1017.23811,0.27535
1015.74832,0.31877
1014.25853,0.33512
1012.76874,0.75845
1011.27896,1.08539
1009.78917,1.49075
1008.29938,1.41086
1006.80959,1.26169
1005.31980,1.11259
1003.83001,0.93942
1002.34022,0.78440
1000.85044,0.83741
999.36065,1.09244
997.87086,1.13954
996.38107,1.18670
994.89128,1.30023
993.40149,1.37462
991.91171,1.44003
990.42192,1.55372
988.93213,1.65541
987.44234,1.70441
985.95255,1.75346
984.46276,2.00000
982.97297,1.74020
981.48319,1.92958
979.99340,1.86581
978.50361,1.82773
977.01382,1.78970
975.52403,1.84366
974.03424,1.82231
972.54446,1.77691
971.05467,1.70745
969.56488,1.80987
968.07509,1.80080
966.58530,1.79179
965.09551,1.79490
963.60573,1.71969
962.11594,1.80128
960.62615,1.59053
959.13636,1.61496
957.64657,1.63944
956.15678,1.60972
954.66699,1.55595
953.17721,1.46605
951.68742,1.54501
950.19763,1.51853
948.70784,1.49210
947.21805,1.47779
945.72826,1.41530
944.23848,1.29258
942.74869,1.09757
941.25890,1.33367
939.76911,1.34223
938.27932,1.35086
936.78953,1.28569
935.29974,1.21153
933.80996,1.37556
932.32017,1.13874
930.83038,1.18683
929.34059,1.23497
927.85080,1.23042
926.36101,1.21085
924.87123,1.16421
923.38144,1.19298
921.89165,1.23538
920.40186,1.27782
918.91207,1.31581
917.42228,1.35987
915.93250,1.30151
914.44271,1.62903
912.95292,1.59790
911.46313,1.56683
909.97334,1.58405
908.48355,1.54103
906.99376,1.68194
905.50398,1.83798
904.01419,1.78609
902.52440,1.73425
901.03461,1.71562
899.54482,1.77844
898.05503,1.79911
896.56525,1.88917
895.07546,1.84213
893.58567,1.79515
892.09588,1.55078
890.60609,1.46623
889.11630,1.38776
887.62651,1.34251
886.13673,1.28977
884.64694,1.23709
883.15715,1.30655
881.66736,1.21329
880.17757,1.18338
878.68778,1.17463
877.19800,1.16594
875.70821,0.94931
874.21842,0.98293
872.72863,0.87191
871.23884,0.94784
869.74905,0.80528
868.25927,0.66279
866.76948,0.84740
865.27969,0.81804
863.78990,0.73751
862.30011,0.75348
860.81032,0.80267
859.32053,0.85191
857.83075,0.89217
856.34096,0.73956
854.85117,0.68950
853.36138,0.65456
851.87159,0.53679
850.38180,0.41907
848.89202,0.38128
847.40223,0.45508
845.91244,0.45057
844.42265,0.40541
842.93286,0.36032
841.44307,0.25951
839.95329,0.29139
838.46350,0.23289
836.97371,0.32516
835.48392,0.29541
833.99413,0.26572
832.50434,0.37323
831.01455,0.44463
829.52477,0.36537
828.03498,0.23793
826.54519,0.28990
825.05540,0.34192
823.56561,0.31412
822.07582,0.20499
820.58604,0.18333
819.09625,0.22503
817.60646,0.26678
816.11667,0.07950
814.62688,0.10931
813.13709,0.13314
811.64730,0.14799
810.15752,0.07397
808.66773,0.00000
807.17794,0.02359
805.68815,0.02011
804.19836,0.20056
802.70857,0.17608
801.21879,0.15167
799.72900,0.13032
798.23921,0.22960
796.74942,0.12698
795.25963,0.12841
793.76984,0.12989
792.28006,0.19925
790.79027,0.22948
789.30048,0.24771
787.81069,0.21776
786.32090,0.15321
784.83111,0.08871
783.34132,0.15840
781.85154,0.13471
780.36175,0.19848
778.87196,0.24724
777.38217,0.29606
775.89238,0.28464
774.40259,0.22505
772.91281,0.14140
771.42302,0.20702
769.93323,0.27269
768.44344,0.20729
766.95365,0.17812
765.46386,0.30877
763.97407,0.36712
762.48429,0.32757
760.99450,0.28807
759.50471,0.28330
758.01492,0.33584
756.52513,0.33419
755.03534,0.31451
753.54556,0.29488
752.05577,0.07637
750.56598,0.20757
749.07619,0.16399
747.58640,0.16719
746.09661,0.17045
744.60683,0.15718
743.11704,0.11082
741.62725,0.11273
740.13746,0.05743
738.64767,0.00219
737.15788,0.04647
735.66809,0.13904
734.17831,0.21358
732.68852,0.10882
731.19873,0.00411
729.70894,0.04566
728.21915,0.06013
726.72936,0.06562
725.23958,0.11336
723.74979,0.07977
722.26000,0.04623
720.77021,0.18457
719.28042,0.11799
717.79063,0.13285
716.30084,0.12667
714.81106,0.12054
713.32127,0.00896
711.83148,0.03912
710.34169,0.00000
708.85190,0.06679
707.36211,0.13364
705.87233,0.03627
704.38254,0.10775
702.89275,0.17025
701.40296,0.08510
699.91317,0.00000
698.42338,0.06441
696.93360,0.14394
695.44381,0.16324
693.95402,0.13286
692.46423,0.10254
690.97444,0.12201
689.48465,0.15660
687.99486,0.06766
686.50508,0.09785
685.01529,0.12809
683.52550,0.02726
682.03571,0.08625
680.54592,0.08199
679.05613,0.13506
677.56635,0.18819
676.07656,0.27452
674.58677,0.26144
673.09698,0.19718
671.60719,0.19325
670.11740,0.18938
668.62761,0.11925
667.13783,0.23305
665.64804,0.12234
664.15825,0.01168
662.66846,0.14675
661.17867,0.17637
659.68888,0.08547
658.19910,0.11068
656.70931,0.13595
655.21952,0.00000
653.72973,0.23040
652.23994,0.25588
650.75015,0.24223
649.26037,0.22864
647.77058,0.26333
646.28079,0.27697
644.79100,0.13092
643.30121,0.14467
641.81142,0.15849
640.32163,0.07590
638.83185,0.09283
637.34206,0.02844
635.85227,0.11783
634.36248,0.20728
632.87269,0.05865
631.38290,0.17232
629.89312,0.22878
628.40333,0.23405
626.91354,0.23937
625.42375,0.19652
623.93396,0.00000
622.44417,0.10085
620.95438,0.20175
619.46460,0.06156
617.97481,0.08722
616.48502,0.01346
614.99523,0.08688
613.50544,0.16035
612.01565,0.11933
610.52587,0.00000
609.03608,0.20325
607.54629,0.17294
606.05650,0.14270
604.56671,0.06277
603.07692,0.11552
601.58714,0.13819
600.09735,0.16091
598.60756,0.18972
597.11777,0.08897
595.62798,0.12994
594.13819,0.19207
592.64840,0.25426
591.15862,0.00000
589.66883,0.06744
588.17904,0.36102
586.68925,0.34116
585.19946,0.32135
583.70967,0.41615
582.21989,0.39344
580.73010,0.42203
579.24031,0.45068
577.75052,0.41005
576.26073,0.49307
574.77094,0.47666
573.28115,0.43922
571.79137,0.40183
570.30158,0.64181
568.81179,0.67084
567.32200,0.69993
565.83221,0.72908
564.34242,0.64976
562.85264,0.82371
561.36285,0.89522
559.87306,0.89444
558.38327,0.89372
556.89348,0.84483
555.40369,1.08536
553.91391,1.12400
552.42412,1.16268
550.93433,1.03865
549.44454,1.13473
547.95475,1.08918
546.46496,1.07383
544.97517,1.05854
543.48539,1.22717
541.99560,1.26926
540.50581,1.29785
539.01602,1.32648
537.52623,1.12458
536.03644,1.38693
534.54666,1.27256
533.05687,1.23661
531.56708,1.20072
530.07729,1.18296
528.58750,1.14718
527.09771,1.14159
525.60792,1.13607
524.11814,1.01605
522.62835,1.16135
521.13856,1.02034
519.64877,1.04216
518.15898,1.06404
516.66919,0.97444
515.17941,0.97231
513.68962,0.91146
512.19983,0.85067
510.71004,0.89091
509.22025,0.80460
507.73046,0.52544
506.24068,0.57187
504.75089,0.61836
503.26110,0.67094
501.77131,0.75673
500.28152,0.52757
498.79173,0.29848
497.30194,0.33017
495.81216,0.35891
494.32237,0.35153
492.83258,0.34421
491.34279,0.11087
489.85300,0.35384
488.36321,0.22008
486.87343,0.19339
485.38364,0.16675
483.89385,0.00000
482.40406,0.19553
480.91427,0.15901
479.42448,0.12255
477.93469,0.24288
476.44491,0.02868
474.95512,0.06925
473.46533,0.10987
471.97554,0.18823
470.48575,0.04359
468.99596,0.16425
467.50618,0.15385
466.01639,0.14351
464.52660,0.16789
463.03681,0.06572
461.54702,0.12035
460.05723,0.17504
458.56745,0.03686
457.07766,0.15798
455.58787,0.15857
454.09808,0.15922
452.60829,0.12978
451.11850,0.21796
449.62871,0.20672
448.13893,0.19554
446.64914,0.44364
445.15935,0.30596
443.66956,0.43360
442.17977,0.40907
440.68998,0.38460
439.20020,0.43705
437.71041,0.59506
436.22062,0.57678
434.73083,0.55856
433.24104,0.80716
431.75125,0.70314
430.26146,0.76195
428.77168,0.82081
427.28189,0.90083
425.79210,0.99297
424.30231,0.93746
422.81252,0.88200
421.32273,1.00746
419.83295,1.03952
418.34316,1.08371
416.85337,1.12794
415.36358,0.97329
413.87379,0.99654
412.38400,0.91133
410.89422,0.82617
409.40443,0.91289
407.91464,0.90923
406.42485,1.05031
404.93506,0.98497
403.44527,0.91968
401.95548,0.89213
400.46570,1.03344
398.97591,0.88693
397.48612,0.74048
395.99633,0.78549
394.50654,0.94812
393.01675,0.88774
391.52697,0.82742
390.03718,0.85457
388.54739,0.79135
387.05760,0.77792
385.56781,0.76454
384.07802,0.80095
382.58824,0.80426
381.09845,0.73529
379.60866,0.66637
378.11887,0.76028
376.62908,0.61611
375.13929,0.61668
373.64950,0.61731
372.15972,0.34671
370.66993,0.31731
369.18014,0.34976
367.69035,0.38226
366.20056,0.21738
364.71077,0.41729
363.22099,0.35652
361.73120,0.29580
360.24141,0.21252
358.75162,0.21371
357.26183,0.21947
355.77204,0.22529
354.28225,0.21458
352.79247,0.26723
351.30268,0.24910
349.81289,0.23103
348.32310,0.06983
346.83331,0.18242
345.34352,0.15189
343.85374,0.12141
342.36395,0.20704
340.87416,0.02747
339.38437,0.06799
337.89458,0.10857
336.40479,0.24265
334.91501,0.00000
333.42522,0.07254
331.93543,0.14514
330.44564,0.18313
328.95585,0.15184
327.46606,0.17336
325.97627,0.19494
324.48649,0.07038
322.99670,0.16075
321.50691,0.10799
320.01712,0.05529
318.52733,0.14282
317.03754,0.13695
315.54776,0.10702
314.05797,0.07715
312.56818,0.08954
311.07839,0.09897
309.58860,0.15818
308.09881,0.21746
306.60902,0.07634
305.11924,0.25780
303.62945,0.22983
302.13966,0.20191
300.64987,0.00374
299.16008,0.00000
