1778.52000,0.02201
1777.03021,0.01226
1775.54042,0.03787
1774.05063,0.03864
1772.56085,0.04467
1771.07106,0.02062
1769.58127,0.04503
1768.09148,0.02365
1766.60169,0.00623
1765.11190,0.04641
1763.62212,0.03951
1762.13233,0.03133
1760.64254,0.04411
1759.15275,0.00718
1757.66296,0.03964
1756.17317,0.02633
1754.68339,0.03921
1753.19360,0.02202
1751.70381,0.04019
1750.21402,0.03090
1748.72423,0.02819
1747.23444,0.01764
1745.74465,0.01236
1744.25487,0.00841
1742.76508,0.05291
1741.27529,0.02676
1739.78550,0.04776
1738.29571,0.02690
1736.80592,0.04271
1735.31614,0.03630
1733.82635,0.02075
1732.33656,0.00000
1730.84677,0.05910
1729.35698,0.00699
1727.86719,0.04520
1726.37740,0.03763
1724.88762,0.05496
1723.39783,0.06315
1721.90804,0.02426
1720.41825,0.01941
1718.92846,0.03946
1717.43867,0.00718
1715.94889,0.03466
1714.45910,0.06215
1712.96931,0.02817
1711.47952,0.04394
1709.98973,0.05319
1708.49994,0.04284
1707.01016,0.03710
1705.52037,0.03138
1704.03058,0.06560
1702.54079,0.04881
1701.05100,0.00718
1699.56121,0.04785
1698.07142,0.05976
1696.58164,0.06645
1695.09185,0.07841
1693.60206,0.06160
1692.11227,0.07753
1690.62248,0.05685
1689.13269,0.06891
1687.64291,0.08231
1686.15312,0.05778
1684.66333,0.00841
1683.17354,0.04936
1681.68375,0.03930
1680.19396,0.08947
1678.70417,0.07030
1677.21439,0.07079
1675.72460,0.05953
1674.23481,0.08231
1672.74502,0.04885
1671.25523,0.04552
1669.76544,0.06053
1668.27566,0.05594
1666.78587,0.06577
1665.29608,0.03113
1663.80629,0.04625
1662.31650,0.01952
1660.82671,0.10535
1659.33693,0.07343
1657.84714,0.08996
1656.35735,0.05286
1654.86756,0.05504
1653.37777,0.03501
1651.88798,0.06080
1650.39819,0.05259
1648.90841,0.08629
1647.41862,0.03364
1645.92883,0.05495
1644.43904,0.07629
1642.94925,0.06952
1641.45946,0.04839
1639.96968,0.05345
1638.47989,0.04152
1636.99010,0.05841
1635.50031,0.03083
1634.01052,0.05824
1632.52073,0.05820
1631.03094,0.06995
1629.54116,0.06473
1628.05137,0.05036
1626.56158,0.05827
1625.07179,0.09107
1623.58200,0.07548
1622.09221,0.03636
1620.60243,0.06662
1619.11264,0.05633
1617.62285,0.01598
1616.13306,0.05155
1614.64327,0.03219
1613.15348,0.04949
1611.66370,0.06682
1610.17391,0.04099
1608.68412,0.06229
1607.19433,0.02212
1605.70454,0.06049
1604.21475,0.05112
1602.72496,0.04178
1601.23518,0.05536
1599.74539,0.07159
1598.25560,0.04596
1596.76581,0.04261
1595.27602,0.02228
1593.78623,0.03991
1592.29645,0.01832
1590.80666,0.02292
1589.31687,0.02755
1587.82708,0.03221
1586.33729,0.04343
1584.84750,0.05337
1583.35771,0.07512
1581.86793,0.04193
1580.37814,0.08466
1578.88835,0.07769
1577.39856,0.05636
1575.90877,0.05075
1574.41898,0.02292
1572.92920,0.04616
1571.43941,0.06026
1569.94962,0.05737
1568.45983,0.05451
1566.97004,0.00718
1565.48025,0.06790
1563.99047,0.03443
1562.50068,0.08081
1561.01089,0.06963
1559.52110,0.05979
1558.03131,0.07484
1556.54152,0.05328
1555.05173,0.04744
1553.56195,0.05864
1552.07216,0.02799
1550.58237,0.06934
1549.09258,0.04791
1547.60279,0.11155
1546.11300,0.10587
1544.62322,0.13685
1543.13343,0.11421
1541.64364,0.03794
1540.15385,0.02255
1538.66406,0.00718
1537.17427,0.09940
1535.68448,0.06733
1534.19470,0.08369
1532.70491,0.09093
1531.21512,0.06678
1529.72533,0.06360
1528.23554,0.05259
1526.74575,0.04292
1525.25597,0.06337
1523.76618,0.05113
1522.27639,0.04938
1520.78660,0.07253
1519.29681,0.06168
1517.80702,0.04430
1516.31724,0.06622
1514.82745,0.03450
1513.33766,0.02964
1511.84787,0.02481
1510.35808,0.06253
1508.86829,0.07148
1507.37850,0.00718
1505.88872,0.04633
1504.39893,0.06064
1502.90914,0.07236
1501.41935,0.05532
1499.92956,0.06055
1498.43977,0.07627
1496.94999,0.04622
1495.46020,0.08555
1493.97041,0.04900
1492.48062,0.07137
1490.99083,0.08068
1489.50104,0.08740
1488.01125,0.10854
1486.52147,0.12970
1485.03168,0.15220
1483.54189,0.12892
1482.05210,0.15016
1480.56231,0.17143
1479.07252,0.19665
1477.58274,0.24806
1476.09295,0.21314
1474.60316,0.18740
1473.11337,0.20225
1471.62358,0.19096
1470.13379,0.21503
1468.64401,0.23781
1467.15422,0.20304
1465.66443,0.18727
1464.17464,0.17152
1462.68485,0.12636
1461.19506,0.08908
1459.70527,0.13950
1458.21549,0.08002
1456.72570,0.10301
1455.23591,0.11817
1453.74612,0.12027
1452.25633,0.11455
1450.76654,0.05651
1449.27676,0.05084
1447.78697,0.06875
1446.29718,0.05659
1444.80739,0.04183
1443.31760,0.02711
1441.82781,0.07522
1440.33802,0.03960
1438.84824,0.03411
1437.35845,0.04173
1435.86866,0.07555
1434.37887,0.04397
1432.88908,0.03073
1431.39929,0.03976
1429.90951,0.05929
1428.41972,0.06576
1426.92993,0.08796
1425.44014,0.12196
1423.95035,0.10233
1422.46056,0.08273
1420.97078,0.05661
1419.48099,0.10380
1417.99120,0.08428
1416.50141,0.11974
1415.01162,0.08195
1413.52183,0.10830
1412.03204,0.12029
1410.54226,0.11529
1409.05247,0.15481
1407.56268,0.11191
1406.07289,0.11746
1404.58310,0.11714
1403.09331,0.11685
1401.60353,0.10939
1400.11374,0.11373
1398.62395,0.15081
1397.13416,0.13427
1395.64437,0.17009
1394.15458,0.17323
1392.66479,0.16723
1391.17501,0.15733
1389.68522,0.12521
1388.19543,0.11798
1386.70564,0.13237
1385.21585,0.14679
1383.72606,0.15534
1382.23628,0.12073
1380.74649,0.13326
1379.25670,0.10917
1377.76691,0.13746
1376.27712,0.20241
1374.78733,0.20588
1373.29755,0.23817
1371.80776,0.35554
1370.31797,0.35385
1368.82818,0.40192
1367.33839,0.45001
1365.84860,0.54524
1364.35881,0.59992
1362.86903,0.70044
1361.37924,0.73817
1359.88945,0.78900
1358.39966,0.76266
1356.90987,0.63166
1355.42008,0.59228
1353.93030,0.61182
1352.44051,0.59343
1350.95072,0.57507
1349.46093,0.53449
1347.97114,0.40495
1346.48135,0.33433
1344.99156,0.25195
1343.50178,0.14866
1342.01199,0.15401
1340.52220,0.13059
1339.03241,0.13992
1337.54262,0.14535
1336.05283,0.14360
1334.56305,0.14188
1333.07326,0.11075
1331.58347,0.09926
1330.09368,0.08650
1328.60389,0.01618
1327.11410,0.08460
1325.62432,0.05883
1324.13453,0.03700
1322.64474,0.03615
1321.15495,0.04840
1319.66516,0.04498
1318.17537,0.04158
1316.68558,0.04998
1315.19580,0.03748
1313.70601,0.03415
1312.21622,0.03871
1310.72643,0.05769
1309.23664,0.06230
1307.74685,0.06693
1306.25707,0.02186
1304.76728,0.02917
1303.27749,0.03649
1301.78770,0.10143
1300.29791,0.08656
1298.80812,0.04424
1297.31834,0.02943
1295.82855,0.05259
1294.33876,0.05484
1292.84897,0.02832
1291.35918,0.03455
1289.86939,0.04931
1288.37960,0.06409
1286.88982,0.05077
1285.40003,0.06102
1283.91024,0.00718
1282.42045,0.05867
1280.93066,0.02120
1279.44087,0.05965
1277.95109,0.07850
1276.46130,0.04503
1274.97151,0.05150
1273.48172,0.05800
1271.99193,0.03246
1270.50214,0.02658
1269.01235,0.04820
1267.52257,0.07377
1266.03278,0.03918
1264.54299,0.07004
1263.05320,0.07868
1261.56341,0.08669
1260.07362,0.09472
1258.58384,0.09428
1257.09405,0.10171
1255.60426,0.07515
1254.11447,0.08002
1252.62468,0.07183
1251.13489,0.04927
1249.64511,0.04898
1248.15532,0.05657
1246.66553,0.05240
1245.17574,0.04827
1243.68595,0.04547
1242.19616,0.01521
1240.70637,0.03470
1239.21659,0.03460
1237.72680,0.02928
1236.23701,0.04100
1234.74722,0.03181
1233.25743,0.04555
1231.76764,0.05931
1230.27786,0.03318
1228.78807,0.04765
1227.29828,0.00718
1225.80849,0.01379
1224.31870,0.07931
1222.82891,0.04278
1221.33912,0.01806
1219.84934,0.03720
1218.35955,0.05636
1216.86976,0.03303
1215.37997,0.04897
1213.89018,0.03616
1212.40039,0.01420
1210.91061,0.03546
1209.42082,0.05151
1207.93103,0.03618
1206.44124,0.02088
1204.95145,0.03569
1203.46166,0.02437
1201.97188,0.06410
1200.48209,0.00833
1198.99230,0.04812
1197.50251,0.04736
1196.01272,0.02569
1194.52293,0.03873
1193.03314,0.05179
1191.54336,0.03413
1190.05357,0.00602
1188.56378,0.04174
1187.07399,0.08009
1185.58420,0.03996
1184.09441,0.07052
1182.60463,0.04614
1181.11484,0.02179
1179.62505,0.03410
1178.13526,0.00718
1176.64547,0.03076
1175.15568,0.04389
1173.66589,0.04527
1172.17611,0.04275
1170.68632,0.05334
1169.19653,0.06396
1167.70674,0.02619
1166.21695,0.03555
1164.72716,0.05540
1163.23738,0.05958
1161.74759,0.02191
1160.25780,0.07194
1158.76801,0.05264
1157.27822,0.03337
1155.78843,0.07693
1154.29865,0.06687
1152.80886,0.08039
1151.31907,0.07038
1149.82928,0.03815
1148.33949,0.06745
1146.84970,0.07387
1145.35991,0.08032
1143.87013,0.14110
1142.38034,0.12078
1140.89055,0.08740
1139.40076,0.12470
1137.91097,0.06520
1136.42118,0.09078
1134.93140,0.07647
1133.44161,0.06219
1131.95182,0.09309
1130.46203,0.13709
1128.97224,0.15102
1127.48245,0.13881
1125.99266,0.12662
1124.50288,0.13670
1123.01309,0.15466
1121.52330,0.17265
1120.03351,0.15664
1118.54372,0.15374
1117.05393,0.19274
1115.56415,0.24616
1114.07436,0.20409
1112.58457,0.22812
1111.09478,0.25217
1109.60499,0.25074
1108.11520,0.31083
1106.62542,0.35917
1105.13563,0.34865
1103.64584,0.35779
1102.15605,0.38266
1100.66626,0.37091
1099.17647,0.35919
1097.68668,0.44825
1096.19690,0.44181
1094.70711,0.45765
1093.21732,0.51276
1091.72753,0.48285
1090.23774,0.48110
1088.74795,0.47937
1087.25817,0.54506
1085.76838,0.57937
1084.27859,0.54173
1082.78880,0.54338
1081.29901,0.55814
1079.80922,0.56507
1078.31943,0.56483
1076.82965,0.56462
1075.33986,0.57294
1073.85007,0.53286
1072.36028,0.53731
1070.87049,0.49598
1069.38070,0.48215
1067.89092,0.48013
1066.40113,0.47814
1064.91134,0.46439
1063.42155,0.38655
1061.93176,0.29434
1060.44197,0.34610
1058.95219,0.29844
1057.46240,0.29856
1055.97261,0.29871
1054.48282,0.26551
1052.99303,0.26637
1051.50324,0.25024
1050.01345,0.25638
1048.52367,0.24815
1047.03388,0.21051
1045.54409,0.17289
1044.05430,0.20923
1042.56451,0.15007
1041.07472,0.13281
1039.58494,0.13651
1038.09515,0.09837
1036.60536,0.10343
1035.11557,0.10852
1033.62578,0.06130
1032.13599,0.12402
1030.64620,0.11479
1029.15642,0.17364
1027.66663,0.15661
1026.17684,0.13961
1024.68705,0.13703
1023.19726,0.15148
1021.70747,0.16466
1020.21769,0.19880
1018.72790,0.21987
1017.23811,0.22200
1015.74832,0.22416
1014.25853,0.29635
1012.76874,0.42352
1011.27896,0.46567
1009.78917,0.60990
1008.29938,0.66388
1006.80959,0.70545
1005.31980,0.74704
1003.83001,0.86521
1002.34022,0.96639
1000.85044,1.06499
999.36065,1.22118
997.87086,1.29431
996.38107,1.36747
994.89128,1.46093
993.40149,1.58713
991.91171,1.68195
990.42192,1.79120
988.93213,1.91093
987.44234,1.95545
985.95255,2.00000
984.46276,1.91044
982.97297,1.91644
981.48319,1.89628
979.99340,1.89579
978.50361,1.91364
977.01382,1.93151
975.52403,1.86828
974.03424,1.87705
972.54446,1.80209
971.05467,1.77034
969.56488,1.67581
968.07509,1.66178
966.58530,1.64777
965.09551,1.44601
963.60573,1.46412
962.11594,1.50712
960.62615,1.45199
959.13636,1.39755
957.64657,1.34314
956.15678,1.24360
954.66699,1.25532
953.17721,1.10349
951.68742,0.99618
950.19763,1.00929
948.70784,1.02242
947.21805,1.01202
945.72826,0.97417
944.23848,0.89185
942.74869,0.85013
941.25890,0.81497
939.76911,0.83807
938.27932,0.86120
936.78953,0.86014
935.29974,0.85780
933.80996,0.81492
932.32017,0.78908
930.83038,0.77897
929.34059,0.76888
927.85080,0.77975
926.36101,0.81290
924.87123,0.80813
923.38144,0.88974
921.89165,0.86801
920.40186,0.84630
918.91207,0.88873
917.42228,0.86577
915.93250,0.94097
914.44271,1.01620
912.95292,1.02341
911.46313,1.03064
909.97334,1.01827
908.48355,1.01640
906.99376,1.16111
905.50398,1.14097
904.01419,1.14244
902.52440,1.14394
901.03461,1.24557
899.54482,1.27264
898.05503,1.25394
896.56525,1.32424
895.07546,1.30690
893.58567,1.28958
892.09588,1.26312
890.60609,1.25894
889.11630,1.17627
887.62651,1.04652
886.13673,1.07186
884.64694,1.09722
883.15715,1.00157
881.66736,1.00539
880.17757,0.92811
878.68778,0.93657
877.19800,0.94505
875.70821,0.90056
874.21842,0.75010
872.72863,0.75932
871.23884,0.73061
869.74905,0.70847
868.25927,0.68635
866.76948,0.61977
865.27969,0.56630
863.78990,0.60054
862.30011,0.46468
860.81032,0.46036
859.32053,0.45606
857.83075,0.45245
856.34096,0.44363
854.85117,0.35632
853.36138,0.37110
851.87159,0.31983
850.38180,0.26858
848.89202,0.27428
847.40223,0.29571
845.91244,0.22688
844.42265,0.21237
842.93286,0.19789
841.44307,0.23121
839.95329,0.14939
838.46350,0.10554
836.97371,0.12585
835.48392,0.12524
833.99413,0.12465
832.50434,0.12671
831.01455,0.08038
829.52477,0.07726
828.03498,0.06762
826.54519,0.07763
825.05540,0.08767
823.56561,0.07157
822.07582,0.11307
820.58604,0.10486
819.09625,0.12875
817.60646,0.15266
816.11667,0.05293
814.62688,0.07624
813.13709,0.05115
811.64730,0.04442
810.15752,0.05995
808.66773,0.07551
807.17794,0.02828
805.68815,0.07661
804.19836,0.00718
802.70857,0.05118
801.21879,0.09520
799.72900,0.13532
798.23921,0.13359
796.74942,0.16198
795.25963,0.16946
793.76984,0.17697
792.28006,0.15048
790.79027,0.21562
789.30048,0.19572
787.81069,0.25698
786.32090,0.23256
784.83111,0.20816
783.34132,0.24202
781.85154,0.23665
780.36175,0.26010
778.87196,0.28487
777.38217,0.30968
775.89238,0.35283
774.40259,0.30178
772.91281,0.32797
771.42302,0.30446
769.93323,0.28098
768.44344,0.32426
766.95365,0.27988
765.46386,0.29181
763.97407,0.29722
762.48429,0.24900
760.99450,0.20081
759.50471,0.21938
758.01492,0.18825
756.52513,0.20294
755.03534,0.17121
753.54556,0.13950
752.05577,0.04828
750.56598,0.09056
749.07619,0.08183
747.58640,0.07771
746.09661,0.07361
744.60683,0.05318
743.11704,0.03540
741.62725,0.05820
740.13746,0.03524
738.64767,0.01229
737.15788,0.02994
735.66809,0.02799
734.17831,0.01952
732.68852,0.02612
731.19873,0.03275
729.70894,0.05315
728.21915,0.06702
726.72936,0.00765
725.23958,0.00718
723.74979,0.02833
722.26000,0.04950
720.77021,0.05237
719.28042,0.01863
717.79063,0.06474
716.30084,0.05592
714.81106,0.04712
713.32127,0.07760
711.83148,0.04399
710.34169,0.05882
708.85190,0.06779
707.36211,0.07679
705.87233,0.04459
704.38254,0.00718
702.89275,0.07128
701.40296,0.05885
699.91317,0.04645
698.42338,0.08576
696.93360,0.15519
695.44381,0.17362
693.95402,0.19730
692.46423,0.22101
690.97444,0.15838
689.48465,0.09578
687.99486,0.06853
686.50508,0.05767
685.01529,0.04683
683.52550,0.05238
682.03571,0.08150
680.54592,0.03214
679.05613,0.07309
677.56635,0.11407
676.07656,0.07264
674.58677,0.06133
673.09698,0.03827
671.60719,0.06823
670.11740,0.09822
668.62761,0.00718
667.13783,0.05581
665.64804,0.05278
664.15825,0.04977
662.66846,0.08801
661.17867,0.08964
659.68888,0.11746
658.19910,0.08576
656.70931,0.05410
655.21952,0.04666
653.72973,0.05758
652.23994,0.09469
650.75015,0.08733
649.26037,0.08000
647.77058,0.10672
646.28079,0.10860
644.79100,0.08827
643.30121,0.09544
641.81142,0.10263
640.32163,0.06405
638.83185,0.05559
637.34206,0.10343
635.85227,0.10288
634.36248,0.10235
632.87269,0.07175
631.38290,0.03856
629.89312,0.03025
628.40333,0.01871
626.91354,0.00718
625.42375,0.04981
623.93396,0.04143
622.44417,0.04028
620.95438,0.03914
619.46460,0.10281
617.97481,0.04219
616.48502,0.07713
614.99523,0.05712
613.50544,0.03715
612.01565,0.05776
610.52587,0.03915
609.03608,0.06636
607.54629,0.08050
606.05650,0.09468
604.56671,0.08664
603.07692,0.17807
601.58714,0.15895
600.09735,0.13987
598.60756,0.08743
597.11777,0.03110
595.62798,0.06116
594.13819,0.07750
592.64840,0.09387
591.15862,0.12794
589.66883,0.11230
588.17904,0.12155
586.68925,0.15700
585.19946,0.19247
583.70967,0.17825
582.21989,0.26350
580.73010,0.22904
579.24031,0.19461
577.75052,0.30873
576.26073,0.35875
574.77094,0.30281
573.28115,0.32148
571.79137,0.34017
570.30158,0.34973
568.81179,0.44438
567.32200,0.47493
565.83221,0.50550
564.34242,0.46414
562.85264,0.57197
561.36285,0.64581
559.87306,0.66667
558.38327,0.68756
556.89348,0.71829
555.40369,0.77915
553.91391,0.79946
552.42412,0.81980
550.93433,0.85587
549.44454,0.86579
547.95475,0.87312
546.46496,0.84646
544.97517,0.81982
543.48539,0.92013
541.99560,0.90271
540.50581,0.91082
539.01602,0.91896
537.52623,0.95526
536.03644,0.93009
534.54666,0.94812
533.05687,0.89355
531.56708,0.83901
530.07729,0.76421
528.58750,0.77057
527.09771,0.76125
525.60792,0.75196
524.11814,0.68249
522.62835,0.62353
521.13856,0.67581
519.64877,0.65158
518.15898,0.62736
516.66919,0.54495
515.17941,0.50181
513.68962,0.47637
512.19983,0.45095
510.71004,0.43406
509.22025,0.44207
507.73046,0.34933
506.24068,0.30766
504.75089,0.26602
503.26110,0.31076
501.77131,0.33722
500.28152,0.28452
498.79173,0.23186
497.30194,0.23614
495.81216,0.17371
494.32237,0.20880
492.83258,0.24391
491.34279,0.12660
489.85300,0.13233
488.36321,0.18387
486.87343,0.15039
485.38364,0.11693
483.89385,0.09920
482.40406,0.06449
480.91427,0.06513
479.42448,0.06580
477.93469,0.08481
476.44491,0.09731
474.95512,0.08955
473.46533,0.08181
471.97554,0.05644
470.48575,0.10698
468.99596,0.04633
467.50618,0.09104
466.01639,0.13578
464.52660,0.12493
463.03681,0.06045
461.54702,0.07321
460.05723,0.08599
458.56745,0.10141
457.07766,0.18883
455.58787,0.17945
454.09808,0.17008
452.60829,0.18692
451.11850,0.16452
449.62871,0.19123
448.13893,0.21795
446.64914,0.21919
445.15935,0.39318
443.66956,0.36306
442.17977,0.38139
440.68998,0.39974
439.20020,0.42335
437.71041,0.49541
436.22062,0.50795
434.73083,0.52051
433.24104,0.60966
431.75125,0.62424
430.26146,0.67025
428.77168,0.71629
427.28189,0.73749
425.79210,0.81367
424.30231,0.91933
422.81252,1.02501
421.32273,1.12614
419.83295,1.22336
418.34316,1.12564
416.85337,1.02794
415.36358,0.87531
413.87379,0.80906
412.38400,0.80173
410.89422,0.79443
409.40443,0.91801
407.91464,0.90814
406.42485,0.89699
404.93506,0.90614
403.44527,0.91533
401.95548,0.84275
400.46570,0.93246
398.97591,0.89461
397.48612,0.85679
395.99633,0.84974
394.50654,0.83749
393.01675,0.80105
391.52697,0.76464
390.03718,0.76424
388.54739,0.69974
387.05760,0.71117
385.56781,0.72263
384.07802,0.65559
382.58824,0.65271
381.09845,0.60993
379.60866,0.56718
378.11887,0.45707
376.62908,0.48700
375.13929,0.43582
373.64950,0.38467
372.15972,0.33355
370.66993,0.32825
369.18014,0.29092
367.69035,0.25361
366.20056,0.24447
364.71077,0.23534
363.22099,0.23148
361.73120,0.22765
360.24141,0.11654
358.75162,0.10752
357.26183,0.10245
355.77204,0.09741
354.28225,0.05052
352.79247,0.10704
351.30268,0.11843
349.81289,0.12986
348.32310,0.10270
346.83331,0.08473
345.34352,0.05435
343.85374,0.02400
342.36395,0.06761
340.87416,0.08900
339.38437,0.09733
337.89458,0.10569
336.40479,0.06827
334.91501,0.05966
333.42522,0.03996
331.93543,0.02029
330.44564,0.02615
328.95585,0.00718
327.46606,0.02045
325.97627,0.03374
324.48649,0.03070
322.99670,0.01329
321.50691,0.04478
320.01712,0.07629
318.52733,0.09474
317.03754,0.07789
315.54776,0.06433
314.05797,0.05080
312.56818,0.03795
311.07839,0.00680
309.58860,0.00676
308.09881,0.00674
306.60902,0.05648
305.11924,0.01726
303.62945,0.02321
302.13966,0.02918
300.64987,0.01359
299.16008,0.00718
