1778.52000,0.04128
1777.03021,0.01723
1775.54042,0.08738
1774.05063,0.07128
1772.56085,0.06308
1771.07106,0.00000
1769.58127,0.00759
1768.09148,0.01916
1766.60169,0.07786
1765.11190,0.03067
1763.62212,0.01101
1762.13233,0.08163
1760.64254,0.03460
1759.15275,0.17202
1757.66296,0.14471
1756.17317,0.00368
1754.68339,0.19226
1753.19360,0.13764
1751.70381,0.15762
1750.21402,0.14233
1748.72423,0.10356
1747.23444,0.06877
1745.74465,0.09680
1744.25487,0.08172
1742.76508,0.00000
1741.27529,0.08804
1739.78550,0.10159
1738.29571,0.16619
1736.80592,0.22300
1735.31614,0.16608
1733.82635,0.13275
1732.33656,0.10733
1730.84677,0.07018
1729.35698,0.07232
1727.86719,0.08235
1726.37740,0.08067
1724.88762,0.07511
1723.39783,0.07353
1721.90804,0.14262
1720.41825,0.13722
1718.92846,0.00241
1717.43867,0.06772
1715.94889,0.21548
1714.45910,0.09651
1712.96931,0.09529
1711.47952,0.00388
1709.98973,0.17147
1708.49994,0.04093
1707.01016,0.09288
1705.52037,0.14487
1704.03058,0.16750
1702.54079,0.08817
1701.05100,0.12659
1699.56121,0.13760
1698.07142,0.12512
1696.58164,0.07738
1695.09185,0.11209
1693.60206,0.07230
1692.11227,0.09533
1690.62248,0.09488
1689.13269,0.16902
1687.64291,0.11374
1686.15312,0.12521
1684.66333,0.15635
1683.17354,0.10123
1681.68375,0.08931
1680.19396,0.08922
1678.70417,0.17156
1677.21439,0.06564
1675.72460,0.12455
1674.23481,0.15997
1672.74502,0.08559
1671.25523,0.03088
1669.76544,0.12138
1668.27566,0.09031
1666.78587,0.19268
1665.29608,0.20094
1663.80629,0.13079
1662.31650,0.08423
1660.82671,0.00242
1659.33693,0.07366
1657.84714,0.05472
1656.35735,0.06721
1654.86756,0.15038
1653.37777,0.06489
1651.88798,0.15601
1650.39819,0.08240
1648.90841,0.08730
1647.41862,0.02948
1645.92883,0.06784
1644.43904,0.10625
1642.94925,0.10743
1641.45946,0.18714
1639.96968,0.00011
1638.47989,0.11915
1636.99010,0.06954
1635.50031,0.09059
1634.01052,0.07247
1632.52073,0.09364
1631.03094,0.07562
1629.54116,0.19104
1628.05137,0.15351
1626.56158,0.16703
1625.07179,0.14921
1623.58200,0.12360
1622.09221,0.02350
1620.60243,0.02546
1619.11264,0.00000
1617.62285,0.03162
1616.13306,0.07114
1614.64327,0.06363
1613.15348,0.17779
1611.66370,0.16646
1610.17391,0.09241
1608.68412,0.10080
1607.19433,0.07393
1605.70454,0.18835
1604.21475,0.20866
1602.72496,0.22903
1601.23518,0.12390
1599.74539,0.08944
1598.25560,0.09819
1596.76581,0.26392
1595.27602,0.22176
1593.78623,0.17966
1592.29645,0.15723
1590.80666,0.04461
1589.31687,0.08898
1587.82708,0.00000
1586.33729,0.12721
1584.84750,0.10538
1583.35771,0.19346
1581.86793,0.10896
1580.37814,0.18537
1578.88835,0.05390
1577.39856,0.14218
1575.90877,0.09320
1574.41898,0.12274
1572.92920,0.10916
1571.43941,0.07211
1569.94962,0.07826
1568.45983,0.08446
1566.97004,0.05540
1565.48025,0.08132
1563.99047,0.00529
1562.50068,0.22747
1561.01089,0.17900
1559.52110,0.09135
1558.03131,0.04691
1556.54152,0.12806
1555.05173,0.07195
1553.56195,0.07082
1552.07216,0.10897
1550.58237,0.11971
1549.09258,0.17365
1547.60279,0.35712
1546.11300,0.73287
1544.62322,0.55943
1543.13343,0.36249
1541.64364,0.32253
1540.15385,0.24143
1538.66406,0.16039
1537.17427,0.23436
1535.68448,0.07298
1534.19470,0.07252
1532.70491,0.06033
1531.21512,0.00112
1529.72533,0.13812
1528.23554,0.18886
1526.74575,0.16119
1525.25597,0.18849
1523.76618,0.19623
1522.27639,0.05886
1520.78660,0.00000
1519.29681,0.05960
1517.80702,0.18202
1516.31724,0.10440
1514.82745,0.19947
1513.33766,0.11999
1511.84787,0.04057
1510.35808,0.05339
1508.86829,0.11335
1507.37850,0.15767
1505.88872,0.07256
1504.39893,0.11306
1502.90914,0.05160
1501.41935,0.10004
1499.92956,0.13676
1498.43977,0.09507
1496.94999,0.10836
1495.46020,0.12170
1493.97041,0.15078
1492.48062,0.05829
1490.99083,0.11494
1489.50104,0.12456
1488.01125,0.15189
1486.52147,0.17927
1485.03168,0.15373
1483.54189,0.21456
1482.05210,0.10281
1480.56231,0.24613
1479.07252,0.24042
1477.58274,0.15629
1476.09295,0.16245
1474.60316,0.25105
1473.11337,0.27300
1471.62358,0.19692
1470.13379,0.30137
1468.64401,0.26855
1467.15422,0.20832
1465.66443,0.20307
1464.17464,0.19786
1462.68485,0.22018
1461.19506,0.31316
1459.70527,0.20218
1458.21549,0.14226
1456.72570,0.00000
1455.23591,0.04787
1453.74612,0.18996
1452.25633,0.12416
1450.76654,0.10941
1449.27676,0.15357
1447.78697,0.11146
1446.29718,0.08510
1444.80739,0.08625
1443.31760,0.08746
1441.82781,0.15149
1440.33802,0.09002
1438.84824,0.12669
1437.35845,0.15948
1435.86866,0.13740
1434.37887,0.18207
1432.88908,0.08555
1431.39929,0.04009
1429.90951,0.08491
1428.41972,0.16509
1426.92993,0.07662
1425.44014,0.08236
1423.95035,0.07835
1422.46056,0.07439
1420.97078,0.05675
1419.48099,0.13723
1417.99120,0.22562
1416.50141,0.06689
1415.01162,0.10438
1413.52183,0.13407
1412.03204,0.09320
1410.54226,0.01314
1409.05247,0.07830
1407.56268,0.16312
1406.07289,0.21268
1404.58310,0.25249
1403.09331,0.29235
1401.60353,0.20868
1400.11374,0.17213
1398.62395,0.12387
1397.13416,0.29929
1395.64437,0.15697
1394.15458,0.15202
1392.66479,0.24128
1391.17501,0.15404
1389.68522,0.19633
1388.19543,0.19550
1386.70564,0.12215
1385.21585,0.04885
1383.72606,0.26004
1382.23628,0.14565
1380.74649,0.24316
1379.25670,0.24657
1377.76691,0.22256
1376.27712,0.14761
1374.78733,0.28064
1373.29755,0.30779
1371.80776,0.35069
1370.31797,0.44856
1368.82818,0.47783
1367.33839,0.50715
1365.84860,0.59733
1364.35881,0.68364
1362.86903,0.81708
1361.37924,0.84856
1359.88945,0.82125
1358.39966,0.68414
1356.90987,0.72755
1355.42008,0.74355
1353.93030,1.01461
1352.44051,1.07975
1350.95072,1.14494
1349.46093,0.97675
1347.97114,0.72622
1346.48135,0.44044
1344.99156,0.20963
1343.50178,0.27311
1342.01199,0.23465
1340.52220,0.25508
1339.03241,0.12256
1337.54262,0.30002
1336.05283,0.17349
1334.56305,0.04700
1333.07326,0.19716
1331.58347,0.24144
1330.09368,0.06215
1328.60389,0.12222
1327.11410,0.13920
1325.62432,0.07775
1324.13453,0.15368
1322.64474,0.08449
1321.15495,0.15659
1319.66516,0.11693
1318.17537,0.07732
1316.68558,0.07111
1315.19580,0.03749
1313.70601,0.00000
1312.21622,0.10488
1310.72643,0.09212
1309.23664,0.11864
1307.74685,0.04321
1306.25707,0.10514
1304.76728,0.11024
1303.27749,0.11539
1301.78770,0.04801
1300.29791,0.14545
1298.80812,0.05856
1297.31834,0.14434
1295.82855,0.15563
1294.33876,0.06496
1292.84897,0.08420
1291.35918,0.07210
1289.86939,0.07379
1288.37960,0.07553
1286.88982,0.00081
1285.40003,0.10270
1283.91024,0.08693
1282.42045,0.13792
1280.93066,0.00848
1279.44087,0.14195
1277.95109,0.14601
1276.46130,0.13443
1274.97151,0.07974
1273.48172,0.02510
1271.99193,0.10783
1270.50214,0.08861
1269.01235,0.04589
1267.52257,0.12485
1266.03278,0.17247
1264.54299,0.13384
1263.05320,0.15802
1261.56341,0.12930
1260.07362,0.10062
1258.58384,0.06219
1257.09405,0.18466
1255.60426,0.16203
1254.11447,0.02959
1252.62468,0.10121
1251.13489,0.09442
1249.64511,0.07592
1248.15532,0.03784
1246.66553,0.06848
1245.17574,0.09917
1243.68595,0.02986
1242.19616,0.06653
1240.70637,0.10326
1239.21659,0.03018
1237.72680,0.08663
1236.23701,0.09212
1234.74722,0.04666
1233.25743,0.05029
1231.76764,0.05398
1230.27786,0.22053
1228.78807,0.11251
1227.29828,0.07123
1225.80849,0.16339
1224.31870,0.07906
1222.82891,0.04970
1221.33912,0.11063
1219.84934,0.09119
1218.35955,0.07179
1216.86976,0.08580
1215.37997,0.11947
1213.89018,0.10612
1212.40039,0.12028
1210.91061,0.15410
1209.42082,0.15660
1207.93103,0.10225
1206.44124,0.04796
1204.95145,0.09376
1203.46166,0.02584
1201.97188,0.13059
1200.48209,0.00000
1198.99230,0.03431
1197.50251,0.05689
1196.01272,0.09915
1194.52293,0.07084
1193.03314,0.04258
1191.54336,0.12030
1190.05357,0.12352
1188.56378,0.15427
1187.07399,0.04775
1185.58420,0.06290
1184.09441,0.06633
1182.60463,0.05608
1181.11484,0.04589
1179.62505,0.09263
1178.13526,0.16689
1176.64547,0.13919
1175.15568,0.08016
1173.66589,0.04079
1172.17611,0.23688
1170.68632,0.14465
1169.19653,0.05248
1167.70674,0.06432
1166.21695,0.08014
1164.72716,0.05677
1163.23738,0.08446
1161.74759,0.01805
1160.25780,0.08899
1158.76801,0.09526
1157.27822,0.10158
1155.78843,0.03537
1154.29865,0.03198
1152.80886,0.11888
1151.31907,0.06851
1149.82928,0.07312
1148.33949,0.10525
1146.84970,0.10996
1145.35991,0.11473
1143.87013,0.11955
1142.38034,0.15580
1140.89055,0.03517
1139.40076,0.13038
1137.91097,0.16286
1136.42118,0.15617
1134.93140,0.15541
1133.44161,0.15470
1131.95182,0.06969
1130.46203,0.14951
1128.97224,0.10383
1127.48245,0.11314
1125.99266,0.05187
1124.50288,0.10051
1123.01309,0.13547
1121.52330,0.17048
1120.03351,0.17219
1118.54372,0.04842
1117.05393,0.16401
1115.56415,0.25611
1114.07436,0.09325
1112.58457,0.18545
1111.09478,0.27771
1109.60499,0.15816
1108.11520,0.25444
1106.62542,0.23700
1105.13563,0.29023
1103.64584,0.24935
1102.15605,0.39292
1100.66626,0.33645
1099.17647,0.28003
1097.68668,0.45121
1096.19690,0.37528
1094.70711,0.29940
1093.21732,0.29811
1091.72753,0.49696
1090.23774,0.41143
1088.74795,0.32594
1087.25817,0.40725
1085.76838,0.37876
1084.27859,0.53471
1082.78880,0.41608
1081.29901,0.53682
1079.80922,0.61839
1078.31943,0.55288
1076.82965,0.48742
1075.33986,0.34159
1073.85007,0.44690
1072.36028,0.53264
1070.87049,0.40657
1069.38070,0.48065
1067.89092,0.47631
1066.40113,0.47202
1064.91134,0.29516
1063.42155,0.39690
1061.93176,0.22407
1060.44197,0.34553
1058.95219,0.32580
1057.46240,0.35909
1055.97261,0.39244
1054.48282,0.23555
1052.99303,0.30626
1051.50324,0.11025
1050.01345,0.29484
1048.52367,0.22447
1047.03388,0.26204
1045.54409,0.29967
1044.05430,0.17453
1042.56451,0.14360
1041.07472,0.08918
1039.58494,0.01519
1038.09515,0.09427
1036.60536,0.06550
1035.11557,0.03679
1033.62578,0.06109
1032.13599,0.05014
1030.64620,0.00000
1029.15642,0.24408
1027.66663,0.21555
1026.17684,0.18706
1024.68705,0.17628
1023.19726,0.15379
1021.70747,0.13134
1020.21769,0.20703
1018.72790,0.16115
1017.23811,0.21928
1015.74832,0.27747
1014.25853,0.29451
1012.76874,0.34691
1011.27896,0.40721
1009.78917,0.31064
1008.29938,0.52797
1006.80959,0.57470
1005.31980,0.62147
1003.83001,0.54864
1002.34022,0.71910
1000.85044,0.77976
999.36065,0.89932
997.87086,0.98362
996.38107,1.06798
994.89128,1.03861
993.40149,1.20545
991.91171,1.40373
990.42192,1.53930
988.93213,1.40420
987.44234,1.45552
985.95255,1.50688
984.46276,1.30525
982.97297,1.42929
981.48319,1.40823
979.99340,1.21852
978.50361,1.16029
977.01382,1.10211
975.52403,1.25388
974.03424,1.27231
972.54446,1.08678
971.05467,1.19162
969.56488,1.07681
968.07509,1.04247
966.58530,1.00820
965.09551,0.99554
963.60573,1.01825
962.11594,0.99786
960.62615,0.97751
959.13636,0.91014
957.64657,0.84282
956.15678,0.82655
954.66699,0.73972
953.17721,0.62155
951.68742,0.60151
950.19763,0.67176
948.70784,0.74206
947.21805,0.61233
945.72826,0.53365
944.23848,0.60802
942.74869,0.43529
941.25890,0.46661
939.76911,0.44502
938.27932,0.42349
936.78953,0.52951
935.29974,0.49826
933.80996,0.49061
932.32017,0.54186
930.83038,0.44604
929.34059,0.35027
927.85080,0.55860
926.36101,0.42173
924.87123,0.46539
923.38144,0.49341
921.89165,0.45086
920.40186,0.40836
918.91207,0.53068
917.42228,0.40198
915.93250,0.61072
914.44271,0.58412
912.95292,0.61445
911.46313,0.64484
909.97334,0.77532
908.48355,0.62731
906.99376,0.75789
905.50398,0.71590
904.01419,0.77989
902.52440,0.84394
901.03461,0.87664
899.54482,0.84271
898.05503,0.88729
896.56525,0.82207
895.07546,0.84125
893.58567,0.86049
892.09588,0.73657
890.60609,0.82064
889.11630,0.71644
887.62651,0.69861
886.13673,0.76321
884.64694,0.82787
883.15715,0.73565
881.66736,0.70626
880.17757,0.71222
878.68778,0.71823
877.19800,0.72430
875.70821,0.59702
874.21842,0.61104
872.72863,0.59764
871.23884,0.52152
869.74905,0.52588
868.25927,0.53029
866.76948,0.51710
865.27969,0.40980
863.78990,0.33786
862.30011,0.32875
860.81032,0.33537
859.32053,0.34205
857.83075,0.40371
856.34096,0.40265
854.85117,0.35848
853.36138,0.36929
851.87159,0.34288
850.38180,0.31652
848.89202,0.28040
847.40223,0.18549
845.91244,0.25148
844.42265,0.20374
842.93286,0.15606
841.44307,0.13197
839.95329,0.10793
838.46350,0.11141
836.97371,0.07178
835.48392,0.04789
833.99413,0.02405
832.50434,0.12974
831.01455,0.01970
829.52477,0.17256
828.03498,0.04300
826.54519,0.08416
825.05540,0.12536
823.56561,0.15289
822.07582,0.00000
820.58604,0.08320
819.09625,0.06641
817.60646,0.04967
816.11667,0.12126
814.62688,0.27136
813.13709,0.06450
811.64730,0.09701
810.15752,0.09622
808.66773,0.09548
807.17794,0.08106
805.68815,0.00000
804.19836,0.10138
802.70857,0.14396
801.21879,0.18659
799.72900,0.05272
798.23921,0.21315
796.74942,0.16962
795.25963,0.18107
793.76984,0.19257
792.28006,0.16489
790.79027,0.20004
789.30048,0.24308
787.81069,0.28224
786.32090,0.26065
784.83111,0.23911
783.34132,0.16859
781.85154,0.24719
780.36175,0.25915
778.87196,0.25351
777.38217,0.24792
775.89238,0.31104
774.40259,0.27221
772.91281,0.24911
771.42302,0.26923
769.93323,0.28940
768.44344,0.30569
766.95365,0.27888
765.46386,0.36982
763.97407,0.17049
762.48429,0.19288
760.99450,0.21531
759.50471,0.37708
758.01492,0.22111
756.52513,0.17896
755.03534,0.16433
753.54556,0.14976
752.05577,0.13131
750.56598,0.16783
749.07619,0.09848
747.58640,0.12923
746.09661,0.16002
744.60683,0.10259
743.11704,0.08053
741.62725,0.06244
740.13746,0.04440
738.64767,0.02641
737.15788,0.05947
735.66809,0.05728
734.17831,0.08652
732.68852,0.08639
731.19873,0.08631
729.70894,0.09610
728.21915,0.00000
726.72936,0.03286
725.23958,0.05400
723.74979,0.07911
722.26000,0.10428
720.77021,0.11380
719.28042,0.09591
717.79063,0.05846
716.30084,0.12306
714.81106,0.18772
713.32127,0.14257
711.83148,0.06609
710.34169,0.07990
708.85190,0.08983
707.36211,0.09982
705.87233,0.00000
704.38254,0.05613
702.89275,0.07308
701.40296,0.06654
699.91317,0.06005
698.42338,0.17132
696.93360,0.50233
695.44381,0.56270
693.95402,0.61330
692.46423,0.66396
690.97444,0.22622
689.48465,0.07100
687.99486,0.02569
686.50508,0.03536
685.01529,0.04508
683.52550,0.10193
682.03571,0.03721
680.54592,0.00000
679.05613,0.04393
677.56635,0.08790
676.07656,0.12801
674.58677,0.03870
673.09698,0.05537
671.60719,0.09563
670.11740,0.13594
668.62761,0.05076
667.13783,0.12648
665.64804,0.06886
664.15825,0.01130
662.66846,0.01655
661.17867,0.05717
659.68888,0.03507
658.19910,0.05421
656.70931,0.07341
655.21952,0.08284
653.72973,0.06487
652.23994,0.15287
650.75015,0.16835
649.26037,0.18388
647.77058,0.27596
646.28079,0.31709
644.79100,0.34258
643.30121,0.34262
641.81142,0.34271
640.32163,0.17611
638.83185,0.10372
637.34206,0.00000
635.85227,0.01770
634.36248,0.03545
632.87269,0.13563
631.38290,0.14171
629.89312,0.11253
628.40333,0.13637
626.91354,0.16026
625.42375,0.09200
623.93396,0.20035
622.44417,0.22046
620.95438,0.24063
619.46460,0.19220
617.97481,0.21051
616.48502,0.04840
614.99523,0.07662
613.50544,0.10490
612.01565,0.20188
610.52587,0.17337
609.03608,0.15668
607.54629,0.17927
606.05650,0.20191
604.56671,0.28346
603.07692,0.20420
601.58714,0.19954
600.09735,0.19492
598.60756,0.11974
597.11777,0.00146
595.62798,0.03623
594.13819,0.01809
592.64840,0.00000
591.15862,0.05302
589.66883,0.23164
588.17904,0.13960
586.68925,0.15943
585.19946,0.17931
583.70967,0.35421
582.21989,0.22706
580.73010,0.30006
579.24031,0.37311
577.75052,0.21866
576.26073,0.28004
574.77094,0.35324
573.28115,0.40687
571.79137,0.46056
570.30158,0.39268
568.81179,0.37585
567.32200,0.41400
565.83221,0.45220
564.34242,0.49045
562.85264,0.50521
561.36285,0.49648
559.87306,0.55647
558.38327,0.61650
556.89348,0.69816
555.40369,0.57194
553.91391,0.58897
552.42412,0.60605
550.93433,0.71539
549.44454,0.77376
547.95475,0.53010
546.46496,0.55328
544.97517,0.57650
543.48539,0.70963
541.99560,0.81927
540.50581,0.78772
539.01602,0.75622
537.52623,0.87778
536.03644,0.95231
534.54666,0.89743
533.05687,0.77787
531.56708,0.65835
530.07729,0.57616
528.58750,0.53718
527.09771,0.55709
525.60792,0.57706
524.11814,0.45191
522.62835,0.47590
521.13856,0.48818
519.64877,0.40242
518.15898,0.31672
516.66919,0.30168
515.17941,0.26708
513.68962,0.24038
512.19983,0.21373
510.71004,0.34798
509.22025,0.41167
507.73046,0.29101
506.24068,0.25084
504.75089,0.21071
503.26110,0.26283
501.77131,0.22084
500.28152,0.18872
498.79173,0.15664
497.30194,0.17758
495.81216,0.09657
494.32237,0.13331
492.83258,0.17009
491.34279,0.08531
489.85300,0.21244
488.36321,0.17091
486.87343,0.14317
485.38364,0.11548
483.89385,0.19573
482.40406,0.18187
480.91427,0.12295
479.42448,0.06408
477.93469,0.11315
476.44491,0.15442
474.95512,0.19379
473.46533,0.23320
471.97554,0.00000
470.48575,0.07880
468.99596,0.16550
467.50618,0.16398
466.01639,0.16251
464.52660,0.07674
463.03681,0.03025
461.54702,0.08386
460.05723,0.13752
458.56745,0.09904
457.07766,0.23715
455.58787,0.18896
454.09808,0.14082
452.60829,0.13393
451.11850,0.13885
449.62871,0.14383
448.13893,0.14886
446.64914,0.22848
445.15935,0.22184
443.66956,0.28980
442.17977,0.27149
440.68998,0.25324
439.20020,0.42727
437.71041,0.44051
436.22062,0.44202
434.73083,0.44359
433.24104,0.63353
431.75125,0.47042
430.26146,0.49176
428.77168,0.51314
427.28189,0.71113
425.79210,0.80324
424.30231,1.07783
422.81252,1.35248
421.32273,1.90768
419.83295,2.00000
418.34316,1.85305
416.85337,1.70614
415.36358,0.91588
413.87379,0.57292
412.38400,0.61056
410.89422,0.64826
409.40443,0.85078
407.91464,0.83758
406.42485,1.02844
404.93506,0.92706
403.44527,0.82574
401.95548,0.65973
400.46570,0.55263
398.97591,0.57112
397.48612,0.58966
395.99633,0.73379
394.50654,0.45035
393.01675,0.45531
391.52697,0.46033
390.03718,0.51051
388.54739,0.40381
387.05760,0.55218
385.56781,0.70060
384.07802,0.56660
382.58824,0.44834
381.09845,0.48313
379.60866,0.51798
378.11887,0.39988
376.62908,0.29359
375.13929,0.35802
373.64950,0.42250
372.15972,0.37914
370.66993,0.29660
369.18014,0.20626
367.69035,0.11598
366.20056,0.25721
364.71077,0.23765
363.22099,0.23579
361.73120,0.23399
360.24141,0.14004
358.75162,0.14029
357.26183,0.12491
355.77204,0.10958
354.28225,0.10214
352.79247,0.16537
351.30268,0.15216
349.81289,0.13899
348.32310,0.10037
346.83331,0.17951
345.34352,0.08999
343.85374,0.00053
342.36395,0.14805
340.87416,0.08377
339.38437,0.17255
337.89458,0.26138
336.40479,0.27965
334.91501,0.16064
333.42522,0.10251
331.93543,0.04442
330.44564,0.02365
328.95585,0.03825
327.46606,0.04309
325.97627,0.04798
324.48649,0.04311
322.99670,0.05106
321.50691,0.10615
320.01712,0.16128
318.52733,0.11446
317.03754,0.16969
315.54776,0.14259
314.05797,0.11554
312.56818,0.02577
311.07839,0.05374
309.58860,0.02685
308.09881,0.00000
306.60902,0.01360
305.11924,0.03903
303.62945,0.04881
302.13966,0.05864
300.64987,0.01753
299.16008,0.00000
