1778.52000,0.04101
1777.03021,0.09297
1775.54042,0.09573
1774.05063,0.12752
1772.56085,0.00291
1771.07106,0.06668
1769.58127,0.02910
1768.09148,0.05532
1766.60169,0.03814
1765.11190,0.07896
1763.62212,0.05030
1762.13233,0.11730
1760.64254,0.05399
1759.15275,0.12980
1757.66296,0.09557
1756.17317,0.03243
1754.68339,0.08813
1753.19360,0.07435
1751.70381,0.06353
1750.21402,0.05565
1748.72423,0.06233
1747.23444,0.02560
1745.74465,0.09612
1744.25487,0.06819
1742.76508,0.11855
1741.27529,0.09943
1739.78550,0.12092
1738.29571,0.06715
1736.80592,0.05109
1735.31614,0.09014
1733.82635,0.09158
1732.33656,0.03803
1730.84677,0.10333
1729.35698,0.12522
1727.86719,0.13558
1726.37740,0.05907
1724.88762,0.00291
1723.39783,0.13199
1721.90804,0.04672
1720.41825,0.11217
1718.92846,0.05599
1717.43867,0.17081
1715.94889,0.10895
1714.45910,0.06743
1712.96931,0.10419
1711.47952,0.06278
1709.98973,0.09965
1708.49994,0.14817
1707.01016,0.13155
1705.52037,0.11500
1704.03058,0.16368
1702.54079,0.12261
1701.05100,0.10477
1699.56121,0.07830
1698.07142,0.09245
1696.58164,0.17039
1695.09185,0.08904
1693.60206,0.15550
1692.11227,0.07137
1690.62248,0.20169
1689.13269,0.17561
1687.64291,0.19884
1686.15312,0.17867
1684.66333,0.20201
1683.17354,0.24570
1681.68375,0.16196
1680.19396,0.17678
1678.70417,0.25540
1677.21439,0.33407
1675.72460,0.22448
1674.23481,0.32065
1672.74502,0.31258
1671.25523,0.21185
1669.76544,0.41539
1668.27566,0.45964
1666.78587,0.49235
1665.29608,0.47007
1663.80629,0.50000
1662.31650,0.54158
1660.82671,0.51947
1659.33693,0.51190
1657.84714,0.49860
1656.35735,0.43899
1654.86756,0.43159
1653.37777,0.41556
1651.88798,0.32715
1650.39819,0.34310
1648.90841,0.46341
1647.41862,0.32882
1645.92883,0.28699
1644.43904,0.24522
1642.94925,0.29043
1641.45946,0.20531
1639.96968,0.21006
1638.47989,0.24385
1636.99010,0.12124
1635.50031,0.24495
1634.01052,0.22096
1632.52073,0.20282
1631.03094,0.11810
1629.54116,0.25073
1628.05137,0.12845
1626.56158,0.17428
1625.07179,0.20568
1623.58200,0.25161
1622.09221,0.25705
1620.60243,0.23356
1619.11264,0.14350
1617.62285,0.14620
1616.13306,0.19822
1614.64327,0.12570
1613.15348,0.17494
1611.66370,0.29666
1610.17391,0.16057
1608.68412,0.13754
1607.19433,0.23915
1605.70454,0.12931
1604.21475,0.11513
1602.72496,0.10102
1601.23518,0.12173
1599.74539,0.10773
1598.25560,0.10537
1596.76581,0.11466
1595.27602,0.09213
1593.78623,0.08705
1592.29645,0.13127
1590.80666,0.18135
1589.31687,0.12139
1587.82708,0.04120
1586.33729,0.10013
1584.84750,0.04324
1583.35771,0.16023
1581.86793,0.10635
1580.37814,0.09887
1578.88835,0.09725
1577.39856,0.13914
1575.90877,0.08548
1574.41898,0.00000
1572.92920,0.08217
1571.43941,0.13833
1569.94962,0.12210
1568.45983,0.10594
1566.97004,0.00291
1565.48025,0.13748
1563.99047,0.10117
1562.50068,0.14315
1561.01089,0.15041
1559.52110,0.13745
1558.03131,0.05500
1556.54152,0.10880
1555.05173,0.14236
1553.56195,0.13831
1552.07216,0.10825
1550.58237,0.09852
1549.09258,0.10334
1547.60279,0.14588
1546.11300,0.11604
1544.62322,0.09205
1543.13343,0.10868
1541.64364,0.15434
1540.15385,0.10300
1538.66406,0.05172
1537.17427,0.03380
1535.68448,0.04782
1534.19470,0.14591
1532.70491,0.11658
1531.21512,0.01198
1529.72533,0.06968
1528.23554,0.06370
1526.74575,0.18525
1525.25597,0.06059
1523.76618,0.09824
1522.27639,0.04323
1520.78660,0.02014
1519.29681,0.00291
1517.80702,0.19832
1516.31724,0.16200
1514.82745,0.11414
1513.33766,0.11560
1511.84787,0.11712
1510.35808,0.15925
1508.86829,0.14639
1507.37850,0.02928
1505.88872,0.06869
1504.39893,0.04151
1502.90914,0.06365
1501.41935,0.12930
1499.92956,0.14865
1498.43977,0.00291
1496.94999,0.09560
1495.46020,0.12172
1493.97041,0.06097
1492.48062,0.13356
1490.99083,0.02077
1489.50104,0.16011
1488.01125,0.14884
1486.52147,0.13763
1485.03168,0.23367
1483.54189,0.21099
1482.05210,0.27527
1480.56231,0.39756
1479.07252,0.40981
1477.58274,0.45689
1476.09295,0.46345
1474.60316,0.42372
1473.11337,0.47965
1471.62358,0.52985
1470.13379,0.59169
1468.64401,0.58695
1467.15422,0.56488
1465.66443,0.59503
1464.17464,0.62522
1462.68485,0.60043
1461.19506,0.65392
1459.70527,0.55970
1458.21549,0.57274
1456.72570,0.67565
1455.23591,0.74385
1453.74612,0.68173
1452.25633,0.67181
1450.76654,0.65326
1449.27676,0.52177
1447.78697,0.49754
1446.29718,0.49655
1444.80739,0.46084
1443.31760,0.42519
1441.82781,0.35772
1440.33802,0.43518
1438.84824,0.37652
1437.35845,0.26866
1435.86866,0.27964
1434.37887,0.21536
1432.88908,0.19459
1431.39929,0.27818
1429.90951,0.16191
1428.41972,0.37599
1426.92993,0.28881
1425.44014,0.26252
1423.95035,0.28121
1422.46056,0.29994
1420.97078,0.20429
1419.48099,0.24488
1417.99120,0.31738
1416.50141,0.21031
1415.01162,0.21340
1413.52183,0.22523
1412.03204,0.05169
1410.54226,0.17663
1409.05247,0.15677
1407.56268,0.23257
1406.07289,0.22730
1404.58310,0.22788
1403.09331,0.22852
1401.60353,0.19155
1400.11374,0.18361
1398.62395,0.17572
1397.13416,0.21425
1395.64437,0.08190
1394.15458,0.11475
1392.66479,0.10709
1391.17501,0.07051
1389.68522,0.14409
1388.19543,0.08445
1386.70564,0.05674
1385.21585,0.02908
1383.72606,0.06522
1382.23628,0.00291
1380.74649,0.02721
1379.25670,0.09792
1377.76691,0.06149
1376.27712,0.23663
1374.78733,0.11049
1373.29755,0.12928
1371.80776,0.22636
1370.31797,0.24236
1368.82818,0.24683
1367.33839,0.25136
1365.84860,0.26174
1364.35881,0.40835
1362.86903,0.43623
1361.37924,0.53949
1359.88945,0.59356
1358.39966,0.61001
1356.90987,0.53960
1355.42008,0.59674
1353.93030,0.61336
1352.44051,0.61556
1350.95072,0.61781
1349.46093,0.55927
1347.97114,0.63117
1346.48135,0.63939
1344.99156,0.57812
1343.50178,0.68786
1342.01199,0.61222
1340.52220,0.63225
1339.03241,0.47850
1337.54262,0.53341
1336.05283,0.55940
1334.56305,0.58545
1333.07326,0.49857
1331.58347,0.46968
1330.09368,0.46982
1328.60389,0.37151
1327.11410,0.46738
1325.62432,0.44162
1324.13453,0.47965
1322.64474,0.36129
1321.15495,0.49795
1319.66516,0.41881
1318.17537,0.33973
1316.68558,0.38094
1315.19580,0.42511
1313.70601,0.50990
1312.21622,0.42959
1310.72643,0.39570
1309.23664,0.45748
1307.74685,0.34837
1306.25707,0.35231
1304.76728,0.39977
1303.27749,0.44729
1301.78770,0.36448
1300.29791,0.31360
1298.80812,0.31783
1297.31834,0.31631
1295.82855,0.36411
1294.33876,0.31346
1292.84897,0.32081
1291.35918,0.22391
1289.86939,0.19805
1288.37960,0.17225
1286.88982,0.32469
1285.40003,0.27147
1283.91024,0.12560
1282.42045,0.18550
1280.93066,0.17302
1279.44087,0.14610
1277.95109,0.24963
1276.46130,0.35611
1274.97151,0.30329
1273.48172,0.25052
1271.99193,0.16015
1270.50214,0.15676
1269.01235,0.16211
1267.52257,0.28341
1266.03278,0.18168
1264.54299,0.27992
1263.05320,0.27970
1261.56341,0.21725
1260.07362,0.15485
1258.58384,0.28229
1257.09405,0.32576
1255.60426,0.15488
1254.11447,0.17529
1252.62468,0.16678
1251.13489,0.12355
1249.64511,0.21076
1248.15532,0.13868
1246.66553,0.18834
1245.17574,0.23805
1243.68595,0.11688
1242.19616,0.14353
1240.70637,0.17024
1239.21659,0.08401
1237.72680,0.09924
1236.23701,0.10583
1234.74722,0.14145
1233.25743,0.12353
1231.76764,0.10567
1230.27786,0.08641
1228.78807,0.09329
1227.29828,0.09153
1225.80849,0.00291
1224.31870,0.15361
1222.82891,0.10446
1221.33912,0.21181
1219.84934,0.16422
1218.35955,0.11668
1216.86976,0.19524
1215.37997,0.23618
1213.89018,0.15260
1212.40039,0.25450
1210.91061,0.28692
1209.42082,0.17164
1207.93103,0.13753
1206.44124,0.10348
1204.95145,0.10716
1203.46166,0.05584
1201.97188,0.14944
1200.48209,0.04319
1198.99230,0.09345
1197.50251,0.06553
1196.01272,0.00291
1194.52293,0.01567
1193.03314,0.02850
1191.54336,0.03703
1190.05357,0.03403
1188.56378,0.14988
1187.07399,0.08036
1185.58420,0.22819
1184.09441,0.18486
1182.60463,0.15896
1181.11484,0.13312
1179.62505,0.19426
1178.13526,0.15695
1176.64547,0.25586
1175.15568,0.12015
1173.66589,0.15254
1172.17611,0.24004
1170.68632,0.15955
1169.19653,0.07911
1167.70674,0.04219
1166.21695,0.10673
1164.72716,0.17133
1163.23738,0.15486
1161.74759,0.23116
1160.25780,0.11630
1158.76801,0.07827
1157.27822,0.04029
1155.78843,0.03570
1154.29865,0.01377
1152.80886,0.09041
1151.31907,0.00196
1149.82928,0.05987
1148.33949,0.10915
1146.84970,0.06577
1145.35991,0.02244
1143.87013,0.12114
1142.38034,0.10690
1140.89055,0.00291
1139.40076,0.14411
1137.91097,0.23032
1136.42118,0.28471
1134.93140,0.31599
1133.44161,0.34732
1131.95182,0.37580
1130.46203,0.23920
1128.97224,0.28808
1127.48245,0.25880
1125.99266,0.15713
1124.50288,0.09319
1123.01309,0.18576
1121.52330,0.27838
1120.03351,0.26966
1118.54372,0.26388
1117.05393,0.19733
1115.56415,0.30756
1114.07436,0.34542
1112.58457,0.37609
1111.09478,0.40681
1109.60499,0.40138
1108.11520,0.54666
1106.62542,0.51527
1105.13563,0.51870
1103.64584,0.49321
1102.15605,0.46488
1100.66626,0.39025
1099.17647,0.31567
1097.68668,0.48453
1096.19690,0.45353
1094.70711,0.58194
1093.21732,0.60610
1091.72753,0.61293
1090.23774,0.63141
1088.74795,0.64994
1087.25817,0.54685
1085.76838,0.71326
1084.27859,0.52915
1082.78880,0.54501
1081.29901,0.56673
1079.80922,0.61457
1078.31943,0.64944
1076.82965,0.68436
1075.33986,0.63677
1073.85007,0.60951
1072.36028,0.59679
1070.87049,0.54067
1069.38070,0.51358
1067.89092,0.56188
1066.40113,0.61023
1064.91134,0.59491
1063.42155,0.47243
1061.93176,0.43114
1060.44197,0.35513
1058.95219,0.34003
1057.46240,0.37423
1055.97261,0.40850
1054.48282,0.29505
1052.99303,0.41924
1051.50324,0.43339
1050.01345,0.25058
1048.52367,0.30831
1047.03388,0.26323
1045.54409,0.21821
1044.05430,0.36302
1042.56451,0.25872
1041.07472,0.32252
1039.58494,0.42984
1038.09515,0.39524
1036.60536,0.33752
1035.11557,0.27986
1033.62578,0.34974
1032.13599,0.22555
1030.64620,0.00291
1029.15642,0.17696
1027.66663,0.18013
1026.17684,0.18335
1024.68705,0.09102
1023.19726,0.11174
1021.70747,0.06588
1020.21769,0.13017
1018.72790,0.26695
1017.23811,0.38350
1015.74832,0.50012
1014.25853,0.56464
1012.76874,0.70454
1011.27896,1.24433
1009.78917,1.61613
1008.29938,1.48386
1006.80959,1.41104
1005.31980,1.33827
1003.83001,0.97438
1002.34022,0.77859
1000.85044,0.90736
999.36065,1.09702
997.87086,1.22011
996.38107,1.34325
994.89128,1.54178
993.40149,1.57811
991.91171,1.53338
990.42192,1.48580
988.93213,1.73091
987.44234,1.79500
985.95255,1.85914
984.46276,1.85235
982.97297,1.97889
981.48319,1.86792
979.99340,1.90186
978.50361,1.90544
977.01382,1.90908
975.52403,1.96927
974.03424,1.86147
972.54446,2.00000
971.05467,1.72137
969.56488,1.90637
968.07509,1.88137
966.58530,1.85643
965.09551,1.91701
963.60573,1.71400
962.11594,1.64721
960.62615,1.76012
959.13636,1.68041
957.64657,1.60076
956.15678,1.70224
954.66699,1.51405
953.17721,1.41284
951.68742,1.52898
950.19763,1.50610
948.70784,1.48329
947.21805,1.44024
945.72826,1.43782
944.23848,1.41517
942.74869,1.52296
941.25890,1.24546
939.76911,1.23457
938.27932,1.22374
936.78953,1.45054
935.29974,1.35290
933.80996,1.37700
932.32017,1.09115
930.83038,1.16173
929.34059,1.23235
927.85080,1.20743
926.36101,1.29266
924.87123,1.30551
923.38144,1.31552
921.89165,1.27344
920.40186,1.23141
918.91207,1.34879
917.42228,1.33875
915.93250,1.44466
914.44271,1.48108
912.95292,1.53350
911.46313,1.58597
909.97334,1.55593
908.48355,1.70558
906.99376,1.53947
905.50398,1.75297
904.01419,1.68984
902.52440,1.62676
901.03461,1.73612
899.54482,1.78470
898.05503,1.84493
896.56525,1.85885
895.07546,1.69754
893.58567,1.53630
892.09588,1.57357
890.60609,1.49500
889.11630,1.45995
887.62651,1.27720
886.13673,1.28862
884.64694,1.30010
883.15715,1.27687
881.66736,1.22762
880.17757,1.30300
878.68778,1.15680
877.19800,1.01066
875.70821,0.94135
874.21842,1.01696
872.72863,0.94487
871.23884,0.90181
869.74905,0.83707
868.25927,0.77239
866.76948,0.83959
865.27969,0.81704
863.78990,0.68734
862.30011,0.76051
860.81032,0.76130
859.32053,0.76214
857.83075,0.71090
856.34096,0.69158
854.85117,0.68680
853.36138,0.59516
851.87159,0.54848
850.38180,0.50186
848.89202,0.44226
847.40223,0.29869
845.91244,0.38407
844.42265,0.39417
842.93286,0.40433
841.44307,0.38558
839.95329,0.29155
838.46350,0.23234
836.97371,0.34413
835.48392,0.38934
833.99413,0.43461
832.50434,0.32637
831.01455,0.43259
829.52477,0.33027
828.03498,0.21061
826.54519,0.22719
825.05540,0.24382
823.56561,0.27499
822.07582,0.25117
820.58604,0.05357
819.09625,0.08926
817.60646,0.12501
816.11667,0.00291
814.62688,0.10219
813.13709,0.10881
811.64730,0.10680
810.15752,0.11209
808.66773,0.11743
807.17794,0.07503
805.68815,0.16596
804.19836,0.05123
802.70857,0.06694
801.21879,0.08271
799.72900,0.05797
798.23921,0.15787
796.74942,0.08109
795.25963,0.07970
793.76984,0.07837
792.28006,0.08868
790.79027,0.13960
789.30048,0.21667
787.81069,0.28799
786.32090,0.21161
784.83111,0.13528
783.34132,0.11406
781.85154,0.21168
780.36175,0.23693
778.87196,0.23616
777.38217,0.23545
775.89238,0.30722
774.40259,0.28344
772.91281,0.23944
771.42302,0.26647
769.93323,0.29356
768.44344,0.26132
766.95365,0.19436
765.46386,0.37952
763.97407,0.36483
762.48429,0.29949
760.99450,0.23420
759.50471,0.25734
758.01492,0.44859
756.52513,0.35305
755.03534,0.28654
753.54556,0.22009
752.05577,0.14501
750.56598,0.10474
749.07619,0.13697
747.58640,0.12000
746.09661,0.10309
744.60683,0.14997
743.11704,0.02887
741.62725,0.15119
740.13746,0.10263
738.64767,0.05413
737.15788,0.08101
735.66809,0.20356
734.17831,0.19290
732.68852,0.15621
731.19873,0.11958
729.70894,0.20179
728.21915,0.17686
726.72936,0.17517
725.23958,0.01997
723.74979,0.01260
722.26000,0.00528
720.77021,0.09334
719.28042,0.00763
717.79063,0.14216
716.30084,0.12900
714.81106,0.11588
713.32127,0.12600
711.83148,0.00291
710.34169,0.18418
708.85190,0.16269
707.36211,0.14126
705.87233,0.14887
704.38254,0.01745
702.89275,0.13236
701.40296,0.10102
699.91317,0.06974
698.42338,0.10080
696.93360,0.10294
695.44381,0.29057
693.95402,0.24357
692.46423,0.19663
690.97444,0.08311
689.48465,0.18694
687.99486,0.07933
686.50508,0.05724
685.01529,0.03521
683.52550,0.06394
682.03571,0.00291
680.54592,0.15326
679.05613,0.17039
677.56635,0.18758
676.07656,0.17875
674.58677,0.19895
673.09698,0.22500
671.60719,0.22213
670.11740,0.21932
668.62761,0.15282
667.13783,0.26602
665.64804,0.20398
664.15825,0.14200
662.66846,0.16265
661.17867,0.10223
659.68888,0.21860
658.19910,0.15830
656.70931,0.09805
655.21952,0.15085
653.72973,0.12548
652.23994,0.35224
650.75015,0.29945
649.26037,0.24673
647.77058,0.24766
646.28079,0.21678
644.79100,0.17147
643.30121,0.12911
641.81142,0.08681
640.32163,0.03877
638.83185,0.10088
637.34206,0.13987
635.85227,0.16009
634.36248,0.18036
632.87269,0.23111
631.38290,0.22687
629.89312,0.23717
628.40333,0.23594
626.91354,0.23477
625.42375,0.12934
623.93396,0.02687
622.44417,0.07078
620.95438,0.11474
619.46460,0.17468
617.97481,0.00291
616.48502,0.12357
614.99523,0.06321
613.50544,0.00291
612.01565,0.18639
610.52587,0.09468
609.03608,0.16237
607.54629,0.18377
606.05650,0.20523
604.56671,0.24123
603.07692,0.14400
601.58714,0.19460
600.09735,0.24525
598.60756,0.19746
597.11777,0.23374
595.62798,0.23820
594.13819,0.17898
592.64840,0.11982
591.15862,0.15343
589.66883,0.18420
588.17904,0.24689
586.68925,0.24011
585.19946,0.23338
583.70967,0.33970
582.21989,0.38813
580.73010,0.49312
579.24031,0.59816
577.75052,0.55115
576.26073,0.46943
574.77094,0.46600
573.28115,0.51911
571.79137,0.57229
570.30158,0.51107
568.81179,0.62086
567.32200,0.63799
565.83221,0.65517
564.34242,0.75933
562.85264,0.70129
561.36285,0.80846
559.87306,0.89106
558.38327,0.97371
556.89348,0.97675
555.40369,1.15658
553.91391,1.03369
552.42412,0.91086
550.93433,0.89964
549.44454,1.01885
547.95475,1.01063
546.46496,1.07345
544.97517,1.13633
543.48539,1.06744
541.99560,1.11740
540.50581,1.08049
539.01602,1.04364
537.52623,1.09956
536.03644,1.04834
534.54666,1.21157
533.05687,1.25462
531.56708,1.29773
530.07729,1.03522
528.58750,1.15233
527.09771,1.07102
525.60792,0.98977
524.11814,0.95348
522.62835,1.13165
521.13856,1.06940
519.64877,1.01445
518.15898,0.95956
516.66919,0.94963
515.17941,0.93106
513.68962,0.83143
512.19983,0.73185
510.71004,0.89019
509.22025,0.76755
507.73046,0.64786
506.24068,0.64992
504.75089,0.65203
503.26110,0.64840
501.77131,0.42464
500.28152,0.39939
498.79173,0.37421
497.30194,0.37950
495.81216,0.48046
494.32237,0.39749
492.83258,0.31458
491.34279,0.35776
489.85300,0.30249
488.36321,0.25597
486.87343,0.22254
485.38364,0.18917
483.89385,0.17469
482.40406,0.23559
480.91427,0.17197
479.42448,0.10840
477.93469,0.25060
476.44491,0.09732
474.95512,0.14402
473.46533,0.19078
471.97554,0.00291
470.48575,0.09356
468.99596,0.10314
467.50618,0.12437
466.01639,0.14565
464.52660,0.23073
463.03681,0.11016
461.54702,0.09684
460.05723,0.08358
458.56745,0.07907
457.07766,0.08041
455.58787,0.07022
454.09808,0.06008
452.60829,0.12243
451.11850,0.06316
449.62871,0.05609
448.13893,0.04908
446.64914,0.24203
445.15935,0.26990
443.66956,0.34708
442.17977,0.33594
440.68998,0.32487
439.20020,0.45726
437.71041,0.50280
436.22062,0.49623
434.73083,0.48973
433.24104,0.54702
431.75125,0.70288
430.26146,0.69509
428.77168,0.68736
427.28189,0.71880
425.79210,0.74161
424.30231,0.68914
422.81252,0.63673
421.32273,0.76980
419.83295,0.74938
418.34316,0.77102
416.85337,0.79271
415.36358,0.87676
413.87379,0.68851
412.38400,0.76832
410.89422,0.84819
409.40443,0.75282
407.91464,0.71256
406.42485,0.61442
404.93506,0.71044
403.44527,0.80653
401.95548,0.80996
400.46570,0.57007
398.97591,0.65328
397.48612,0.73655
395.99633,0.68516
394.50654,0.61643
393.01675,0.64048
391.52697,0.66458
390.03718,0.42509
388.54739,0.58548
387.05760,0.61265
385.56781,0.63987
384.07802,0.49332
382.58824,0.68580
381.09845,0.54805
379.60866,0.41035
378.11887,0.46104
376.62908,0.55235
375.13929,0.45393
373.64950,0.35558
372.15972,0.28480
370.66993,0.17062
369.18014,0.19992
367.69035,0.22927
366.20056,0.24274
364.71077,0.34029
363.22099,0.24378
361.73120,0.14732
360.24141,0.03354
358.75162,0.07917
357.26183,0.09153
355.77204,0.10395
354.28225,0.11497
352.79247,0.06231
351.30268,0.08070
349.81289,0.09913
348.32310,0.03506
346.83331,0.00291
345.34352,0.04273
343.85374,0.08261
342.36395,0.00086
340.87416,0.04774
339.38437,0.05121
337.89458,0.05474
336.40479,0.00038
334.91501,0.15179
333.42522,0.16274
331.93543,0.17374
330.44564,0.00950
328.95585,0.08001
327.46606,0.04627
325.97627,0.01259
324.48649,0.03981
322.99670,0.07867
321.50691,0.07993
320.01712,0.08124
318.52733,0.15794
317.03754,0.00291
315.54776,0.01539
314.05797,0.02793
312.56818,0.14339
311.07839,0.23572
309.58860,0.19338
308.09881,0.15110
306.60902,0.28127
305.11924,0.27821
303.62945,0.27811
302.13966,0.27807
300.64987,0.13032
299.16008,0.00291
