1778.52000,0.05043
1777.03021,0.07507
1775.54042,0.00437
1774.05063,0.04190
1772.56085,0.02260
1771.07106,0.10237
1769.58127,0.06846
1768.09148,0.08960
1766.60169,0.06309
1765.11190,0.07878
1763.62212,0.10917
1762.13233,0.05340
1760.64254,0.07101
1759.15275,0.08315
1757.66296,0.06231
1756.17317,0.05800
1754.68339,0.01887
1753.19360,0.07331
1751.70381,0.04341
1750.21402,0.00437
1748.72423,0.04709
1747.23444,0.02382
1745.74465,0.07394
1744.25487,0.03788
1742.76508,0.06055
1741.27529,0.10341
1739.78550,0.07845
1738.29571,0.09937
1736.80592,0.03778
1735.31614,0.04408
1733.82635,0.05775
1732.33656,0.06594
1730.84677,0.07416
1729.35698,0.08424
1727.86719,0.03933
1726.37740,0.00179
1724.88762,0.04496
1723.39783,0.03498
1721.90804,0.05438
1720.41825,0.01878
1718.92846,0.03640
1717.43867,0.08338
1715.94889,0.07171
1714.45910,0.08941
1712.96931,0.00628
1711.47952,0.04971
1709.98973,0.09317
1708.49994,0.07614
1707.01016,0.06189
1705.52037,0.04766
1704.03058,0.05639
1702.54079,0.04131
1701.05100,0.07394
1699.56121,0.06074
1698.07142,0.06775
1696.58164,0.08213
1695.09185,0.08002
1693.60206,0.07061
1692.11227,0.09240
1690.62248,0.09222
1689.13269,0.10673
1687.64291,0.04792
1686.15312,0.05699
1684.66333,0.10277
1683.17354,0.07155
1681.68375,0.08987
1680.19396,0.08805
1678.70417,0.13761
1677.21439,0.03865
1675.72460,0.08826
1674.23481,0.11406
1672.74502,0.06287
1671.25523,0.00437
1669.76544,0.05787
1668.27566,0.06372
1666.78587,0.13562
1665.29608,0.07551
1663.80629,0.10345
1662.31650,0.12225
1660.82671,0.16309
1659.33693,0.10309
1657.84714,0.10913
1656.35735,0.06019
1654.86756,0.09564
1653.37777,0.08527
1651.88798,0.07676
1650.39819,0.09579
1648.90841,0.13319
1647.41862,0.07891
1645.92883,0.09436
1644.43904,0.10983
1642.94925,0.06481
1641.45946,0.04000
1639.96968,0.06839
1638.47989,0.09499
1636.99010,0.11610
1635.50031,0.09323
1634.01052,0.08323
1632.52073,0.05125
1631.03094,0.09815
1629.54116,0.05339
1628.05137,0.08018
1626.56158,0.09233
1625.07179,0.13201
1623.58200,0.05435
1622.09221,0.09226
1620.60243,0.10268
1619.11264,0.05262
1617.62285,0.06677
1616.13306,0.05894
1614.64327,0.04013
1613.15348,0.07454
1611.66370,0.08881
1610.17391,0.07559
1608.68412,0.11192
1607.19433,0.06758
1605.70454,0.02877
1604.21475,0.05143
1602.72496,0.07412
1601.23518,0.07574
1599.74539,0.06456
1598.25560,0.08641
1596.76581,0.07162
1595.27602,0.10636
1593.78623,0.07145
1592.29645,0.04024
1590.80666,0.02555
1589.31687,0.07325
1587.82708,0.03479
1586.33729,0.02202
1584.84750,0.08998
1583.35771,0.11946
1581.86793,0.10861
1580.37814,0.08129
1578.88835,0.07050
1577.39856,0.02857
1575.90877,0.01050
1574.41898,0.04014
1572.92920,0.06798
1571.43941,0.02799
1569.94962,0.03663
1568.45983,0.04530
1566.97004,0.08792
1565.48025,0.06639
1563.99047,0.04671
1562.50068,0.05824
1561.01089,0.12115
1559.52110,0.00437
1558.03131,0.07789
1556.54152,0.04141
1555.05173,0.07831
1553.56195,0.06389
1552.07216,0.04583
1550.58237,0.04063
1549.09258,0.06114
1547.60279,0.07801
1546.11300,0.11875
1544.62322,0.07699
1543.13343,0.07194
1541.64364,0.04674
1540.15385,0.06467
1538.66406,0.08263
1537.17427,0.11620
1535.68448,0.03793
1534.19470,0.03122
1532.70491,0.05754
1531.21512,0.02887
1529.72533,0.07543
1528.23554,0.05232
1526.74575,0.07692
1525.25597,0.09972
1523.76618,0.04185
1522.27639,0.07938
1520.78660,0.03624
1519.29681,0.09950
1517.80702,0.11693
1516.31724,0.07204
1514.82745,0.04919
1513.33766,0.05479
1511.84787,0.06042
1510.35808,0.07250
1508.86829,0.03876
1507.37850,0.03989
1505.88872,0.00437
1504.39893,0.08040
1502.90914,0.02442
1501.41935,0.04733
1499.92956,0.07761
1498.43977,0.07490
1496.94999,0.08322
1495.46020,0.06223
1493.97041,0.09262
1492.48062,0.09186
1490.99083,0.01960
1489.50104,0.14544
1488.01125,0.13559
1486.52147,0.12578
1485.03168,0.07747
1483.54189,0.09339
1482.05210,0.15335
1480.56231,0.25368
1479.07252,0.23300
1477.58274,0.21418
1476.09295,0.25224
1474.60316,0.20781
1473.11337,0.20008
1471.62358,0.24923
1470.13379,0.23973
1468.64401,0.23942
1467.15422,0.23180
1465.66443,0.21413
1464.17464,0.19649
1462.68485,0.13027
1461.19506,0.15211
1459.70527,0.11896
1458.21549,0.16654
1456.72570,0.05825
1455.23591,0.07287
1453.74612,0.12053
1452.25633,0.18289
1450.76654,0.08389
1449.27676,0.07478
1447.78697,0.05286
1446.29718,0.10250
1444.80739,0.06505
1443.31760,0.02762
1441.82781,0.09018
1440.33802,0.06107
1438.84824,0.01915
1437.35845,0.07629
1435.86866,0.11879
1434.37887,0.10446
1432.88908,0.06999
1431.39929,0.00437
1429.90951,0.05379
1428.41972,0.05557
1426.92993,0.12340
1425.44014,0.10322
1423.95035,0.09133
1422.46056,0.07946
1420.97078,0.15107
1419.48099,0.11083
1417.99120,0.14398
1416.50141,0.19367
1415.01162,0.12601
1413.52183,0.10973
1412.03204,0.11732
1410.54226,0.10293
1409.05247,0.11057
1407.56268,0.10908
1406.07289,0.10578
1404.58310,0.10434
1403.09331,0.10293
1401.60353,0.16940
1400.11374,0.14054
1398.62395,0.18323
1397.13416,0.15442
1395.64437,0.18249
1394.15458,0.15741
1392.66479,0.15070
1391.17501,0.15318
1389.68522,0.08050
1388.19543,0.14357
1386.70564,0.12779
1385.21585,0.11205
1383.72606,0.16970
1382.23628,0.13384
1380.74649,0.11268
1379.25670,0.20342
1377.76691,0.22267
1376.27712,0.24010
1374.78733,0.32543
1373.29755,0.32275
1371.80776,0.36595
1370.31797,0.37250
1368.82818,0.44143
1367.33839,0.51039
1365.84860,0.62706
1364.35881,0.59155
1362.86903,0.67526
1361.37924,0.82870
1359.88945,0.84462
1358.39966,0.75969
1356.90987,0.63079
1355.42008,0.60828
1353.93030,0.57479
1352.44051,0.54500
1350.95072,0.51524
1349.46093,0.44883
1347.97114,0.34760
1346.48135,0.35277
1344.99156,0.25710
1343.50178,0.22014
1342.01199,0.19789
1340.52220,0.15182
1339.03241,0.11862
1337.54262,0.10378
1336.05283,0.11557
1334.56305,0.12738
1333.07326,0.06495
1331.58347,0.12725
1330.09368,0.09606
1328.60389,0.00437
1327.11410,0.07351
1325.62432,0.07483
1324.13453,0.03583
1322.64474,0.07939
1321.15495,0.09179
1319.66516,0.06297
1318.17537,0.03417
1316.68558,0.05400
1315.19580,0.05735
1313.70601,0.03688
1312.21622,0.01462
1310.72643,0.06574
1309.23664,0.01418
1307.74685,0.08370
1306.25707,0.04320
1304.76728,0.04217
1303.27749,0.04116
1301.78770,0.02459
1300.29791,0.01539
1298.80812,0.05390
1297.31834,0.01174
1295.82855,0.04297
1294.33876,0.07423
1292.84897,0.04499
1291.35918,0.01945
1289.86939,0.07097
1288.37960,0.12251
1286.88982,0.09523
1285.40003,0.02946
1283.91024,0.05174
1282.42045,0.00437
1280.93066,0.07567
1279.44087,0.06998
1277.95109,0.02031
1276.46130,0.14122
1274.97151,0.09435
1273.48172,0.04751
1271.99193,0.03462
1270.50214,0.10430
1269.01235,0.03828
1267.52257,0.05116
1266.03278,0.03105
1264.54299,0.09350
1263.05320,0.07712
1261.56341,0.09286
1260.07362,0.10863
1258.58384,0.03548
1257.09405,0.07607
1255.60426,0.07633
1254.11447,0.05829
1252.62468,0.06228
1251.13489,0.06263
1249.64511,0.06484
1248.15532,0.11293
1246.66553,0.08861
1245.17574,0.06432
1243.68595,0.11249
1242.19616,0.08367
1240.70637,0.03470
1239.21659,0.06829
1237.72680,0.05973
1236.23701,0.08237
1234.74722,0.05552
1233.25743,0.05346
1231.76764,0.05143
1230.27786,0.07602
1228.78807,0.07863
1227.29828,0.09227
1225.80849,0.07843
1224.31870,0.09580
1222.82891,0.00683
1221.33912,0.08844
1219.84934,0.06830
1218.35955,0.04818
1216.86976,0.08036
1215.37997,0.00437
1213.89018,0.04842
1212.40039,0.08151
1210.91061,0.07244
1209.42082,0.01572
1207.93103,0.02321
1206.44124,0.03073
1204.95145,0.06396
1203.46166,0.05687
1201.97188,0.00579
1200.48209,0.04043
1198.99230,0.03660
1197.50251,0.02178
1196.01272,0.10053
1194.52293,0.09678
1193.03314,0.09306
1191.54336,0.02334
1190.05357,0.05635
1188.56378,0.10406
1187.07399,0.02159
1185.58420,0.02351
1184.09441,0.04747
1182.60463,0.03753
1181.11484,0.02761
1179.62505,0.04065
1178.13526,0.02987
1176.64547,0.05947
1175.15568,0.01574
1173.66589,0.08208
1172.17611,0.05491
1170.68632,0.05528
1169.19653,0.05568
1167.70674,0.07077
1166.21695,0.04922
1164.72716,0.15057
1163.23738,0.00437
1161.74759,0.05310
1160.25780,0.01567
1158.76801,0.01769
1157.27822,0.01974
1155.78843,0.01174
1154.29865,0.06978
1152.80886,0.08934
1151.31907,0.03007
1149.82928,0.12671
1148.33949,0.08034
1146.84970,0.11927
1145.35991,0.15823
1143.87013,0.02757
1142.38034,0.09502
1140.89055,0.03961
1139.40076,0.11078
1137.91097,0.14529
1136.42118,0.09181
1134.93140,0.11813
1133.44161,0.14448
1131.95182,0.15343
1130.46203,0.09639
1128.97224,0.12374
1127.48245,0.16579
1125.99266,0.20603
1124.50288,0.13077
1123.01309,0.13622
1121.52330,0.14171
1120.03351,0.18573
1118.54372,0.17477
1117.05393,0.19134
1115.56415,0.17677
1114.07436,0.22824
1112.58457,0.26599
1111.09478,0.30377
1109.60499,0.32048
1108.11520,0.31522
1106.62542,0.32832
1105.13563,0.37813
1103.64584,0.49216
1102.15605,0.39531
1100.66626,0.41403
1099.17647,0.43278
1097.68668,0.51758
1096.19690,0.47036
1094.70711,0.43601
1093.21732,0.49705
1091.72753,0.54711
1090.23774,0.53852
1088.74795,0.52996
1087.25817,0.52509
1085.76838,0.59361
1084.27859,0.60164
1082.78880,0.51983
1081.29901,0.51508
1079.80922,0.58554
1078.31943,0.58268
1076.82965,0.57985
1075.33986,0.58254
1073.85007,0.56876
1072.36028,0.55317
1070.87049,0.53578
1069.38070,0.48724
1067.89092,0.48091
1066.40113,0.47460
1064.91134,0.47933
1063.42155,0.38138
1061.93176,0.39534
1060.44197,0.37998
1058.95219,0.30596
1057.46240,0.29616
1055.97261,0.28639
1054.48282,0.30782
1052.99303,0.30177
1051.50324,0.23339
1050.01345,0.24207
1048.52367,0.25812
1047.03388,0.23384
1045.54409,0.20960
1044.05430,0.17071
1042.56451,0.15385
1041.07472,0.16087
1039.58494,0.08538
1038.09515,0.11630
1036.60536,0.10231
1035.11557,0.08835
1033.62578,0.08083
1032.13599,0.04950
1030.64620,0.11540
1029.15642,0.13915
1027.66663,0.18310
1026.17684,0.22708
1024.68705,0.11337
1023.19726,0.15924
1021.70747,0.19596
1020.21769,0.16853
1018.72790,0.21265
1017.23811,0.24029
1015.74832,0.26797
1014.25853,0.38003
1012.76874,0.37841
1011.27896,0.53638
1009.78917,0.57150
1008.29938,0.59565
1006.80959,0.66475
1005.31980,0.73388
1003.83001,0.72510
1002.34022,0.81722
1000.85044,1.00656
999.36065,1.19043
997.87086,1.25237
996.38107,1.31434
994.89128,1.44878
993.40149,1.57224
991.91171,1.61137
990.42192,1.74222
988.93213,1.87677
987.44234,1.93616
985.95255,1.99557
984.46276,2.00000
982.97297,1.91642
981.48319,1.96676
979.99340,1.90157
978.50361,1.87402
977.01382,1.84649
975.52403,1.88227
974.03424,1.94558
972.54446,1.90071
971.05467,1.74767
969.56488,1.80006
968.07509,1.70302
966.58530,1.60600
965.09551,1.50809
963.60573,1.53676
962.11594,1.61313
960.62615,1.47863
959.13636,1.44594
957.64657,1.41328
956.15678,1.32104
954.66699,1.27835
953.17721,1.27971
951.68742,1.16372
950.19763,1.14312
948.70784,1.12255
947.21805,1.08917
945.72826,0.98430
944.23848,0.98949
942.74869,0.95436
941.25890,0.89725
939.76911,0.86952
938.27932,0.84181
936.78953,0.79763
935.29974,0.88552
933.80996,0.87073
932.32017,0.80462
930.83038,0.82383
929.34059,0.84306
927.85080,0.96593
926.36101,0.86693
924.87123,0.85965
923.38144,0.93309
921.89165,0.97080
920.40186,1.00854
918.91207,0.91151
917.42228,1.01808
915.93250,1.02565
914.44271,1.05158
912.95292,1.06837
911.46313,1.08519
909.97334,1.04151
908.48355,1.06939
906.99376,1.15415
905.50398,1.17292
904.01419,1.18988
902.52440,1.20687
901.03461,1.35960
899.54482,1.33446
898.05503,1.39372
896.56525,1.43466
895.07546,1.38118
893.58567,1.32774
892.09588,1.39444
890.60609,1.37864
889.11630,1.17398
887.62651,1.24444
886.13673,1.15353
884.64694,1.06266
883.15715,0.98282
881.66736,0.91768
880.17757,0.95710
878.68778,0.96996
877.19800,0.98284
875.70821,0.93982
874.21842,0.85648
872.72863,0.74566
871.23884,0.67888
869.74905,0.65340
868.25927,0.62794
866.76948,0.65294
865.27969,0.56794
863.78990,0.49214
862.30011,0.51356
860.81032,0.50200
859.32053,0.49047
857.83075,0.49730
856.34096,0.43447
854.85117,0.33867
853.36138,0.25572
851.87159,0.29293
850.38180,0.33017
848.89202,0.26932
847.40223,0.17732
845.91244,0.17521
844.42265,0.16488
842.93286,0.15458
841.44307,0.19290
839.95329,0.17991
838.46350,0.09725
836.97371,0.06780
835.48392,0.05122
833.99413,0.03467
832.50434,0.15936
831.01455,0.10435
829.52477,0.13007
828.03498,0.00542
826.54519,0.01102
825.05540,0.01665
823.56561,0.09016
822.07582,0.09034
820.58604,0.02452
819.09625,0.02660
817.60646,0.02869
816.11667,0.02165
814.62688,0.05132
813.13709,0.06818
811.64730,0.00437
810.15752,0.00963
808.66773,0.01493
807.17794,0.05969
805.68815,0.03661
804.19836,0.04658
802.70857,0.10242
801.21879,0.15830
799.72900,0.05648
798.23921,0.17476
796.74942,0.15736
795.25963,0.14641
793.76984,0.13548
792.28006,0.15851
790.79027,0.19074
789.30048,0.22850
787.81069,0.24061
786.32090,0.22616
784.83111,0.21174
783.34132,0.27712
781.85154,0.22699
780.36175,0.30160
778.87196,0.29646
777.38217,0.29135
775.89238,0.38438
774.40259,0.27571
772.91281,0.41281
771.42302,0.38031
769.93323,0.34783
768.44344,0.35297
766.95365,0.38382
765.46386,0.29183
763.97407,0.26221
762.48429,0.25555
760.99450,0.24892
759.50471,0.27257
758.01492,0.24674
756.52513,0.17875
755.03534,0.14656
753.54556,0.11439
752.05577,0.14369
750.56598,0.14551
749.07619,0.07766
747.58640,0.06945
746.09661,0.06127
744.60683,0.09437
743.11704,0.00647
741.62725,0.05465
740.13746,0.08635
738.64767,0.11808
737.15788,0.04713
735.66809,0.11560
734.17831,0.00437
732.68852,0.05522
731.19873,0.10611
729.70894,0.08366
728.21915,0.04657
726.72936,0.02602
725.23958,0.04584
723.74979,0.03818
722.26000,0.03055
720.77021,0.05413
719.28042,0.08140
717.79063,0.07935
716.30084,0.04524
714.81106,0.01116
713.32127,0.03671
711.83148,0.06412
710.34169,0.01820
708.85190,0.03100
707.36211,0.04383
705.87233,0.00533
704.38254,0.06921
702.89275,0.05610
701.40296,0.06227
699.91317,0.06846
698.42338,0.02793
696.93360,0.07728
695.44381,0.13766
693.95402,0.12472
692.46423,0.11180
690.97444,0.11542
689.48465,0.08972
687.99486,0.04571
686.50508,0.02374
685.01529,0.00179
683.52550,0.04590
682.03571,0.08820
680.54592,0.09018
679.05613,0.04726
677.56635,0.00437
676.07656,0.07864
674.58677,0.05208
673.09698,0.03655
671.60719,0.04306
670.11740,0.04959
668.62761,0.06349
667.13783,0.04807
665.64804,0.03360
664.15825,0.01916
662.66846,0.01667
661.17867,0.05455
659.68888,0.05211
658.19910,0.07813
656.70931,0.10417
655.21952,0.00829
653.72973,0.06465
652.23994,0.10087
650.75015,0.05917
649.26037,0.01751
647.77058,0.12900
646.28079,0.07730
644.79100,0.08799
643.30121,0.07944
641.81142,0.07093
640.32163,0.07069
638.83185,0.06132
637.34206,0.08315
635.85227,0.06374
634.36248,0.04436
632.87269,0.01676
631.38290,0.09739
629.89312,0.01299
628.40333,0.05608
626.91354,0.09920
625.42375,0.10659
623.93396,0.04981
622.44417,0.07284
620.95438,0.09590
619.46460,0.00437
617.97481,0.06933
616.48502,0.11416
614.99523,0.09757
613.50544,0.08101
612.01565,0.09841
610.52587,0.12134
609.03608,0.06911
607.54629,0.10951
606.05650,0.14995
604.56671,0.10880
603.07692,0.09703
601.58714,0.11371
600.09735,0.13042
598.60756,0.08022
597.11777,0.00437
595.62798,0.15399
594.13819,0.11384
592.64840,0.07371
591.15862,0.07487
589.66883,0.16776
588.17904,0.17998
586.68925,0.18581
585.19946,0.19167
583.70967,0.25900
582.21989,0.24749
580.73010,0.28920
579.24031,0.33094
577.75052,0.24433
576.26073,0.33013
574.77094,0.36462
573.28115,0.35879
571.79137,0.35298
570.30158,0.41689
568.81179,0.49551
567.32200,0.48704
565.83221,0.47860
564.34242,0.49677
562.85264,0.52415
561.36285,0.62858
559.87306,0.69361
558.38327,0.75867
556.89348,0.84668
555.40369,0.87603
553.91391,0.81647
552.42412,0.75693
550.93433,0.93858
549.44454,0.88552
547.95475,0.93152
546.46496,0.92620
544.97517,0.92090
543.48539,1.00183
541.99560,1.04244
540.50581,1.00056
539.01602,0.95870
537.52623,1.08375
536.03644,1.12448
534.54666,0.93782
533.05687,0.92634
531.56708,0.91488
530.07729,0.85118
528.58750,0.80952
527.09771,0.76147
525.60792,0.71344
524.11814,0.67187
522.62835,0.65233
521.13856,0.67133
519.64877,0.69678
518.15898,0.72225
516.66919,0.54327
515.17941,0.47802
513.68962,0.48341
512.19983,0.48883
510.71004,0.48969
509.22025,0.45390
507.73046,0.42914
506.24068,0.41266
504.75089,0.39621
503.26110,0.38071
501.77131,0.26803
500.28152,0.23975
498.79173,0.21149
497.30194,0.26212
495.81216,0.28527
494.32237,0.23142
492.83258,0.17761
491.34279,0.24486
489.85300,0.09756
488.36321,0.27491
486.87343,0.22854
485.38364,0.18220
483.89385,0.12488
482.40406,0.14645
480.91427,0.18273
479.42448,0.21903
477.93469,0.08847
476.44491,0.07347
474.95512,0.10436
473.46533,0.13527
471.97554,0.14053
470.48575,0.14583
468.99596,0.13464
467.50618,0.15100
466.01639,0.16738
464.52660,0.13060
463.03681,0.15805
461.54702,0.13692
460.05723,0.11582
458.56745,0.16168
457.07766,0.11772
455.58787,0.13796
454.09808,0.15824
452.60829,0.14003
451.11850,0.28141
449.62871,0.27885
448.13893,0.27631
446.64914,0.30223
445.15935,0.41438
443.66956,0.44219
442.17977,0.43702
440.68998,0.43187
439.20020,0.49278
437.71041,0.51154
436.22062,0.54132
434.73083,0.57114
433.24104,0.63766
431.75125,0.65836
430.26146,0.68460
428.77168,0.71086
427.28189,0.71697
425.79210,0.74329
424.30231,0.80448
422.81252,0.86570
421.32273,1.11034
419.83295,0.98639
418.34316,1.01560
416.85337,1.04484
415.36358,0.91363
413.87379,0.88149
412.38400,0.89706
410.89422,0.91266
409.40443,0.82925
407.91464,0.79172
406.42485,0.88443
404.93506,0.87813
403.44527,0.87186
401.95548,0.90414
400.46570,0.89242
398.97591,0.90550
397.48612,0.91860
395.99633,0.82628
394.50654,0.90271
393.01675,0.89480
391.52697,0.88693
390.03718,0.86991
388.54739,0.80891
387.05760,0.75710
385.56781,0.70533
384.07802,0.70676
382.58824,0.67522
381.09845,0.57492
379.60866,0.47466
378.11887,0.57158
376.62908,0.46128
375.13929,0.42804
373.64950,0.39483
372.15972,0.41667
370.66993,0.34317
369.18014,0.31646
367.69035,0.28978
366.20056,0.24204
364.71077,0.20350
363.22099,0.23926
361.73120,0.27505
360.24141,0.19992
358.75162,0.16516
357.26183,0.10108
355.77204,0.03703
354.28225,0.02620
352.79247,0.15844
351.30268,0.15683
349.81289,0.15525
348.32310,0.13170
346.83331,0.03114
345.34352,0.07274
343.85374,0.11437
342.36395,0.06709
340.87416,0.09686
339.38437,0.10923
337.89458,0.12163
336.40479,0.02678
334.91501,0.03832
333.42522,0.05814
331.93543,0.07799
330.44564,0.11346
328.95585,0.07743
327.46606,0.05977
325.97627,0.04214
324.48649,0.00437
322.99670,0.07151
321.50691,0.09467
320.01712,0.11786
318.52733,0.12458
317.03754,0.13865
315.54776,0.06931
314.05797,0.00000
312.56818,0.05606
311.07839,0.12315
309.58860,0.10223
308.09881,0.08135
306.60902,0.01097
305.11924,0.10202
303.62945,0.05463
302.13966,0.00726
300.64987,0.05807
299.16008,0.00437
