1778.52000,0.06765
1777.03021,0.08046
1775.54042,0.05180
1774.05063,0.00041
1772.56085,0.06017
1771.07106,0.08381
1769.58127,0.04456
1768.09148,0.08032
1766.60169,0.04648
1765.11190,0.03544
1763.62212,0.00167
1762.13233,0.06968
1760.64254,0.07211
1759.15275,0.09332
1757.66296,0.10519
1756.17317,0.06890
1754.68339,0.09555
1753.19360,0.10082
1751.70381,0.02981
1750.21402,0.00167
1748.72423,0.02295
1747.23444,0.03222
1745.74465,0.07365
1744.25487,0.05352
1742.76508,0.08564
1741.27529,0.12449
1739.78550,0.07768
1738.29571,0.04830
1736.80592,0.09661
1735.31614,0.09809
1733.82635,0.03802
1732.33656,0.04759
1730.84677,0.07326
1729.35698,0.07486
1727.86719,0.06846
1726.37740,0.04603
1724.88762,0.02363
1723.39783,0.03472
1721.90804,0.00167
1720.41825,0.06156
1718.92846,0.04384
1717.43867,0.07836
1715.94889,0.06873
1714.45910,0.04039
1712.96931,0.08036
1711.47952,0.04940
1709.98973,0.05998
1708.49994,0.07728
1707.01016,0.08524
1705.52037,0.09323
1704.03058,0.11866
1702.54079,0.11466
1701.05100,0.16023
1699.56121,0.15361
1698.07142,0.10687
1696.58164,0.09630
1695.09185,0.12726
1693.60206,0.11006
1692.11227,0.19464
1690.62248,0.18955
1689.13269,0.18850
1687.64291,0.22230
1686.15312,0.24541
1684.66333,0.19493
1683.17354,0.23685
1681.68375,0.26541
1680.19396,0.16146
1678.70417,0.12583
1677.21439,0.18661
1675.72460,0.19655
1674.23481,0.18912
1672.74502,0.16432
1671.25523,0.16632
1669.76544,0.24734
1668.27566,0.25342
1666.78587,0.24614
1665.29608,0.17597
1663.80629,0.19285
1662.31650,0.17228
1660.82671,0.20395
1659.33693,0.19816
1657.84714,0.11610
1656.35735,0.19606
1654.86756,0.19438
1653.37777,0.13650
1651.88798,0.14158
1650.39819,0.15874
1648.90841,0.15852
1647.41862,0.14897
1645.92883,0.17291
1644.43904,0.19688
1642.94925,0.15931
1641.45946,0.14050
1639.96968,0.15787
1638.47989,0.18331
1636.99010,0.22082
1635.50031,0.18741
1634.01052,0.15939
1632.52073,0.13274
1631.03094,0.08335
1629.54116,0.19599
1628.05137,0.22164
1626.56158,0.20181
1625.07179,0.23555
1623.58200,0.27334
1622.09221,0.27903
1620.60243,0.22853
1619.11264,0.22491
1617.62285,0.19588
1616.13306,0.23115
1614.64327,0.20486
1613.15348,0.21208
1611.66370,0.15908
1610.17391,0.23597
1608.68412,0.18303
1607.19433,0.14886
1605.70454,0.21781
1604.21475,0.20044
1602.72496,0.18311
1601.23518,0.19994
1599.74539,0.16592
1598.25560,0.17612
1596.76581,0.18903
1595.27602,0.16046
1593.78623,0.21895
1592.29645,0.11012
1590.80666,0.10842
1589.31687,0.14156
1587.82708,0.11315
1586.33729,0.14635
1584.84750,0.14880
1583.35771,0.10843
1581.86793,0.04399
1580.37814,0.13756
1578.88835,0.15485
1577.39856,0.16146
1575.90877,0.13999
1574.41898,0.14934
1572.92920,0.07706
1571.43941,0.10253
1569.94962,0.10595
1568.45983,0.10940
1566.97004,0.13631
1565.48025,0.08693
1563.99047,0.08847
1562.50068,0.00167
1561.01089,0.13174
1559.52110,0.08913
1558.03131,0.12957
1556.54152,0.06962
1555.05173,0.11681
1553.56195,0.08906
1552.07216,0.10551
1550.58237,0.08853
1549.09258,0.04213
1547.60279,0.09616
1546.11300,0.13684
1544.62322,0.13337
1543.13343,0.15269
1541.64364,0.06092
1540.15385,0.07360
1538.66406,0.08632
1537.17427,0.06560
1535.68448,0.06900
1534.19470,0.09118
1532.70491,0.08528
1531.21512,0.07539
1529.72533,0.04679
1528.23554,0.07579
1526.74575,0.02315
1525.25597,0.06827
1523.76618,0.06255
1522.27639,0.05954
1520.78660,0.00167
1519.29681,0.02426
1517.80702,0.02814
1516.31724,0.08024
1514.82745,0.09891
1513.33766,0.06606
1511.84787,0.03325
1510.35808,0.06941
1508.86829,0.03465
1507.37850,0.00661
1505.88872,0.09106
1504.39893,0.05773
1502.90914,0.00167
1501.41935,0.06209
1499.92956,0.03686
1498.43977,0.09064
1496.94999,0.08957
1495.46020,0.16216
1493.97041,0.12367
1492.48062,0.21372
1490.99083,0.26097
1489.50104,0.36314
1488.01125,0.40241
1486.52147,0.44172
1485.03168,0.47436
1483.54189,0.51373
1482.05210,0.54242
1480.56231,0.61130
1479.07252,0.69493
1477.58274,0.81207
1476.09295,0.93594
1474.60316,0.97683
1473.11337,1.09673
1471.62358,1.13233
1470.13379,1.05684
1468.64401,1.02288
1467.15422,0.93540
1465.66443,0.88075
1464.17464,0.82614
1462.68485,0.87530
1461.19506,0.75716
1459.70527,0.78229
1458.21549,0.67893
1456.72570,0.73625
1455.23591,0.66642
1453.74612,0.59930
1452.25633,0.59245
1450.76654,0.52673
1449.27676,0.47443
1447.78697,0.48642
1446.29718,0.45158
1444.80739,0.43016
1443.31760,0.40877
1441.82781,0.35662
1440.33802,0.30852
1438.84824,0.28589
1437.35845,0.19099
1435.86866,0.17912
1434.37887,0.22352
1432.88908,0.18093
1431.39929,0.22806
1429.90951,0.21230
1428.41972,0.15775
1426.92993,0.14072
1425.44014,0.19333
1423.95035,0.23058
1422.46056,0.26785
1420.97078,0.31922
1419.48099,0.29832
1417.99120,0.28281
1416.50141,0.30347
1415.01162,0.31212
1413.52183,0.29135
1412.03204,0.28667
1410.54226,0.31013
1409.05247,0.17298
1407.56268,0.19918
1406.07289,0.33921
1404.58310,0.32799
1403.09331,0.31680
1401.60353,0.29226
1400.11374,0.36815
1398.62395,0.42667
1397.13416,0.42497
1395.64437,0.47954
1394.15458,0.46987
1392.66479,0.56600
1391.17501,0.59789
1389.68522,0.63919
1388.19543,0.60823
1386.70564,0.58131
1385.21585,0.55443
1383.72606,0.53159
1382.23628,0.51146
1380.74649,0.55026
1379.25670,0.53688
1377.76691,0.60788
1376.27712,0.59992
1374.78733,0.70311
1373.29755,0.81169
1371.80776,0.95242
1370.31797,1.04499
1368.82818,1.11550
1367.33839,1.18605
1365.84860,1.37778
1364.35881,1.53875
1362.86903,1.71716
1361.37924,1.81660
1359.88945,1.75677
1358.39966,1.93794
1356.90987,2.00000
1355.42008,1.88135
1353.93030,1.79219
1352.44051,1.75125
1350.95072,1.71034
1349.46093,1.53559
1347.97114,1.39835
1346.48135,1.26516
1344.99156,1.01553
1343.50178,0.99753
1342.01199,0.97823
1340.52220,0.75680
1339.03241,0.71346
1337.54262,0.64472
1336.05283,0.62754
1334.56305,0.61040
1333.07326,0.52568
1331.58347,0.55211
1330.09368,0.44737
1328.60389,0.40559
1327.11410,0.45621
1325.62432,0.42519
1324.13453,0.33128
1322.64474,0.37664
1321.15495,0.33501
1319.66516,0.33089
1318.17537,0.32680
1316.68558,0.31739
1315.19580,0.33211
1313.70601,0.31473
1312.21622,0.31746
1310.72643,0.28541
1309.23664,0.18378
1307.74685,0.25756
1306.25707,0.18678
1304.76728,0.21510
1303.27749,0.24345
1301.78770,0.27049
1300.29791,0.24803
1298.80812,0.27112
1297.31834,0.21391
1295.82855,0.26518
1294.33876,0.28702
1292.84897,0.24597
1291.35918,0.26519
1289.86939,0.26972
1288.37960,0.27428
1286.88982,0.30029
1285.40003,0.31562
1283.91024,0.30019
1282.42045,0.29015
1280.93066,0.37385
1279.44087,0.35449
1277.95109,0.34320
1276.46130,0.29981
1274.97151,0.32540
1273.48172,0.35102
1271.99193,0.39742
1270.50214,0.38226
1269.01235,0.39659
1267.52257,0.48592
1266.03278,0.43204
1264.54299,0.41299
1263.05320,0.50107
1261.56341,0.52828
1260.07362,0.55551
1258.58384,0.55934
1257.09405,0.54446
1255.60426,0.50150
1254.11447,0.52685
1252.62468,0.50135
1251.13489,0.50266
1249.64511,0.47589
1248.15532,0.39827
1246.66553,0.39097
1245.17574,0.38370
1243.68595,0.33028
1242.19616,0.40540
1240.70637,0.32928
1239.21659,0.35895
1237.72680,0.29360
1236.23701,0.23229
1234.74722,0.19110
1233.25743,0.19746
1231.76764,0.20386
1230.27786,0.19221
1228.78807,0.23012
1227.29828,0.19712
1225.80849,0.16280
1224.31870,0.17671
1222.82891,0.10497
1221.33912,0.07343
1219.84934,0.08140
1218.35955,0.08941
1216.86976,0.11017
1215.37997,0.13498
1213.89018,0.21604
1212.40039,0.19941
1210.91061,0.13193
1209.42082,0.13410
1207.93103,0.16240
1206.44124,0.19074
1204.95145,0.16890
1203.46166,0.06543
1201.97188,0.08917
1200.48209,0.12098
1198.99230,0.15817
1197.50251,0.01867
1196.01272,0.03584
1194.52293,0.02895
1193.03314,0.02208
1191.54336,0.06076
1190.05357,0.03120
1188.56378,0.00167
1187.07399,0.05813
1185.58420,0.03162
1184.09441,0.02521
1182.60463,0.04696
1181.11484,0.06873
1179.62505,0.07849
1178.13526,0.11237
1176.64547,0.04990
1175.15568,0.09589
1173.66589,0.19815
1172.17611,0.09962
1170.68632,0.05601
1169.19653,0.01243
1167.70674,0.02912
1166.21695,0.00167
1164.72716,0.05323
1163.23738,0.05530
1161.74759,0.08818
1160.25780,0.03140
1158.76801,0.02485
1157.27822,0.01833
1155.78843,0.05803
1154.29865,0.06965
1152.80886,0.07059
1151.31907,0.07825
1149.82928,0.02837
1148.33949,0.15659
1146.84970,0.12016
1145.35991,0.08377
1143.87013,0.02598
1142.38034,0.04454
1140.89055,0.05509
1139.40076,0.13931
1137.91097,0.19946
1136.42118,0.21814
1134.93140,0.21007
1133.44161,0.20204
1131.95182,0.26231
1130.46203,0.25835
1128.97224,0.28120
1127.48245,0.35629
1125.99266,0.31360
1124.50288,0.33922
1123.01309,0.37759
1121.52330,0.41598
1120.03351,0.46981
1118.54372,0.37640
1117.05393,0.36736
1115.56415,0.43199
1114.07436,0.55020
1112.58457,0.52519
1111.09478,0.50021
1109.60499,0.54755
1108.11520,0.51460
1106.62542,0.47499
1105.13563,0.56794
1103.64584,0.60336
1102.15605,0.73386
1100.66626,0.70776
1099.17647,0.68169
1097.68668,0.69848
1096.19690,0.75146
1094.70711,0.81116
1093.21732,0.82002
1091.72753,0.94003
1090.23774,0.93221
1088.74795,0.92443
1087.25817,0.88119
1085.76838,1.01337
1084.27859,1.04919
1082.78880,1.12922
1081.29901,1.07406
1079.80922,1.07248
1078.31943,1.05621
1076.82965,1.03997
1075.33986,1.20851
1073.85007,1.28470
1072.36028,1.24312
1070.87049,1.24842
1069.38070,1.28990
1067.89092,1.28589
1066.40113,1.28191
1064.91134,1.22040
1063.42155,1.10402
1061.93176,0.97563
1060.44197,0.98918
1058.95219,0.93716
1057.46240,0.95680
1055.97261,0.97646
1054.48282,0.90445
1052.99303,0.89807
1051.50324,0.71367
1050.01345,0.60694
1048.52367,0.52702
1047.03388,0.52076
1045.54409,0.51454
1044.05430,0.54449
1042.56451,0.46737
1041.07472,0.40233
1039.58494,0.32929
1038.09515,0.37141
1036.60536,0.35734
1035.11557,0.34329
1033.62578,0.34534
1032.13599,0.29655
1030.64620,0.22236
1029.15642,0.35704
1027.66663,0.36256
1026.17684,0.36811
1024.68705,0.30743
1023.19726,0.46365
1021.70747,0.56368
1020.21769,0.71996
1018.72790,0.90440
1017.23811,0.98309
1015.74832,1.06182
1014.25853,1.22493
1012.76874,1.39074
1011.27896,1.64226
1009.78917,1.69702
1008.29938,1.75849
1006.80959,1.75708
1005.31980,1.75570
1003.83001,1.58700
1002.34022,1.51071
1000.85044,1.39027
999.36065,1.26317
997.87086,1.19969
996.38107,1.13623
994.89128,1.24083
993.40149,1.21827
991.91171,1.16763
990.42192,1.09426
988.93213,1.12937
987.44234,1.10760
985.95255,1.08587
984.46276,1.01931
982.97297,1.07194
981.48319,0.97198
979.99340,0.93899
978.50361,0.97029
977.01382,1.00162
975.52403,0.95400
974.03424,0.83411
972.54446,0.79592
971.05467,0.69483
969.56488,0.70222
968.07509,0.69491
966.58530,0.68763
965.09551,0.72858
963.60573,0.64505
962.11594,0.60574
960.62615,0.53700
959.13636,0.53456
957.64657,0.53215
956.15678,0.48760
954.66699,0.45379
953.17721,0.44545
951.68742,0.51077
950.19763,0.53261
948.70784,0.55449
947.21805,0.52485
945.72826,0.52335
944.23848,0.57678
942.74869,0.50439
941.25890,0.48960
939.76911,0.48756
938.27932,0.48555
936.78953,0.69711
935.29974,0.61684
933.80996,0.58882
932.32017,0.59429
930.83038,0.66807
929.34059,0.74189
927.85080,0.58948
926.36101,0.66068
924.87123,0.55921
923.38144,0.61172
921.89165,0.57457
920.40186,0.53745
918.91207,0.54321
917.42228,0.61726
915.93250,0.56016
914.44271,0.61018
912.95292,0.61070
911.46313,0.61125
909.97334,0.59443
908.48355,0.67402
906.99376,0.70010
905.50398,0.61643
904.01419,0.61178
902.52440,0.60716
901.03461,0.61730
899.54482,0.61809
898.05503,0.60419
896.56525,0.65324
895.07546,0.70634
893.58567,0.75947
892.09588,0.74971
890.60609,0.68509
889.11630,0.61648
887.62651,0.66974
886.13673,0.70896
884.64694,0.74822
883.15715,0.74400
881.66736,0.65680
880.17757,0.72092
878.68778,0.78506
877.19800,0.84924
875.70821,0.75414
874.21842,0.85184
872.72863,0.95226
871.23884,0.97238
869.74905,0.97513
868.25927,0.97791
866.76948,0.97402
865.27969,0.89118
863.78990,0.99713
862.30011,0.93310
860.81032,0.97017
859.32053,1.00727
857.83075,0.99419
856.34096,0.92091
854.85117,0.92932
853.36138,0.81994
851.87159,0.77352
850.38180,0.72714
848.89202,0.64731
847.40223,0.47648
845.91244,0.49980
844.42265,0.44817
842.93286,0.39658
841.44307,0.41732
839.95329,0.40729
838.46350,0.31831
836.97371,0.32708
835.48392,0.35932
833.99413,0.39159
832.50434,0.31745
831.01455,0.42676
829.52477,0.40891
828.03498,0.30676
826.54519,0.28897
825.05540,0.27122
823.56561,0.28161
822.07582,0.27731
820.58604,0.30918
819.09625,0.20520
817.60646,0.10125
816.11667,0.15597
814.62688,0.09693
813.13709,0.10888
811.64730,0.09140
810.15752,0.05923
808.66773,0.02709
807.17794,0.00167
805.68815,0.15787
804.19836,0.09320
802.70857,0.13098
801.21879,0.16878
799.72900,0.15508
798.23921,0.24181
796.74942,0.34866
795.25963,0.39329
793.76984,0.43794
792.28006,0.48865
790.79027,0.46308
789.30048,0.54733
787.81069,0.54056
786.32090,0.55592
784.83111,0.57130
783.34132,0.65968
781.85154,0.66911
780.36175,0.68525
778.87196,0.70076
777.38217,0.71630
775.89238,0.77672
774.40259,0.80103
772.91281,0.74503
771.42302,0.76270
769.93323,0.78041
768.44344,0.72986
766.95365,0.80653
765.46386,0.75471
763.97407,0.71764
762.48429,0.66923
760.99450,0.62084
759.50471,0.49417
758.01492,0.45857
756.52513,0.38551
755.03534,0.36670
753.54556,0.34792
752.05577,0.23479
750.56598,0.14445
749.07619,0.14919
747.58640,0.14259
746.09661,0.13601
744.60683,0.06454
743.11704,0.04397
741.62725,0.05556
740.13746,0.05044
738.64767,0.04536
737.15788,0.09185
735.66809,0.00717
734.17831,0.05640
732.68852,0.03872
731.19873,0.02107
729.70894,0.05031
728.21915,0.06218
726.72936,0.06872
725.23958,0.05120
723.74979,0.05713
722.26000,0.06309
720.77021,0.05905
719.28042,0.13402
717.79063,0.10192
716.30084,0.05178
714.81106,0.00167
713.32127,0.01447
711.83148,0.10763
710.34169,0.00000
708.85190,0.02178
707.36211,0.04360
705.87233,0.11164
704.38254,0.01771
702.89275,0.02690
701.40296,0.02943
699.91317,0.03198
698.42338,0.07607
696.93360,0.11751
695.44381,0.20183
693.95402,0.15899
692.46423,0.11618
690.97444,0.15373
689.48465,0.17257
687.99486,0.21286
686.50508,0.23443
685.01529,0.25604
683.52550,0.31248
682.03571,0.32612
680.54592,0.17512
679.05613,0.17743
677.56635,0.17978
676.07656,0.19889
674.58677,0.13236
673.09698,0.14885
671.60719,0.12790
670.11740,0.10697
668.62761,0.11686
667.13783,0.07993
665.64804,0.06579
664.15825,0.05168
662.66846,0.10855
661.17867,0.09584
659.68888,0.08182
658.19910,0.10733
656.70931,0.13286
655.21952,0.17650
653.72973,0.09835
652.23994,0.21434
650.75015,0.19448
649.26037,0.17465
647.77058,0.15820
646.28079,0.12304
644.79100,0.09460
643.30121,0.04812
641.81142,0.00167
640.32163,0.09535
638.83185,0.02708
637.34206,0.00167
635.85227,0.02554
634.36248,0.04944
632.87269,0.05463
631.38290,0.02504
629.89312,0.06643
628.40333,0.05230
626.91354,0.03820
625.42375,0.03015
623.93396,0.08774
622.44417,0.08109
620.95438,0.07448
619.46460,0.04112
617.97481,0.03055
616.48502,0.04678
614.99523,0.08916
613.50544,0.13156
612.01565,0.13316
610.52587,0.05446
609.03608,0.02132
607.54629,0.08593
606.05650,0.15058
604.56671,0.11887
603.07692,0.17822
601.58714,0.11778
600.09735,0.05738
598.60756,0.17573
597.11777,0.05714
595.62798,0.10460
594.13819,0.11527
592.64840,0.12597
591.15862,0.07579
589.66883,0.09927
588.17904,0.08396
586.68925,0.04525
585.19946,0.00657
583.70967,0.07569
582.21989,0.17698
580.73010,0.18726
579.24031,0.19756
577.75052,0.08474
576.26073,0.14732
574.77094,0.09614
573.28115,0.12464
571.79137,0.15317
570.30158,0.16099
568.81179,0.30405
567.32200,0.27511
565.83221,0.24620
564.34242,0.22603
562.85264,0.23265
561.36285,0.35980
559.87306,0.36984
558.38327,0.37991
556.89348,0.38131
555.40369,0.40683
553.91391,0.43038
552.42412,0.45396
550.93433,0.45414
549.44454,0.44632
547.95475,0.40774
546.46496,0.43010
544.97517,0.45249
543.48539,0.54252
541.99560,0.66606
540.50581,0.67582
539.01602,0.68562
537.52623,0.64324
536.03644,0.53796
534.54666,0.45949
533.05687,0.51225
531.56708,0.56504
530.07729,0.56164
528.58750,0.39493
527.09771,0.41301
525.60792,0.43111
524.11814,0.53225
522.62835,0.42056
521.13856,0.36111
519.64877,0.34386
518.15898,0.32664
516.66919,0.36100
515.17941,0.30033
513.68962,0.30262
512.19983,0.30494
510.71004,0.29791
509.22025,0.33108
507.73046,0.31876
506.24068,0.32321
504.75089,0.32769
503.26110,0.42257
501.77131,0.38360
500.28152,0.38750
498.79173,0.39143
497.30194,0.30436
495.81216,0.32843
494.32237,0.34785
492.83258,0.36730
491.34279,0.36871
489.85300,0.36077
488.36321,0.29932
486.87343,0.28141
485.38364,0.26353
483.89385,0.26375
482.40406,0.29613
480.91427,0.23148
479.42448,0.16687
477.93469,0.08287
476.44491,0.06718
474.95512,0.06825
473.46533,0.06936
471.97554,0.11535
470.48575,0.05158
468.99596,0.13244
467.50618,0.11024
466.01639,0.08807
464.52660,0.00167
463.03681,0.01670
461.54702,0.02708
460.05723,0.03749
458.56745,0.03254
457.07766,0.09990
455.58787,0.07694
454.09808,0.05400
452.60829,0.11343
451.11850,0.17422
449.62871,0.13264
448.13893,0.09108
446.64914,0.23899
445.15935,0.29991
443.66956,0.38094
442.17977,0.42853
440.68998,0.47616
439.20020,0.52247
437.71041,0.48582
436.22062,0.51412
434.73083,0.54246
433.24104,0.78168
431.75125,0.88705
430.26146,0.89674
428.77168,0.90645
427.28189,1.06279
425.79210,1.20042
424.30231,1.12856
422.81252,1.05674
421.32273,1.09940
419.83295,1.03500
418.34316,0.96929
416.85337,0.90361
415.36358,0.65455
413.87379,0.60098
412.38400,0.57020
410.89422,0.53945
409.40443,0.52078
407.91464,0.50749
406.42485,0.43935
404.93506,0.44621
403.44527,0.45309
401.95548,0.46403
400.46570,0.34514
398.97591,0.36417
397.48612,0.38323
395.99633,0.43713
394.50654,0.49373
393.01675,0.48276
391.52697,0.47182
390.03718,0.27416
388.54739,0.24655
387.05760,0.27051
385.56781,0.29450
384.07802,0.34061
382.58824,0.30643
381.09845,0.29169
379.60866,0.27698
378.11887,0.35400
376.62908,0.28112
375.13929,0.23705
373.64950,0.19300
372.15972,0.16841
370.66993,0.21613
369.18014,0.15478
367.69035,0.09346
366.20056,0.05158
364.71077,0.07266
363.22099,0.05360
361.73120,0.03457
360.24141,0.07448
358.75162,0.07291
357.26183,0.09347
355.77204,0.11406
354.28225,0.16079
352.79247,0.11249
351.30268,0.09836
349.81289,0.08427
348.32310,0.09898
346.83331,0.02270
345.34352,0.03410
343.85374,0.04554
342.36395,0.18152
340.87416,0.10734
339.38437,0.12557
337.89458,0.14383
336.40479,0.12329
334.91501,0.14428
333.42522,0.12716
331.93543,0.11006
330.44564,0.07358
328.95585,0.09604
327.46606,0.06966
325.97627,0.04331
324.48649,0.05713
322.99670,0.06562
321.50691,0.07682
320.01712,0.08805
318.52733,0.13278
317.03754,0.20566
315.54776,0.21230
314.05797,0.21897
312.56818,0.11656
311.07839,0.01150
309.58860,0.00657
308.09881,0.00167
306.60902,0.07178
305.11924,0.04152
303.62945,0.02935
302.13966,0.00567
300.64987,0.04047
299.16008,0.00167
