1778.52000,0.03438
1777.03021,0.08365
1775.54042,0.06106
1774.05063,0.08380
1772.56085,0.05635
1771.07106,0.00530
1769.58127,0.06163
1768.09148,0.05495
1766.60169,0.05324
1765.11190,0.05746
1763.62212,0.02627
1762.13233,0.05616
1760.64254,0.06541
1759.15275,0.05302
1757.66296,0.07514
1756.17317,0.06478
1754.68339,0.07022
1753.19360,0.08061
1751.70381,0.08808
1750.21402,0.07096
1748.72423,0.05486
1747.23444,0.00530
1745.74465,0.07439
1744.25487,0.05290
1742.76508,0.12895
1741.27529,0.10162
1739.78550,0.07629
1738.29571,0.07463
1736.80592,0.07005
1735.31614,0.05565
1733.82635,0.06196
1732.33656,0.05452
1730.84677,0.07272
1729.35698,0.07322
1727.86719,0.04815
1726.37740,0.01129
1724.88762,0.02961
1723.39783,0.03024
1721.90804,0.00530
1720.41825,0.04426
1718.92846,0.01136
1717.43867,0.03562
1715.94889,0.06187
1714.45910,0.08028
1712.96931,0.06229
1711.47952,0.06993
1709.98973,0.07366
1708.49994,0.07644
1707.01016,0.09353
1705.52037,0.11066
1704.03058,0.10270
1702.54079,0.07902
1701.05100,0.08984
1699.56121,0.11842
1698.07142,0.13521
1696.58164,0.11855
1695.09185,0.14722
1693.60206,0.18578
1692.11227,0.15838
1690.62248,0.18715
1689.13269,0.15588
1687.64291,0.20836
1686.15312,0.17321
1684.66333,0.22574
1683.17354,0.21725
1681.68375,0.19599
1680.19396,0.18756
1678.70417,0.19098
1677.21439,0.17868
1675.72460,0.20679
1674.23481,0.18273
1672.74502,0.18628
1671.25523,0.22630
1669.76544,0.20431
1668.27566,0.21978
1666.78587,0.22050
1665.29608,0.14542
1663.80629,0.18561
1662.31650,0.21893
1660.82671,0.17743
1659.33693,0.20786
1657.84714,0.20386
1656.35735,0.13193
1654.86756,0.13094
1653.37777,0.17430
1651.88798,0.11428
1650.39819,0.13900
1648.90841,0.16079
1647.41862,0.16883
1645.92883,0.14636
1644.43904,0.12393
1642.94925,0.16457
1641.45946,0.16682
1639.96968,0.14646
1638.47989,0.16552
1636.99010,0.12552
1635.50031,0.19783
1634.01052,0.15593
1632.52073,0.15641
1631.03094,0.15199
1629.54116,0.17223
1628.05137,0.19152
1626.56158,0.19311
1625.07179,0.15238
1623.58200,0.23775
1622.09221,0.25224
1620.60243,0.23033
1619.11264,0.21632
1617.62285,0.24273
1616.13306,0.19037
1614.64327,0.21291
1613.15348,0.16948
1611.66370,0.19306
1610.17391,0.13394
1608.68412,0.18221
1607.19433,0.21376
1605.70454,0.19512
1604.21475,0.19572
1602.72496,0.19635
1601.23518,0.17091
1599.74539,0.19277
1598.25560,0.17922
1596.76581,0.16274
1595.27602,0.16008
1593.78623,0.15548
1592.29645,0.10463
1590.80666,0.12078
1589.31687,0.12022
1587.82708,0.12068
1586.33729,0.13692
1584.84750,0.12169
1583.35771,0.11534
1581.86793,0.08244
1580.37814,0.08799
1578.88835,0.10932
1577.39856,0.11689
1575.90877,0.09594
1574.41898,0.06221
1572.92920,0.04428
1571.43941,0.06183
1569.94962,0.06120
1568.45983,0.06059
1566.97004,0.08316
1565.48025,0.06047
1563.99047,0.00530
1562.50068,0.02522
1561.01089,0.03729
1559.52110,0.04940
1558.03131,0.03396
1556.54152,0.08553
1555.05173,0.10758
1553.56195,0.09815
1552.07216,0.05920
1550.58237,0.06461
1549.09258,0.07398
1547.60279,0.03907
1546.11300,0.12730
1544.62322,0.07768
1543.13343,0.09014
1541.64364,0.04945
1540.15385,0.04917
1538.66406,0.04893
1537.17427,0.08121
1535.68448,0.02982
1534.19470,0.03951
1532.70491,0.00000
1531.21512,0.04719
1529.72533,0.03334
1528.23554,0.02446
1526.74575,0.03038
1525.25597,0.06193
1523.76618,0.01867
1522.27639,0.03158
1520.78660,0.02483
1519.29681,0.00530
1517.80702,0.03124
1516.31724,0.01389
1514.82745,0.06156
1513.33766,0.06002
1511.84787,0.05852
1510.35808,0.01076
1508.86829,0.01129
1507.37850,0.00693
1505.88872,0.01836
1504.39893,0.02292
1502.90914,0.02260
1501.41935,0.00655
1499.92956,0.03091
1498.43977,0.05727
1496.94999,0.14275
1495.46020,0.15145
1493.97041,0.18579
1492.48062,0.26841
1490.99083,0.25456
1489.50104,0.35892
1488.01125,0.39043
1486.52147,0.42197
1485.03168,0.57862
1483.54189,0.64962
1482.05210,0.71770
1480.56231,0.77892
1479.07252,0.95441
1477.58274,1.04524
1476.09295,1.16663
1474.60316,1.21123
1473.11337,1.29920
1471.62358,1.29167
1470.13379,1.38659
1468.64401,1.30132
1467.15422,1.20919
1465.66443,1.16092
1464.17464,1.11267
1462.68485,1.06791
1461.19506,1.03795
1459.70527,0.97060
1458.21549,0.87571
1456.72570,0.82024
1455.23591,0.66238
1453.74612,0.68084
1452.25633,0.66782
1450.76654,0.55930
1449.27676,0.61429
1447.78697,0.51765
1446.29718,0.46931
1444.80739,0.44561
1443.31760,0.42195
1441.82781,0.38748
1440.33802,0.31759
1438.84824,0.23691
1437.35845,0.23602
1435.86866,0.21055
1434.37887,0.19496
1432.88908,0.23750
1431.39929,0.18160
1429.90951,0.25769
1428.41972,0.20382
1426.92993,0.23960
1425.44014,0.21140
1423.95035,0.24872
1422.46056,0.28608
1420.97078,0.30524
1419.48099,0.26141
1417.99120,0.32398
1416.50141,0.30286
1415.01162,0.33989
1413.52183,0.30702
1412.03204,0.28698
1410.54226,0.30243
1409.05247,0.27163
1407.56268,0.30192
1406.07289,0.26133
1404.58310,0.26263
1403.09331,0.26396
1401.60353,0.31408
1400.11374,0.32976
1398.62395,0.38585
1397.13416,0.40651
1395.64437,0.45872
1394.15458,0.53165
1392.66479,0.51007
1391.17501,0.52495
1389.68522,0.57335
1388.19543,0.45633
1386.70564,0.47328
1385.21585,0.49026
1383.72606,0.55160
1382.23628,0.47114
1380.74649,0.43406
1379.25670,0.51912
1377.76691,0.51263
1376.27712,0.54064
1374.78733,0.61300
1373.29755,0.62335
1371.80776,0.77554
1370.31797,0.85096
1368.82818,0.89291
1367.33839,0.93490
1365.84860,1.16503
1364.35881,1.39323
1362.86903,1.40478
1361.37924,1.55130
1359.88945,1.61314
1358.39966,1.72427
1356.90987,1.86398
1355.42008,1.75259
1353.93030,1.61168
1352.44051,1.58555
1350.95072,1.55944
1349.46093,1.41863
1347.97114,1.27392
1346.48135,1.15681
1344.99156,1.02496
1343.50178,0.98178
1342.01199,0.88841
1340.52220,0.69362
1339.03241,0.62493
1337.54262,0.62226
1336.05283,0.58220
1334.56305,0.54217
1333.07326,0.49429
1331.58347,0.52621
1330.09368,0.53257
1328.60389,0.45918
1327.11410,0.36809
1325.62432,0.38636
1324.13453,0.38299
1322.64474,0.38261
1321.15495,0.38029
1319.66516,0.37949
1318.17537,0.37871
1316.68558,0.39815
1315.19580,0.30831
1313.70601,0.33176
1312.21622,0.29812
1310.72643,0.29996
1309.23664,0.36192
1307.74685,0.29883
1306.25707,0.31948
1304.76728,0.33278
1303.27749,0.34611
1301.78770,0.33338
1300.29791,0.26060
1298.80812,0.27354
1297.31834,0.25499
1295.82855,0.31132
1294.33876,0.29580
1292.84897,0.31674
1291.35918,0.32196
1289.86939,0.28042
1288.37960,0.23893
1286.88982,0.29250
1285.40003,0.31163
1283.91024,0.39383
1282.42045,0.42485
1280.93066,0.31112
1279.44087,0.39637
1277.95109,0.42551
1276.46130,0.39855
1274.97151,0.40363
1273.48172,0.40874
1271.99193,0.44294
1270.50214,0.46042
1269.01235,0.46120
1267.52257,0.53390
1266.03278,0.48155
1264.54299,0.54447
1263.05320,0.61333
1261.56341,0.62953
1260.07362,0.64577
1258.58384,0.63298
1257.09405,0.55522
1255.60426,0.54742
1254.11447,0.61647
1252.62468,0.54275
1251.13489,0.61285
1249.64511,0.58253
1248.15532,0.50398
1246.66553,0.44959
1245.17574,0.39523
1243.68595,0.37095
1242.19616,0.43927
1240.70637,0.34907
1239.21659,0.30222
1237.72680,0.22685
1236.23701,0.23917
1234.74722,0.27909
1233.25743,0.22352
1231.76764,0.16797
1230.27786,0.19125
1228.78807,0.18206
1227.29828,0.24676
1225.80849,0.16574
1224.31870,0.11134
1222.82891,0.16629
1221.33912,0.13166
1219.84934,0.13940
1218.35955,0.14717
1216.86976,0.16582
1215.37997,0.21699
1213.89018,0.19236
1212.40039,0.16186
1210.91061,0.11956
1209.42082,0.11276
1207.93103,0.11190
1206.44124,0.11107
1204.95145,0.12898
1203.46166,0.08882
1201.97188,0.07035
1200.48209,0.07655
1198.99230,0.10444
1197.50251,0.05849
1196.01272,0.07168
1194.52293,0.05534
1193.03314,0.03904
1191.54336,0.03164
1190.05357,0.01836
1188.56378,0.01496
1187.07399,0.03129
1185.58420,0.00530
1184.09441,0.03001
1182.60463,0.04786
1181.11484,0.06574
1179.62505,0.05214
1178.13526,0.03267
1176.64547,0.04080
1175.15568,0.13267
1173.66589,0.10246
1172.17611,0.01712
1170.68632,0.03572
1169.19653,0.05435
1167.70674,0.05086
1166.21695,0.05035
1164.72716,0.06070
1163.23738,0.08882
1161.74759,0.07462
1160.25780,0.00530
1158.76801,0.02894
1157.27822,0.05261
1155.78843,0.09158
1154.29865,0.09316
1152.80886,0.03666
1151.31907,0.06391
1149.82928,0.11680
1148.33949,0.12639
1146.84970,0.11828
1145.35991,0.11020
1143.87013,0.05783
1142.38034,0.09611
1140.89055,0.17381
1139.40076,0.15798
1137.91097,0.22393
1136.42118,0.27809
1134.93140,0.27417
1133.44161,0.27029
1131.95182,0.30682
1130.46203,0.34338
1128.97224,0.35240
1127.48245,0.42842
1125.99266,0.40008
1124.50288,0.44563
1123.01309,0.47546
1121.52330,0.50532
1120.03351,0.61499
1118.54372,0.53953
1117.05393,0.57047
1115.56415,0.49508
1114.07436,0.56154
1112.58457,0.58470
1111.09478,0.60789
1109.60499,0.65475
1108.11520,0.68983
1106.62542,0.63236
1105.13563,0.72855
1103.64584,0.77850
1102.15605,0.91514
1100.66626,0.90359
1099.17647,0.89208
1097.68668,1.00420
1096.19690,1.01490
1094.70711,1.05519
1093.21732,1.10536
1091.72753,1.12306
1090.23774,1.12011
1088.74795,1.11719
1087.25817,1.21377
1085.76838,1.33206
1084.27859,1.41886
1082.78880,1.41804
1081.29901,1.36308
1079.80922,1.32391
1078.31943,1.34387
1076.82965,1.36386
1075.33986,1.43411
1073.85007,1.44530
1072.36028,1.41713
1070.87049,1.56430
1069.38070,1.57066
1067.89092,1.65338
1066.40113,1.73613
1064.91134,1.56138
1063.42155,1.41522
1061.93176,1.35871
1060.44197,1.37314
1058.95219,1.18867
1057.46240,1.20169
1055.97261,1.21474
1054.48282,1.05006
1052.99303,1.06859
1051.50324,0.94140
1050.01345,0.87235
1048.52367,0.79544
1047.03388,0.76880
1045.54409,0.74219
1044.05430,0.72940
1042.56451,0.58763
1041.07472,0.50892
1039.58494,0.52479
1038.09515,0.49834
1036.60536,0.47389
1035.11557,0.44948
1033.62578,0.40146
1032.13599,0.39976
1030.64620,0.38332
1029.15642,0.41320
1027.66663,0.42096
1026.17684,0.42874
1024.68705,0.47546
1023.19726,0.61282
1021.70747,0.70491
1020.21769,0.85218
1018.72790,1.02115
1017.23811,1.15864
1015.74832,1.29616
1014.25853,1.49674
1012.76874,1.63531
1011.27896,1.75520
1009.78917,1.89088
1008.29938,2.00000
1006.80959,1.96881
1005.31980,1.93765
1003.83001,1.81148
1002.34022,1.70800
1000.85044,1.59963
999.36065,1.45780
997.87086,1.39972
996.38107,1.34167
994.89128,1.36145
993.40149,1.38521
991.91171,1.36173
990.42192,1.37275
988.93213,1.33062
987.44234,1.34810
985.95255,1.36562
984.46276,1.35608
982.97297,1.33772
981.48319,1.29968
979.99340,1.16911
978.50361,1.16709
977.01382,1.16510
975.52403,1.11242
974.03424,1.00857
972.54446,0.97073
971.05467,0.88072
969.56488,0.85575
968.07509,0.85346
966.58530,0.85121
965.09551,0.70716
963.60573,0.84482
962.11594,0.76387
960.62615,0.78637
959.13636,0.71779
957.64657,0.64925
956.15678,0.64427
954.66699,0.62750
953.17721,0.56348
951.68742,0.59503
950.19763,0.62366
948.70784,0.65232
947.21805,0.54313
945.72826,0.54527
944.23848,0.64789
942.74869,0.62349
941.25890,0.69270
939.76911,0.68856
938.27932,0.68445
936.78953,0.70549
935.29974,0.76595
933.80996,0.80379
932.32017,0.81016
930.83038,0.81606
929.34059,0.82199
927.85080,0.77034
926.36101,0.86055
924.87123,0.79911
923.38144,0.84211
921.89165,0.82358
920.40186,0.80508
918.91207,0.80780
917.42228,0.90016
915.93250,0.84680
914.44271,0.82597
912.95292,0.81305
911.46313,0.80016
909.97334,0.87496
908.48355,0.92025
906.99376,0.85428
905.50398,0.89470
904.01419,0.86129
902.52440,0.82792
901.03461,0.84776
899.54482,0.91884
898.05503,0.91018
896.56525,0.91830
895.07546,0.96437
893.58567,1.01046
892.09588,0.96057
890.60609,0.94026
889.11630,0.88747
887.62651,0.92336
886.13673,0.91742
884.64694,0.91151
883.15715,0.93371
881.66736,0.93919
880.17757,0.90039
878.68778,0.93056
877.19800,0.96076
875.70821,0.94470
874.21842,0.96709
872.72863,1.04269
871.23884,1.10060
869.74905,1.12209
868.25927,1.14362
866.76948,1.09034
865.27969,1.07549
863.78990,1.08628
862.30011,1.11779
860.81032,1.09319
859.32053,1.06863
857.83075,1.12682
856.34096,1.07278
854.85117,1.01384
853.36138,0.95690
851.87159,0.87685
850.38180,0.79683
848.89202,0.75181
847.40223,0.52659
845.91244,0.45602
844.42265,0.45591
842.93286,0.45582
841.44307,0.46217
839.95329,0.34742
838.46350,0.33906
836.97371,0.34846
835.48392,0.35149
833.99413,0.35456
832.50434,0.32958
831.01455,0.41199
829.52477,0.38315
828.03498,0.38782
826.54519,0.30339
825.05540,0.21899
823.56561,0.25232
822.07582,0.20590
820.58604,0.21763
819.09625,0.17866
817.60646,0.13973
816.11667,0.12496
814.62688,0.07674
813.13709,0.06695
811.64730,0.00698
810.15752,0.00612
808.66773,0.00530
807.17794,0.05383
805.68815,0.01672
804.19836,0.04661
802.70857,0.05141
801.21879,0.05625
799.72900,0.10691
798.23921,0.21572
796.74942,0.34425
795.25963,0.35759
793.76984,0.37096
792.28006,0.47891
790.79027,0.48348
789.30048,0.54618
787.81069,0.59908
786.32090,0.58799
784.83111,0.57693
783.34132,0.64961
781.85154,0.78438
780.36175,0.73402
778.87196,0.75066
777.38217,0.76734
775.89238,0.83625
774.40259,0.84412
772.91281,0.77915
771.42302,0.78857
769.93323,0.79802
768.44344,0.79815
766.95365,0.85051
765.46386,0.88517
763.97407,0.81645
762.48429,0.76599
760.99450,0.71555
759.50471,0.62527
758.01492,0.48380
756.52513,0.45267
755.03534,0.38710
753.54556,0.32156
752.05577,0.30037
750.56598,0.16399
749.07619,0.13302
747.58640,0.11242
746.09661,0.09185
744.60683,0.06984
743.11704,0.09612
741.62725,0.03970
740.13746,0.03404
738.64767,0.02841
737.15788,0.04300
735.66809,0.01428
734.17831,0.00530
732.68852,0.03852
731.19873,0.07177
729.70894,0.02330
728.21915,0.01624
726.72936,0.04761
725.23958,0.07508
723.74979,0.05728
722.26000,0.03951
720.77021,0.03556
719.28042,0.01588
717.79063,0.04942
716.30084,0.02734
714.81106,0.00530
713.32127,0.01836
711.83148,0.05903
710.34169,0.03374
708.85190,0.05035
707.36211,0.06698
705.87233,0.07134
704.38254,0.02353
702.89275,0.00530
701.40296,0.04116
699.91317,0.07706
698.42338,0.05044
696.93360,0.13023
695.44381,0.10663
693.95402,0.13477
692.46423,0.16295
690.97444,0.22809
689.48465,0.21152
687.99486,0.22945
686.50508,0.25037
685.01529,0.27131
683.52550,0.27063
682.03571,0.32907
680.54592,0.25360
679.05613,0.23922
677.56635,0.22487
676.07656,0.23617
674.58677,0.13916
673.09698,0.16036
671.60719,0.16486
670.11740,0.16939
668.62761,0.10796
667.13783,0.13816
665.64804,0.08271
664.15825,0.02729
662.66846,0.08122
661.17867,0.11548
659.68888,0.10350
658.19910,0.12699
656.70931,0.15052
655.21952,0.19279
653.72973,0.17108
652.23994,0.23706
650.75015,0.19227
649.26037,0.14751
647.77058,0.16532
646.28079,0.17923
644.79100,0.13998
643.30121,0.12982
641.81142,0.11970
640.32163,0.10221
638.83185,0.08476
637.34206,0.00530
635.85227,0.03700
634.36248,0.06873
632.87269,0.03746
631.38290,0.08698
629.89312,0.05676
628.40333,0.05317
626.91354,0.04960
625.42375,0.11797
623.93396,0.11250
622.44417,0.11396
620.95438,0.11544
619.46460,0.09924
617.97481,0.09981
616.48502,0.13192
614.99523,0.11975
613.50544,0.10761
612.01565,0.08172
610.52587,0.14449
609.03608,0.07631
607.54629,0.13078
606.05650,0.18528
604.56671,0.23341
603.07692,0.24809
601.58714,0.21011
600.09735,0.17216
598.60756,0.21254
597.11777,0.08454
595.62798,0.12794
594.13819,0.11524
592.64840,0.10256
591.15862,0.08795
589.66883,0.18171
588.17904,0.13860
586.68925,0.11522
585.19946,0.09187
583.70967,0.17788
582.21989,0.18119
580.73010,0.20275
579.24031,0.22434
577.75052,0.23464
576.26073,0.16323
574.77094,0.16571
573.28115,0.17315
571.79137,0.18062
570.30158,0.25608
568.81179,0.29415
567.32200,0.32339
565.83221,0.35266
564.34242,0.37900
562.85264,0.34530
561.36285,0.46330
559.87306,0.47005
558.38327,0.47683
556.89348,0.54568
555.40369,0.57419
553.91391,0.59337
552.42412,0.61259
550.93433,0.68650
549.44454,0.62748
547.95475,0.68668
546.46496,0.68190
544.97517,0.67714
543.48539,0.76500
541.99560,0.74160
540.50581,0.76895
539.01602,0.79633
537.52623,0.78682
536.03644,0.63847
534.54666,0.65955
533.05687,0.70429
531.56708,0.74907
530.07729,0.61366
528.58750,0.55804
527.09771,0.59012
525.60792,0.62222
524.11814,0.59330
522.62835,0.58213
521.13856,0.50501
519.64877,0.48603
518.15898,0.46709
516.66919,0.50825
515.17941,0.41156
513.68962,0.43309
512.19983,0.45465
510.71004,0.48510
509.22025,0.39052
507.73046,0.44664
506.24068,0.44617
504.75089,0.44573
503.26110,0.52362
501.77131,0.44988
500.28152,0.47957
498.79173,0.50930
497.30194,0.36375
495.81216,0.40438
494.32237,0.45095
492.83258,0.49755
491.34279,0.54319
489.85300,0.46872
488.36321,0.40117
486.87343,0.35187
485.38364,0.30261
483.89385,0.39273
482.40406,0.31547
480.91427,0.27270
479.42448,0.22997
477.93469,0.18726
476.44491,0.16035
474.95512,0.14184
473.46533,0.12336
471.97554,0.08178
470.48575,0.08060
468.99596,0.17104
467.50618,0.11478
466.01639,0.05855
464.52660,0.00530
463.03681,0.08691
461.54702,0.10700
460.05723,0.12713
458.56745,0.12611
457.07766,0.04633
455.58787,0.09265
454.09808,0.13900
452.60829,0.19721
451.11850,0.21309
449.62871,0.21226
448.13893,0.21147
446.64914,0.31609
445.15935,0.43551
443.66956,0.45353
442.17977,0.49816
440.68998,0.54283
439.20020,0.65451
437.71041,0.62932
436.22062,0.68984
434.73083,0.75040
433.24104,0.93902
431.75125,1.15722
430.26146,1.16222
428.77168,1.16726
427.28189,1.30283
425.79210,1.32123
424.30231,1.31898
422.81252,1.31676
421.32273,1.33821
419.83295,1.25826
418.34316,1.20591
416.85337,1.15359
415.36358,0.99789
413.87379,0.80481
412.38400,0.75652
410.89422,0.70827
409.40443,0.64725
407.91464,0.65816
406.42485,0.62675
404.93506,0.59143
403.44527,0.55615
401.95548,0.54551
400.46570,0.51423
398.97591,0.51499
397.48612,0.51578
395.99633,0.51316
394.50654,0.61496
393.01675,0.58679
391.52697,0.55866
390.03718,0.44389
388.54739,0.38528
387.05760,0.41289
385.56781,0.44053
384.07802,0.52975
382.58824,0.50378
381.09845,0.44288
379.60866,0.38201
378.11887,0.35810
376.62908,0.35491
375.13929,0.32811
373.64950,0.30135
372.15972,0.24310
370.66993,0.27253
369.18014,0.21238
367.69035,0.15226
366.20056,0.04785
364.71077,0.09416
363.22099,0.08535
361.73120,0.07656
360.24141,0.13971
358.75162,0.14084
357.26183,0.12280
355.77204,0.10480
354.28225,0.12868
352.79247,0.08956
351.30268,0.05343
349.81289,0.01733
348.32310,0.04527
346.83331,0.00530
345.34352,0.02734
343.85374,0.04940
342.36395,0.06855
340.87416,0.15470
339.38437,0.18326
337.89458,0.21186
336.40479,0.10409
334.91501,0.03574
333.42522,0.10285
331.93543,0.16998
330.44564,0.09287
328.95585,0.09851
327.46606,0.06825
325.97627,0.03801
324.48649,0.05852
322.99670,0.01900
321.50691,0.08734
320.01712,0.15571
318.52733,0.14631
317.03754,0.14581
315.54776,0.14632
314.05797,0.14686
312.56818,0.13070
311.07839,0.13032
309.58860,0.08025
308.09881,0.03020
306.60902,0.00530
305.11924,0.10480
303.62945,0.11914
302.13966,0.13352
300.64987,0.01054
299.16008,0.00530
