1778.52000,0.06541
1777.03021,0.06395
1775.54042,0.05647
1774.05063,0.03238
1772.56085,0.02799
1771.07106,0.04029
1769.58127,0.05262
1768.09148,0.00746
1766.60169,0.05771
1765.11190,0.00504
1763.62212,0.06595
1762.13233,0.03908
1760.64254,0.00166
1759.15275,0.07931
1757.66296,0.02681
1756.17317,0.05003
1754.68339,0.03545
1753.19360,0.05419
1751.70381,0.00485
1750.21402,0.02366
1748.72423,0.00921
1747.23444,0.04322
1745.74465,0.03488
1744.25487,0.01901
1742.76508,0.03496
1741.27529,0.07516
1739.78550,0.06998
1738.29571,0.09814
1736.80592,0.03550
1735.31614,0.00166
1733.82635,0.04578
1732.33656,0.02786
1730.84677,0.06599
1729.35698,0.02847
1727.86719,0.07726
1726.37740,0.03526
1724.88762,0.00085
1723.39783,0.01493
1721.90804,0.03206
1720.41825,0.05226
1718.92846,0.04675
1717.43867,0.06549
1715.94889,0.08730
1714.45910,0.00166
1712.96931,0.07251
1711.47952,0.10101
1709.98973,0.04325
1708.49994,0.10664
1707.01016,0.12766
1705.52037,0.14872
1704.03058,0.09261
1702.54079,0.13342
1701.05100,0.16820
1699.56121,0.18334
1698.07142,0.22424
1696.58164,0.13650
1695.09185,0.21683
1693.60206,0.23059
1692.11227,0.23983
1690.62248,0.27182
1689.13269,0.22209
1687.64291,0.24051
1686.15312,0.23929
1684.66333,0.25476
1683.17354,0.28993
1681.68375,0.28427
1680.19396,0.25593
1678.70417,0.22762
1677.21439,0.19935
1675.72460,0.26799
1674.23481,0.26098
1672.74502,0.25551
1671.25523,0.28186
1669.76544,0.26889
1668.27566,0.25292
1666.78587,0.23548
1665.29608,0.24228
1663.80629,0.24306
1662.31650,0.33017
1660.82671,0.23867
1659.33693,0.27135
1657.84714,0.14964
1656.35735,0.22931
1654.86756,0.19547
1653.37777,0.20405
1651.88798,0.20661
1650.39819,0.16378
1648.90841,0.20122
1647.41862,0.22810
1645.92883,0.16873
1644.43904,0.10938
1642.94925,0.21205
1641.45946,0.18153
1639.96968,0.17224
1638.47989,0.21143
1636.99010,0.19917
1635.50031,0.20815
1634.01052,0.22775
1632.52073,0.19743
1631.03094,0.20650
1629.54116,0.21410
1628.05137,0.19901
1626.56158,0.19304
1625.07179,0.29913
1623.58200,0.23116
1622.09221,0.32066
1620.60243,0.31028
1619.11264,0.29691
1617.62285,0.24572
1616.13306,0.26572
1614.64327,0.19946
1613.15348,0.23920
1611.66370,0.20480
1610.17391,0.23704
1608.68412,0.25417
1607.19433,0.21986
1605.70454,0.19316
1604.21475,0.21493
1602.72496,0.23673
1601.23518,0.17380
1599.74539,0.20778
1598.25560,0.18881
1596.76581,0.13656
1595.27602,0.22060
1593.78623,0.17750
1592.29645,0.15564
1590.80666,0.14288
1589.31687,0.15136
1587.82708,0.15532
1586.33729,0.15024
1584.84750,0.13005
1583.35771,0.08870
1581.86793,0.08522
1580.37814,0.14385
1578.88835,0.12682
1577.39856,0.15372
1575.90877,0.07923
1574.41898,0.13345
1572.92920,0.10292
1571.43941,0.04821
1569.94962,0.03970
1568.45983,0.03122
1566.97004,0.12799
1565.48025,0.10217
1563.99047,0.09454
1562.50068,0.09301
1561.01089,0.05215
1559.52110,0.10064
1558.03131,0.14462
1556.54152,0.07963
1555.05173,0.16304
1553.56195,0.11477
1552.07216,0.08773
1550.58237,0.11976
1549.09258,0.10187
1547.60279,0.11883
1546.11300,0.09041
1544.62322,0.14679
1543.13343,0.15023
1541.64364,0.11736
1540.15385,0.09437
1538.66406,0.07141
1537.17427,0.06740
1535.68448,0.04526
1534.19470,0.07614
1532.70491,0.08132
1531.21512,0.08804
1529.72533,0.10236
1528.23554,0.06828
1526.74575,0.09478
1525.25597,0.05319
1523.76618,0.09792
1522.27639,0.10787
1520.78660,0.06032
1519.29681,0.06730
1517.80702,0.00166
1516.31724,0.10764
1514.82745,0.07439
1513.33766,0.07297
1511.84787,0.07157
1510.35808,0.05961
1508.86829,0.05980
1507.37850,0.06153
1505.88872,0.07540
1504.39893,0.05146
1502.90914,0.08205
1501.41935,0.05818
1499.92956,0.08732
1498.43977,0.11498
1496.94999,0.15782
1495.46020,0.16738
1493.97041,0.23147
1492.48062,0.31830
1490.99083,0.36278
1489.50104,0.41486
1488.01125,0.48892
1486.52147,0.56302
1485.03168,0.63336
1483.54189,0.65075
1482.05210,0.75295
1480.56231,0.93693
1479.07252,1.01800
1477.58274,1.18540
1476.09295,1.27107
1474.60316,1.36738
1473.11337,1.45615
1471.62358,1.45564
1470.13379,1.46879
1468.64401,1.33664
1467.15422,1.25750
1465.66443,1.26696
1464.17464,1.27645
1462.68485,1.20196
1461.19506,1.13507
1459.70527,1.19386
1458.21549,1.05134
1456.72570,1.00120
1455.23591,0.88902
1453.74612,0.83895
1452.25633,0.81312
1450.76654,0.78885
1449.27676,0.75098
1447.78697,0.75402
1446.29718,0.62387
1444.80739,0.62244
1443.31760,0.62103
1441.82781,0.57273
1440.33802,0.42909
1438.84824,0.40205
1437.35845,0.35990
1435.86866,0.32082
1434.37887,0.33778
1432.88908,0.35780
1431.39929,0.38390
1429.90951,0.33435
1428.41972,0.35144
1426.92993,0.30044
1425.44014,0.34938
1423.95035,0.37489
1422.46056,0.40044
1420.97078,0.36017
1419.48099,0.43044
1417.99120,0.39326
1416.50141,0.33340
1415.01162,0.41891
1413.52183,0.35912
1412.03204,0.38111
1410.54226,0.40616
1409.05247,0.39037
1407.56268,0.43365
1406.07289,0.40884
1404.58310,0.39996
1403.09331,0.39111
1401.60353,0.40122
1400.11374,0.42196
1398.62395,0.52448
1397.13416,0.44385
1395.64437,0.45258
1394.15458,0.60969
1392.66479,0.55188
1391.17501,0.62579
1389.68522,0.59832
1388.19543,0.58601
1386.70564,0.60326
1385.21585,0.62054
1383.72606,0.57957
1382.23628,0.53712
1380.74649,0.51439
1379.25670,0.55223
1377.76691,0.55227
1376.27712,0.54931
1374.78733,0.60996
1373.29755,0.68882
1371.80776,0.74802
1370.31797,0.83905
1368.82818,0.94146
1367.33839,1.04391
1365.84860,1.17743
1364.35881,1.27616
1362.86903,1.50056
1361.37924,1.57211
1359.88945,1.61190
1358.39966,1.70470
1356.90987,1.86717
1355.42008,1.73903
1353.93030,1.75018
1352.44051,1.67508
1350.95072,1.60001
1349.46093,1.61429
1347.97114,1.38942
1346.48135,1.19486
1344.99156,1.10327
1343.50178,1.05864
1342.01199,0.96106
1340.52220,0.81961
1339.03241,0.77206
1337.54262,0.82293
1336.05283,0.79512
1334.56305,0.76734
1333.07326,0.65482
1331.58347,0.58623
1330.09368,0.70691
1328.60389,0.66412
1327.11410,0.51994
1325.62432,0.50447
1324.13453,0.49206
1322.64474,0.43124
1321.15495,0.45674
1319.66516,0.45653
1318.17537,0.45636
1316.68558,0.42898
1315.19580,0.47883
1313.70601,0.43031
1312.21622,0.49991
1310.72643,0.41210
1309.23664,0.37125
1307.74685,0.40462
1306.25707,0.38957
1304.76728,0.40029
1303.27749,0.41104
1301.78770,0.35976
1300.29791,0.33576
1298.80812,0.29817
1297.31834,0.38778
1295.82855,0.37750
1294.33876,0.43235
1292.84897,0.40852
1291.35918,0.44375
1289.86939,0.41090
1288.37960,0.37808
1286.88982,0.47094
1285.40003,0.48209
1283.91024,0.57350
1282.42045,0.41365
1280.93066,0.46577
1279.44087,0.59361
1277.95109,0.48533
1276.46130,0.44671
1274.97151,0.49518
1273.48172,0.54367
1271.99193,0.50061
1270.50214,0.60443
1269.01235,0.57204
1267.52257,0.66381
1266.03278,0.59818
1264.54299,0.64611
1263.05320,0.73495
1261.56341,0.71256
1260.07362,0.69020
1258.58384,0.74281
1257.09405,0.71068
1255.60426,0.67404
1254.11447,0.73280
1252.62468,0.71893
1251.13489,0.69298
1249.64511,0.67918
1248.15532,0.60334
1246.66553,0.56917
1245.17574,0.53502
1243.68595,0.56677
1242.19616,0.47743
1240.70637,0.46988
1239.21659,0.30190
1237.72680,0.43217
1236.23701,0.33540
1234.74722,0.34160
1233.25743,0.29788
1231.76764,0.25419
1230.27786,0.34678
1228.78807,0.35160
1227.29828,0.32315
1225.80849,0.23569
1224.31870,0.16795
1222.82891,0.21983
1221.33912,0.27628
1219.84934,0.25481
1218.35955,0.23336
1216.86976,0.25510
1215.37997,0.24356
1213.89018,0.28807
1212.40039,0.23118
1210.91061,0.21823
1209.42082,0.26737
1207.93103,0.23632
1206.44124,0.20530
1204.95145,0.11073
1203.46166,0.10097
1201.97188,0.07004
1200.48209,0.13907
1198.99230,0.10215
1197.50251,0.12734
1196.01272,0.06173
1194.52293,0.03097
1193.03314,0.00025
1191.54336,0.16635
1190.05357,0.04032
1188.56378,0.08992
1187.07399,0.04419
1185.58420,0.00000
1184.09441,0.03745
1182.60463,0.07267
1181.11484,0.10792
1179.62505,0.00166
1178.13526,0.03453
1176.64547,0.02354
1175.15568,0.10946
1173.66589,0.13335
1172.17611,0.07250
1170.68632,0.07148
1169.19653,0.07049
1167.70674,0.05212
1166.21695,0.06407
1164.72716,0.03063
1163.23738,0.05172
1161.74759,0.13188
1160.25780,0.08038
1158.76801,0.06750
1157.27822,0.05467
1155.78843,0.09257
1154.29865,0.08813
1152.80886,0.10642
1151.31907,0.02786
1149.82928,0.05682
1148.33949,0.09186
1146.84970,0.06941
1145.35991,0.04699
1143.87013,0.07759
1142.38034,0.17786
1140.89055,0.14797
1139.40076,0.30886
1137.91097,0.25936
1136.42118,0.31888
1134.93140,0.29670
1133.44161,0.27454
1131.95182,0.34476
1130.46203,0.44075
1128.97224,0.37631
1127.48245,0.40575
1125.99266,0.50638
1124.50288,0.45112
1123.01309,0.47839
1121.52330,0.50570
1120.03351,0.51563
1118.54372,0.53165
1117.05393,0.57041
1115.56415,0.58346
1114.07436,0.47696
1112.58457,0.56198
1111.09478,0.64705
1109.60499,0.71624
1108.11520,0.74460
1106.62542,0.68519
1105.13563,0.83320
1103.64584,0.84349
1102.15605,0.97644
1100.66626,0.97847
1099.17647,0.98053
1097.68668,1.07118
1096.19690,1.15278
1094.70711,1.06941
1093.21732,1.11172
1091.72753,1.25398
1090.23774,1.25169
1088.74795,1.24944
1087.25817,1.30702
1085.76838,1.37674
1084.27859,1.49343
1082.78880,1.35128
1081.29901,1.40293
1079.80922,1.36227
1078.31943,1.41323
1076.82965,1.46423
1075.33986,1.64772
1073.85007,1.54210
1072.36028,1.55913
1070.87049,1.59284
1069.38070,1.71742
1067.89092,1.71033
1066.40113,1.70327
1064.91134,1.72652
1063.42155,1.54241
1061.93176,1.48852
1060.44197,1.49371
1058.95219,1.34602
1057.46240,1.28164
1055.97261,1.21728
1054.48282,1.17718
1052.99303,1.09321
1051.50324,0.99262
1050.01345,0.90720
1048.52367,0.87178
1047.03388,0.84622
1045.54409,0.82069
1044.05430,0.78839
1042.56451,0.67286
1041.07472,0.67696
1039.58494,0.55392
1038.09515,0.39913
1036.60536,0.44192
1035.11557,0.48475
1033.62578,0.47841
1032.13599,0.45243
1030.64620,0.45221
1029.15642,0.41720
1027.66663,0.46550
1026.17684,0.51382
1024.68705,0.52433
1023.19726,0.58634
1021.70747,0.70742
1020.21769,0.89666
1018.72790,1.12075
1017.23811,1.23134
1015.74832,1.34196
1014.25853,1.50257
1012.76874,1.63747
1011.27896,1.80269
1009.78917,1.96188
1008.29938,2.00000
1006.80959,1.98592
1005.31980,1.97188
1003.83001,1.83146
1002.34022,1.68351
1000.85044,1.61431
999.36065,1.50881
997.87086,1.49190
996.38107,1.47503
994.89128,1.46197
993.40149,1.49588
991.91171,1.46472
990.42192,1.48809
988.93213,1.46759
987.44234,1.43578
985.95255,1.40399
984.46276,1.39419
982.97297,1.31630
981.48319,1.35198
979.99340,1.16970
978.50361,1.12219
977.01382,1.07470
975.52403,1.23919
974.03424,1.13576
972.54446,1.06113
971.05467,1.03194
969.56488,1.06788
968.07509,1.03876
966.58530,1.00967
965.09551,0.81107
963.60573,0.83503
962.11594,0.84994
960.62615,0.77708
959.13636,0.79433
957.64657,0.81161
956.15678,0.67830
954.66699,0.72819
953.17721,0.68577
951.68742,0.67820
950.19763,0.69413
948.70784,0.71010
947.21805,0.66781
945.72826,0.64069
944.23848,0.62118
942.74869,0.78184
941.25890,0.73514
939.76911,0.73314
938.27932,0.73116
936.78953,0.94343
935.29974,0.93925
933.80996,0.85335
932.32017,0.85832
930.83038,0.92691
929.34059,0.99552
927.85080,0.87645
926.36101,0.88761
924.87123,0.83370
923.38144,0.91304
921.89165,0.87510
920.40186,0.83718
918.91207,0.87575
917.42228,0.86591
915.93250,0.96055
914.44271,0.83724
912.95292,0.84793
911.46313,0.85866
909.97334,0.89439
908.48355,0.97255
906.99376,1.00229
905.50398,0.89734
904.01419,0.92110
902.52440,0.94489
901.03461,0.98385
899.54482,0.97591
898.05503,0.95741
896.56525,1.05097
895.07546,1.02723
893.58567,1.00353
892.09588,1.01393
890.60609,1.11670
889.11630,0.98183
887.62651,1.00897
886.13673,1.01571
884.64694,1.02248
883.15715,1.04367
881.66736,1.12090
880.17757,1.00893
878.68778,1.02114
877.19800,1.03337
875.70821,0.98508
874.21842,1.00949
872.72863,1.13234
871.23884,1.07507
869.74905,1.11623
868.25927,1.15742
866.76948,1.12750
865.27969,1.11880
863.78990,1.25698
862.30011,1.24986
860.81032,1.22082
859.32053,1.19182
857.83075,1.19085
856.34096,1.12634
854.85117,0.96952
853.36138,0.92777
851.87159,0.89288
850.38180,0.85802
848.89202,0.73766
847.40223,0.57040
845.91244,0.44405
844.42265,0.48803
842.93286,0.53205
841.44307,0.48452
839.95329,0.36738
838.46350,0.38652
836.97371,0.37239
835.48392,0.38403
833.99413,0.39570
832.50434,0.42557
831.01455,0.40702
829.52477,0.42333
828.03498,0.33673
826.54519,0.32359
825.05540,0.31048
823.56561,0.31481
822.07582,0.17081
820.58604,0.23576
819.09625,0.20991
817.60646,0.18409
816.11667,0.12349
814.62688,0.13407
813.13709,0.04629
811.64730,0.00546
810.15752,0.03204
808.66773,0.05864
807.17794,0.01640
805.68815,0.04989
804.19836,0.00166
802.70857,0.11148
801.21879,0.22134
799.72900,0.21920
798.23921,0.26857
796.74942,0.26802
795.25963,0.38633
793.76984,0.50468
792.28006,0.53449
790.79027,0.61733
789.30048,0.70626
787.81069,0.63475
786.32090,0.64880
784.83111,0.66289
783.34132,0.76860
781.85154,0.76080
780.36175,0.77120
778.87196,0.77937
777.38217,0.78756
775.89238,0.87375
774.40259,0.86460
772.91281,0.91756
771.42302,0.89864
769.93323,0.87975
768.44344,0.95853
766.95365,0.90716
765.46386,0.97996
763.97407,0.91503
762.48429,0.84786
760.99450,0.78072
759.50471,0.70529
758.01492,0.59659
756.52513,0.54545
755.03534,0.47769
753.54556,0.40996
752.05577,0.33167
750.56598,0.23675
749.07619,0.21000
747.58640,0.18706
746.09661,0.16415
744.60683,0.10721
743.11704,0.17596
741.62725,0.12666
740.13746,0.11826
738.64767,0.10990
737.15788,0.00166
735.66809,0.11274
734.17831,0.12698
732.68852,0.11854
731.19873,0.11013
729.70894,0.11993
728.21915,0.06466
726.72936,0.04121
725.23958,0.11922
723.74979,0.10947
722.26000,0.09974
720.77021,0.07340
719.28042,0.10461
717.79063,0.03595
716.30084,0.01879
714.81106,0.00166
713.32127,0.01115
711.83148,0.04338
710.34169,0.06959
708.85190,0.09130
707.36211,0.11303
705.87233,0.12117
704.38254,0.07182
702.89275,0.09063
701.40296,0.08070
699.91317,0.07081
698.42338,0.09577
696.93360,0.14044
695.44381,0.16093
693.95402,0.16555
692.46423,0.17020
690.97444,0.22560
689.48465,0.14478
687.99486,0.20631
686.50508,0.22093
685.01529,0.23559
683.52550,0.28358
682.03571,0.27408
680.54592,0.20103
679.05613,0.23474
677.56635,0.26848
676.07656,0.18040
674.58677,0.18468
673.09698,0.25107
671.60719,0.16535
670.11740,0.07967
668.62761,0.15827
667.13783,0.15969
665.64804,0.09454
664.15825,0.02942
662.66846,0.06879
661.17867,0.10970
659.68888,0.04166
658.19910,0.11140
656.70931,0.18117
655.21952,0.10717
653.72973,0.15430
652.23994,0.14394
650.75015,0.17298
649.26037,0.20204
647.77058,0.26445
646.28079,0.19669
644.79100,0.03209
643.30121,0.08853
641.81142,0.14501
640.32163,0.11523
638.83185,0.03705
637.34206,0.09211
635.85227,0.09271
634.36248,0.09334
632.87269,0.00166
631.38290,0.15764
629.89312,0.08052
628.40333,0.07080
626.91354,0.06112
625.42375,0.06736
623.93396,0.11148
622.44417,0.13520
620.95438,0.15895
619.46460,0.11991
617.97481,0.12329
616.48502,0.14335
614.99523,0.16345
613.50544,0.18358
612.01565,0.14924
610.52587,0.12402
609.03608,0.09430
607.54629,0.08806
606.05650,0.08186
604.56671,0.26871
603.07692,0.24517
601.58714,0.20122
600.09735,0.15731
598.60756,0.11418
597.11777,0.13770
595.62798,0.13249
594.13819,0.16061
592.64840,0.18877
591.15862,0.06709
589.66883,0.11045
588.17904,0.06604
586.68925,0.06102
585.19946,0.05604
583.70967,0.20852
582.21989,0.16727
580.73010,0.18207
579.24031,0.19689
577.75052,0.16482
576.26073,0.11008
574.77094,0.04023
573.28115,0.09682
571.79137,0.15344
570.30158,0.29108
568.81179,0.28343
567.32200,0.30003
565.83221,0.31667
564.34242,0.35755
562.85264,0.38334
561.36285,0.50301
559.87306,0.50312
558.38327,0.50327
556.89348,0.48680
555.40369,0.56573
553.91391,0.55916
552.42412,0.55262
550.93433,0.68918
549.44454,0.66681
547.95475,0.68384
546.46496,0.66154
544.97517,0.63928
543.48539,0.60039
541.99560,0.80375
540.50581,0.88755
539.01602,0.97138
537.52623,0.77065
536.03644,0.61081
534.54666,0.63419
533.05687,0.68939
531.56708,0.74463
530.07729,0.66667
528.58750,0.62963
527.09771,0.60700
525.60792,0.58440
524.11814,0.62466
522.62835,0.63770
521.13856,0.54632
519.64877,0.52764
518.15898,0.50898
516.66919,0.55546
515.17941,0.39912
513.68962,0.41538
512.19983,0.43168
510.71004,0.47526
509.22025,0.42199
507.73046,0.44444
506.24068,0.48736
504.75089,0.53032
503.26110,0.49383
501.77131,0.58605
500.28152,0.55114
498.79173,0.51626
497.30194,0.51018
495.81216,0.43601
494.32237,0.48752
492.83258,0.53906
491.34279,0.49980
489.85300,0.37278
488.36321,0.38809
486.87343,0.33152
485.38364,0.27499
483.89385,0.34943
482.40406,0.30735
480.91427,0.24788
479.42448,0.18845
477.93469,0.22821
476.44491,0.09088
474.95512,0.11254
473.46533,0.13423
471.97554,0.04999
470.48575,0.12019
468.99596,0.02087
467.50618,0.04723
466.01639,0.07363
464.52660,0.00166
463.03681,0.08571
461.54702,0.10017
460.05723,0.11465
458.56745,0.14280
457.07766,0.13919
455.58787,0.11290
454.09808,0.08664
452.60829,0.18152
451.11850,0.19923
449.62871,0.22303
448.13893,0.24686
446.64914,0.31463
445.15935,0.39454
443.66956,0.46237
442.17977,0.53553
440.68998,0.60873
439.20020,0.67060
437.71041,0.68406
436.22062,0.74297
434.73083,0.80192
433.24104,0.92296
431.75125,1.17120
430.26146,1.14017
428.77168,1.10917
427.28189,1.25911
425.79210,1.39546
424.30231,1.39635
422.81252,1.39727
421.32273,1.35508
419.83295,1.28113
418.34316,1.18527
416.85337,1.08944
415.36358,0.93990
413.87379,0.78888
412.38400,0.77565
410.89422,0.76245
409.40443,0.72961
407.91464,0.71951
406.42485,0.57925
404.93506,0.62219
403.44527,0.66517
401.95548,0.56134
400.46570,0.54534
398.97591,0.52484
397.48612,0.50437
395.99633,0.45063
394.50654,0.51954
393.01675,0.54912
391.52697,0.57874
390.03718,0.44186
388.54739,0.40494
387.05760,0.42481
385.56781,0.44472
384.07802,0.43060
382.58824,0.43619
381.09845,0.37747
379.60866,0.31879
378.11887,0.31691
376.62908,0.28327
375.13929,0.25497
373.64950,0.22669
372.15972,0.21435
370.66993,0.19598
369.18014,0.19656
367.69035,0.19719
366.20056,0.03661
364.71077,0.04714
363.22099,0.08495
361.73120,0.12279
360.24141,0.16974
358.75162,0.19554
357.26183,0.16005
355.77204,0.12460
354.28225,0.11265
352.79247,0.04926
351.30268,0.03888
349.81289,0.02854
348.32310,0.06970
346.83331,0.02309
345.34352,0.02496
343.85374,0.02686
342.36395,0.16655
340.87416,0.10948
339.38437,0.09256
337.89458,0.07566
336.40479,0.14736
334.91501,0.03592
333.42522,0.09331
331.93543,0.15072
330.44564,0.17108
328.95585,0.05220
327.46606,0.05598
325.97627,0.05978
324.48649,0.07876
322.99670,0.11745
321.50691,0.09335
320.01712,0.06928
318.52733,0.16862
317.03754,0.13781
315.54776,0.15244
314.05797,0.16710
312.56818,0.00166
311.07839,0.01914
309.58860,0.07450
308.09881,0.12990
306.60902,0.13234
305.11924,0.13028
303.62945,0.09570
302.13966,0.06115
300.64987,0.00166
299.16008,0.00166
