1778.52000,0.06702
1777.03021,0.04310
1775.54042,0.02823
1774.05063,0.04173
1772.56085,0.06041
1771.07106,0.00315
1769.58127,0.08243
1768.09148,0.04972
1766.60169,0.08400
1765.11190,0.07067
1763.62212,0.11919
1762.13233,0.08662
1760.64254,0.01288
1759.15275,0.11560
1757.66296,0.07413
1756.17317,0.04814
1754.68339,0.05825
1753.19360,0.07741
1751.70381,0.08501
1750.21402,0.00895
1748.72423,0.09521
1747.23444,0.09393
1745.74465,0.05277
1744.25487,0.06187
1742.76508,0.12509
1741.27529,0.10465
1739.78550,0.12802
1738.29571,0.11538
1736.80592,0.11307
1735.31614,0.05800
1733.82635,0.08538
1732.33656,0.03297
1730.84677,0.08746
1729.35698,0.12397
1727.86719,0.06522
1726.37740,0.08764
1724.88762,0.08047
1723.39783,0.01025
1721.90804,0.00315
1720.41825,0.05891
1718.92846,0.05161
1717.43867,0.02374
1715.94889,0.07446
1714.45910,0.10462
1712.96931,0.06656
1711.47952,0.06073
1709.98973,0.14636
1708.49994,0.12258
1707.01016,0.13231
1705.52037,0.14208
1704.03058,0.17377
1702.54079,0.17589
1701.05100,0.17546
1699.56121,0.14932
1698.07142,0.22237
1696.58164,0.21047
1695.09185,0.26556
1693.60206,0.26532
1692.11227,0.28057
1690.62248,0.25722
1689.13269,0.28929
1687.64291,0.31237
1686.15312,0.33936
1684.66333,0.30328
1683.17354,0.31488
1681.68375,0.31365
1680.19396,0.25708
1678.70417,0.31515
1677.21439,0.30758
1675.72460,0.26529
1674.23481,0.31574
1672.74502,0.34692
1671.25523,0.30988
1669.76544,0.37848
1668.27566,0.24622
1666.78587,0.25952
1665.29608,0.24452
1663.80629,0.30553
1662.31650,0.27258
1660.82671,0.29246
1659.33693,0.25185
1657.84714,0.21772
1656.35735,0.22355
1654.86756,0.23585
1653.37777,0.18380
1651.88798,0.22450
1650.39819,0.18669
1648.90841,0.17467
1647.41862,0.19487
1645.92883,0.20611
1644.43904,0.21737
1642.94925,0.20164
1641.45946,0.24517
1639.96968,0.18830
1638.47989,0.15078
1636.99010,0.15579
1635.50031,0.21750
1634.01052,0.13631
1632.52073,0.13113
1631.03094,0.14916
1629.54116,0.17754
1628.05137,0.17376
1626.56158,0.21250
1625.07179,0.25902
1623.58200,0.25148
1622.09221,0.26974
1620.60243,0.28288
1619.11264,0.28575
1617.62285,0.24102
1616.13306,0.21306
1614.64327,0.18772
1613.15348,0.14181
1611.66370,0.16933
1610.17391,0.18144
1608.68412,0.18328
1607.19433,0.21478
1605.70454,0.26563
1604.21475,0.25020
1602.72496,0.23481
1601.23518,0.20722
1599.74539,0.17709
1598.25560,0.19078
1596.76581,0.17102
1595.27602,0.17191
1593.78623,0.12647
1592.29645,0.11326
1590.80666,0.15289
1589.31687,0.06378
1587.82708,0.14984
1586.33729,0.15867
1584.84750,0.14307
1583.35771,0.10433
1581.86793,0.08365
1580.37814,0.17633
1578.88835,0.14414
1577.39856,0.10039
1575.90877,0.10433
1574.41898,0.03619
1572.92920,0.03891
1571.43941,0.04167
1569.94962,0.06635
1568.45983,0.09108
1566.97004,0.11841
1565.48025,0.10586
1563.99047,0.05858
1562.50068,0.06929
1561.01089,0.03238
1559.52110,0.05990
1558.03131,0.02693
1556.54152,0.17299
1555.05173,0.18645
1553.56195,0.18836
1552.07216,0.20318
1550.58237,0.06223
1549.09258,0.12091
1547.60279,0.09850
1546.11300,0.10832
1544.62322,0.11431
1543.13343,0.00315
1541.64364,0.03474
1540.15385,0.05541
1538.66406,0.07612
1537.17427,0.09237
1535.68448,0.08546
1534.19470,0.07474
1532.70491,0.06405
1531.21512,0.02377
1529.72533,0.10330
1528.23554,-0.00000
1526.74575,0.09995
1525.25597,0.09176
1523.76618,0.07074
1522.27639,0.05748
1520.78660,0.00433
1519.29681,0.01105
1517.80702,0.03970
1516.31724,0.05294
1514.82745,0.07651
1513.33766,0.07887
1511.84787,0.08127
1510.35808,0.07019
1508.86829,0.05270
1507.37850,0.00563
1505.88872,0.08480
1504.39893,0.03651
1502.90914,0.03977
1501.41935,0.00315
1499.92956,0.05302
1498.43977,0.03982
1496.94999,0.09105
1495.46020,0.16034
1493.97041,0.17172
1492.48062,0.19988
1490.99083,0.24095
1489.50104,0.38894
1488.01125,0.42493
1486.52147,0.46096
1485.03168,0.44938
1483.54189,0.54215
1482.05210,0.46110
1480.56231,0.66597
1479.07252,0.78589
1477.58274,0.87879
1476.09295,0.95500
1474.60316,1.07889
1473.11337,1.16418
1471.62358,1.13490
1470.13379,1.22670
1468.64401,1.12539
1467.15422,1.00222
1465.66443,0.98274
1464.17464,0.96331
1462.68485,0.89562
1461.19506,0.88591
1459.70527,0.90200
1458.21549,0.83442
1456.72570,0.81452
1455.23591,0.86419
1453.74612,0.76324
1452.25633,0.76148
1450.76654,0.71984
1449.27676,0.77481
1447.78697,0.75127
1446.29718,0.70072
1444.80739,0.64506
1443.31760,0.58944
1441.82781,0.49650
1440.33802,0.38558
1438.84824,0.31075
1437.35845,0.25914
1435.86866,0.31315
1434.37887,0.37106
1432.88908,0.32084
1431.39929,0.30028
1429.90951,0.23211
1428.41972,0.16397
1426.92993,0.24010
1425.44014,0.30338
1423.95035,0.34738
1422.46056,0.39143
1420.97078,0.38657
1419.48099,0.34827
1417.99120,0.39628
1416.50141,0.38510
1415.01162,0.34820
1413.52183,0.39632
1412.03204,0.28480
1410.54226,0.36391
1409.05247,0.31556
1407.56268,0.36512
1406.07289,0.29496
1404.58310,0.34781
1403.09331,0.40069
1401.60353,0.39245
1400.11374,0.34819
1398.62395,0.38638
1397.13416,0.41945
1395.64437,0.39461
1394.15458,0.49601
1392.66479,0.47253
1391.17501,0.54696
1389.68522,0.51325
1388.19543,0.50663
1386.70564,0.47686
1385.21585,0.44712
1383.72606,0.43288
1382.23628,0.43155
1380.74649,0.44056
1379.25670,0.43287
1377.76691,0.42006
1376.27712,0.44463
1374.78733,0.46666
1373.29755,0.59304
1371.80776,0.53530
1370.31797,0.62054
1368.82818,0.69938
1367.33839,0.77826
1365.84860,0.89838
1364.35881,1.13185
1362.86903,1.24431
1361.37924,1.27569
1359.88945,1.41913
1358.39966,1.47505
1356.90987,1.61857
1355.42008,1.52389
1353.93030,1.48463
1352.44051,1.44797
1350.95072,1.41135
1349.46093,1.41856
1347.97114,1.30732
1346.48135,1.16522
1344.99156,0.99741
1343.50178,1.03180
1342.01199,0.94260
1340.52220,0.76459
1339.03241,0.64972
1337.54262,0.67138
1336.05283,0.69693
1334.56305,0.72253
1333.07326,0.64643
1331.58347,0.59098
1330.09368,0.50207
1328.60389,0.43639
1327.11410,0.54973
1325.62432,0.45450
1324.13453,0.50868
1322.64474,0.45473
1321.15495,0.44589
1319.66516,0.42807
1318.17537,0.41028
1316.68558,0.40927
1315.19580,0.40573
1313.70601,0.42411
1312.21622,0.38329
1310.72643,0.36955
1309.23664,0.31335
1307.74685,0.23402
1306.25707,0.32598
1304.76728,0.28470
1303.27749,0.24346
1301.78770,0.30463
1300.29791,0.36197
1298.80812,0.31247
1297.31834,0.32739
1295.82855,0.32560
1294.33876,0.32772
1292.84897,0.39039
1291.35918,0.38743
1289.86939,0.35425
1288.37960,0.32110
1286.88982,0.29893
1285.40003,0.37466
1283.91024,0.36931
1282.42045,0.46315
1280.93066,0.44628
1279.44087,0.54276
1277.95109,0.52725
1276.46130,0.42808
1274.97151,0.40363
1273.48172,0.37921
1271.99193,0.43982
1270.50214,0.43351
1269.01235,0.48647
1267.52257,0.51758
1266.03278,0.48690
1264.54299,0.49619
1263.05320,0.58922
1261.56341,0.61660
1260.07362,0.64403
1258.58384,0.68951
1257.09405,0.64490
1255.60426,0.65312
1254.11447,0.68326
1252.62468,0.63232
1251.13489,0.62777
1249.64511,0.62712
1248.15532,0.58144
1246.66553,0.51712
1245.17574,0.45284
1243.68595,0.41241
1242.19616,0.47891
1240.70637,0.49393
1239.21659,0.48452
1237.72680,0.30002
1236.23701,0.27781
1234.74722,0.21314
1233.25743,0.19551
1231.76764,0.17791
1230.27786,0.23568
1228.78807,0.25615
1227.29828,0.23673
1225.80849,0.24826
1224.31870,0.17740
1222.82891,0.14264
1221.33912,0.11436
1219.84934,0.14535
1218.35955,0.17637
1216.86976,0.16236
1215.37997,0.27587
1213.89018,0.38427
1212.40039,0.29697
1210.91061,0.25735
1209.42082,0.23064
1207.93103,0.22908
1206.44124,0.22756
1204.95145,0.25763
1203.46166,0.15767
1201.97188,0.11312
1200.48209,0.11497
1198.99230,0.14389
1197.50251,0.03506
1196.01272,0.04088
1194.52293,0.02999
1193.03314,0.01914
1191.54336,0.02507
1190.05357,0.03619
1188.56378,0.04476
1187.07399,0.00315
1185.58420,0.04079
1184.09441,0.07332
1182.60463,0.08335
1181.11484,0.09341
1179.62505,0.13764
1178.13526,0.12009
1176.64547,0.11674
1175.15568,0.14948
1173.66589,0.07796
1172.17611,0.03352
1170.68632,0.04963
1169.19653,0.06578
1167.70674,0.03690
1166.21695,0.06471
1164.72716,0.07583
1163.23738,0.10886
1161.74759,0.10717
1160.25780,0.07074
1158.76801,0.03693
1157.27822,0.00315
1155.78843,0.06849
1154.29865,0.06691
1152.80886,0.05635
1151.31907,0.04453
1149.82928,0.17569
1148.33949,0.17297
1146.84970,0.12650
1145.35991,0.08006
1143.87013,0.07744
1142.38034,0.09676
1140.89055,0.14701
1139.40076,0.18828
1137.91097,0.20642
1136.42118,0.29413
1134.93140,0.23893
1133.44161,0.18378
1131.95182,0.25614
1130.46203,0.30279
1128.97224,0.36750
1127.48245,0.33824
1125.99266,0.29614
1124.50288,0.33650
1123.01309,0.33568
1121.52330,0.33490
1120.03351,0.45392
1118.54372,0.45192
1117.05393,0.41519
1115.56415,0.40555
1114.07436,0.44873
1112.58457,0.47006
1111.09478,0.49143
1109.60499,0.50253
1108.11520,0.48405
1106.62542,0.50296
1105.13563,0.58757
1103.64584,0.65419
1102.15605,0.77106
1100.66626,0.78239
1099.17647,0.79374
1097.68668,0.80643
1096.19690,0.91959
1094.70711,0.82546
1093.21732,0.91680
1091.72753,0.93350
1090.23774,0.99658
1088.74795,1.05971
1087.25817,1.07522
1085.76838,1.09978
1084.27859,1.09605
1082.78880,1.21083
1081.29901,1.15696
1079.80922,1.08251
1078.31943,1.06283
1076.82965,1.04319
1075.33986,1.14785
1073.85007,1.28731
1072.36028,1.24138
1070.87049,1.25987
1069.38070,1.32862
1067.89092,1.39934
1066.40113,1.47009
1064.91134,1.37799
1063.42155,1.15071
1061.93176,1.09087
1060.44197,0.97054
1058.95219,0.93267
1057.46240,0.92380
1055.97261,0.91497
1054.48282,0.92485
1052.99303,0.87682
1051.50324,0.75156
1050.01345,0.59029
1048.52367,0.57713
1047.03388,0.64514
1045.54409,0.71319
1044.05430,0.74393
1042.56451,0.63434
1041.07472,0.52608
1039.58494,0.48353
1038.09515,0.41140
1036.60536,0.40176
1035.11557,0.39216
1033.62578,0.45406
1032.13599,0.34988
1030.64620,0.38481
1029.15642,0.38114
1027.66663,0.37623
1026.17684,0.37135
1024.68705,0.42317
1023.19726,0.57418
1021.70747,0.63895
1020.21769,0.74753
1018.72790,0.89350
1017.23811,0.98735
1015.74832,1.08124
1014.25853,1.35609
1012.76874,1.51122
1011.27896,1.70244
1009.78917,1.78166
1008.29938,2.00000
1006.80959,1.97049
1005.31980,1.94101
1003.83001,1.59157
1002.34022,1.40314
1000.85044,1.29973
999.36065,1.16545
997.87086,1.13551
996.38107,1.10561
994.89128,1.07446
993.40149,1.18757
991.91171,1.21186
990.42192,1.09969
988.93213,1.12534
987.44234,1.09888
985.95255,1.07246
984.46276,0.93597
982.97297,1.00555
981.48319,0.87686
979.99340,0.83577
978.50361,0.84752
977.01382,0.85930
975.52403,0.86597
974.03424,0.81215
972.54446,0.74162
971.05467,0.76643
969.56488,0.70370
968.07509,0.68287
966.58530,0.66207
965.09551,0.67414
963.60573,0.64376
962.11594,0.61212
960.62615,0.55735
959.13636,0.52192
957.64657,0.48653
956.15678,0.44217
954.66699,0.39011
953.17721,0.57761
951.68742,0.62091
950.19763,0.61146
948.70784,0.60205
947.21805,0.56949
945.72826,0.55629
944.23848,0.56115
942.74869,0.63171
941.25890,0.57612
939.76911,0.60041
938.27932,0.62473
936.78953,0.78044
935.29974,0.68379
933.80996,0.62452
932.32017,0.68246
930.83038,0.69989
929.34059,0.71734
927.85080,0.64277
926.36101,0.63390
924.87123,0.65340
923.38144,0.55833
921.89165,0.55730
920.40186,0.55631
918.91207,0.62746
917.42228,0.65745
915.93250,0.68103
914.44271,0.57201
912.95292,0.61305
911.46313,0.65413
909.97334,0.76285
908.48355,0.85229
906.99376,0.86192
905.50398,0.76600
904.01419,0.78215
902.52440,0.79834
901.03461,0.78365
899.54482,0.88619
898.05503,0.75826
896.56525,0.98835
895.07546,1.04078
893.58567,1.09324
892.09588,1.00537
890.60609,0.92141
889.11630,0.94436
887.62651,0.89524
886.13673,0.91891
884.64694,0.94262
883.15715,0.94382
881.66736,0.85364
880.17757,0.85364
878.68778,0.91226
877.19800,0.97091
875.70821,0.89247
874.21842,0.89905
872.72863,0.95330
871.23884,0.90072
869.74905,0.90805
868.25927,0.91542
866.76948,0.90673
865.27969,0.84142
863.78990,0.83409
862.30011,0.92080
860.81032,0.90388
859.32053,0.88700
857.83075,0.97382
856.34096,0.84176
854.85117,0.78057
853.36138,0.73615
851.87159,0.70271
850.38180,0.66932
848.89202,0.51813
847.40223,0.29744
845.91244,0.30471
844.42265,0.35645
842.93286,0.40822
841.44307,0.35250
839.95329,0.35864
838.46350,0.30042
836.97371,0.25254
835.48392,0.29291
833.99413,0.33331
832.50434,0.30614
831.01455,0.43225
829.52477,0.32918
828.03498,0.34462
826.54519,0.26030
825.05540,0.17601
823.56561,0.18641
822.07582,0.17495
820.58604,0.15194
819.09625,0.08905
817.60646,0.02619
816.11667,0.01102
814.62688,0.06155
813.13709,0.05547
811.64730,0.09449
810.15752,0.06272
808.66773,0.03099
807.17794,0.00315
805.68815,0.12057
804.19836,0.00238
802.70857,0.03452
801.21879,0.06670
799.72900,0.05835
798.23921,0.13117
796.74942,0.29673
795.25963,0.32391
793.76984,0.35112
792.28006,0.31205
790.79027,0.48549
789.30048,0.49414
787.81069,0.48737
786.32090,0.49931
784.83111,0.51129
783.34132,0.59993
781.85154,0.60232
780.36175,0.72451
778.87196,0.68834
777.38217,0.65221
775.89238,0.69725
774.40259,0.81572
772.91281,0.75137
771.42302,0.77012
769.93323,0.78890
768.44344,0.83283
766.95365,0.82529
765.46386,0.88088
763.97407,0.91075
762.48429,0.80417
760.99450,0.69762
759.50471,0.61171
758.01492,0.64559
756.52513,0.53400
755.03534,0.50679
753.54556,0.47961
752.05577,0.22648
750.56598,0.16912
749.07619,0.12854
747.58640,0.12984
746.09661,0.13118
744.60683,0.09843
743.11704,0.02967
741.62725,0.03047
740.13746,0.07703
738.64767,0.12362
737.15788,0.04598
735.66809,0.00315
734.17831,0.10122
732.68852,0.11949
731.19873,0.13779
729.70894,0.11621
728.21915,0.07277
726.72936,0.11308
725.23958,0.00533
723.74979,0.05601
722.26000,0.10672
720.77021,0.16134
719.28042,0.09108
717.79063,0.01828
716.30084,0.02214
714.81106,0.02604
713.32127,0.06538
711.83148,0.10090
710.34169,0.01799
708.85190,0.06581
707.36211,0.11367
705.87233,0.09139
704.38254,0.11937
702.89275,0.00315
701.40296,0.04752
699.91317,0.09193
698.42338,0.11513
696.93360,0.15382
695.44381,0.12172
693.95402,0.16241
692.46423,0.20313
690.97444,0.17372
689.48465,0.22804
687.99486,0.26437
686.50508,0.24279
685.01529,0.22125
683.52550,0.33366
682.03571,0.31734
680.54592,0.22251
679.05613,0.17278
677.56635,0.12309
676.07656,0.18805
674.58677,0.13328
673.09698,0.18414
671.60719,0.18932
670.11740,0.19454
668.62761,0.17598
667.13783,0.19350
665.64804,0.13252
664.15825,0.07157
662.66846,0.09049
661.17867,0.09657
659.68888,0.15678
658.19910,0.18161
656.70931,0.20647
655.21952,0.16763
653.72973,0.19708
652.23994,0.30897
650.75015,0.28891
649.26037,0.26889
647.77058,0.18903
646.28079,0.13624
644.79100,0.01911
643.30121,0.03786
641.81142,0.05666
640.32163,0.10703
638.83185,0.06860
637.34206,0.00315
635.85227,0.05915
634.36248,0.11519
632.87269,0.12362
631.38290,0.13466
629.89312,0.20755
628.40333,0.12337
626.91354,0.03923
625.42375,0.06072
623.93396,0.10542
622.44417,0.15338
620.95438,0.20138
619.46460,0.07106
617.97481,0.16099
616.48502,0.10672
614.99523,0.09756
613.50544,0.08843
612.01565,0.10639
610.52587,0.03295
609.03608,0.14112
607.54629,0.11798
606.05650,0.09487
604.56671,0.24951
603.07692,0.26639
601.58714,0.17772
600.09735,0.08909
598.60756,0.08935
597.11777,0.12054
595.62798,0.11186
594.13819,0.11609
592.64840,0.12035
591.15862,0.07443
589.66883,0.16118
588.17904,0.11791
586.68925,0.06052
585.19946,0.00315
583.70967,0.11269
582.21989,0.20166
580.73010,0.19151
579.24031,0.18139
577.75052,0.15587
576.26073,0.16257
574.77094,0.11780
573.28115,0.11298
571.79137,0.10820
570.30158,0.18974
568.81179,0.24555
567.32200,0.21899
565.83221,0.19247
564.34242,0.24453
562.85264,0.25414
561.36285,0.44534
559.87306,0.42283
558.38327,0.40035
556.89348,0.42556
555.40369,0.45852
553.91391,0.49024
552.42412,0.52199
550.93433,0.53833
549.44454,0.48388
547.95475,0.53506
546.46496,0.56760
544.97517,0.60018
543.48539,0.60382
541.99560,0.64999
540.50581,0.66272
539.01602,0.67549
537.52623,0.65223
536.03644,0.62000
534.54666,0.62773
533.05687,0.63420
531.56708,0.64071
530.07729,0.54682
528.58750,0.54696
527.09771,0.58642
525.60792,0.62591
524.11814,0.57723
522.62835,0.58010
521.13856,0.54952
519.64877,0.50353
518.15898,0.45757
516.66919,0.48505
515.17941,0.46621
513.68962,0.45835
512.19983,0.45052
510.71004,0.46141
509.22025,0.38605
507.73046,0.44208
506.24068,0.43698
504.75089,0.43192
503.26110,0.49578
501.77131,0.44379
500.28152,0.43883
498.79173,0.43391
497.30194,0.29189
495.81216,0.33147
494.32237,0.41422
492.83258,0.49702
491.34279,0.52126
489.85300,0.47084
488.36321,0.46425
486.87343,0.39459
485.38364,0.32497
483.89385,0.29660
482.40406,0.38286
480.91427,0.27472
479.42448,0.16662
477.93469,0.28261
476.44491,0.24541
474.95512,0.22111
473.46533,0.19686
471.97554,0.24089
470.48575,0.23344
468.99596,0.29042
467.50618,0.21802
466.01639,0.14566
464.52660,0.00315
463.03681,0.21107
461.54702,0.18916
460.05723,0.16729
458.56745,0.14481
457.07766,0.12237
455.58787,0.18110
454.09808,0.23986
452.60829,0.24585
451.11850,0.32400
449.62871,0.31012
448.13893,0.29626
446.64914,0.30499
445.15935,0.50046
443.66956,0.59424
442.17977,0.56831
440.68998,0.54240
439.20020,0.64145
437.71041,0.49973
436.22062,0.52866
434.73083,0.55764
433.24104,0.75727
431.75125,0.89126
430.26146,0.95576
428.77168,1.02029
427.28189,1.16727
425.79210,1.25505
424.30231,1.21861
422.81252,1.18220
421.32273,1.10398
419.83295,0.91891
418.34316,0.91738
416.85337,0.91589
415.36358,0.68329
413.87379,0.64774
412.38400,0.64056
410.89422,0.63342
409.40443,0.57095
407.91464,0.53941
406.42485,0.45125
404.93506,0.45070
403.44527,0.45018
401.95548,0.40333
400.46570,0.35782
398.97591,0.39861
397.48612,0.43945
395.99633,0.36571
394.50654,0.43366
393.01675,0.49327
391.52697,0.55292
390.03718,0.40593
388.54739,0.13020
387.05760,0.25628
385.56781,0.38240
384.07802,0.42356
382.58824,0.47892
381.09845,0.41521
379.60866,0.35153
378.11887,0.38125
376.62908,0.36078
375.13929,0.33971
373.64950,0.31868
372.15972,0.34081
370.66993,0.33208
369.18014,0.25128
367.69035,0.17051
366.20056,0.11940
364.71077,0.08892
363.22099,0.17567
361.73120,0.26244
360.24141,0.30934
358.75162,0.23266
357.26183,0.24872
355.77204,0.26483
354.28225,0.26422
352.79247,0.22374
351.30268,0.17879
349.81289,0.13387
348.32310,0.15788
346.83331,0.05831
345.34352,0.05277
343.85374,0.04728
342.36395,0.27361
340.87416,0.23985
339.38437,0.20871
337.89458,0.17761
336.40479,0.12980
334.91501,0.17475
333.42522,0.14439
331.93543,0.11408
330.44564,0.22996
328.95585,0.24414
327.46606,0.20428
325.97627,0.16446
324.48649,0.08217
322.99670,0.17905
321.50691,0.21737
320.01712,0.25573
318.52733,0.25742
317.03754,0.30293
315.54776,0.27959
314.05797,0.25628
312.56818,0.15124
311.07839,0.12994
309.58860,0.07519
308.09881,0.02048
306.60902,0.00315
305.11924,0.10043
303.62945,0.06833
302.13966,0.01953
300.64987,0.05510
299.16008,0.00315
