1778.52000,0.08787
1777.03021,0.08854
1775.54042,0.06696
1774.05063,0.00581
1772.56085,0.08704
1771.07106,0.06804
1769.58127,0.06393
1768.09148,0.04995
1766.60169,0.02981
1765.11190,0.06293
1763.62212,0.03667
1762.13233,0.05872
1760.64254,0.05852
1759.15275,0.05216
1757.66296,0.04832
1756.17317,0.07421
1754.68339,0.04073
1753.19360,0.02708
1751.70381,0.04317
1750.21402,0.03330
1748.72423,0.07422
1747.23444,0.05575
1745.74465,0.02617
1744.25487,0.04862
1742.76508,0.02283
1741.27529,0.04411
1739.78550,0.07532
1738.29571,0.03477
1736.80592,0.02273
1735.31614,0.05280
1733.82635,0.05444
1732.33656,0.01279
1730.84677,0.03553
1729.35698,0.01004
1727.86719,0.02790
1726.37740,0.00000
1724.88762,0.00184
1723.39783,0.03094
1721.90804,0.06132
1720.41825,0.04716
1718.92846,0.00581
1717.43867,0.02453
1715.94889,0.02472
1714.45910,0.03360
1712.96931,0.02147
1711.47952,0.10470
1709.98973,0.08397
1708.49994,0.10537
1707.01016,0.08595
1705.52037,0.06656
1704.03058,0.13757
1702.54079,0.16653
1701.05100,0.11134
1699.56121,0.15646
1698.07142,0.13600
1696.58164,0.19975
1695.09185,0.24496
1693.60206,0.19737
1692.11227,0.20057
1690.62248,0.24093
1689.13269,0.23181
1687.64291,0.27720
1686.15312,0.25453
1684.66333,0.24180
1683.17354,0.26005
1681.68375,0.25110
1680.19396,0.26570
1678.70417,0.26672
1677.21439,0.26777
1675.72460,0.28123
1674.23481,0.25636
1672.74502,0.28350
1671.25523,0.23641
1669.76544,0.29581
1668.27566,0.29830
1666.78587,0.19561
1665.29608,0.23777
1663.80629,0.28245
1662.31650,0.23061
1660.82671,0.25555
1659.33693,0.25700
1657.84714,0.16812
1656.35735,0.18449
1654.86756,0.16376
1653.37777,0.15668
1651.88798,0.15707
1650.39819,0.16614
1648.90841,0.20249
1647.41862,0.12499
1645.92883,0.17625
1644.43904,0.22755
1642.94925,0.17366
1641.45946,0.21637
1639.96968,0.18978
1638.47989,0.17808
1636.99010,0.14166
1635.50031,0.16221
1634.01052,0.15928
1632.52073,0.15390
1631.03094,0.16837
1629.54116,0.19772
1628.05137,0.23824
1626.56158,0.21443
1625.07179,0.16961
1623.58200,0.27584
1622.09221,0.28803
1620.60243,0.25817
1619.11264,0.28899
1617.62285,0.31613
1616.13306,0.20714
1614.64327,0.22568
1613.15348,0.23312
1611.66370,0.19108
1610.17391,0.17877
1608.68412,0.19745
1607.19433,0.21616
1605.70454,0.16559
1604.21475,0.17817
1602.72496,0.19079
1601.23518,0.16012
1599.74539,0.17033
1598.25560,0.20410
1596.76581,0.15001
1595.27602,0.11204
1593.78623,0.18676
1592.29645,0.13153
1590.80666,0.14565
1589.31687,0.14496
1587.82708,0.12449
1586.33729,0.12634
1584.84750,0.09727
1583.35771,0.04348
1581.86793,0.09494
1580.37814,0.12292
1578.88835,0.09027
1577.39856,0.07746
1575.90877,0.06221
1574.41898,0.02471
1572.92920,0.05904
1571.43941,0.10083
1569.94962,0.09934
1568.45983,0.09787
1566.97004,0.02464
1565.48025,0.06656
1563.99047,0.04168
1562.50068,0.05025
1561.01089,0.09722
1559.52110,0.05882
1558.03131,0.12567
1556.54152,0.11951
1555.05173,0.10349
1553.56195,0.06151
1552.07216,0.10002
1550.58237,0.09648
1549.09258,0.08306
1547.60279,0.13900
1546.11300,0.10461
1544.62322,0.12844
1543.13343,0.12382
1541.64364,0.07097
1540.15385,0.05466
1538.66406,0.03839
1537.17427,0.05000
1535.68448,0.10001
1534.19470,0.02380
1532.70491,0.07018
1531.21512,0.02498
1529.72533,0.00581
1528.23554,0.05707
1526.74575,0.02295
1525.25597,0.06809
1523.76618,0.06746
1522.27639,0.02973
1520.78660,0.06259
1519.29681,0.09054
1517.80702,0.08261
1516.31724,0.02892
1514.82745,0.07058
1513.33766,0.06152
1511.84787,0.05250
1510.35808,0.09054
1508.86829,0.10015
1507.37850,0.00581
1505.88872,0.08157
1504.39893,0.07320
1502.90914,0.02401
1501.41935,0.07635
1499.92956,0.09407
1498.43977,0.11802
1496.94999,0.15437
1495.46020,0.16724
1493.97041,0.25441
1492.48062,0.29829
1490.99083,0.30507
1489.50104,0.38244
1488.01125,0.43261
1486.52147,0.48281
1485.03168,0.60979
1483.54189,0.67120
1482.05210,0.73760
1480.56231,0.88201
1479.07252,0.92867
1477.58274,1.05953
1476.09295,1.17186
1474.60316,1.33869
1473.11337,1.41766
1471.62358,1.41126
1470.13379,1.33928
1468.64401,1.34779
1467.15422,1.32292
1465.66443,1.30304
1464.17464,1.28318
1462.68485,1.15196
1461.19506,1.25967
1459.70527,1.18792
1458.21549,1.05803
1456.72570,0.94922
1455.23591,0.92338
1453.74612,0.90252
1452.25633,0.85941
1450.76654,0.77301
1449.27676,0.82157
1447.78697,0.75010
1446.29718,0.71208
1444.80739,0.66233
1443.31760,0.61261
1441.82781,0.53508
1440.33802,0.46996
1438.84824,0.32565
1437.35845,0.34601
1435.86866,0.40724
1434.37887,0.37815
1432.88908,0.34786
1431.39929,0.35721
1429.90951,0.40496
1428.41972,0.41933
1426.92993,0.39164
1425.44014,0.43950
1423.95035,0.40507
1422.46056,0.37068
1420.97078,0.39016
1419.48099,0.45548
1417.99120,0.42676
1416.50141,0.39188
1415.01162,0.43997
1413.52183,0.42248
1412.03204,0.44588
1410.54226,0.48664
1409.05247,0.42346
1407.56268,0.53608
1406.07289,0.37765
1404.58310,0.39750
1403.09331,0.41739
1401.60353,0.43978
1400.11374,0.44859
1398.62395,0.52428
1397.13416,0.50593
1395.64437,0.60273
1394.15458,0.61167
1392.66479,0.62065
1391.17501,0.60614
1389.68522,0.58919
1388.19543,0.57351
1386.70564,0.57148
1385.21585,0.56948
1383.72606,0.56752
1382.23628,0.50741
1380.74649,0.45724
1379.25670,0.54821
1377.76691,0.49192
1376.27712,0.59534
1374.78733,0.60224
1373.29755,0.65374
1371.80776,0.70898
1370.31797,0.84225
1368.82818,0.92603
1367.33839,1.00984
1365.84860,1.18900
1364.35881,1.41524
1362.86903,1.51277
1361.37924,1.51130
1359.88945,1.62252
1358.39966,1.69044
1356.90987,1.87351
1355.42008,1.71745
1353.93030,1.69016
1352.44051,1.64124
1350.95072,1.59236
1349.46093,1.55031
1347.97114,1.46250
1346.48135,1.32273
1344.99156,1.19414
1343.50178,1.04701
1342.01199,0.90610
1340.52220,0.88901
1339.03241,0.79150
1337.54262,0.80047
1336.05283,0.77419
1334.56305,0.74796
1333.07326,0.70504
1331.58347,0.62378
1330.09368,0.63416
1328.60389,0.58763
1327.11410,0.57084
1325.62432,0.55408
1324.13453,0.57697
1322.64474,0.49839
1321.15495,0.47059
1319.66516,0.46697
1318.17537,0.46338
1316.68558,0.45301
1315.19580,0.47610
1313.70601,0.47570
1312.21622,0.42706
1310.72643,0.42426
1309.23664,0.38682
1307.74685,0.41751
1306.25707,0.41975
1304.76728,0.41770
1303.27749,0.41568
1301.78770,0.38584
1300.29791,0.34365
1298.80812,0.32997
1297.31834,0.38688
1295.82855,0.42155
1294.33876,0.41292
1292.84897,0.36471
1291.35918,0.32520
1289.86939,0.38599
1288.37960,0.44682
1286.88982,0.40246
1285.40003,0.46830
1283.91024,0.47228
1282.42045,0.50848
1280.93066,0.39493
1279.44087,0.44358
1277.95109,0.50835
1276.46130,0.50507
1274.97151,0.49069
1273.48172,0.47633
1271.99193,0.60684
1270.50214,0.58389
1269.01235,0.49166
1267.52257,0.60122
1266.03278,0.64769
1264.54299,0.61002
1263.05320,0.67760
1261.56341,0.70622
1260.07362,0.73487
1258.58384,0.72828
1257.09405,0.71058
1255.60426,0.64588
1254.11447,0.72480
1252.62468,0.68492
1251.13489,0.73420
1249.64511,0.67706
1248.15532,0.63356
1246.66553,0.59320
1245.17574,0.55286
1243.68595,0.54784
1242.19616,0.51562
1240.70637,0.42773
1239.21659,0.42776
1237.72680,0.38079
1236.23701,0.32271
1234.74722,0.24238
1233.25743,0.23574
1231.76764,0.22913
1230.27786,0.21822
1228.78807,0.29646
1227.29828,0.24849
1225.80849,0.24634
1224.31870,0.24547
1222.82891,0.22482
1221.33912,0.18316
1219.84934,0.20653
1218.35955,0.22993
1216.86976,0.29854
1215.37997,0.32757
1213.89018,0.27370
1212.40039,0.27557
1210.91061,0.22920
1209.42082,0.21133
1207.93103,0.23063
1206.44124,0.24996
1204.95145,0.14801
1203.46166,0.13151
1201.97188,0.11381
1200.48209,0.12461
1198.99230,0.14411
1197.50251,0.06461
1196.01272,0.06685
1194.52293,0.03631
1193.03314,0.00581
1191.54336,0.08833
1190.05357,0.03101
1188.56378,0.04924
1187.07399,0.09472
1185.58420,0.12291
1184.09441,0.06573
1182.60463,0.08718
1181.11484,0.10866
1179.62505,0.07881
1178.13526,0.08117
1176.64547,0.03901
1175.15568,0.14046
1173.66589,0.10332
1172.17611,0.12190
1170.68632,0.07059
1169.19653,0.01931
1167.70674,0.00581
1166.21695,0.03925
1164.72716,0.07891
1163.23738,0.07156
1161.74759,0.01845
1160.25780,0.04955
1158.76801,0.10420
1157.27822,0.15888
1155.78843,0.12447
1154.29865,0.09628
1152.80886,0.13621
1151.31907,0.09694
1149.82928,0.12332
1148.33949,0.12621
1146.84970,0.10809
1145.35991,0.09001
1143.87013,0.14375
1142.38034,0.18267
1140.89055,0.19068
1139.40076,0.23091
1137.91097,0.21794
1136.42118,0.34984
1134.93140,0.31466
1133.44161,0.27951
1131.95182,0.38427
1130.46203,0.35166
1128.97224,0.39583
1127.48245,0.47223
1125.99266,0.50161
1124.50288,0.51865
1123.01309,0.51654
1121.52330,0.51446
1120.03351,0.49694
1118.54372,0.51659
1117.05393,0.65635
1115.56415,0.55723
1114.07436,0.59679
1112.58457,0.60728
1111.09478,0.61782
1109.60499,0.69089
1108.11520,0.59442
1106.62542,0.71460
1105.13563,0.75559
1103.64584,0.87584
1102.15605,0.85872
1100.66626,0.93324
1099.17647,1.00779
1097.68668,0.97591
1096.19690,1.05919
1094.70711,1.12022
1093.21732,1.16272
1091.72753,1.14707
1090.23774,1.15807
1088.74795,1.16910
1087.25817,1.22535
1085.76838,1.28658
1084.27859,1.36023
1082.78880,1.40543
1081.29901,1.39002
1079.80922,1.42910
1078.31943,1.46636
1076.82965,1.50366
1075.33986,1.58988
1073.85007,1.59196
1072.36028,1.61264
1070.87049,1.54176
1069.38070,1.54394
1067.89092,1.60743
1066.40113,1.67095
1064.91134,1.62743
1063.42155,1.50844
1061.93176,1.46622
1060.44197,1.39681
1058.95219,1.28039
1057.46240,1.22652
1055.97261,1.17268
1054.48282,1.11082
1052.99303,1.09852
1051.50324,1.05406
1050.01345,0.88957
1048.52367,0.84765
1047.03388,0.79277
1045.54409,0.73793
1044.05430,0.79267
1042.56451,0.63577
1041.07472,0.59526
1039.58494,0.57211
1038.09515,0.54776
1036.60536,0.54882
1035.11557,0.54991
1033.62578,0.52442
1032.13599,0.46059
1030.64620,0.47354
1029.15642,0.51871
1027.66663,0.51130
1026.17684,0.50393
1024.68705,0.55167
1023.19726,0.67495
1021.70747,0.80322
1020.21769,0.89934
1018.72790,1.07967
1017.23811,1.15729
1015.74832,1.23494
1014.25853,1.40175
1012.76874,1.62306
1011.27896,1.86792
1009.78917,1.95189
1008.29938,2.00000
1006.80959,1.96273
1005.31980,1.92550
1003.83001,1.77194
1002.34022,1.61965
1000.85044,1.68526
999.36065,1.48229
997.87086,1.44646
996.38107,1.41066
994.89128,1.42441
993.40149,1.50132
991.91171,1.46067
990.42192,1.39902
988.93213,1.36957
987.44234,1.40392
985.95255,1.43829
984.46276,1.45475
982.97297,1.39573
981.48319,1.35779
979.99340,1.22829
978.50361,1.23931
977.01382,1.25037
975.52403,1.16676
974.03424,1.13394
972.54446,1.06649
971.05467,0.99041
969.56488,1.01339
968.07509,0.97451
966.58530,0.93567
965.09551,0.93771
963.60573,0.96701
962.11594,0.91218
960.62615,0.98858
959.13636,0.89482
957.64657,0.80110
956.15678,0.78229
954.66699,0.77961
953.17721,0.76582
951.68742,0.78054
950.19763,0.78786
948.70784,0.79522
947.21805,0.77414
945.72826,0.69491
944.23848,0.72465
942.74869,0.68757
941.25890,0.78051
939.76911,0.82272
938.27932,0.86497
936.78953,0.89364
935.29974,0.90501
933.80996,0.90651
932.32017,0.88328
930.83038,0.84771
929.34059,0.81218
927.85080,0.89551
926.36101,0.91822
924.87123,0.87536
923.38144,0.83995
921.89165,0.89185
920.40186,0.94379
918.91207,0.93943
917.42228,1.05146
915.93250,0.99766
914.44271,0.96246
912.95292,0.97185
911.46313,0.98128
909.97334,0.95855
908.48355,1.06460
906.99376,1.18429
905.50398,0.95371
904.01419,0.97011
902.52440,0.98655
901.03461,1.10885
899.54482,1.10740
898.05503,1.07504
896.56525,1.12441
895.07546,1.14782
893.58567,1.17127
892.09588,1.11181
890.60609,1.12294
889.11630,1.19228
887.62651,1.13292
886.13673,1.08721
884.64694,1.04154
883.15715,1.04417
881.66736,1.12977
880.17757,1.07800
878.68778,1.10735
877.19800,1.13673
875.70821,1.07145
874.21842,1.03343
872.72863,1.15513
871.23884,1.18155
869.74905,1.18139
868.25927,1.18126
866.76948,1.13969
865.27969,1.08207
863.78990,1.20892
862.30011,1.32219
860.81032,1.26219
859.32053,1.20223
857.83075,1.16458
856.34096,1.12820
854.85117,0.97302
853.36138,0.91566
851.87159,0.86268
850.38180,0.80972
848.89202,0.76237
847.40223,0.60117
845.91244,0.54026
844.42265,0.52705
842.93286,0.51387
841.44307,0.47288
839.95329,0.48266
838.46350,0.38603
836.97371,0.42807
835.48392,0.45219
833.99413,0.47635
832.50434,0.43060
831.01455,0.47772
829.52477,0.37139
828.03498,0.35297
826.54519,0.32407
825.05540,0.29520
823.56561,0.29421
822.07582,0.29450
820.58604,0.21807
819.09625,0.22461
817.60646,0.23118
816.11667,0.14124
814.62688,0.09960
813.13709,0.04934
811.64730,0.04367
810.15752,0.02689
808.66773,0.01014
807.17794,0.00581
805.68815,0.02329
804.19836,0.09032
802.70857,0.11220
801.21879,0.13411
799.72900,0.17277
798.23921,0.26716
796.74942,0.40120
795.25963,0.42200
793.76984,0.44284
792.28006,0.45196
790.79027,0.51929
789.30048,0.54704
787.81069,0.66518
786.32090,0.66329
784.83111,0.66143
783.34132,0.70788
781.85154,0.69990
780.36175,0.70928
778.87196,0.72427
777.38217,0.73928
775.89238,0.86017
774.40259,0.90682
772.91281,0.86933
771.42302,0.91481
769.93323,0.96032
768.44344,0.96750
766.95365,0.95613
765.46386,0.90643
763.97407,0.89390
762.48429,0.84179
760.99450,0.78971
759.50471,0.64854
758.01492,0.58910
756.52513,0.52722
755.03534,0.42700
753.54556,0.32682
752.05577,0.22295
750.56598,0.23547
749.07619,0.17252
747.58640,0.15169
746.09661,0.13089
744.60683,0.07794
743.11704,0.06093
741.62725,0.06251
740.13746,0.07774
738.64767,0.09301
737.15788,0.01299
735.66809,0.06546
734.17831,0.01151
732.68852,0.01019
731.19873,0.00892
729.70894,0.05533
728.21915,0.03988
726.72936,0.01457
725.23958,0.07346
723.74979,0.09215
722.26000,0.11088
720.77021,0.10055
719.28042,0.07911
717.79063,0.06018
716.30084,0.03324
714.81106,0.00634
713.32127,0.00581
711.83148,0.03056
710.34169,0.07391
708.85190,0.06901
707.36211,0.06415
705.87233,0.00857
704.38254,0.04339
702.89275,0.04482
701.40296,0.04504
699.91317,0.04530
698.42338,0.07654
696.93360,0.13999
695.44381,0.12549
693.95402,0.12341
692.46423,0.12136
690.97444,0.17628
689.48465,0.21390
687.99486,0.18100
686.50508,0.21127
685.01529,0.24157
683.52550,0.29790
682.03571,0.31341
680.54592,0.22992
679.05613,0.19661
677.56635,0.16332
676.07656,0.14802
674.58677,0.13523
673.09698,0.14970
671.60719,0.17473
670.11740,0.19979
668.62761,0.06954
667.13783,0.08662
665.64804,0.05855
664.15825,0.03052
662.66846,0.13311
661.17867,0.06121
659.68888,0.12797
658.19910,0.11926
656.70931,0.11058
655.21952,0.12792
653.72973,0.11065
652.23994,0.24318
650.75015,0.22288
649.26037,0.20260
647.77058,0.17556
646.28079,0.14235
644.79100,0.08319
643.30121,0.04448
641.81142,0.00581
640.32163,0.12482
638.83185,0.02230
637.34206,0.02254
635.85227,0.01416
634.36248,0.00581
632.87269,0.04066
631.38290,0.04089
629.89312,0.03249
628.40333,0.02288
626.91354,0.01330
625.42375,0.13373
623.93396,0.10689
622.44417,0.10051
620.95438,0.09416
619.46460,0.11199
617.97481,0.07043
616.48502,0.10812
614.99523,0.10005
613.50544,0.09201
612.01565,0.05183
610.52587,0.09337
609.03608,0.07181
607.54629,0.11157
606.05650,0.15135
604.56671,0.15218
603.07692,0.12704
601.58714,0.09389
600.09735,0.06078
598.60756,0.05555
597.11777,0.10358
595.62798,0.08604
594.13819,0.08586
592.64840,0.08572
591.15862,0.02619
589.66883,0.01002
588.17904,0.05454
586.68925,0.08114
585.19946,0.10778
583.70967,0.19820
582.21989,0.16981
580.73010,0.13466
579.24031,0.09953
577.75052,0.17276
576.26073,0.14327
574.77094,0.16085
573.28115,0.14629
571.79137,0.13176
570.30158,0.27075
568.81179,0.20925
567.32200,0.25175
565.83221,0.29430
564.34242,0.32202
562.85264,0.47851
561.36285,0.47906
559.87306,0.47408
558.38327,0.46913
556.89348,0.48712
555.40369,0.53360
553.91391,0.54485
552.42412,0.55612
550.93433,0.57177
549.44454,0.57259
547.95475,0.65762
546.46496,0.63994
544.97517,0.62229
543.48539,0.68514
541.99560,0.75173
540.50581,0.77132
539.01602,0.79094
537.52623,0.78584
536.03644,0.80182
534.54666,0.69033
533.05687,0.70761
531.56708,0.72492
530.07729,0.70390
528.58750,0.60739
527.09771,0.57901
525.60792,0.55065
524.11814,0.56071
522.62835,0.61164
521.13856,0.54254
519.64877,0.52236
518.15898,0.50222
516.66919,0.45922
515.17941,0.42243
513.68962,0.44448
512.19983,0.46655
510.71004,0.40388
509.22025,0.36722
507.73046,0.42344
506.24068,0.42152
504.75089,0.41962
503.26110,0.49204
501.77131,0.40975
500.28152,0.42281
498.79173,0.43591
497.30194,0.36734
495.81216,0.38545
494.32237,0.42464
492.83258,0.46386
491.34279,0.48084
489.85300,0.42110
488.36321,0.36511
486.87343,0.34319
485.38364,0.32131
483.89385,0.36197
482.40406,0.22565
480.91427,0.19149
479.42448,0.15736
477.93469,0.19939
476.44491,0.16595
474.95512,0.09912
473.46533,0.03232
471.97554,0.02497
470.48575,0.06345
468.99596,0.03760
467.50618,0.02169
466.01639,0.00581
464.52660,0.02344
463.03681,0.06586
461.54702,0.03899
460.05723,0.01216
458.56745,0.04354
457.07766,0.04524
455.58787,0.08102
454.09808,0.11683
452.60829,0.17558
451.11850,0.16875
449.62871,0.22323
448.13893,0.27774
446.64914,0.28834
445.15935,0.46114
443.66956,0.46314
442.17977,0.46023
440.68998,0.45734
439.20020,0.64884
437.71041,0.66459
436.22062,0.71009
434.73083,0.75562
433.24104,0.98190
431.75125,1.12157
430.26146,1.12326
428.77168,1.12498
427.28189,1.33035
425.79210,1.33647
424.30231,1.31415
422.81252,1.29186
421.32273,1.25723
419.83295,1.16322
418.34316,1.09337
416.85337,1.02356
415.36358,0.89623
413.87379,0.76026
412.38400,0.69055
410.89422,0.62087
409.40443,0.70286
407.91464,0.62892
406.42485,0.56491
404.93506,0.56407
403.44527,0.56326
401.95548,0.51545
400.46570,0.45281
398.97591,0.47005
397.48612,0.48732
395.99633,0.55352
394.50654,0.47988
393.01675,0.48920
391.52697,0.49856
390.03718,0.42131
388.54739,0.33418
387.05760,0.36407
385.56781,0.39398
384.07802,0.40722
382.58824,0.40193
381.09845,0.43566
379.60866,0.46942
378.11887,0.39862
376.62908,0.29814
375.13929,0.26764
373.64950,0.23717
372.15972,0.21478
370.66993,0.24317
369.18014,0.17814
367.69035,0.11314
366.20056,0.03890
364.71077,0.04514
363.22099,0.13126
361.73120,0.21741
360.24141,0.06284
358.75162,0.10883
357.26183,0.15980
355.77204,0.21081
354.28225,0.09351
352.79247,0.08393
351.30268,0.06757
349.81289,0.05125
348.32310,0.00711
346.83331,0.08555
345.34352,0.06314
343.85374,0.04076
342.36395,0.07350
340.87416,0.17559
339.38437,0.18055
337.89458,0.18554
336.40479,0.15528
334.91501,0.07678
333.42522,0.08434
331.93543,0.09194
330.44564,0.03954
328.95585,0.08372
327.46606,0.05242
325.97627,0.02116
324.48649,0.18432
322.99670,0.11356
321.50691,0.10101
320.01712,0.08849
318.52733,0.09581
317.03754,0.22200
315.54776,0.20896
314.05797,0.19596
312.56818,0.08459
311.07839,0.11559
309.58860,0.13549
308.09881,0.15543
306.60902,0.00581
305.11924,0.15511
303.62945,0.08782
302.13966,0.02056
300.64987,0.08187
299.16008,0.00581
