1778.52000,0.07414
1777.03021,0.05531
1775.54042,0.05055
1774.05063,0.05876
1772.56085,0.13388
1771.07106,0.05373
1769.58127,0.11059
1768.09148,0.00355
1766.60169,0.08529
1765.11190,0.06893
1763.62212,0.06231
1762.13233,0.09239
1760.64254,0.11604
1759.15275,0.09227
1757.66296,0.11600
1756.17317,0.08476
1754.68339,0.08267
1753.19360,0.04719
1751.70381,0.03979
1750.21402,0.05400
1748.72423,0.06393
1747.23444,0.06742
1745.74465,0.08282
1744.25487,0.09394
1742.76508,0.07166
1741.27529,0.09364
1739.78550,0.07575
1738.29571,0.04065
1736.80592,0.06490
1735.31614,0.06869
1733.82635,0.04664
1732.33656,0.04512
1730.84677,0.06412
1729.35698,0.06591
1727.86719,0.07637
1726.37740,0.00381
1724.88762,0.00355
1723.39783,0.02395
1721.90804,0.05626
1720.41825,0.03683
1718.92846,0.06813
1717.43867,0.06387
1715.94889,0.05318
1714.45910,0.03282
1712.96931,0.08153
1711.47952,0.09468
1709.98973,0.12512
1708.49994,0.09089
1707.01016,0.09445
1705.52037,0.09804
1704.03058,0.15452
1702.54079,0.12799
1701.05100,0.14895
1699.56121,0.14730
1698.07142,0.11657
1696.58164,0.13549
1695.09185,0.15013
1693.60206,0.18206
1692.11227,0.22051
1690.62248,0.21045
1689.13269,0.20475
1687.64291,0.20772
1686.15312,0.20101
1684.66333,0.26337
1683.17354,0.26537
1681.68375,0.21132
1680.19396,0.16702
1678.70417,0.21982
1677.21439,0.26942
1675.72460,0.19719
1674.23481,0.24363
1672.74502,0.24912
1671.25523,0.24279
1669.76544,0.29366
1668.27566,0.25721
1666.78587,0.23805
1665.29608,0.20059
1663.80629,0.22896
1662.31650,0.24982
1660.82671,0.19629
1659.33693,0.23772
1657.84714,0.14113
1656.35735,0.22792
1654.86756,0.15945
1653.37777,0.14494
1651.88798,0.12939
1650.39819,0.16026
1648.90841,0.16635
1647.41862,0.16385
1645.92883,0.16247
1644.43904,0.16113
1642.94925,0.19110
1641.45946,0.20278
1639.96968,0.16596
1638.47989,0.14104
1636.99010,0.13880
1635.50031,0.14416
1634.01052,0.12043
1632.52073,0.12370
1631.03094,0.09249
1629.54116,0.15300
1628.05137,0.17256
1626.56158,0.15873
1625.07179,0.22582
1623.58200,0.26706
1622.09221,0.22745
1620.60243,0.23534
1619.11264,0.20983
1617.62285,0.20053
1616.13306,0.15999
1614.64327,0.19607
1613.15348,0.16424
1611.66370,0.19931
1610.17391,0.20638
1608.68412,0.21564
1607.19433,0.16454
1605.70454,0.13613
1604.21475,0.15899
1602.72496,0.18188
1601.23518,0.16005
1599.74539,0.16739
1598.25560,0.13053
1596.76581,0.14765
1595.27602,0.11087
1593.78623,0.09894
1592.29645,0.09998
1590.80666,0.15931
1589.31687,0.11082
1587.82708,0.08178
1586.33729,0.09591
1584.84750,0.10146
1583.35771,0.08655
1581.86793,0.06198
1580.37814,0.07627
1578.88835,0.10246
1577.39856,0.01867
1575.90877,0.05141
1574.41898,0.03781
1572.92920,0.03395
1571.43941,0.03875
1569.94962,0.02203
1568.45983,0.00534
1566.97004,0.04153
1565.48025,0.05619
1563.99047,0.03746
1562.50068,0.04680
1561.01089,0.05727
1559.52110,0.07208
1558.03131,0.11173
1556.54152,0.10613
1555.05173,0.12968
1553.56195,0.09072
1552.07216,0.09170
1550.58237,0.06899
1549.09258,0.08622
1547.60279,0.04956
1546.11300,0.08628
1544.62322,0.10686
1543.13343,0.06384
1541.64364,0.05430
1540.15385,0.07014
1538.66406,0.08601
1537.17427,0.06040
1535.68448,0.00355
1534.19470,0.04080
1532.70491,0.02846
1531.21512,0.03666
1529.72533,0.04058
1528.23554,0.00355
1526.74575,0.00000
1525.25597,0.08708
1523.76618,0.04477
1522.27639,0.00250
1520.78660,0.00018
1519.29681,0.02585
1517.80702,0.04940
1516.31724,0.04279
1514.82745,0.00387
1513.33766,0.01950
1511.84787,0.03518
1510.35808,0.03309
1508.86829,0.04614
1507.37850,0.05168
1505.88872,0.02382
1504.39893,0.00355
1502.90914,0.05079
1501.41935,0.09159
1499.92956,0.04723
1498.43977,0.11292
1496.94999,0.15923
1495.46020,0.19910
1493.97041,0.27892
1492.48062,0.27681
1490.99083,0.28875
1489.50104,0.28995
1488.01125,0.32246
1486.52147,0.35501
1485.03168,0.53859
1483.54189,0.59171
1482.05210,0.61790
1480.56231,0.72502
1479.07252,0.91198
1477.58274,0.98682
1476.09295,0.98512
1474.60316,1.10640
1473.11337,1.16194
1471.62358,1.21428
1470.13379,1.20194
1468.64401,1.10444
1467.15422,0.94981
1465.66443,0.98666
1464.17464,1.02355
1462.68485,0.96394
1461.19506,0.99713
1459.70527,0.91927
1458.21549,0.85115
1456.72570,0.82513
1455.23591,0.80993
1453.74612,0.73977
1452.25633,0.78936
1450.76654,0.71603
1449.27676,0.70422
1447.78697,0.66872
1446.29718,0.48442
1444.80739,0.50615
1443.31760,0.52792
1441.82781,0.38795
1440.33802,0.34833
1438.84824,0.32599
1437.35845,0.27349
1435.86866,0.28143
1434.37887,0.27755
1432.88908,0.31252
1431.39929,0.30655
1429.90951,0.25101
1428.41972,0.20628
1426.92993,0.26622
1425.44014,0.30246
1423.95035,0.34089
1422.46056,0.37937
1420.97078,0.42651
1419.48099,0.32161
1417.99120,0.27392
1416.50141,0.32872
1415.01162,0.31561
1413.52183,0.37157
1412.03204,0.30461
1410.54226,0.32397
1409.05247,0.34660
1407.56268,0.37035
1406.07289,0.34560
1404.58310,0.35109
1403.09331,0.35662
1401.60353,0.33414
1400.11374,0.32356
1398.62395,0.35293
1397.13416,0.39312
1395.64437,0.43982
1394.15458,0.49734
1392.66479,0.43410
1391.17501,0.45502
1389.68522,0.49216
1388.19543,0.43875
1386.70564,0.42258
1385.21585,0.40644
1383.72606,0.44697
1382.23628,0.32575
1380.74649,0.28331
1379.25670,0.38003
1377.76691,0.35707
1376.27712,0.38161
1374.78733,0.46873
1373.29755,0.56668
1371.80776,0.63231
1370.31797,0.69906
1368.82818,0.73295
1367.33839,0.76688
1365.84860,1.00414
1364.35881,1.09153
1362.86903,1.29544
1361.37924,1.34623
1359.88945,1.45099
1358.39966,1.48784
1356.90987,1.55492
1355.42008,1.45487
1353.93030,1.46703
1352.44051,1.39671
1350.95072,1.32644
1349.46093,1.30203
1347.97114,1.19678
1346.48135,0.99773
1344.99156,0.90334
1343.50178,0.85644
1342.01199,0.73407
1340.52220,0.63656
1339.03241,0.65124
1337.54262,0.62067
1336.05283,0.62626
1334.56305,0.63189
1333.07326,0.54103
1331.58347,0.50953
1330.09368,0.39286
1328.60389,0.41752
1327.11410,0.44976
1325.62432,0.39468
1324.13453,0.43023
1322.64474,0.35365
1321.15495,0.39036
1319.66516,0.36023
1318.17537,0.33015
1316.68558,0.38530
1315.19580,0.39951
1313.70601,0.35982
1312.21622,0.28782
1310.72643,0.24822
1309.23664,0.27983
1307.74685,0.25648
1306.25707,0.25257
1304.76728,0.28376
1303.27749,0.31498
1301.78770,0.22059
1300.29791,0.28155
1298.80812,0.27352
1297.31834,0.31837
1295.82855,0.30934
1294.33876,0.34888
1292.84897,0.35502
1291.35918,0.29001
1289.86939,0.25956
1288.37960,0.22914
1286.88982,0.30661
1285.40003,0.36794
1283.91024,0.37215
1282.42045,0.38503
1280.93066,0.41303
1279.44087,0.44971
1277.95109,0.43250
1276.46130,0.41640
1274.97151,0.38362
1273.48172,0.35088
1271.99193,0.37157
1270.50214,0.44190
1269.01235,0.50473
1267.52257,0.57298
1266.03278,0.56361
1264.54299,0.57478
1263.05320,0.62804
1261.56341,0.59992
1260.07362,0.57183
1258.58384,0.60364
1257.09405,0.55351
1255.60426,0.60157
1254.11447,0.66801
1252.62468,0.68594
1251.13489,0.63705
1249.64511,0.64319
1248.15532,0.49299
1246.66553,0.47441
1245.17574,0.45586
1243.68595,0.40608
1242.19616,0.39516
1240.70637,0.42310
1239.21659,0.35725
1237.72680,0.25692
1236.23701,0.25370
1234.74722,0.25267
1233.25743,0.24413
1231.76764,0.23563
1230.27786,0.24226
1228.78807,0.23060
1227.29828,0.26319
1225.80849,0.16101
1224.31870,0.20877
1222.82891,0.16598
1221.33912,0.11892
1219.84934,0.13929
1218.35955,0.15971
1216.86976,0.21306
1215.37997,0.25889
1213.89018,0.24868
1212.40039,0.27518
1210.91061,0.24886
1209.42082,0.22906
1207.93103,0.19743
1206.44124,0.16583
1204.95145,0.10731
1203.46166,0.12433
1201.97188,0.07667
1200.48209,0.13474
1198.99230,0.10765
1197.50251,0.03314
1196.01272,0.09456
1194.52293,0.08268
1193.03314,0.07084
1191.54336,0.04825
1190.05357,0.09040
1188.56378,0.01504
1187.07399,0.06698
1185.58420,0.00355
1184.09441,0.04311
1182.60463,0.06275
1181.11484,0.08243
1179.62505,0.12210
1178.13526,0.14455
1176.64547,0.08831
1175.15568,0.12378
1173.66589,0.12153
1172.17611,0.16139
1170.68632,0.10314
1169.19653,0.04492
1167.70674,0.09244
1166.21695,0.10549
1164.72716,0.04631
1163.23738,0.06482
1161.74759,0.00355
1160.25780,0.07518
1158.76801,0.10047
1157.27822,0.12580
1155.78843,0.12636
1154.29865,0.11618
1152.80886,0.08230
1151.31907,0.11533
1149.82928,0.05456
1148.33949,0.11247
1146.84970,0.12350
1145.35991,0.13457
1143.87013,0.06424
1142.38034,0.20858
1140.89055,0.12863
1139.40076,0.19431
1137.91097,0.13816
1136.42118,0.19421
1134.93140,0.24545
1133.44161,0.29672
1131.95182,0.31082
1130.46203,0.37026
1128.97224,0.34992
1127.48245,0.39757
1125.99266,0.32877
1124.50288,0.46709
1123.01309,0.45715
1121.52330,0.44725
1120.03351,0.48861
1118.54372,0.45991
1117.05393,0.48840
1115.56415,0.49860
1114.07436,0.58326
1112.58457,0.60539
1111.09478,0.62757
1109.60499,0.62174
1108.11520,0.63536
1106.62542,0.53146
1105.13563,0.69939
1103.64584,0.78215
1102.15605,0.84553
1100.66626,0.82267
1099.17647,0.79985
1097.68668,0.87520
1096.19690,0.98296
1094.70711,0.98182
1093.21732,0.99365
1091.72753,1.05299
1090.23774,1.05789
1088.74795,1.06283
1087.25817,1.13090
1085.76838,1.22274
1084.27859,1.18735
1082.78880,1.14876
1081.29901,1.24179
1079.80922,1.21082
1078.31943,1.20093
1076.82965,1.19107
1075.33986,1.36621
1073.85007,1.41521
1072.36028,1.28089
1070.87049,1.28143
1069.38070,1.35966
1067.89092,1.45194
1066.40113,1.54427
1064.91134,1.34111
1063.42155,1.17898
1061.93176,1.28004
1060.44197,1.18701
1058.95219,1.12314
1057.46240,1.08141
1055.97261,1.03972
1054.48282,0.89507
1052.99303,0.98018
1051.50324,0.89276
1050.01345,0.83019
1048.52367,0.75256
1047.03388,0.71379
1045.54409,0.67506
1044.05430,0.63097
1042.56451,0.60741
1041.07472,0.42859
1039.58494,0.40942
1038.09515,0.52187
1036.60536,0.49307
1035.11557,0.46430
1033.62578,0.47764
1032.13599,0.40473
1030.64620,0.36422
1029.15642,0.44022
1027.66663,0.41057
1026.17684,0.38095
1024.68705,0.50991
1023.19726,0.56881
1021.70747,0.69030
1020.21769,0.76437
1018.72790,0.98947
1017.23811,1.10136
1015.74832,1.21329
1014.25853,1.41262
1012.76874,1.67778
1011.27896,1.80061
1009.78917,1.94289
1008.29938,2.00000
1006.80959,1.98166
1005.31980,1.96335
1003.83001,1.82536
1002.34022,1.65829
1000.85044,1.57970
999.36065,1.37820
997.87086,1.38111
996.38107,1.38406
994.89128,1.41778
993.40149,1.37712
991.91171,1.31385
990.42192,1.22797
988.93213,1.30930
987.44234,1.34645
985.95255,1.38363
984.46276,1.28280
982.97297,1.26290
981.48319,1.32069
979.99340,1.15418
978.50361,1.17160
977.01382,1.18905
975.52403,1.19091
974.03424,1.05691
972.54446,0.98118
971.05467,1.01119
969.56488,1.14801
968.07509,1.13657
966.58530,1.12517
965.09551,1.02483
963.60573,0.95364
962.11594,0.95044
960.62615,0.90629
959.13636,0.87297
957.64657,0.83968
956.15678,0.78163
954.66699,0.69233
953.17721,0.73681
951.68742,0.78780
950.19763,0.78382
948.70784,0.77987
947.21805,0.64115
945.72826,0.66641
944.23848,0.66150
942.74869,0.72889
941.25890,0.74670
939.76911,0.78019
938.27932,0.81372
936.78953,0.89959
935.29974,0.85716
933.80996,0.76516
932.32017,0.81232
930.83038,0.83417
929.34059,0.85606
927.85080,0.82568
926.36101,0.80719
924.87123,0.74453
923.38144,0.77897
921.89165,0.77571
920.40186,0.77247
918.91207,0.84693
917.42228,0.86103
915.93250,0.91831
914.44271,0.80738
912.95292,0.80056
911.46313,0.79378
909.97334,0.76708
908.48355,0.98093
906.99376,0.91764
905.50398,0.90616
904.01419,0.84186
902.52440,0.77760
901.03461,0.75005
899.54482,0.89079
898.05503,0.86871
896.56525,0.99226
895.07546,1.00477
893.58567,1.01731
892.09588,0.98459
890.60609,0.99613
889.11630,0.95054
887.62651,0.84891
886.13673,0.86434
884.64694,0.87980
883.15715,0.92172
881.66736,0.93241
880.17757,0.93019
878.68778,0.97384
877.19800,1.01753
875.70821,0.98307
874.21842,1.00580
872.72863,1.08574
871.23884,1.09884
869.74905,1.07370
868.25927,1.04859
866.76948,1.16642
865.27969,1.10849
863.78990,1.20375
862.30011,1.12325
860.81032,1.12637
859.32053,1.12952
857.83075,1.22817
856.34096,0.97309
854.85117,1.08475
853.36138,0.95163
851.87159,0.87193
850.38180,0.79226
848.89202,0.70778
847.40223,0.48098
845.91244,0.54541
844.42265,0.53654
842.93286,0.52770
841.44307,0.53940
839.95329,0.51662
838.46350,0.41622
836.97371,0.39675
835.48392,0.45605
833.99413,0.51539
832.50434,0.47770
831.01455,0.56947
829.52477,0.54587
828.03498,0.41877
826.54519,0.38393
825.05540,0.34912
823.56561,0.36234
822.07582,0.32060
820.58604,0.25624
819.09625,0.19947
817.60646,0.14274
816.11667,0.09468
814.62688,0.18470
813.13709,0.13995
811.64730,0.00355
810.15752,0.07377
808.66773,0.14402
807.17794,0.09729
805.68815,0.10452
804.19836,0.15708
802.70857,0.16385
801.21879,0.17066
799.72900,0.17049
798.23921,0.29115
796.74942,0.38812
795.25963,0.37728
793.76984,0.36648
792.28006,0.43876
790.79027,0.61030
789.30048,0.72472
787.81069,0.70651
786.32090,0.68835
784.83111,0.67022
783.34132,0.79880
781.85154,0.77644
780.36175,0.77783
778.87196,0.77549
777.38217,0.77319
775.89238,0.82000
774.40259,0.80860
772.91281,0.86519
771.42302,0.87868
769.93323,0.89220
768.44344,0.91547
766.95365,0.87837
765.46386,0.89740
763.97407,0.78812
762.48429,0.78835
760.99450,0.78862
759.50471,0.60180
758.01492,0.55091
756.52513,0.52271
755.03534,0.44115
753.54556,0.35964
752.05577,0.23340
750.56598,0.18809
749.07619,0.16547
747.58640,0.14073
746.09661,0.11602
744.60683,0.06871
743.11704,0.08506
741.62725,0.12410
740.13746,0.12759
738.64767,0.13111
737.15788,0.05163
735.66809,0.06278
734.17831,0.08151
732.68852,0.10028
731.19873,0.11909
729.70894,0.09372
728.21915,0.06839
726.72936,0.03123
725.23958,0.04695
723.74979,0.08267
722.26000,0.11842
720.77021,0.08572
719.28042,0.06924
717.79063,0.07760
716.30084,0.05688
714.81106,0.03620
713.32127,0.01879
711.83148,0.04132
710.34169,0.04987
708.85190,0.11238
707.36211,0.17493
705.87233,0.17713
704.38254,0.00355
702.89275,0.10563
701.40296,0.14682
699.91317,0.18803
698.42338,0.18345
696.93360,0.20372
695.44381,0.30490
693.95402,0.32039
692.46423,0.33591
690.97444,0.25494
689.48465,0.31961
687.99486,0.30774
686.50508,0.29699
685.01529,0.28627
683.52550,0.40070
682.03571,0.31888
680.54592,0.29965
679.05613,0.29232
677.56635,0.28503
676.07656,0.27777
674.58677,0.17888
673.09698,0.18033
671.60719,0.22711
670.11740,0.27393
668.62761,0.21833
667.13783,0.20591
665.64804,0.17411
664.15825,0.14235
662.66846,0.15377
661.17867,0.09835
659.68888,0.27378
658.19910,0.26104
656.70931,0.24834
655.21952,0.26642
653.72973,0.27374
652.23994,0.25199
650.75015,0.23674
649.26037,0.22153
647.77058,0.28725
646.28079,0.18583
644.79100,0.10711
643.30121,0.11469
641.81142,0.12232
640.32163,0.16450
638.83185,0.12906
637.34206,0.11739
635.85227,0.06045
634.36248,0.00355
632.87269,0.08994
631.38290,0.07283
629.89312,0.06439
628.40333,0.08133
626.91354,0.09830
625.42375,0.27871
623.93396,0.24453
622.44417,0.22063
620.95438,0.19677
619.46460,0.13358
617.97481,0.13838
616.48502,0.16047
614.99523,0.16157
613.50544,0.16270
612.01565,0.04254
610.52587,0.09498
609.03608,0.15932
607.54629,0.17732
606.05650,0.19536
604.56671,0.24471
603.07692,0.20998
601.58714,0.19685
600.09735,0.18376
598.60756,0.19120
597.11777,0.11456
595.62798,0.08756
594.13819,0.10805
592.64840,0.12858
591.15862,0.17288
589.66883,0.15251
588.17904,0.07716
586.68925,0.10701
585.19946,0.13690
583.70967,0.19540
582.21989,0.26257
580.73010,0.25051
579.24031,0.23849
577.75052,0.22164
576.26073,0.14121
574.77094,0.14278
573.28115,0.17836
571.79137,0.21397
570.30158,0.25556
568.81179,0.35650
567.32200,0.35232
565.83221,0.34818
564.34242,0.40933
562.85264,0.45650
561.36285,0.45625
559.87306,0.49055
558.38327,0.52488
556.89348,0.59592
555.40369,0.58719
553.91391,0.60600
552.42412,0.62485
550.93433,0.67663
549.44454,0.60226
547.95475,0.70049
546.46496,0.68659
544.97517,0.67273
543.48539,0.72146
541.99560,0.86945
540.50581,0.77266
539.01602,0.67590
537.52623,0.73880
536.03644,0.63781
534.54666,0.75902
533.05687,0.71850
531.56708,0.67801
530.07729,0.60197
528.58750,0.57666
527.09771,0.56972
525.60792,0.56282
524.11814,0.57860
522.62835,0.59766
521.13856,0.55096
519.64877,0.49406
518.15898,0.43719
516.66919,0.48444
515.17941,0.40985
513.68962,0.40864
512.19983,0.40747
510.71004,0.42035
509.22025,0.38043
507.73046,0.45810
506.24068,0.47325
504.75089,0.48844
503.26110,0.45514
501.77131,0.44776
500.28152,0.49865
498.79173,0.54958
497.30194,0.38916
495.81216,0.48978
494.32237,0.55215
492.83258,0.61456
491.34279,0.59989
489.85300,0.43534
488.36321,0.37869
486.87343,0.37168
485.38364,0.36471
483.89385,0.36209
482.40406,0.34333
480.91427,0.32838
479.42448,0.31347
477.93469,0.18158
476.44491,0.16297
474.95512,0.19078
473.46533,0.21862
471.97554,0.17531
470.48575,0.09861
468.99596,0.20206
467.50618,0.10279
466.01639,0.00355
464.52660,0.04154
463.03681,0.18633
461.54702,0.16938
460.05723,0.15247
458.56745,0.16795
457.07766,0.07993
455.58787,0.10843
454.09808,0.13697
452.60829,0.20868
451.11850,0.31603
449.62871,0.30800
448.13893,0.30002
446.64914,0.44199
445.15935,0.48261
443.66956,0.50602
442.17977,0.58716
440.68998,0.66835
439.20020,0.62715
437.71041,0.66257
436.22062,0.63655
434.73083,0.61057
433.24104,0.84779
431.75125,1.15191
430.26146,1.14276
428.77168,1.13364
427.28189,1.30630
425.79210,1.36682
424.30231,1.24403
422.81252,1.12129
421.32273,1.14633
419.83295,1.15524
418.34316,1.08113
416.85337,1.00707
415.36358,0.79283
413.87379,0.65845
412.38400,0.65729
410.89422,0.65618
409.40443,0.61789
407.91464,0.60984
406.42485,0.40877
404.93506,0.45257
403.44527,0.49640
401.95548,0.49712
400.46570,0.40190
398.97591,0.42643
397.48612,0.45099
395.99633,0.49393
394.50654,0.50779
393.01675,0.43001
391.52697,0.35227
390.03718,0.21524
388.54739,0.21954
387.05760,0.26109
385.56781,0.30267
384.07802,0.35670
382.58824,0.35144
381.09845,0.33543
379.60866,0.31946
378.11887,0.34020
376.62908,0.29088
375.13929,0.23458
373.64950,0.17831
372.15972,0.21538
370.66993,0.19209
369.18014,0.18124
367.69035,0.17042
366.20056,0.05125
364.71077,0.04321
363.22099,0.07241
361.73120,0.10165
360.24141,0.14225
358.75162,0.21201
357.26183,0.17665
355.77204,0.14133
354.28225,0.20366
352.79247,0.11934
351.30268,0.08521
349.81289,0.05111
348.32310,0.04025
346.83331,0.02618
345.34352,0.01485
343.85374,0.00355
342.36395,0.12637
340.87416,0.12842
339.38437,0.12404
337.89458,0.11970
336.40479,0.10354
334.91501,0.09927
333.42522,0.06215
331.93543,0.02506
330.44564,0.09964
328.95585,0.08151
327.46606,0.13189
325.97627,0.18232
324.48649,0.02301
322.99670,0.09891
321.50691,0.09773
320.01712,0.09659
318.52733,0.16721
317.03754,0.18178
315.54776,0.14085
314.05797,0.09996
312.56818,0.00355
311.07839,0.04043
309.58860,0.04176
308.09881,0.04312
306.60902,0.01432
305.11924,0.05243
303.62945,0.06361
302.13966,0.07483
300.64987,0.03432
299.16008,0.00355
