1778.52000,0.03449
1777.03021,0.05466
1775.54042,0.03835
1774.05063,0.05356
1772.56085,0.03102
1771.07106,0.03999
1769.58127,0.03640
1768.09148,0.00388
1766.60169,0.03310
1765.11190,0.03590
1763.62212,0.03370
1762.13233,0.05168
1760.64254,0.07347
1759.15275,0.06759
1757.66296,0.02018
1756.17317,0.04711
1754.68339,0.02495
1753.19360,0.02298
1751.70381,0.00340
1750.21402,0.03845
1748.72423,0.01057
1747.23444,0.05827
1745.74465,0.06193
1744.25487,0.05555
1742.76508,0.03661
1741.27529,0.06430
1739.78550,0.01268
1738.29571,0.10339
1736.80592,0.06192
1735.31614,0.05447
1733.82635,0.04580
1732.33656,0.11019
1730.84677,0.06381
1729.35698,0.07161
1727.86719,0.00388
1726.37740,0.03034
1724.88762,0.02534
1723.39783,0.04934
1721.90804,0.05197
1720.41825,0.04204
1718.92846,0.05732
1717.43867,0.07516
1715.94889,0.08799
1714.45910,0.07566
1712.96931,0.07345
1711.47952,0.04986
1709.98973,0.09304
1708.49994,0.11862
1707.01016,0.09702
1705.52037,0.07544
1704.03058,0.09609
1702.54079,0.14950
1701.05100,0.13495
1699.56121,0.18591
1698.07142,0.15757
1696.58164,0.18090
1695.09185,0.21810
1693.60206,0.17853
1692.11227,0.21076
1690.62248,0.21407
1689.13269,0.24637
1687.64291,0.25351
1686.15312,0.25943
1684.66333,0.25531
1683.17354,0.22478
1681.68375,0.21820
1680.19396,0.21543
1678.70417,0.20389
1677.21439,0.17852
1675.72460,0.21614
1674.23481,0.17825
1672.74502,0.21342
1671.25523,0.22596
1669.76544,0.26623
1668.27566,0.26624
1666.78587,0.22725
1665.29608,0.20340
1663.80629,0.21862
1662.31650,0.22379
1660.82671,0.19878
1659.33693,0.15365
1657.84714,0.12619
1656.35735,0.15290
1654.86756,0.12298
1653.37777,0.09687
1651.88798,0.16019
1650.39819,0.14674
1648.90841,0.18747
1647.41862,0.14134
1645.92883,0.14876
1644.43904,0.15621
1642.94925,0.17188
1641.45946,0.15862
1639.96968,0.15294
1638.47989,0.16115
1636.99010,0.14673
1635.50031,0.16004
1634.01052,0.09658
1632.52073,0.13892
1631.03094,0.16995
1629.54116,0.21613
1628.05137,0.18805
1626.56158,0.19022
1625.07179,0.21509
1623.58200,0.23622
1622.09221,0.20575
1620.60243,0.23449
1619.11264,0.23305
1617.62285,0.19512
1616.13306,0.20004
1614.64327,0.15840
1613.15348,0.19864
1611.66370,0.19609
1610.17391,0.12937
1608.68412,0.18859
1607.19433,0.18866
1605.70454,0.15603
1604.21475,0.15365
1602.72496,0.15130
1601.23518,0.12254
1599.74539,0.09633
1598.25560,0.17089
1596.76581,0.20267
1595.27602,0.20048
1593.78623,0.10263
1592.29645,0.10303
1590.80666,0.12486
1589.31687,0.11525
1587.82708,0.08300
1586.33729,0.07849
1584.84750,0.12060
1583.35771,0.11112
1581.86793,0.06641
1580.37814,0.12624
1578.88835,0.09545
1577.39856,0.10624
1575.90877,0.06922
1574.41898,0.06748
1572.92920,0.06955
1571.43941,0.04774
1569.94962,0.04169
1568.45983,0.03568
1566.97004,0.00388
1565.48025,0.05883
1563.99047,0.09618
1562.50068,0.05172
1561.01089,0.05766
1559.52110,0.04600
1558.03131,0.12503
1556.54152,0.12225
1555.05173,0.13210
1553.56195,0.10923
1552.07216,0.11788
1550.58237,0.11523
1549.09258,0.04336
1547.60279,0.10877
1546.11300,0.12888
1544.62322,0.11754
1543.13343,0.13520
1541.64364,0.06474
1540.15385,0.04721
1538.66406,0.02970
1537.17427,0.06134
1535.68448,0.04264
1534.19470,0.05545
1532.70491,0.06578
1531.21512,0.05096
1529.72533,0.09661
1528.23554,0.00000
1526.74575,0.10676
1525.25597,0.06245
1523.76618,0.08616
1522.27639,0.05199
1520.78660,0.04051
1519.29681,0.00388
1517.80702,0.06248
1516.31724,0.03675
1514.82745,0.06142
1513.33766,0.07038
1511.84787,0.07937
1510.35808,0.04873
1508.86829,0.00679
1507.37850,0.05806
1505.88872,0.05018
1504.39893,0.09774
1502.90914,0.04208
1501.41935,0.00659
1499.92956,0.00388
1498.43977,0.04015
1496.94999,0.07141
1495.46020,0.12788
1493.97041,0.18188
1492.48062,0.19435
1490.99083,0.25848
1489.50104,0.28738
1488.01125,0.31695
1486.52147,0.34654
1485.03168,0.40325
1483.54189,0.52798
1482.05210,0.50542
1480.56231,0.61385
1479.07252,0.71349
1477.58274,0.82576
1476.09295,0.95065
1474.60316,1.00254
1473.11337,1.10232
1471.62358,1.07369
1470.13379,1.11812
1468.64401,0.98378
1467.15422,0.94265
1465.66443,0.89778
1464.17464,0.85294
1462.68485,0.91642
1461.19506,0.89431
1459.70527,0.78913
1458.21549,0.70916
1456.72570,0.64559
1455.23591,0.63620
1453.74612,0.67344
1452.25633,0.58226
1450.76654,0.51757
1449.27676,0.58008
1447.78697,0.55322
1446.29718,0.57551
1444.80739,0.49520
1443.31760,0.41492
1441.82781,0.35042
1440.33802,0.31994
1438.84824,0.26306
1437.35845,0.23265
1435.86866,0.35212
1434.37887,0.23867
1432.88908,0.28265
1431.39929,0.19319
1429.90951,0.19316
1428.41972,0.20954
1426.92993,0.27001
1425.44014,0.32045
1423.95035,0.34763
1422.46056,0.37484
1420.97078,0.30575
1419.48099,0.38024
1417.99120,0.35403
1416.50141,0.33666
1415.01162,0.28029
1413.52183,0.35869
1412.03204,0.24320
1410.54226,0.32419
1409.05247,0.32587
1407.56268,0.33892
1406.07289,0.35830
1404.58310,0.37204
1403.09331,0.38581
1401.60353,0.38010
1400.11374,0.39583
1398.62395,0.41663
1397.13416,0.48405
1395.64437,0.47847
1394.15458,0.51573
1392.66479,0.56562
1391.17501,0.56266
1389.68522,0.62898
1388.19543,0.54423
1386.70564,0.53695
1385.21585,0.52971
1383.72606,0.51305
1382.23628,0.53043
1380.74649,0.48236
1379.25670,0.47839
1377.76691,0.57267
1376.27712,0.59773
1374.78733,0.64171
1373.29755,0.80031
1371.80776,0.77384
1370.31797,0.98665
1368.82818,1.03264
1367.33839,1.07867
1365.84860,1.15684
1364.35881,1.45289
1362.86903,1.64193
1361.37924,1.74035
1359.88945,1.87531
1358.39966,1.90579
1356.90987,1.96401
1355.42008,1.76916
1353.93030,1.84885
1352.44051,1.81524
1350.95072,1.78167
1349.46093,1.65620
1347.97114,1.52070
1346.48135,1.36130
1344.99156,1.17549
1343.50178,1.07408
1342.01199,0.88833
1340.52220,0.85498
1339.03241,0.80530
1337.54262,0.75187
1336.05283,0.74191
1334.56305,0.73198
1333.07326,0.58295
1331.58347,0.55861
1330.09368,0.48771
1328.60389,0.41936
1327.11410,0.43541
1325.62432,0.45527
1324.13453,0.41346
1322.64474,0.39560
1321.15495,0.44578
1319.66516,0.42233
1318.17537,0.39891
1316.68558,0.43407
1315.19580,0.42393
1313.70601,0.30428
1312.21622,0.34080
1310.72643,0.30306
1309.23664,0.24646
1307.74685,0.21886
1306.25707,0.36757
1304.76728,0.33059
1303.27749,0.29364
1301.78770,0.29135
1300.29791,0.27902
1298.80812,0.25916
1297.31834,0.19653
1295.82855,0.29762
1294.33876,0.30935
1292.84897,0.27325
1291.35918,0.27874
1289.86939,0.26978
1288.37960,0.26086
1286.88982,0.38103
1285.40003,0.34888
1283.91024,0.35705
1282.42045,0.32621
1280.93066,0.40244
1279.44087,0.40442
1277.95109,0.39257
1276.46130,0.33416
1274.97151,0.37841
1273.48172,0.42270
1271.99193,0.43364
1270.50214,0.39803
1269.01235,0.36119
1267.52257,0.42512
1266.03278,0.41983
1264.54299,0.52915
1263.05320,0.58311
1261.56341,0.55524
1260.07362,0.52741
1258.58384,0.56509
1257.09405,0.57384
1255.60426,0.55367
1254.11447,0.51211
1252.62468,0.55370
1251.13489,0.49836
1249.64511,0.51986
1248.15532,0.45703
1246.66553,0.41816
1245.17574,0.37932
1243.68595,0.34303
1242.19616,0.35210
1240.70637,0.29447
1239.21659,0.27339
1237.72680,0.27752
1236.23701,0.19984
1234.74722,0.22292
1233.25743,0.21393
1231.76764,0.20497
1230.27786,0.22060
1228.78807,0.19219
1227.29828,0.18899
1225.80849,0.18331
1224.31870,0.16003
1222.82891,0.19848
1221.33912,0.10979
1219.84934,0.16153
1218.35955,0.21330
1216.86976,0.16123
1215.37997,0.20236
1213.89018,0.25738
1212.40039,0.22806
1210.91061,0.18241
1209.42082,0.17834
1207.93103,0.13967
1206.44124,0.10104
1204.95145,0.11596
1203.46166,0.09187
1201.97188,0.10433
1200.48209,0.19364
1198.99230,0.06262
1197.50251,0.04999
1196.01272,0.07769
1194.52293,0.06387
1193.03314,0.05009
1191.54336,0.06529
1190.05357,0.12964
1188.56378,0.00388
1187.07399,0.04024
1185.58420,0.02752
1184.09441,0.08535
1182.60463,0.08592
1181.11484,0.08652
1179.62505,0.04245
1178.13526,0.06390
1176.64547,0.05515
1175.15568,0.03762
1173.66589,0.05790
1172.17611,0.07443
1170.68632,0.05952
1169.19653,0.04464
1167.70674,0.06883
1166.21695,0.08423
1164.72716,0.14626
1163.23738,0.04462
1161.74759,0.06894
1160.25780,0.00388
1158.76801,0.04448
1157.27822,0.08510
1155.78843,0.02377
1154.29865,0.07453
1152.80886,0.00445
1151.31907,0.00868
1149.82928,0.10236
1148.33949,0.09533
1146.84970,0.09966
1145.35991,0.10403
1143.87013,0.06562
1142.38034,0.05368
1140.89055,0.13748
1139.40076,0.14701
1137.91097,0.14021
1136.42118,0.16240
1134.93140,0.20288
1133.44161,0.24339
1131.95182,0.29464
1130.46203,0.25400
1128.97224,0.23102
1127.48245,0.24963
1125.99266,0.30604
1124.50288,0.43678
1123.01309,0.41519
1121.52330,0.39363
1120.03351,0.38469
1118.54372,0.37579
1117.05393,0.38329
1115.56415,0.40341
1114.07436,0.39839
1112.58457,0.42991
1111.09478,0.46146
1109.60499,0.51823
1108.11520,0.42518
1106.62542,0.43417
1105.13563,0.53511
1103.64584,0.62852
1102.15605,0.66027
1100.66626,0.66183
1099.17647,0.66342
1097.68668,0.67385
1096.19690,0.68432
1094.70711,0.82452
1093.21732,0.88416
1091.72753,0.85317
1090.23774,0.88770
1088.74795,0.92225
1087.25817,0.94928
1085.76838,1.02294
1084.27859,0.97826
1082.78880,1.04946
1081.29901,0.94315
1079.80922,1.07360
1078.31943,1.08319
1076.82965,1.09282
1075.33986,1.12893
1073.85007,1.25321
1072.36028,1.26797
1070.87049,1.40491
1069.38070,1.30640
1067.89092,1.34519
1066.40113,1.38400
1064.91134,1.21257
1063.42155,1.20108
1061.93176,1.02089
1060.44197,1.05228
1058.95219,0.89608
1057.46240,0.85954
1055.97261,0.82303
1054.48282,0.93136
1052.99303,0.78663
1051.50324,0.70362
1050.01345,0.60428
1048.52367,0.60949
1047.03388,0.61598
1045.54409,0.62251
1044.05430,0.56863
1042.56451,0.50345
1041.07472,0.42571
1039.58494,0.39711
1038.09515,0.37358
1036.60536,0.34252
1035.11557,0.31150
1033.62578,0.33843
1032.13599,0.31000
1030.64620,0.26900
1029.15642,0.31743
1027.66663,0.31365
1026.17684,0.30989
1024.68705,0.40502
1023.19726,0.51654
1021.70747,0.69861
1020.21769,0.80895
1018.72790,0.86390
1017.23811,0.96612
1015.74832,1.06836
1014.25853,1.34881
1012.76874,1.51974
1011.27896,1.76626
1009.78917,1.91459
1008.29938,2.00000
1006.80959,1.98470
1005.31980,1.96944
1003.83001,1.59029
1002.34022,1.41895
1000.85044,1.30934
999.36065,1.31057
997.87086,1.25895
996.38107,1.20736
994.89128,1.07899
993.40149,1.14331
991.91171,1.04397
990.42192,0.96859
988.93213,0.95367
987.44234,0.97846
985.95255,1.00328
984.46276,0.93054
982.97297,0.83391
981.48319,0.81916
979.99340,0.81577
978.50361,0.78031
977.01382,0.74488
975.52403,0.72270
974.03424,0.71189
972.54446,0.66963
971.05467,0.65763
969.56488,0.62047
968.07509,0.64064
966.58530,0.66084
965.09551,0.68170
963.60573,0.54771
962.11594,0.48553
960.62615,0.42716
959.13636,0.41793
957.64657,0.40873
956.15678,0.41594
954.66699,0.42569
953.17721,0.45185
951.68742,0.45537
950.19763,0.44696
948.70784,0.43859
947.21805,0.39562
945.72826,0.49497
944.23848,0.38659
942.74869,0.42682
941.25890,0.39405
939.76911,0.45639
938.27932,0.51875
936.78953,0.55408
935.29974,0.66373
933.80996,0.60720
932.32017,0.53685
930.83038,0.57482
929.34059,0.61283
927.85080,0.56398
926.36101,0.62346
924.87123,0.53942
923.38144,0.55992
921.89165,0.57353
920.40186,0.58718
918.91207,0.60149
917.42228,0.66493
915.93250,0.65286
914.44271,0.66978
912.95292,0.66785
911.46313,0.66595
909.97334,0.75978
908.48355,0.70883
906.99376,0.72717
905.50398,0.63851
904.01419,0.66573
902.52440,0.69299
901.03461,0.71272
899.54482,0.74004
898.05503,0.70820
896.56525,0.87536
895.07546,0.90403
893.58567,0.93274
892.09588,0.79022
890.60609,0.83914
889.11630,0.80372
887.62651,0.81619
886.13673,0.82113
884.64694,0.82611
883.15715,0.83741
881.66736,0.90541
880.17757,0.83745
878.68778,0.83185
877.19800,0.82628
875.70821,0.85789
874.21842,0.86687
872.72863,0.94136
871.23884,0.94158
869.74905,0.92107
868.25927,0.90058
866.76948,0.89083
865.27969,0.96548
863.78990,0.96084
862.30011,0.99022
860.81032,0.97808
859.32053,0.96597
857.83075,0.97279
856.34096,1.03252
854.85117,0.95126
853.36138,0.76299
851.87159,0.73971
850.38180,0.71647
848.89202,0.64792
847.40223,0.43586
845.91244,0.48701
844.42265,0.46074
842.93286,0.43451
841.44307,0.41524
839.95329,0.36577
838.46350,0.31634
836.97371,0.35005
835.48392,0.36302
833.99413,0.37601
832.50434,0.45515
831.01455,0.45625
829.52477,0.41079
828.03498,0.35151
826.54519,0.33193
825.05540,0.31238
823.56561,0.28594
822.07582,0.25449
820.58604,0.15382
819.09625,0.15392
817.60646,0.15405
816.11667,0.13406
814.62688,0.17329
813.13709,0.08663
811.64730,0.11711
810.15752,0.12433
808.66773,0.13158
807.17794,0.04882
805.68815,0.00388
804.19836,0.03342
802.70857,0.09385
801.21879,0.15430
799.72900,0.19527
798.23921,0.20228
796.74942,0.31508
795.25963,0.33034
793.76984,0.34562
792.28006,0.43838
790.79027,0.45814
789.30048,0.54467
787.81069,0.51286
786.32090,0.57805
784.83111,0.64327
783.34132,0.64682
781.85154,0.71210
780.36175,0.64016
778.87196,0.67529
777.38217,0.71044
775.89238,0.74941
774.40259,0.76323
772.91281,0.87907
771.42302,0.89736
769.93323,0.91568
768.44344,0.85030
766.95365,0.84413
765.46386,0.95635
763.97407,0.80796
762.48429,0.75026
760.99450,0.69259
759.50471,0.60725
758.01492,0.54839
756.52513,0.46312
755.03534,0.40369
753.54556,0.34429
752.05577,0.26289
750.56598,0.22686
749.07619,0.16693
747.58640,0.12403
746.09661,0.08117
744.60683,0.04400
743.11704,0.10257
741.62725,0.04280
740.13746,0.03343
738.64767,0.02410
737.15788,0.10042
735.66809,0.03953
734.17831,0.01518
732.68852,0.03934
731.19873,0.06354
729.70894,0.07706
728.21915,0.02640
726.72936,0.01228
725.23958,0.09642
723.74979,0.06726
722.26000,0.03813
720.77021,0.04178
719.28042,0.06560
717.79063,0.06805
716.30084,0.07116
714.81106,0.07431
713.32127,0.05419
711.83148,0.00388
710.34169,0.04341
708.85190,0.06660
707.36211,0.08983
705.87233,0.10679
704.38254,0.07845
702.89275,0.16977
701.40296,0.15409
699.91317,0.13844
698.42338,0.08756
696.93360,0.20167
695.44381,0.13701
693.95402,0.14227
692.46423,0.14756
690.97444,0.22780
689.48465,0.24512
687.99486,0.25365
686.50508,0.24396
685.01529,0.23429
683.52550,0.26937
682.03571,0.31706
680.54592,0.23132
679.05613,0.20731
677.56635,0.18333
676.07656,0.21227
674.58677,0.19465
673.09698,0.18713
671.60719,0.16517
670.11740,0.14324
668.62761,0.12323
667.13783,0.10577
665.64804,0.09653
664.15825,0.08732
662.66846,0.09388
661.17867,0.04759
659.68888,0.15622
658.19910,0.12006
656.70931,0.08394
655.21952,0.18637
653.72973,0.20823
652.23994,0.18480
650.75015,0.17525
649.26037,0.16574
647.77058,0.16632
646.28079,0.07880
644.79100,0.07568
643.30121,0.06692
641.81142,0.05820
640.32163,0.03628
638.83185,0.03203
637.34206,0.00388
635.85227,0.04906
634.36248,0.09427
632.87269,0.13385
631.38290,0.09288
629.89312,0.14133
628.40333,0.09413
626.91354,0.04695
625.42375,0.14209
623.93396,0.17431
622.44417,0.12597
620.95438,0.07767
619.46460,0.09109
617.97481,0.02018
616.48502,0.07901
614.99523,0.07805
613.50544,0.07712
612.01565,0.09323
610.52587,0.17988
609.03608,0.10791
607.54629,0.14048
606.05650,0.17308
604.56671,0.15409
603.07692,0.15025
601.58714,0.16280
600.09735,0.17539
598.60756,0.11623
597.11777,0.05585
595.62798,0.11890
594.13819,0.07432
592.64840,0.02977
591.15862,0.05263
589.66883,0.09944
588.17904,0.09088
586.68925,0.05779
585.19946,0.02474
583.70967,0.09812
582.21989,0.09095
580.73010,0.13166
579.24031,0.17240
577.75052,0.09480
576.26073,0.07517
574.77094,0.12356
573.28115,0.11784
571.79137,0.11215
570.30158,0.12034
568.81179,0.16257
567.32200,0.18468
565.83221,0.20682
564.34242,0.14211
562.85264,0.17565
561.36285,0.23944
559.87306,0.28753
558.38327,0.33564
556.89348,0.43353
555.40369,0.41938
553.91391,0.42982
552.42412,0.44029
550.93433,0.36832
549.44454,0.45251
547.95475,0.50023
546.46496,0.49572
544.97517,0.49124
543.48539,0.63475
541.99560,0.69644
540.50581,0.70717
539.01602,0.71793
537.52623,0.60217
536.03644,0.55067
534.54666,0.51556
533.05687,0.56171
531.56708,0.60789
530.07729,0.51244
528.58750,0.51398
527.09771,0.53696
525.60792,0.55997
524.11814,0.48102
522.62835,0.54062
521.13856,0.40507
519.64877,0.39358
518.15898,0.38213
516.66919,0.39274
515.17941,0.34169
513.68962,0.38511
512.19983,0.42856
510.71004,0.33983
509.22025,0.27379
507.73046,0.45711
506.24068,0.47173
504.75089,0.48638
503.26110,0.34870
501.77131,0.44274
500.28152,0.41404
498.79173,0.38538
497.30194,0.40145
495.81216,0.37852
494.32237,0.41354
492.83258,0.44860
491.34279,0.46731
489.85300,0.36518
488.36321,0.35752
486.87343,0.31400
485.38364,0.27052
483.89385,0.23400
482.40406,0.24409
480.91427,0.22085
479.42448,0.19765
477.93469,0.07562
476.44491,0.18785
474.95512,0.12192
473.46533,0.05603
471.97554,0.13687
470.48575,0.12078
468.99596,0.06065
467.50618,0.08240
466.01639,0.10419
464.52660,0.05801
463.03681,0.03201
461.54702,0.02933
460.05723,0.02669
458.56745,0.03227
457.07766,0.00388
455.58787,0.04026
454.09808,0.07668
452.60829,0.10935
451.11850,0.16220
449.62871,0.20060
448.13893,0.23904
446.64914,0.31969
445.15935,0.29208
443.66956,0.35894
442.17977,0.42835
440.68998,0.49780
439.20020,0.43506
437.71041,0.49827
436.22062,0.51493
434.73083,0.53162
433.24104,0.71329
431.75125,0.84715
430.26146,0.93508
428.77168,1.02304
427.28189,1.06130
425.79210,1.14618
424.30231,1.07369
422.81252,1.00123
421.32273,0.96029
419.83295,0.90930
418.34316,0.83254
416.85337,0.75580
415.36358,0.66713
413.87379,0.64776
412.38400,0.59190
410.89422,0.53607
409.40443,0.45886
407.91464,0.43584
406.42485,0.37129
404.93506,0.37099
403.44527,0.37073
401.95548,0.34783
400.46570,0.33756
398.97591,0.31473
397.48612,0.29193
395.99633,0.40641
394.50654,0.37612
393.01675,0.39372
391.52697,0.41134
390.03718,0.22626
388.54739,0.23388
387.05760,0.24593
385.56781,0.25802
384.07802,0.36269
382.58824,0.32258
381.09845,0.32028
379.60866,0.31802
378.11887,0.29564
376.62908,0.20529
375.13929,0.19871
373.64950,0.19217
372.15972,0.20392
370.66993,0.16659
369.18014,0.16832
367.69035,0.17009
366.20056,0.14797
364.71077,0.18506
363.22099,0.22030
361.73120,0.25557
360.24141,0.13284
358.75162,0.19020
357.26183,0.18590
355.77204,0.18164
354.28225,0.18244
352.79247,0.11275
351.30268,0.08592
349.81289,0.05911
348.32310,0.02101
346.83331,0.05849
345.34352,0.06641
343.85374,0.07436
342.36395,0.30585
340.87416,0.19613
339.38437,0.16326
337.89458,0.13041
336.40479,0.12405
334.91501,0.11141
333.42522,0.09882
331.93543,0.08625
330.44564,0.15430
328.95585,0.12795
327.46606,0.07833
325.97627,0.02875
324.48649,0.02013
322.99670,0.09216
321.50691,0.10126
320.01712,0.11039
318.52733,0.14473
317.03754,0.10608
315.54776,0.13042
314.05797,0.15479
312.56818,0.03942
311.07839,0.05630
309.58860,0.05181
308.09881,0.04735
306.60902,0.00388
305.11924,0.09826
303.62945,0.09948
302.13966,0.10074
300.64987,0.05922
299.16008,0.00388
