1778.52000,0.03996
1777.03021,0.01455
1775.54042,0.01233
1774.05063,0.03890
1772.56085,0.00000
1771.07106,0.02104
1769.58127,0.00856
1768.09148,0.03765
1766.60169,0.05479
1765.11190,0.04319
1763.62212,0.01325
1762.13233,0.03607
1760.64254,0.06132
1759.15275,0.00511
1757.66296,0.01923
1756.17317,0.05175
1754.68339,0.04037
1753.19360,0.03860
1751.70381,0.02648
1750.21402,0.00640
1748.72423,0.02070
1747.23444,0.01825
1745.74465,0.06376
1744.25487,0.03821
1742.76508,0.03106
1741.27529,0.05350
1739.78550,0.05120
1738.29571,0.06012
1736.80592,0.05708
1735.31614,0.04369
1733.82635,0.05030
1732.33656,0.01779
1730.84677,0.07719
1729.35698,0.06472
1727.86719,0.04269
1726.37740,0.02548
1724.88762,0.00511
1723.39783,0.02426
1721.90804,0.00989
1720.41825,0.03229
1718.92846,0.02198
1717.43867,0.03965
1715.94889,0.04377
1714.45910,0.05911
1712.96931,0.09365
1711.47952,0.05552
1709.98973,0.04938
1708.49994,0.07202
1707.01016,0.07193
1705.52037,0.07187
1704.03058,0.10339
1702.54079,0.12216
1701.05100,0.08025
1699.56121,0.09988
1698.07142,0.11555
1696.58164,0.14882
1695.09185,0.15096
1693.60206,0.14515
1692.11227,0.17371
1690.62248,0.17754
1689.13269,0.17262
1687.64291,0.19968
1686.15312,0.21478
1684.66333,0.20356
1683.17354,0.23550
1681.68375,0.20196
1680.19396,0.16686
1678.70417,0.18850
1677.21439,0.20698
1675.72460,0.15360
1674.23481,0.20489
1672.74502,0.17313
1671.25523,0.18774
1669.76544,0.18879
1668.27566,0.18988
1666.78587,0.21096
1665.29608,0.15379
1663.80629,0.18293
1662.31650,0.17694
1660.82671,0.16379
1659.33693,0.13870
1657.84714,0.12801
1656.35735,0.13173
1654.86756,0.13787
1653.37777,0.09212
1651.88798,0.12310
1650.39819,0.13812
1648.90841,0.14279
1647.41862,0.12512
1645.92883,0.11707
1644.43904,0.10904
1642.94925,0.13141
1641.45946,0.14022
1639.96968,0.11471
1638.47989,0.11959
1636.99010,0.13169
1635.50031,0.16458
1634.01052,0.12242
1632.52073,0.14499
1631.03094,0.11008
1629.54116,0.16147
1628.05137,0.18173
1626.56158,0.21082
1625.07179,0.18960
1623.58200,0.21794
1622.09221,0.21277
1620.60243,0.20123
1619.11264,0.22167
1617.62285,0.21019
1616.13306,0.15241
1614.64327,0.18173
1613.15348,0.20389
1611.66370,0.19253
1610.17391,0.16762
1608.68412,0.19307
1607.19433,0.15464
1605.70454,0.17375
1604.21475,0.16774
1602.72496,0.16175
1601.23518,0.16817
1599.74539,0.13548
1598.25560,0.16354
1596.76581,0.15567
1595.27602,0.14304
1593.78623,0.14722
1592.29645,0.13944
1590.80666,0.11252
1589.31687,0.10081
1587.82708,0.10591
1586.33729,0.10864
1584.84750,0.09861
1583.35771,0.12617
1581.86793,0.08265
1580.37814,0.07112
1578.88835,0.08039
1577.39856,0.08330
1575.90877,0.09103
1574.41898,0.04047
1572.92920,0.08661
1571.43941,0.07686
1569.94962,0.06993
1568.45983,0.06303
1566.97004,0.06295
1565.48025,0.05571
1563.99047,0.07966
1562.50068,0.06370
1561.01089,0.03338
1559.52110,0.05262
1558.03131,0.08628
1556.54152,0.10558
1555.05173,0.08577
1553.56195,0.10114
1552.07216,0.08858
1550.58237,0.08084
1549.09258,0.02680
1547.60279,0.07185
1546.11300,0.14169
1544.62322,0.11330
1543.13343,0.11690
1541.64364,0.06380
1540.15385,0.04908
1538.66406,0.03439
1537.17427,0.04290
1535.68448,0.00511
1534.19470,0.04480
1532.70491,0.06056
1531.21512,0.06995
1529.72533,0.06020
1528.23554,0.04968
1526.74575,0.05677
1525.25597,0.07507
1523.76618,0.06545
1522.27639,0.06064
1520.78660,0.03350
1519.29681,0.03275
1517.80702,0.05439
1516.31724,0.04092
1514.82745,0.00511
1513.33766,0.01569
1511.84787,0.02630
1510.35808,0.04053
1508.86829,0.03003
1507.37850,0.04672
1505.88872,0.02270
1504.39893,0.03466
1502.90914,0.00511
1501.41935,0.04008
1499.92956,0.03434
1498.43977,0.08136
1496.94999,0.11722
1495.46020,0.12116
1493.97041,0.17785
1492.48062,0.24735
1490.99083,0.23460
1489.50104,0.33372
1488.01125,0.39733
1486.52147,0.46096
1485.03168,0.47229
1483.54189,0.54357
1482.05210,0.56136
1480.56231,0.71978
1479.07252,0.81911
1477.58274,0.88092
1476.09295,1.02185
1474.60316,1.11568
1473.11337,1.09211
1471.62358,1.17801
1470.13379,1.17926
1468.64401,1.13260
1467.15422,1.01009
1465.66443,0.98347
1464.17464,0.95688
1462.68485,0.92552
1461.19506,0.85346
1459.70527,0.85492
1458.21549,0.77732
1456.72570,0.73730
1455.23591,0.68692
1453.74612,0.64855
1452.25633,0.56389
1450.76654,0.52718
1449.27676,0.58796
1447.78697,0.50738
1446.29718,0.47316
1444.80739,0.45095
1443.31760,0.42877
1441.82781,0.37707
1440.33802,0.32139
1438.84824,0.25856
1437.35845,0.22053
1435.86866,0.23365
1434.37887,0.20925
1432.88908,0.20326
1431.39929,0.30435
1429.90951,0.21454
1428.41972,0.21822
1426.92993,0.23951
1425.44014,0.25923
1423.95035,0.26141
1422.46056,0.26362
1420.97078,0.31219
1419.48099,0.35360
1417.99120,0.34710
1416.50141,0.28233
1415.01162,0.32063
1413.52183,0.27508
1412.03204,0.27111
1410.54226,0.30231
1409.05247,0.28642
1407.56268,0.32247
1406.07289,0.24193
1404.58310,0.29722
1403.09331,0.35254
1401.60353,0.40709
1400.11374,0.43531
1398.62395,0.43480
1397.13416,0.47745
1395.64437,0.46662
1394.15458,0.52052
1392.66479,0.58723
1391.17501,0.59086
1389.68522,0.62488
1388.19543,0.59023
1386.70564,0.58956
1385.21585,0.58892
1383.72606,0.60229
1382.23628,0.49746
1380.74649,0.47733
1379.25670,0.54751
1377.76691,0.58097
1376.27712,0.62804
1374.78733,0.67354
1373.29755,0.74304
1371.80776,0.91003
1370.31797,1.01074
1368.82818,1.14304
1367.33839,1.27537
1365.84860,1.46645
1364.35881,1.52814
1362.86903,1.76401
1361.37924,1.78981
1359.88945,1.85319
1358.39966,1.98210
1356.90987,2.00000
1355.42008,1.88851
1353.93030,1.82899
1352.44051,1.77148
1350.95072,1.71401
1349.46093,1.65377
1347.97114,1.42980
1346.48135,1.22343
1344.99156,1.12733
1343.50178,1.03366
1342.01199,0.91366
1340.52220,0.71939
1339.03241,0.69611
1337.54262,0.64330
1336.05283,0.59532
1334.56305,0.54736
1333.07326,0.58172
1331.58347,0.52983
1330.09368,0.44761
1328.60389,0.41096
1327.11410,0.41747
1325.62432,0.37449
1324.13453,0.33793
1322.64474,0.37089
1321.15495,0.34318
1319.66516,0.34305
1318.17537,0.34296
1316.68558,0.31054
1315.19580,0.32129
1313.70601,0.30491
1312.21622,0.26379
1310.72643,0.26424
1309.23664,0.27991
1307.74685,0.26125
1306.25707,0.23223
1304.76728,0.23560
1303.27749,0.23900
1301.78770,0.27079
1300.29791,0.22432
1298.80812,0.27215
1297.31834,0.26009
1295.82855,0.29439
1294.33876,0.26642
1292.84897,0.30158
1291.35918,0.29044
1289.86939,0.30170
1288.37960,0.31299
1286.88982,0.29235
1285.40003,0.29251
1283.91024,0.38617
1282.42045,0.36882
1280.93066,0.38505
1279.44087,0.38853
1277.95109,0.35609
1276.46130,0.34285
1274.97151,0.32964
1273.48172,0.31647
1271.99193,0.41756
1270.50214,0.43639
1269.01235,0.39854
1267.52257,0.37110
1266.03278,0.44675
1264.54299,0.48807
1263.05320,0.50226
1261.56341,0.50290
1260.07362,0.50358
1258.58384,0.61053
1257.09405,0.53057
1255.60426,0.56089
1254.11447,0.52573
1252.62468,0.52096
1251.13489,0.49785
1249.64511,0.49953
1248.15532,0.39978
1246.66553,0.41470
1245.17574,0.42965
1243.68595,0.36594
1242.19616,0.32543
1240.70637,0.27696
1239.21659,0.33078
1237.72680,0.22405
1236.23701,0.28911
1234.74722,0.22319
1233.25743,0.22200
1231.76764,0.22084
1230.27786,0.16699
1228.78807,0.12675
1227.29828,0.20956
1225.80849,0.14462
1224.31870,0.11085
1222.82891,0.09709
1221.33912,0.11931
1219.84934,0.10961
1218.35955,0.09993
1216.86976,0.14621
1215.37997,0.17414
1213.89018,0.15097
1212.40039,0.17497
1210.91061,0.11192
1209.42082,0.12319
1207.93103,0.11692
1206.44124,0.11068
1204.95145,0.11326
1203.46166,0.03518
1201.97188,0.07776
1200.48209,0.03010
1198.99230,0.07353
1197.50251,0.02593
1196.01272,0.00792
1194.52293,0.02229
1193.03314,0.03669
1191.54336,0.01237
1190.05357,0.04081
1188.56378,0.07088
1187.07399,0.00511
1185.58420,0.02683
1184.09441,0.02700
1182.60463,0.05198
1181.11484,0.07698
1179.62505,0.04130
1178.13526,0.05038
1176.64547,0.06189
1175.15568,0.07024
1173.66589,0.07542
1172.17611,0.07504
1170.68632,0.07149
1169.19653,0.06797
1167.70674,0.03812
1166.21695,0.00511
1164.72716,0.08771
1163.23738,0.05530
1161.74759,0.03011
1160.25780,0.03770
1158.76801,0.04293
1157.27822,0.04819
1155.78843,0.04309
1154.29865,0.04122
1152.80886,0.04577
1151.31907,0.03597
1149.82928,0.13884
1148.33949,0.12910
1146.84970,0.13137
1145.35991,0.13367
1143.87013,0.09127
1142.38034,0.08884
1140.89055,0.17271
1139.40076,0.15436
1137.91097,0.17599
1136.42118,0.23599
1134.93140,0.23530
1133.44161,0.23465
1131.95182,0.23482
1130.46203,0.26219
1128.97224,0.31914
1127.48245,0.40249
1125.99266,0.42116
1124.50288,0.41030
1123.01309,0.42303
1121.52330,0.43580
1120.03351,0.50411
1118.54372,0.43346
1117.05393,0.46109
1115.56415,0.46000
1114.07436,0.49249
1112.58457,0.50623
1111.09478,0.52000
1109.60499,0.56297
1108.11520,0.57960
1106.62542,0.51637
1105.13563,0.67446
1103.64584,0.72233
1102.15605,0.79421
1100.66626,0.81698
1099.17647,0.83978
1097.68668,0.79191
1096.19690,0.83434
1094.70711,0.83846
1093.21732,0.91450
1091.72753,0.98818
1090.23774,0.96243
1088.74795,0.93671
1087.25817,0.99530
1085.76838,1.04194
1084.27859,1.05585
1082.78880,1.15846
1081.29901,1.11332
1079.80922,1.16407
1078.31943,1.15733
1076.82965,1.15063
1075.33986,1.25259
1073.85007,1.34021
1072.36028,1.35516
1070.87049,1.39331
1069.38070,1.47622
1067.89092,1.45651
1066.40113,1.43683
1064.91134,1.35846
1063.42155,1.21063
1061.93176,1.17067
1060.44197,1.07002
1058.95219,0.96461
1057.46240,0.92873
1055.97261,0.89289
1054.48282,0.91059
1052.99303,0.82607
1051.50324,0.75916
1050.01345,0.70426
1048.52367,0.57749
1047.03388,0.55261
1045.54409,0.52775
1044.05430,0.54407
1042.56451,0.49491
1041.07472,0.46895
1039.58494,0.40547
1038.09515,0.37398
1036.60536,0.33213
1035.11557,0.29031
1033.62578,0.32201
1032.13599,0.31220
1030.64620,0.30003
1029.15642,0.32544
1027.66663,0.34168
1026.17684,0.35796
1024.68705,0.37706
1023.19726,0.50644
1021.70747,0.65262
1020.21769,0.75729
1018.72790,0.88436
1017.23811,1.00227
1015.74832,1.12021
1014.25853,1.32806
1012.76874,1.51356
1011.27896,1.63279
1009.78917,1.72090
1008.29938,1.87614
1006.80959,1.83409
1005.31980,1.79206
1003.83001,1.64382
1002.34022,1.53875
1000.85044,1.48244
999.36065,1.28716
997.87086,1.27245
996.38107,1.25777
994.89128,1.23353
993.40149,1.22131
991.91171,1.27702
990.42192,1.23210
988.93213,1.21437
987.44234,1.17431
985.95255,1.13427
984.46276,1.17655
982.97297,1.12619
981.48319,1.10542
979.99340,1.06151
978.50361,1.00764
977.01382,0.95381
975.52403,0.96910
974.03424,0.89975
972.54446,0.79847
971.05467,0.74036
969.56488,0.76217
968.07509,0.76683
966.58530,0.77152
965.09551,0.71433
963.60573,0.68673
962.11594,0.64158
960.62615,0.59646
959.13636,0.57893
957.64657,0.56143
956.15678,0.48525
954.66699,0.48658
953.17721,0.52869
951.68742,0.49573
950.19763,0.51553
948.70784,0.53536
947.21805,0.47134
945.72826,0.50481
944.23848,0.48718
942.74869,0.58542
941.25890,0.52950
939.76911,0.58027
938.27932,0.63106
936.78953,0.68628
935.29974,0.66164
933.80996,0.67857
932.32017,0.69793
930.83038,0.70813
929.34059,0.71836
927.85080,0.69627
926.36101,0.69418
924.87123,0.66895
923.38144,0.59422
921.89165,0.59262
920.40186,0.59105
918.91207,0.67139
917.42228,0.68226
915.93250,0.64682
914.44271,0.64897
912.95292,0.66192
911.46313,0.67491
909.97334,0.66755
908.48355,0.70896
906.99376,0.72403
905.50398,0.70479
904.01419,0.67079
902.52440,0.63682
901.03461,0.64962
899.54482,0.67203
898.05503,0.67930
896.56525,0.77367
895.07546,0.78498
893.58567,0.79633
892.09588,0.73421
890.60609,0.74003
889.11630,0.68676
887.62651,0.73018
886.13673,0.74288
884.64694,0.75560
883.15715,0.79033
881.66736,0.76277
880.17757,0.82791
878.68778,0.85913
877.19800,0.89038
875.70821,0.86374
874.21842,0.86110
872.72863,0.96074
871.23884,0.96775
869.74905,1.00593
868.25927,1.04415
866.76948,1.02728
865.27969,1.00804
863.78990,0.98883
862.30011,1.01519
860.81032,1.01880
859.32053,1.02245
857.83075,1.01854
856.34096,1.02904
854.85117,0.96687
853.36138,0.87917
851.87159,0.82545
850.38180,0.77175
848.89202,0.66657
847.40223,0.51428
845.91244,0.42832
844.42265,0.42268
842.93286,0.41707
841.44307,0.37834
839.95329,0.39396
838.46350,0.31055
836.97371,0.33901
835.48392,0.34114
833.99413,0.34330
832.50434,0.35827
831.01455,0.42919
829.52477,0.40907
828.03498,0.34904
826.54519,0.33816
825.05540,0.32732
823.56561,0.29214
822.07582,0.27536
820.58604,0.14358
819.09625,0.14165
817.60646,0.13974
816.11667,0.06796
814.62688,0.12883
813.13709,0.09386
811.64730,0.05413
810.15752,0.02960
808.66773,0.00511
807.17794,0.03964
805.68815,0.07100
804.19836,0.03689
802.70857,0.07111
801.21879,0.10536
799.72900,0.12007
798.23921,0.25304
796.74942,0.34290
795.25963,0.33693
793.76984,0.33099
792.28006,0.44810
790.79027,0.51971
789.30048,0.50746
787.81069,0.51602
786.32090,0.53219
784.83111,0.54840
783.34132,0.67927
781.85154,0.62404
780.36175,0.67828
778.87196,0.68901
777.38217,0.69978
775.89238,0.77328
774.40259,0.75015
772.91281,0.75182
771.42302,0.72835
769.93323,0.70491
768.44344,0.85286
766.95365,0.79632
765.46386,0.84367
763.97407,0.73208
762.48429,0.66605
760.99450,0.60005
759.50471,0.50133
758.01492,0.45297
756.52513,0.41901
755.03534,0.36592
753.54556,0.31285
752.05577,0.16555
750.56598,0.17325
749.07619,0.18099
747.58640,0.14442
746.09661,0.10788
744.60683,0.07656
743.11704,0.02689
741.62725,0.06673
740.13746,0.06506
738.64767,0.06342
737.15788,0.03784
735.66809,0.00511
734.17831,0.01747
732.68852,0.01987
731.19873,0.02230
729.70894,0.09706
728.21915,0.06321
726.72936,0.05415
725.23958,0.05870
723.74979,0.06088
722.26000,0.06309
720.77021,0.05735
719.28042,0.06122
717.79063,0.06033
716.30084,0.03270
714.81106,0.00511
713.32127,0.03343
711.83148,0.01705
710.34169,0.04383
708.85190,0.02511
707.36211,0.00642
705.87233,0.04527
704.38254,0.05380
702.89275,0.03041
701.40296,0.03380
699.91317,0.03723
698.42338,0.10180
696.93360,0.13604
695.44381,0.22304
693.95402,0.21141
692.46423,0.19981
690.97444,0.19822
689.48465,0.18548
687.99486,0.20792
686.50508,0.24077
685.01529,0.27366
683.52550,0.35450
682.03571,0.29159
680.54592,0.26944
679.05613,0.25451
677.56635,0.23961
676.07656,0.18001
674.58677,0.12443
673.09698,0.15036
671.60719,0.14197
670.11740,0.13361
668.62761,0.09333
667.13783,0.08344
665.64804,0.08396
664.15825,0.08451
662.66846,0.05553
661.17867,0.07691
659.68888,0.08394
658.19910,0.08900
656.70931,0.09409
655.21952,0.11958
653.72973,0.12434
652.23994,0.13631
650.75015,0.12754
649.26037,0.11880
647.77058,0.16761
646.28079,0.08943
644.79100,0.07599
643.30121,0.05100
641.81142,0.02603
640.32163,0.09177
638.83185,0.06487
637.34206,0.03480
635.85227,0.01994
634.36248,0.00511
632.87269,0.02878
631.38290,0.03570
629.89312,0.11775
628.40333,0.10517
626.91354,0.09261
625.42375,0.06370
623.93396,0.06279
622.44417,0.04034
620.95438,0.01791
619.46460,0.04984
617.97481,0.02189
616.48502,0.06506
614.99523,0.05674
613.50544,0.04844
612.01565,0.13165
610.52587,0.10704
609.03608,0.10163
607.54629,0.09785
606.05650,0.09410
604.56671,0.14949
603.07692,0.16098
601.58714,0.13255
600.09735,0.10416
598.60756,0.07260
597.11777,0.07781
595.62798,0.12140
594.13819,0.10311
592.64840,0.08485
591.15862,0.11416
589.66883,0.11233
588.17904,0.04902
586.68925,0.07123
585.19946,0.09346
583.70967,0.13010
582.21989,0.13721
580.73010,0.13756
579.24031,0.13795
577.75052,0.20586
576.26073,0.15398
574.77094,0.11171
573.28115,0.13298
571.79137,0.15429
570.30158,0.22555
568.81179,0.26009
567.32200,0.28867
565.83221,0.31728
564.34242,0.29040
562.85264,0.36341
561.36285,0.36775
559.87306,0.39169
558.38327,0.41565
556.89348,0.46162
555.40369,0.52040
553.91391,0.51050
552.42412,0.50064
550.93433,0.56510
549.44454,0.57447
547.95475,0.56469
546.46496,0.56893
544.97517,0.57319
543.48539,0.64979
541.99560,0.66090
540.50581,0.68323
539.01602,0.70559
537.52623,0.69762
536.03644,0.54349
534.54666,0.62106
533.05687,0.61518
531.56708,0.60933
530.07729,0.54959
528.58750,0.56417
527.09771,0.54762
525.60792,0.53110
524.11814,0.50903
522.62835,0.44064
521.13856,0.49212
519.64877,0.44337
518.15898,0.39465
516.66919,0.33198
515.17941,0.37958
513.68962,0.35092
512.19983,0.32229
510.71004,0.35561
509.22025,0.36179
507.73046,0.36081
506.24068,0.40060
504.75089,0.44042
503.26110,0.34447
501.77131,0.44826
500.28152,0.45702
498.79173,0.46581
497.30194,0.40752
495.81216,0.41077
494.32237,0.42804
492.83258,0.44533
491.34279,0.43190
489.85300,0.44646
488.36321,0.34601
486.87343,0.31030
485.38364,0.27462
483.89385,0.30288
482.40406,0.31519
480.91427,0.26482
479.42448,0.21448
477.93469,0.13741
476.44491,0.11628
474.95512,0.10957
473.46533,0.10289
471.97554,0.09464
470.48575,0.11358
468.99596,0.12536
467.50618,0.10362
466.01639,0.08191
464.52660,0.00511
463.03681,0.09932
461.54702,0.07892
460.05723,0.05855
458.56745,0.03782
457.07766,0.10578
455.58787,0.11426
454.09808,0.12278
452.60829,0.23078
451.11850,0.19022
449.62871,0.18883
448.13893,0.18748
446.64914,0.23648
445.15935,0.34783
443.66956,0.40807
442.17977,0.45597
440.68998,0.50389
439.20020,0.54985
437.71041,0.63658
436.22062,0.66862
434.73083,0.70068
433.24104,0.83783
431.75125,0.99578
430.26146,1.01316
428.77168,1.03056
427.28189,1.18940
425.79210,1.25400
424.30231,1.25951
422.81252,1.26506
421.32273,1.31058
419.83295,1.21393
418.34316,1.12689
416.85337,1.03989
415.36358,0.85945
413.87379,0.70380
412.38400,0.64644
410.89422,0.58911
409.40443,0.60851
407.91464,0.61755
406.42485,0.50439
404.93506,0.50390
403.44527,0.50344
401.95548,0.43511
400.46570,0.42353
398.97591,0.43155
397.48612,0.43960
395.99633,0.44968
394.50654,0.42943
393.01675,0.45794
391.52697,0.48648
390.03718,0.35607
388.54739,0.32795
387.05760,0.34540
385.56781,0.36287
384.07802,0.34922
382.58824,0.30684
381.09845,0.28966
379.60866,0.27250
378.11887,0.28454
376.62908,0.24068
375.13929,0.18727
373.64950,0.13388
372.15972,0.11488
370.66993,0.15502
369.18014,0.16284
367.69035,0.17069
366.20056,0.05914
364.71077,0.05386
363.22099,0.08737
361.73120,0.12090
360.24141,0.06299
358.75162,0.05065
357.26183,0.07268
355.77204,0.09475
354.28225,0.06412
352.79247,0.09344
351.30268,0.05928
349.81289,0.02515
348.32310,0.05216
346.83331,0.03606
345.34352,0.03477
343.85374,0.03351
342.36395,0.07901
340.87416,0.17248
339.38437,0.14295
337.89458,0.11345
336.40479,0.12552
334.91501,0.10966
333.42522,0.12539
331.93543,0.14114
330.44564,0.11419
328.95585,0.09526
327.46606,0.06237
325.97627,0.02952
324.48649,0.06057
322.99670,0.05811
321.50691,0.07924
320.01712,0.10040
318.52733,0.11080
317.03754,0.19234
315.54776,0.18603
314.05797,0.17975
312.56818,0.07684
311.07839,0.00511
309.58860,0.00485
308.09881,0.00462
306.60902,0.00322
305.11924,0.00790
303.62945,0.04976
302.13966,0.07994
300.64987,0.00511
299.16008,0.00511
