1778.52000,0.01919
1777.03021,0.02215
1775.54042,0.03916
1774.05063,0.00365
1772.56085,0.02892
1771.07106,0.03554
1769.58127,0.03869
1768.09148,0.06175
1766.60169,0.01943
1765.11190,0.05892
1763.62212,0.02135
1762.13233,0.04924
1760.64254,0.02460
1759.15275,0.05140
1757.66296,0.08409
1756.17317,0.05022
1754.68339,0.06780
1753.19360,0.00949
1751.70381,0.01664
1750.21402,0.05536
1748.72423,0.07310
1747.23444,0.08854
1745.74465,0.01408
1744.25487,0.06102
1742.76508,0.08463
1741.27529,0.09194
1739.78550,0.09694
1738.29571,0.06928
1736.80592,0.07554
1735.31614,0.08768
1733.82635,0.06715
1732.33656,0.05951
1730.84677,0.05658
1729.35698,0.08523
1727.86719,0.07187
1726.37740,0.00365
1724.88762,0.00754
1723.39783,0.03251
1721.90804,0.05868
1720.41825,0.07555
1718.92846,0.03755
1717.43867,0.06034
1715.94889,0.09252
1714.45910,0.06866
1712.96931,0.08106
1711.47952,0.09350
1709.98973,0.11532
1708.49994,0.10331
1707.01016,0.13631
1705.52037,0.16935
1704.03058,0.15863
1702.54079,0.08954
1701.05100,0.09642
1699.56121,0.10217
1698.07142,0.13366
1696.58164,0.14767
1695.09185,0.16873
1693.60206,0.17814
1692.11227,0.18059
1690.62248,0.23565
1689.13269,0.19963
1687.64291,0.21622
1686.15312,0.29943
1684.66333,0.24601
1683.17354,0.22884
1681.68375,0.28180
1680.19396,0.20631
1678.70417,0.23132
1677.21439,0.25052
1675.72460,0.24524
1674.23481,0.20845
1672.74502,0.21493
1671.25523,0.22495
1669.76544,0.26188
1668.27566,0.20424
1666.78587,0.22022
1665.29608,0.20821
1663.80629,0.20091
1662.31650,0.29528
1660.82671,0.21097
1659.33693,0.23183
1657.84714,0.17096
1656.35735,0.13699
1654.86756,0.16031
1653.37777,0.16965
1651.88798,0.15099
1650.39819,0.10785
1648.90841,0.16520
1647.41862,0.10461
1645.92883,0.14277
1644.43904,0.18097
1642.94925,0.16489
1641.45946,0.14068
1639.96968,0.16673
1638.47989,0.17180
1636.99010,0.13252
1635.50031,0.18557
1634.01052,0.13703
1632.52073,0.12240
1631.03094,0.03772
1629.54116,0.12597
1628.05137,0.18039
1626.56158,0.16709
1625.07179,0.21341
1623.58200,0.25626
1622.09221,0.23841
1620.60243,0.21359
1619.11264,0.21218
1617.62285,0.19912
1616.13306,0.16976
1614.64327,0.13809
1613.15348,0.18707
1611.66370,0.18118
1610.17391,0.13912
1608.68412,0.12748
1607.19433,0.11704
1605.70454,0.15454
1604.21475,0.17514
1602.72496,0.19578
1601.23518,0.14462
1599.74539,0.16125
1598.25560,0.13120
1596.76581,0.09768
1595.27602,0.11327
1593.78623,0.11487
1592.29645,0.08148
1590.80666,0.09718
1589.31687,0.15265
1587.82708,0.09134
1586.33729,0.13053
1584.84750,0.06112
1583.35771,0.08871
1581.86793,0.01121
1580.37814,0.13583
1578.88835,0.14252
1577.39856,0.10952
1575.90877,0.08241
1574.41898,0.05417
1572.92920,0.05635
1571.43941,0.06907
1569.94962,0.06607
1568.45983,0.06311
1566.97004,0.07011
1565.48025,0.06314
1563.99047,0.00365
1562.50068,0.04251
1561.01089,0.08959
1559.52110,0.05027
1558.03131,0.03085
1556.54152,0.07922
1555.05173,0.09609
1553.56195,0.09548
1552.07216,0.07271
1550.58237,0.08854
1549.09258,0.06469
1547.60279,0.03737
1546.11300,0.05916
1544.62322,0.03309
1543.13343,0.05846
1541.64364,0.01261
1540.15385,0.02989
1538.66406,0.04720
1537.17427,0.01433
1535.68448,0.06560
1534.19470,0.01178
1532.70491,0.02341
1531.21512,0.01990
1529.72533,0.01293
1528.23554,0.03053
1526.74575,0.04700
1525.25597,0.04365
1523.76618,0.02165
1522.27639,0.05343
1520.78660,0.00114
1519.29681,0.02832
1517.80702,0.01583
1516.31724,0.00571
1514.82745,0.00966
1513.33766,0.00663
1511.84787,0.00365
1510.35808,0.02344
1508.86829,0.03394
1507.37850,0.02929
1505.88872,0.00365
1504.39893,0.03260
1502.90914,0.05576
1501.41935,0.08013
1499.92956,0.02160
1498.43977,0.13249
1496.94999,0.14412
1495.46020,0.12543
1493.97041,0.20140
1492.48062,0.28558
1490.99083,0.26584
1489.50104,0.31973
1488.01125,0.36958
1486.52147,0.41946
1485.03168,0.43610
1483.54189,0.52753
1482.05210,0.54191
1480.56231,0.64394
1479.07252,0.76002
1477.58274,0.92405
1476.09295,0.97246
1474.60316,1.02559
1473.11337,1.19090
1471.62358,1.16818
1470.13379,1.16302
1468.64401,1.11936
1467.15422,1.06989
1465.66443,1.00703
1464.17464,0.94421
1462.68485,0.95444
1461.19506,0.92032
1459.70527,0.90493
1458.21549,0.86972
1456.72570,0.73410
1455.23591,0.66626
1453.74612,0.63468
1452.25633,0.65454
1450.76654,0.67210
1449.27676,0.64998
1447.78697,0.59520
1446.29718,0.54630
1444.80739,0.50503
1443.31760,0.46380
1441.82781,0.36596
1440.33802,0.31956
1438.84824,0.29422
1437.35845,0.31682
1435.86866,0.18176
1434.37887,0.26050
1432.88908,0.28439
1431.39929,0.24524
1429.90951,0.29257
1428.41972,0.24882
1426.92993,0.21446
1425.44014,0.23855
1423.95035,0.27670
1422.46056,0.31488
1420.97078,0.34026
1419.48099,0.35984
1417.99120,0.37128
1416.50141,0.31734
1415.01162,0.27046
1413.52183,0.33692
1412.03204,0.27259
1410.54226,0.36133
1409.05247,0.35783
1407.56268,0.32400
1406.07289,0.33459
1404.58310,0.34639
1403.09331,0.35824
1401.60353,0.32456
1400.11374,0.39139
1398.62395,0.48045
1397.13416,0.44573
1395.64437,0.55006
1394.15458,0.55631
1392.66479,0.56610
1391.17501,0.56775
1389.68522,0.61267
1388.19543,0.52095
1386.70564,0.51980
1385.21585,0.51870
1383.72606,0.49485
1382.23628,0.48857
1380.74649,0.45079
1379.25670,0.53921
1377.76691,0.45946
1376.27712,0.59819
1374.78733,0.65051
1373.29755,0.73559
1371.80776,0.81019
1370.31797,0.95960
1368.82818,1.02610
1367.33839,1.09265
1365.84860,1.35549
1364.35881,1.53659
1362.86903,1.66985
1361.37924,1.70268
1359.88945,1.86405
1358.39966,1.99041
1356.90987,2.00000
1355.42008,1.97692
1353.93030,1.95505
1352.44051,1.89818
1350.95072,1.84135
1349.46093,1.71213
1347.97114,1.54324
1346.48135,1.36621
1344.99156,1.26164
1343.50178,1.06133
1342.01199,0.96269
1340.52220,0.81035
1339.03241,0.80524
1337.54262,0.75695
1336.05283,0.74024
1334.56305,0.72356
1333.07326,0.68240
1331.58347,0.65763
1330.09368,0.55581
1328.60389,0.52528
1327.11410,0.55671
1325.62432,0.51808
1324.13453,0.44095
1322.64474,0.48184
1321.15495,0.45035
1319.66516,0.46737
1318.17537,0.48443
1316.68558,0.41218
1315.19580,0.39720
1313.70601,0.37992
1312.21622,0.34517
1310.72643,0.34549
1309.23664,0.31199
1307.74685,0.24347
1306.25707,0.30817
1304.76728,0.30224
1303.27749,0.29634
1301.78770,0.27121
1300.29791,0.28351
1298.80812,0.26079
1297.31834,0.29419
1295.82855,0.27390
1294.33876,0.34359
1292.84897,0.38996
1291.35918,0.34759
1289.86939,0.33622
1288.37960,0.32489
1286.88982,0.36324
1285.40003,0.39346
1283.91024,0.41204
1282.42045,0.40963
1280.93066,0.43529
1279.44087,0.51006
1277.95109,0.42951
1276.46130,0.49151
1274.97151,0.47411
1273.48172,0.45676
1271.99193,0.48968
1270.50214,0.52497
1269.01235,0.54278
1267.52257,0.55830
1266.03278,0.57152
1264.54299,0.65370
1263.05320,0.61911
1261.56341,0.66341
1260.07362,0.70774
1258.58384,0.62771
1257.09405,0.56408
1255.60426,0.65001
1254.11447,0.71378
1252.62468,0.70634
1251.13489,0.74099
1249.64511,0.62382
1248.15532,0.66322
1246.66553,0.56424
1245.17574,0.46530
1243.68595,0.42890
1242.19616,0.40538
1240.70637,0.39943
1239.21659,0.39702
1237.72680,0.36428
1236.23701,0.26734
1234.74722,0.16693
1233.25743,0.21082
1231.76764,0.25476
1230.27786,0.29815
1228.78807,0.29953
1227.29828,0.23670
1225.80849,0.25335
1224.31870,0.18242
1222.82891,0.20382
1221.33912,0.14933
1219.84934,0.15621
1218.35955,0.16313
1216.86976,0.19170
1215.37997,0.30091
1213.89018,0.23845
1212.40039,0.25896
1210.91061,0.21760
1209.42082,0.20082
1207.93103,0.22087
1206.44124,0.24096
1204.95145,0.15070
1203.46166,0.17847
1201.97188,0.13852
1200.48209,0.13716
1198.99230,0.15220
1197.50251,0.10653
1196.01272,0.00834
1194.52293,0.00597
1193.03314,0.00365
1191.54336,0.06827
1190.05357,0.08154
1188.56378,0.05863
1187.07399,0.02408
1185.58420,0.05499
1184.09441,0.05907
1182.60463,0.11050
1181.11484,0.16197
1179.62505,0.07272
1178.13526,0.11785
1176.64547,0.03453
1175.15568,0.08324
1173.66589,0.11564
1172.17611,0.02075
1170.68632,0.02928
1169.19653,0.03786
1167.70674,0.04004
1166.21695,0.12171
1164.72716,0.07141
1163.23738,0.02115
1161.74759,0.00365
1160.25780,0.09146
1158.76801,0.07301
1157.27822,0.05460
1155.78843,0.01754
1154.29865,0.04593
1152.80886,0.03349
1151.31907,0.04094
1149.82928,0.03791
1148.33949,0.17160
1146.84970,0.10325
1145.35991,0.03493
1143.87013,0.04258
1142.38034,0.08766
1140.89055,0.15380
1139.40076,0.18610
1137.91097,0.20209
1136.42118,0.13752
1134.93140,0.18572
1133.44161,0.23395
1131.95182,0.33304
1130.46203,0.33989
1128.97224,0.30239
1127.48245,0.38524
1125.99266,0.37703
1124.50288,0.45529
1123.01309,0.44015
1121.52330,0.42504
1120.03351,0.52446
1118.54372,0.50359
1117.05393,0.48744
1115.56415,0.43395
1114.07436,0.65851
1112.58457,0.59342
1111.09478,0.52837
1109.60499,0.55447
1108.11520,0.55491
1106.62542,0.67455
1105.13563,0.72063
1103.64584,0.83217
1102.15605,0.97879
1100.66626,0.93680
1099.17647,0.89485
1097.68668,0.97150
1096.19690,1.00264
1094.70711,1.01279
1093.21732,1.11177
1091.72753,1.15471
1090.23774,1.19827
1088.74795,1.24188
1087.25817,1.20901
1085.76838,1.38295
1084.27859,1.42842
1082.78880,1.47161
1081.29901,1.59894
1079.80922,1.52539
1078.31943,1.50736
1076.82965,1.48938
1075.33986,1.62038
1073.85007,1.71286
1072.36028,1.61031
1070.87049,1.61644
1069.38070,1.70320
1067.89092,1.75322
1066.40113,1.80327
1064.91134,1.66003
1063.42155,1.57641
1061.93176,1.53255
1060.44197,1.33804
1058.95219,1.20431
1057.46240,1.23649
1055.97261,1.26872
1054.48282,1.13511
1052.99303,1.09149
1051.50324,0.96848
1050.01345,0.89340
1048.52367,0.79149
1047.03388,0.79593
1045.54409,0.80040
1044.05430,0.78740
1042.56451,0.66229
1041.07472,0.53839
1039.58494,0.52200
1038.09515,0.48579
1036.60536,0.53490
1035.11557,0.58404
1033.62578,0.49189
1032.13599,0.39860
1030.64620,0.41399
1029.15642,0.42358
1027.66663,0.42562
1026.17684,0.42770
1024.68705,0.51802
1023.19726,0.58851
1021.70747,0.73615
1020.21769,0.96442
1018.72790,1.05139
1017.23811,1.15476
1015.74832,1.25817
1014.25853,1.51814
1012.76874,1.75246
1011.27896,1.84898
1009.78917,1.93152
1008.29938,1.95336
1006.80959,1.96589
1005.31980,1.97847
1003.83001,1.93618
1002.34022,1.72922
1000.85044,1.61809
999.36065,1.38669
997.87086,1.36442
996.38107,1.34219
994.89128,1.42630
993.40149,1.41233
991.91171,1.31780
990.42192,1.32143
988.93213,1.22347
987.44234,1.23478
985.95255,1.24612
984.46276,1.17866
982.97297,1.13460
981.48319,1.06138
979.99340,0.98002
978.50361,1.03537
977.01382,1.09076
975.52403,1.08545
974.03424,0.84188
972.54446,0.78175
971.05467,0.85366
969.56488,0.80296
968.07509,0.82296
966.58530,0.84301
965.09551,0.77724
963.60573,0.82949
962.11594,0.76964
960.62615,0.68881
959.13636,0.65766
957.64657,0.62655
956.15678,0.59139
954.66699,0.57730
953.17721,0.67189
951.68742,0.72447
950.19763,0.68538
948.70784,0.64634
947.21805,0.59156
945.72826,0.50412
944.23848,0.64218
942.74869,0.63074
941.25890,0.66374
939.76911,0.72599
938.27932,0.78827
936.78953,0.98493
935.29974,0.84637
933.80996,0.79196
932.32017,0.85090
930.83038,0.85965
929.34059,0.86845
927.85080,0.83055
926.36101,0.80087
924.87123,0.82030
923.38144,0.85261
921.89165,0.82189
920.40186,0.79121
918.91207,0.95564
917.42228,0.95775
915.93250,0.92368
914.44271,0.95507
912.95292,0.96839
911.46313,0.98176
909.97334,1.05065
908.48355,1.07519
906.99376,1.15701
905.50398,1.00641
904.01419,1.02348
902.52440,1.04059
901.03461,1.05015
899.54482,1.11114
898.05503,1.14882
896.56525,1.13397
895.07546,1.22020
893.58567,1.30647
892.09588,1.26604
890.60609,1.17659
889.11630,1.22385
887.62651,1.14850
886.13673,1.18825
884.64694,1.22803
883.15715,1.16799
881.66736,1.14069
880.17757,1.17534
878.68778,1.18083
877.19800,1.18636
875.70821,1.10432
874.21842,1.11578
872.72863,1.16348
871.23884,1.18085
869.74905,1.15738
868.25927,1.13395
866.76948,1.07785
865.27969,1.12226
863.78990,1.20875
862.30011,1.25557
860.81032,1.25395
859.32053,1.25238
857.83075,1.20820
856.34096,1.09515
854.85117,1.02886
853.36138,0.87383
851.87159,0.87946
850.38180,0.88514
848.89202,0.66715
847.40223,0.49359
845.91244,0.41470
844.42265,0.43922
842.93286,0.46379
841.44307,0.47029
839.95329,0.46514
838.46350,0.32687
836.97371,0.38139
835.48392,0.40207
833.99413,0.42279
832.50434,0.38981
831.01455,0.45967
829.52477,0.47818
828.03498,0.32967
826.54519,0.30562
825.05540,0.28161
823.56561,0.28392
822.07582,0.31431
820.58604,0.28165
819.09625,0.21341
817.60646,0.14521
816.11667,0.04843
814.62688,0.04865
813.13709,0.08979
811.64730,0.00365
810.15752,0.02443
808.66773,0.04526
807.17794,0.03517
805.68815,0.05432
804.19836,0.09922
802.70857,0.09334
801.21879,0.08750
799.72900,0.15587
798.23921,0.21495
796.74942,0.39438
795.25963,0.40038
793.76984,0.40643
792.28006,0.38272
790.79027,0.52727
789.30048,0.62864
787.81069,0.62842
786.32090,0.64168
784.83111,0.65497
783.34132,0.69459
781.85154,0.76929
780.36175,0.72372
778.87196,0.72023
777.38217,0.71679
775.89238,0.83838
774.40259,0.94366
772.91281,0.87142
771.42302,0.90201
769.93323,0.93265
768.44344,0.94814
766.95365,0.89942
765.46386,0.91733
763.97407,0.89439
762.48429,0.83178
760.99450,0.76921
759.50471,0.68097
758.01492,0.62899
756.52513,0.53968
755.03534,0.49070
753.54556,0.44176
752.05577,0.26729
750.56598,0.15360
749.07619,0.06915
747.58640,0.06477
746.09661,0.06042
744.60683,0.04735
743.11704,0.04484
741.62725,0.08909
740.13746,0.05979
738.64767,0.03053
737.15788,0.00365
735.66809,0.04342
734.17831,0.08907
732.68852,0.08686
731.19873,0.08470
729.70894,0.07206
728.21915,0.05479
726.72936,0.01654
725.23958,0.04374
723.74979,0.02367
722.26000,0.00365
720.77021,0.05219
719.28042,0.04938
717.79063,0.02208
716.30084,0.01468
714.81106,0.00732
713.32127,0.00000
711.83148,0.05196
710.34169,0.04673
708.85190,0.05789
707.36211,0.06909
705.87233,0.05814
704.38254,0.05657
702.89275,0.00365
701.40296,0.05816
699.91317,0.11271
698.42338,0.16672
696.93360,0.14134
695.44381,0.11016
693.95402,0.11639
692.46423,0.12267
690.97444,0.14067
689.48465,0.13768
687.99486,0.20599
686.50508,0.20776
685.01529,0.20956
683.52550,0.28851
682.03571,0.26469
680.54592,0.16967
679.05613,0.23355
677.56635,0.29747
676.07656,0.28550
674.58677,0.20114
673.09698,0.15771
671.60719,0.17157
670.11740,0.18546
668.62761,0.12930
667.13783,0.07085
665.64804,0.08544
664.15825,0.10008
662.66846,0.13403
661.17867,0.09794
659.68888,0.17752
658.19910,0.18415
656.70931,0.19081
655.21952,0.19459
653.72973,0.22645
652.23994,0.19877
650.75015,0.19917
649.26037,0.19961
647.77058,0.25499
646.28079,0.17607
644.79100,0.05164
643.30121,0.05808
641.81142,0.06456
640.32163,0.10029
638.83185,0.05428
637.34206,0.00365
635.85227,0.04034
634.36248,0.07707
632.87269,0.12728
631.38290,0.10159
629.89312,0.08179
628.40333,0.07838
626.91354,0.07502
625.42375,0.11842
623.93396,0.19106
622.44417,0.17613
620.95438,0.16124
619.46460,0.14990
617.97481,0.04164
616.48502,0.11449
614.99523,0.09859
613.50544,0.08274
612.01565,0.07627
610.52587,0.10022
609.03608,0.13238
607.54629,0.15173
606.05650,0.17112
604.56671,0.22209
603.07692,0.19367
601.58714,0.18574
600.09735,0.17784
598.60756,0.13903
597.11777,0.05820
595.62798,0.11058
594.13819,0.10226
592.64840,0.09398
591.15862,0.14065
589.66883,0.12427
588.17904,0.16400
586.68925,0.14304
585.19946,0.12211
583.70967,0.08370
582.21989,0.15630
580.73010,0.17521
579.24031,0.19416
577.75052,0.09868
576.26073,0.16444
574.77094,0.06903
573.28115,0.11793
571.79137,0.16687
570.30158,0.18606
568.81179,0.22515
567.32200,0.24384
565.83221,0.26257
564.34242,0.25039
562.85264,0.32819
561.36285,0.44925
559.87306,0.44770
558.38327,0.44619
556.89348,0.48911
555.40369,0.58931
553.91391,0.58149
552.42412,0.57372
550.93433,0.53620
549.44454,0.59918
547.95475,0.57225
546.46496,0.59559
544.97517,0.61897
543.48539,0.69730
541.99560,0.76632
540.50581,0.78048
539.01602,0.79468
537.52623,0.72481
536.03644,0.64331
534.54666,0.75225
533.05687,0.71346
531.56708,0.67471
530.07729,0.73821
528.58750,0.62770
527.09771,0.69070
525.60792,0.75374
524.11814,0.63284
522.62835,0.62062
521.13856,0.57222
519.64877,0.56300
518.15898,0.55382
516.66919,0.58030
515.17941,0.54609
513.68962,0.53118
512.19983,0.51632
510.71004,0.40747
509.22025,0.47854
507.73046,0.49359
506.24068,0.53671
504.75089,0.57988
503.26110,0.47940
501.77131,0.54367
500.28152,0.44853
498.79173,0.35343
497.30194,0.35007
495.81216,0.45538
494.32237,0.52044
492.83258,0.58554
491.34279,0.58584
489.85300,0.46937
488.36321,0.44289
486.87343,0.44682
485.38364,0.45079
483.89385,0.44195
482.40406,0.31517
480.91427,0.28305
479.42448,0.25097
477.93469,0.17104
476.44491,0.15539
474.95512,0.17191
473.46533,0.18847
471.97554,0.17528
470.48575,0.11074
468.99596,0.16655
467.50618,0.10208
466.01639,0.03766
464.52660,0.00365
463.03681,0.07721
461.54702,0.05736
460.05723,0.03755
458.56745,0.06801
457.07766,0.08683
455.58787,0.11504
454.09808,0.14329
452.60829,0.25568
451.11850,0.19757
449.62871,0.21425
448.13893,0.23098
446.64914,0.39026
445.15935,0.48650
443.66956,0.54891
442.17977,0.52257
440.68998,0.49628
439.20020,0.56698
437.71041,0.69964
436.22062,0.74414
434.73083,0.78868
433.24104,0.94482
431.75125,1.23066
430.26146,1.19706
428.77168,1.16350
427.28189,1.35835
425.79210,1.53688
424.30231,1.44445
422.81252,1.35206
421.32273,1.23167
419.83295,1.19192
418.34316,1.07512
416.85337,0.95836
415.36358,0.82996
413.87379,0.77051
412.38400,0.73389
410.89422,0.69731
409.40443,0.68354
407.91464,0.56702
406.42485,0.48676
404.93506,0.52451
403.44527,0.56231
401.95548,0.47632
400.46570,0.50135
398.97591,0.49079
397.48612,0.48027
395.99633,0.53228
394.50654,0.54345
393.01675,0.52371
391.52697,0.50400
390.03718,0.41483
388.54739,0.32570
387.05760,0.36044
385.56781,0.39522
384.07802,0.45223
382.58824,0.43335
381.09845,0.41685
379.60866,0.40039
378.11887,0.44237
376.62908,0.36525
375.13929,0.33080
373.64950,0.29640
372.15972,0.39111
370.66993,0.29896
369.18014,0.23956
367.69035,0.18020
366.20056,0.14775
364.71077,0.16440
363.22099,0.21321
361.73120,0.26207
360.24141,0.22744
358.75162,0.30149
357.26183,0.35806
355.77204,0.41467
354.28225,0.26923
352.79247,0.05725
351.30268,0.07018
349.81289,0.08314
348.32310,0.09673
346.83331,0.09751
345.34352,0.06095
343.85374,0.02443
342.36395,0.30174
340.87416,0.19009
339.38437,0.15500
337.89458,0.11994
336.40479,0.18481
334.91501,0.08851
333.42522,0.10906
331.93543,0.12966
330.44564,0.03581
328.95585,0.19199
327.46606,0.11926
325.97627,0.04656
324.48649,0.08063
322.99670,0.15446
321.50691,0.18160
320.01712,0.20878
318.52733,0.10050
317.03754,0.25509
315.54776,0.22223
314.05797,0.18941
312.56818,0.06611
311.07839,0.10287
309.58860,0.05324
308.09881,0.00365
306.60902,0.02398
305.11924,0.02916
303.62945,0.03848
302.13966,0.01281
300.64987,0.02398
299.16008,0.00365
