1778.52000,0.02672
1777.03021,0.03935
1775.54042,0.02847
1774.05063,0.04570
1772.56085,0.00229
1771.07106,0.00238
1769.58127,0.03509
1768.09148,0.01351
1766.60169,0.00374
1765.11190,0.00938
1763.62212,0.02683
1762.13233,0.01715
1760.64254,0.03648
1759.15275,0.05855
1757.66296,0.02181
1756.17317,0.02946
1754.68339,0.00636
1753.19360,0.01589
1751.70381,0.00191
1750.21402,0.01082
1748.72423,0.00799
1747.23444,0.04683
1745.74465,0.01781
1744.25487,0.02866
1742.76508,0.03773
1741.27529,0.04773
1739.78550,0.02880
1738.29571,0.01171
1736.80592,0.03720
1735.31614,0.02108
1733.82635,0.03940
1732.33656,0.01519
1730.84677,0.04896
1729.35698,0.06194
1727.86719,0.01611
1726.37740,0.03640
1724.88762,0.01326
1723.39783,0.00374
1721.90804,0.01357
1720.41825,0.06417
1718.92846,0.03333
1717.43867,0.05865
1715.94889,0.02063
1714.45910,0.05868
1712.96931,0.06056
1711.47952,0.05976
1709.98973,0.07709
1708.49994,0.06005
1707.01016,0.08152
1705.52037,0.10303
1704.03058,0.11415
1702.54079,0.12893
1701.05100,0.10572
1699.56121,0.11784
1698.07142,0.11824
1696.58164,0.19199
1695.09185,0.18611
1693.60206,0.17120
1692.11227,0.18621
1690.62248,0.24289
1689.13269,0.24166
1687.64291,0.26944
1686.15312,0.25923
1684.66333,0.22551
1683.17354,0.24885
1681.68375,0.28219
1680.19396,0.26034
1678.70417,0.23580
1677.21439,0.23121
1675.72460,0.24023
1674.23481,0.27102
1672.74502,0.24751
1671.25523,0.28198
1669.76544,0.29657
1668.27566,0.25867
1666.78587,0.20090
1665.29608,0.20291
1663.80629,0.25655
1662.31650,0.26224
1660.82671,0.22451
1659.33693,0.22936
1657.84714,0.19713
1656.35735,0.15678
1654.86756,0.16988
1653.37777,0.17848
1651.88798,0.13008
1650.39819,0.12698
1648.90841,0.13568
1647.41862,0.17067
1645.92883,0.17943
1644.43904,0.18823
1642.94925,0.14093
1641.45946,0.15975
1639.96968,0.14873
1638.47989,0.15041
1636.99010,0.18562
1635.50031,0.18375
1634.01052,0.15204
1632.52073,0.16381
1631.03094,0.15298
1629.54116,0.19198
1628.05137,0.16673
1626.56158,0.19040
1625.07179,0.18513
1623.58200,0.27948
1622.09221,0.26341
1620.60243,0.26549
1619.11264,0.26487
1617.62285,0.21903
1616.13306,0.20400
1614.64327,0.18085
1613.15348,0.21386
1611.66370,0.16362
1610.17391,0.23110
1608.68412,0.20446
1607.19433,0.18963
1605.70454,0.15671
1604.21475,0.16865
1602.72496,0.18061
1601.23518,0.17315
1599.74539,0.12679
1598.25560,0.13206
1596.76581,0.14823
1595.27602,0.13093
1593.78623,0.13449
1592.29645,0.12903
1590.80666,0.10369
1589.31687,0.09648
1587.82708,0.13095
1586.33729,0.10570
1584.84750,0.08591
1583.35771,0.03810
1581.86793,0.08356
1580.37814,0.05935
1578.88835,0.10216
1577.39856,0.07620
1575.90877,0.07381
1574.41898,0.06240
1572.92920,0.03834
1571.43941,0.03062
1569.94962,0.04194
1568.45983,0.05329
1566.97004,0.05743
1565.48025,0.02449
1563.99047,0.02508
1562.50068,0.05014
1561.01089,0.01095
1559.52110,0.08134
1558.03131,0.08749
1556.54152,0.10272
1555.05173,0.07996
1553.56195,0.10341
1552.07216,0.08343
1550.58237,0.05262
1549.09258,0.06892
1547.60279,0.04361
1546.11300,0.15141
1544.62322,0.09447
1543.13343,0.08284
1541.64364,0.02687
1540.15385,0.03748
1538.66406,0.04812
1537.17427,0.05291
1535.68448,0.02966
1534.19470,0.00374
1532.70491,0.01617
1531.21512,0.02682
1529.72533,0.03932
1528.23554,0.00477
1526.74575,0.04540
1525.25597,0.04713
1523.76618,0.00091
1522.27639,0.01085
1520.78660,0.00000
1519.29681,0.01223
1517.80702,0.00187
1516.31724,0.03986
1514.82745,0.00907
1513.33766,0.00639
1511.84787,0.00374
1510.35808,0.08421
1508.86829,0.01172
1507.37850,0.03342
1505.88872,0.02708
1504.39893,0.04521
1502.90914,0.04890
1501.41935,0.04175
1499.92956,0.03192
1498.43977,0.07011
1496.94999,0.11375
1495.46020,0.11760
1493.97041,0.15950
1492.48062,0.20687
1490.99083,0.24884
1489.50104,0.30351
1488.01125,0.37044
1486.52147,0.43740
1485.03168,0.49941
1483.54189,0.52977
1482.05210,0.60091
1480.56231,0.77437
1479.07252,0.85553
1477.58274,0.99194
1476.09295,1.08583
1474.60316,1.18429
1473.11337,1.22483
1471.62358,1.23282
1470.13379,1.19919
1468.64401,1.13391
1467.15422,1.08767
1465.66443,1.07903
1464.17464,1.07043
1462.68485,1.05055
1461.19506,1.00353
1459.70527,0.97194
1458.21549,0.90417
1456.72570,0.86812
1455.23591,0.80132
1453.74612,0.74903
1452.25633,0.76197
1450.76654,0.69707
1449.27676,0.68382
1447.78697,0.61174
1446.29718,0.57863
1444.80739,0.53605
1443.31760,0.49350
1441.82781,0.40255
1440.33802,0.34241
1438.84824,0.32847
1437.35845,0.26749
1435.86866,0.29436
1434.37887,0.28957
1432.88908,0.28300
1431.39929,0.28734
1429.90951,0.22290
1428.41972,0.26984
1426.92993,0.26250
1425.44014,0.27240
1423.95035,0.31401
1422.46056,0.35565
1420.97078,0.32852
1419.48099,0.34036
1417.99120,0.31601
1416.50141,0.30165
1415.01162,0.30181
1413.52183,0.35633
1412.03204,0.32215
1410.54226,0.29615
1409.05247,0.30640
1407.56268,0.38187
1406.07289,0.33877
1404.58310,0.34821
1403.09331,0.35768
1401.60353,0.37081
1400.11374,0.38215
1398.62395,0.38901
1397.13416,0.42577
1395.64437,0.47614
1394.15458,0.51569
1392.66479,0.51905
1391.17501,0.54598
1389.68522,0.60101
1388.19543,0.48044
1386.70564,0.50295
1385.21585,0.52548
1383.72606,0.51817
1382.23628,0.48555
1380.74649,0.46110
1379.25670,0.45933
1377.76691,0.50285
1376.27712,0.50294
1374.78733,0.57007
1373.29755,0.66891
1371.80776,0.72433
1370.31797,0.85401
1368.82818,0.90542
1367.33839,0.95686
1365.84860,1.10294
1364.35881,1.30790
1362.86903,1.46853
1361.37924,1.52961
1359.88945,1.60792
1358.39966,1.67993
1356.90987,1.77279
1355.42008,1.71540
1353.93030,1.64536
1352.44051,1.61927
1350.95072,1.59321
1349.46093,1.47167
1347.97114,1.41806
1346.48135,1.18251
1344.99156,1.08008
1343.50178,0.97225
1342.01199,0.85178
1340.52220,0.73767
1339.03241,0.65981
1337.54262,0.65532
1336.05283,0.64407
1334.56305,0.63285
1333.07326,0.55783
1331.58347,0.60960
1330.09368,0.50749
1328.60389,0.47331
1327.11410,0.48082
1325.62432,0.46662
1324.13453,0.42077
1322.64474,0.41207
1321.15495,0.45501
1319.66516,0.41877
1318.17537,0.38255
1316.68558,0.40386
1315.19580,0.41162
1313.70601,0.37234
1312.21622,0.30411
1310.72643,0.33913
1309.23664,0.24924
1307.74685,0.35856
1306.25707,0.31039
1304.76728,0.31475
1303.27749,0.31915
1301.78770,0.31181
1300.29791,0.27463
1298.80812,0.28003
1297.31834,0.29632
1295.82855,0.32985
1294.33876,0.34712
1292.84897,0.33726
1291.35918,0.32562
1289.86939,0.33076
1288.37960,0.33593
1286.88982,0.37327
1285.40003,0.38983
1283.91024,0.39917
1282.42045,0.45382
1280.93066,0.41072
1279.44087,0.43193
1277.95109,0.45498
1276.46130,0.43914
1274.97151,0.44098
1273.48172,0.44286
1271.99193,0.43526
1270.50214,0.48563
1269.01235,0.52608
1267.52257,0.55117
1266.03278,0.54461
1264.54299,0.56614
1263.05320,0.57413
1261.56341,0.57627
1260.07362,0.57843
1258.58384,0.59738
1257.09405,0.57652
1255.60426,0.64986
1254.11447,0.66981
1252.62468,0.63185
1251.13489,0.68083
1249.64511,0.63298
1248.15532,0.51998
1246.66553,0.47355
1245.17574,0.42715
1243.68595,0.34774
1242.19616,0.44128
1240.70637,0.43798
1239.21659,0.37044
1237.72680,0.34186
1236.23701,0.31059
1234.74722,0.23590
1233.25743,0.24589
1231.76764,0.25592
1230.27786,0.27910
1228.78807,0.23713
1227.29828,0.18252
1225.80849,0.19132
1224.31870,0.15216
1222.82891,0.12481
1221.33912,0.15633
1219.84934,0.18789
1218.35955,0.21948
1216.86976,0.20312
1215.37997,0.24292
1213.89018,0.25288
1212.40039,0.19860
1210.91061,0.12261
1209.42082,0.17884
1207.93103,0.16630
1206.44124,0.15379
1204.95145,0.12954
1203.46166,0.08812
1201.97188,0.04492
1200.48209,0.09863
1198.99230,0.08266
1197.50251,0.02960
1196.01272,0.05171
1194.52293,0.07115
1193.03314,0.09061
1191.54336,0.06122
1190.05357,0.04454
1188.56378,0.03875
1187.07399,0.00946
1185.58420,0.00374
1184.09441,0.08224
1182.60463,0.05259
1181.11484,0.02296
1179.62505,0.03547
1178.13526,0.03625
1176.64547,0.07326
1175.15568,0.08406
1173.66589,0.04781
1172.17611,0.08583
1170.68632,0.06187
1169.19653,0.03794
1167.70674,0.02174
1166.21695,0.01372
1164.72716,0.08449
1163.23738,0.05028
1161.74759,0.03873
1160.25780,0.03989
1158.76801,0.03384
1157.27822,0.02782
1155.78843,0.05172
1154.29865,0.09193
1152.80886,0.00272
1151.31907,0.02711
1149.82928,0.09950
1148.33949,0.08140
1146.84970,0.05744
1145.35991,0.03351
1143.87013,0.00374
1142.38034,0.07421
1140.89055,0.13657
1139.40076,0.18810
1137.91097,0.18443
1136.42118,0.18985
1134.93140,0.19757
1133.44161,0.20531
1131.95182,0.29774
1130.46203,0.38930
1128.97224,0.36410
1127.48245,0.39959
1125.99266,0.33915
1124.50288,0.46795
1123.01309,0.43835
1121.52330,0.40879
1120.03351,0.45530
1118.54372,0.45115
1117.05393,0.49140
1115.56415,0.48821
1114.07436,0.52581
1112.58457,0.52405
1111.09478,0.52232
1109.60499,0.59894
1108.11520,0.54160
1106.62542,0.61738
1105.13563,0.62891
1103.64584,0.79166
1102.15605,0.78515
1100.66626,0.78048
1099.17647,0.77585
1097.68668,0.83371
1096.19690,0.84815
1094.70711,0.88979
1093.21732,0.97310
1091.72753,1.02928
1090.23774,0.99632
1088.74795,0.96340
1087.25817,1.12198
1085.76838,1.08776
1084.27859,1.09974
1082.78880,1.16155
1081.29901,1.24150
1079.80922,1.19111
1078.31943,1.18557
1076.82965,1.18006
1075.33986,1.34253
1073.85007,1.30585
1072.36028,1.33801
1070.87049,1.36205
1069.38070,1.43864
1067.89092,1.46003
1066.40113,1.48146
1064.91134,1.38250
1063.42155,1.33609
1061.93176,1.18651
1060.44197,1.06502
1058.95219,0.96892
1057.46240,0.99008
1055.97261,1.01128
1054.48282,0.94968
1052.99303,0.86366
1051.50324,0.82022
1050.01345,0.73518
1048.52367,0.68819
1047.03388,0.66793
1045.54409,0.64771
1044.05430,0.66329
1042.56451,0.54490
1041.07472,0.49083
1039.58494,0.42955
1038.09515,0.42262
1036.60536,0.48000
1035.11557,0.53741
1033.62578,0.36581
1032.13599,0.33547
1030.64620,0.30878
1029.15642,0.35999
1027.66663,0.32838
1026.17684,0.29682
1024.68705,0.41240
1023.19726,0.54883
1021.70747,0.66447
1020.21769,0.78287
1018.72790,0.92574
1017.23811,1.02428
1015.74832,1.12285
1014.25853,1.25857
1012.76874,1.52288
1011.27896,1.72476
1009.78917,2.00000
1008.29938,1.82804
1006.80959,1.80776
1005.31980,1.78751
1003.83001,1.59844
1002.34022,1.51443
1000.85044,1.36979
999.36065,1.32206
997.87086,1.28884
996.38107,1.25566
994.89128,1.24785
993.40149,1.26905
991.91171,1.21605
990.42192,1.28167
988.93213,1.21606
987.44234,1.22743
985.95255,1.23883
984.46276,1.21405
982.97297,1.15762
981.48319,1.23159
979.99340,1.17160
978.50361,1.17094
977.01382,1.17031
975.52403,1.08598
974.03424,0.94645
972.54446,0.91831
971.05467,0.88115
969.56488,0.89381
968.07509,0.85400
966.58530,0.81422
965.09551,0.88220
963.60573,0.85516
962.11594,0.77021
960.62615,0.75319
959.13636,0.70180
957.64657,0.65045
956.15678,0.59369
954.66699,0.59672
953.17721,0.60521
951.68742,0.64543
950.19763,0.63814
948.70784,0.63089
947.21805,0.57976
945.72826,0.54948
944.23848,0.58442
942.74869,0.61578
941.25890,0.58560
939.76911,0.65413
938.27932,0.72270
936.78953,0.81031
935.29974,0.71689
933.80996,0.68507
932.32017,0.70578
930.83038,0.71114
929.34059,0.71653
927.85080,0.74186
926.36101,0.74189
924.87123,0.65412
923.38144,0.73388
921.89165,0.74396
920.40186,0.75407
918.91207,0.77326
917.42228,0.77167
915.93250,0.79636
914.44271,0.71969
912.95292,0.70506
911.46313,0.69047
909.97334,0.78409
908.48355,0.77364
906.99376,0.75869
905.50398,0.70847
904.01419,0.67683
902.52440,0.64523
901.03461,0.68926
899.54482,0.88179
898.05503,0.75931
896.56525,0.85232
895.07546,0.86388
893.58567,0.87548
892.09588,0.80654
890.60609,0.82635
889.11630,0.83261
887.62651,0.84071
886.13673,0.85700
884.64694,0.87332
883.15715,0.96390
881.66736,0.83996
880.17757,0.83193
878.68778,0.90768
877.19800,0.98346
875.70821,0.89857
874.21842,0.90606
872.72863,1.07021
871.23884,1.06418
869.74905,1.09802
868.25927,1.13190
866.76948,1.02367
865.27969,1.08839
863.78990,1.13413
862.30011,1.17176
860.81032,1.21123
859.32053,1.25073
857.83075,1.17619
856.34096,1.07905
854.85117,1.02449
853.36138,0.93738
851.87159,0.91457
850.38180,0.89180
848.89202,0.67713
847.40223,0.54397
845.91244,0.54665
844.42265,0.56067
842.93286,0.57472
841.44307,0.46523
839.95329,0.44088
838.46350,0.41383
836.97371,0.40674
835.48392,0.41191
833.99413,0.41710
832.50434,0.39653
831.01455,0.46924
829.52477,0.37087
828.03498,0.34134
826.54519,0.31818
825.05540,0.29505
823.56561,0.28372
822.07582,0.28510
820.58604,0.24668
819.09625,0.21599
817.60646,0.18533
816.11667,0.09630
814.62688,0.12772
813.13709,0.12205
811.64730,0.08926
810.15752,0.06057
808.66773,0.03191
807.17794,0.00374
805.68815,0.04034
804.19836,0.05525
802.70857,0.07653
801.21879,0.09784
799.72900,0.16446
798.23921,0.21299
796.74942,0.35662
795.25963,0.36584
793.76984,0.37509
792.28006,0.44730
790.79027,0.51591
789.30048,0.60900
787.81069,0.59530
786.32090,0.59611
784.83111,0.59696
783.34132,0.71010
781.85154,0.66574
780.36175,0.69927
778.87196,0.72062
777.38217,0.74200
775.89238,0.78559
774.40259,0.77851
772.91281,0.81854
771.42302,0.84322
769.93323,0.86792
768.44344,0.85645
766.95365,0.85225
765.46386,0.88521
763.97407,0.80412
762.48429,0.76109
760.99450,0.71809
759.50471,0.63891
758.01492,0.53351
756.52513,0.49242
755.03534,0.40655
753.54556,0.32071
752.05577,0.17379
750.56598,0.16995
749.07619,0.12359
747.58640,0.10125
746.09661,0.07895
744.60683,0.03630
743.11704,0.07155
741.62725,0.05885
740.13746,0.05342
738.64767,0.04803
737.15788,0.00374
735.66809,0.01907
734.17831,0.01996
732.68852,0.04486
731.19873,0.06980
729.70894,0.02733
728.21915,0.07089
726.72936,0.04658
725.23958,0.01869
723.74979,0.01527
722.26000,0.01189
720.77021,0.08639
719.28042,0.10933
717.79063,0.00374
716.30084,0.02935
714.81106,0.05499
713.32127,0.01865
711.83148,0.05024
710.34169,0.01397
708.85190,0.02933
707.36211,0.04472
705.87233,0.07101
704.38254,0.06202
702.89275,0.03406
701.40296,0.06135
699.91317,0.08867
698.42338,0.13685
696.93360,0.14975
695.44381,0.19981
693.95402,0.19965
692.46423,0.19952
690.97444,0.20078
689.48465,0.24644
687.99486,0.28579
686.50508,0.28036
685.01529,0.27497
683.52550,0.35878
682.03571,0.30048
680.54592,0.27119
679.05613,0.24193
677.56635,0.21270
676.07656,0.26680
674.58677,0.18694
673.09698,0.19402
671.60719,0.16945
670.11740,0.14491
668.62761,0.13218
667.13783,0.12219
665.64804,0.09820
664.15825,0.07424
662.66846,0.06164
661.17867,0.11515
659.68888,0.16870
658.19910,0.18833
656.70931,0.20799
655.21952,0.22451
653.72973,0.18132
652.23994,0.25404
650.75015,0.26568
649.26037,0.27735
647.77058,0.23429
646.28079,0.14146
644.79100,0.12743
643.30121,0.12158
641.81142,0.11577
640.32163,0.17516
638.83185,0.00374
637.34206,0.01467
635.85227,0.03831
634.36248,0.06198
632.87269,0.04676
631.38290,0.13568
629.89312,0.11509
628.40333,0.13663
626.91354,0.15820
625.42375,0.20832
623.93396,0.14803
622.44417,0.13167
620.95438,0.11535
619.46460,0.12939
617.97481,0.15885
616.48502,0.11501
614.99523,0.11194
613.50544,0.10891
612.01565,0.11587
610.52587,0.05767
609.03608,0.13712
607.54629,0.15006
606.05650,0.16303
604.56671,0.17468
603.07692,0.20265
601.58714,0.20078
600.09735,0.19894
598.60756,0.17269
597.11777,0.10031
595.62798,0.04515
594.13819,0.08464
592.64840,0.12415
591.15862,0.11074
589.66883,0.13176
588.17904,0.15010
586.68925,0.14403
585.19946,0.13799
583.70967,0.18901
582.21989,0.18575
580.73010,0.19475
579.24031,0.20377
577.75052,0.15082
576.26073,0.13230
574.77094,0.10475
573.28115,0.15646
571.79137,0.20820
570.30158,0.32651
568.81179,0.29548
567.32200,0.31382
565.83221,0.33219
564.34242,0.29129
562.85264,0.41791
561.36285,0.42507
559.87306,0.42953
558.38327,0.43403
556.89348,0.53363
555.40369,0.55901
553.91391,0.53962
552.42412,0.52026
550.93433,0.58920
549.44454,0.65002
547.95475,0.67104
546.46496,0.69481
544.97517,0.71862
543.48539,0.65916
541.99560,0.79076
540.50581,0.74722
539.01602,0.70370
537.52623,0.66611
536.03644,0.61949
534.54666,0.56294
533.05687,0.60149
531.56708,0.64007
530.07729,0.57728
528.58750,0.60506
527.09771,0.61341
525.60792,0.62179
524.11814,0.48943
522.62835,0.46302
521.13856,0.44750
519.64877,0.42930
518.15898,0.41114
516.66919,0.41021
515.17941,0.39754
513.68962,0.37857
512.19983,0.35962
510.71004,0.41857
509.22025,0.38521
507.73046,0.41888
506.24068,0.46615
504.75089,0.51346
503.26110,0.46303
501.77131,0.53847
500.28152,0.50802
498.79173,0.47760
497.30194,0.46351
495.81216,0.48928
494.32237,0.53954
492.83258,0.58982
491.34279,0.57043
489.85300,0.41255
488.36321,0.39322
486.87343,0.41466
485.38364,0.43614
483.89385,0.43592
482.40406,0.31623
480.91427,0.26130
479.42448,0.20640
477.93469,0.16376
476.44491,0.14560
474.95512,0.13064
473.46533,0.11570
471.97554,0.01887
470.48575,0.06325
468.99596,0.10585
467.50618,0.05478
466.01639,0.00374
464.52660,0.08092
463.03681,0.14636
461.54702,0.12629
460.05723,0.10625
458.56745,0.03327
457.07766,0.10518
455.58787,0.10289
454.09808,0.10063
452.60829,0.18622
451.11850,0.16139
449.62871,0.18458
448.13893,0.20780
446.64914,0.30619
445.15935,0.37383
443.66956,0.48859
442.17977,0.49292
440.68998,0.49729
439.20020,0.53790
437.71041,0.55411
436.22062,0.65182
434.73083,0.74957
433.24104,0.95236
431.75125,1.07914
430.26146,1.10999
428.77168,1.14088
427.28189,1.17451
425.79210,1.26701
424.30231,1.27717
422.81252,1.28736
421.32273,1.22968
419.83295,1.20915
418.34316,1.11306
416.85337,1.01700
415.36358,0.77658
413.87379,0.74803
412.38400,0.73083
410.89422,0.71367
409.40443,0.68793
407.91464,0.69573
406.42485,0.57591
404.93506,0.53352
403.44527,0.49117
401.95548,0.53349
400.46570,0.41833
398.97591,0.41410
397.48612,0.40990
395.99633,0.43787
394.50654,0.50299
393.01675,0.49074
391.52697,0.47852
390.03718,0.37535
388.54739,0.32925
387.05760,0.36149
385.56781,0.39376
384.07802,0.47178
382.58824,0.31083
381.09845,0.29341
379.60866,0.27602
378.11887,0.36141
376.62908,0.21870
375.13929,0.20185
373.64950,0.18504
372.15972,0.27510
370.66993,0.17053
369.18014,0.11625
367.69035,0.06200
366.20056,0.02996
364.71077,0.03580
363.22099,0.08060
361.73120,0.12543
360.24141,0.16305
358.75162,0.20342
357.26183,0.16959
355.77204,0.13579
354.28225,0.03683
352.79247,0.09363
351.30268,0.07667
349.81289,0.05975
348.32310,0.07590
346.83331,0.04501
345.34352,0.06216
343.85374,0.07935
342.36395,0.22287
340.87416,0.15457
339.38437,0.14424
337.89458,0.13395
336.40479,0.17258
334.91501,0.05824
333.42522,0.03899
331.93543,0.01977
330.44564,0.10379
328.95585,0.10456
327.46606,0.09947
325.97627,0.09441
324.48649,0.06811
322.99670,0.13784
321.50691,0.11390
320.01712,0.08999
318.52733,0.09553
317.03754,0.19707
315.54776,0.16149
314.05797,0.12594
312.56818,0.02840
311.07839,0.01057
309.58860,0.00714
308.09881,0.00374
306.60902,0.06627
305.11924,0.15601
303.62945,0.11042
302.13966,0.06487
300.64987,0.04153
299.16008,0.00374
