1778.52000,0.00364
1777.03021,0.00000
1775.54042,0.02842
1774.05063,0.02193
1772.56085,0.01256
1771.07106,0.03041
1769.58127,0.01141
1768.09148,0.04000
1766.60169,0.01232
1765.11190,0.03613
1763.62212,0.04153
1762.13233,0.03725
1760.64254,0.06019
1759.15275,0.05695
1757.66296,0.06928
1756.17317,0.06709
1754.68339,0.05813
1753.19360,0.01232
1751.70381,0.04853
1750.21402,0.01781
1748.72423,0.04244
1747.23444,0.03896
1745.74465,0.03842
1744.25487,0.02433
1742.76508,0.05007
1741.27529,0.08652
1739.78550,0.07447
1738.29571,0.08090
1736.80592,0.09319
1735.31614,0.09677
1733.82635,0.04604
1732.33656,0.12443
1730.84677,0.07958
1729.35698,0.05322
1727.86719,0.01232
1726.37740,0.07112
1724.88762,0.08337
1723.39783,0.04032
1721.90804,0.06331
1720.41825,0.09701
1718.92846,0.05310
1717.43867,0.08978
1715.94889,0.11873
1714.45910,0.08559
1712.96931,0.10490
1711.47952,0.10095
1709.98973,0.09413
1708.49994,0.12325
1707.01016,0.12862
1705.52037,0.13403
1704.03058,0.13025
1702.54079,0.13524
1701.05100,0.15192
1699.56121,0.16474
1698.07142,0.20575
1696.58164,0.16137
1695.09185,0.21215
1693.60206,0.22997
1692.11227,0.21093
1690.62248,0.25211
1689.13269,0.23314
1687.64291,0.25983
1686.15312,0.28849
1684.66333,0.29389
1683.17354,0.23721
1681.68375,0.27277
1680.19396,0.26177
1678.70417,0.26536
1677.21439,0.23794
1675.72460,0.26586
1674.23481,0.26665
1672.74502,0.26941
1671.25523,0.29259
1669.76544,0.28378
1668.27566,0.25655
1666.78587,0.25557
1665.29608,0.20415
1663.80629,0.26050
1662.31650,0.23535
1660.82671,0.23256
1659.33693,0.25893
1657.84714,0.19409
1656.35735,0.18363
1654.86756,0.16739
1653.37777,0.19195
1651.88798,0.17093
1650.39819,0.16450
1648.90841,0.18236
1647.41862,0.19250
1645.92883,0.17986
1644.43904,0.16726
1642.94925,0.19011
1641.45946,0.17127
1639.96968,0.14760
1638.47989,0.14241
1636.99010,0.17220
1635.50031,0.14379
1634.01052,0.14647
1632.52073,0.15015
1631.03094,0.18784
1629.54116,0.19547
1628.05137,0.18179
1626.56158,0.19337
1625.07179,0.26905
1623.58200,0.20791
1622.09221,0.24192
1620.60243,0.25752
1619.11264,0.23725
1617.62285,0.21021
1616.13306,0.23854
1614.64327,0.20478
1613.15348,0.19920
1611.66370,0.18006
1610.17391,0.18232
1608.68412,0.23702
1607.19433,0.20440
1605.70454,0.18928
1604.21475,0.16741
1602.72496,0.14557
1601.23518,0.15385
1599.74539,0.17284
1598.25560,0.13946
1596.76581,0.16434
1595.27602,0.18247
1593.78623,0.12298
1592.29645,0.11982
1590.80666,0.15358
1589.31687,0.11263
1587.82708,0.12219
1586.33729,0.13276
1584.84750,0.07735
1583.35771,0.06566
1581.86793,0.02974
1580.37814,0.05597
1578.88835,0.08806
1577.39856,0.07262
1575.90877,0.03199
1574.41898,0.02147
1572.92920,0.03234
1571.43941,0.05295
1569.94962,0.04254
1568.45983,0.03216
1566.97004,0.03929
1565.48025,0.05518
1563.99047,0.03035
1562.50068,0.07640
1561.01089,0.05552
1559.52110,0.06087
1558.03131,0.06432
1556.54152,0.05518
1555.05173,0.09947
1553.56195,0.05255
1552.07216,0.08525
1550.58237,0.06169
1549.09258,0.04011
1547.60279,0.05059
1546.11300,0.07081
1544.62322,0.06389
1543.13343,0.04341
1541.64364,0.04044
1540.15385,0.03896
1538.66406,0.03752
1537.17427,0.01232
1535.68448,0.02177
1534.19470,0.02349
1532.70491,0.04659
1531.21512,0.05420
1529.72533,0.00749
1528.23554,0.02778
1526.74575,0.05976
1525.25597,0.03353
1523.76618,0.03646
1522.27639,0.02292
1520.78660,0.01232
1519.29681,0.02574
1517.80702,0.03725
1516.31724,0.03036
1514.82745,0.06038
1513.33766,0.05161
1511.84787,0.04287
1510.35808,0.06814
1508.86829,0.02550
1507.37850,0.01784
1505.88872,0.01798
1504.39893,0.01232
1502.90914,0.04695
1501.41935,0.05443
1499.92956,0.05807
1498.43977,0.11803
1496.94999,0.12174
1495.46020,0.17400
1493.97041,0.21369
1492.48062,0.24467
1490.99083,0.31257
1489.50104,0.34362
1488.01125,0.39994
1486.52147,0.45629
1485.03168,0.55733
1483.54189,0.64190
1482.05210,0.70904
1480.56231,0.81600
1479.07252,0.95503
1477.58274,1.07661
1476.09295,1.17494
1474.60316,1.24225
1473.11337,1.33385
1471.62358,1.35949
1470.13379,1.33857
1468.64401,1.26819
1467.15422,1.22889
1465.66443,1.23914
1464.17464,1.24942
1462.68485,1.11123
1461.19506,1.10022
1459.70527,1.06692
1458.21549,0.96377
1456.72570,0.91404
1455.23591,0.89929
1453.74612,0.82536
1452.25633,0.80583
1450.76654,0.71741
1449.27676,0.75229
1447.78697,0.72703
1446.29718,0.68628
1444.80739,0.62809
1443.31760,0.56993
1441.82781,0.53316
1440.33802,0.37898
1438.84824,0.38207
1437.35845,0.33182
1435.86866,0.35148
1434.37887,0.38767
1432.88908,0.32393
1431.39929,0.36214
1429.90951,0.30429
1428.41972,0.30762
1426.92993,0.30904
1425.44014,0.35515
1423.95035,0.34742
1422.46056,0.33973
1420.97078,0.37817
1419.48099,0.36618
1417.99120,0.39693
1416.50141,0.39665
1415.01162,0.38670
1413.52183,0.46220
1412.03204,0.39990
1410.54226,0.44732
1409.05247,0.38801
1407.56268,0.40444
1406.07289,0.38790
1404.58310,0.38207
1403.09331,0.37627
1401.60353,0.39478
1400.11374,0.45894
1398.62395,0.47071
1397.13416,0.51844
1395.64437,0.52932
1394.15458,0.51208
1392.66479,0.54050
1391.17501,0.54177
1389.68522,0.55472
1388.19543,0.58421
1386.70564,0.57637
1385.21585,0.56855
1383.72606,0.53020
1382.23628,0.53362
1380.74649,0.49825
1379.25670,0.50077
1377.76691,0.48197
1376.27712,0.52337
1374.78733,0.59685
1373.29755,0.67327
1371.80776,0.72448
1370.31797,0.84465
1368.82818,0.92020
1367.33839,0.99578
1365.84860,1.19564
1364.35881,1.35088
1362.86903,1.59448
1361.37924,1.63041
1359.88945,1.64599
1358.39966,1.71498
1356.90987,1.72772
1355.42008,1.72690
1353.93030,1.73194
1352.44051,1.66470
1350.95072,1.59749
1349.46093,1.65602
1347.97114,1.48745
1346.48135,1.20439
1344.99156,1.13878
1343.50178,1.03050
1342.01199,0.91934
1340.52220,0.79365
1339.03241,0.71167
1337.54262,0.76950
1336.05283,0.75602
1334.56305,0.74258
1333.07326,0.67530
1331.58347,0.60805
1330.09368,0.60102
1328.60389,0.58819
1327.11410,0.53949
1325.62432,0.55100
1324.13453,0.53537
1322.64474,0.54500
1321.15495,0.53235
1319.66516,0.49984
1318.17537,0.46735
1316.68558,0.48780
1315.19580,0.45199
1313.70601,0.45989
1312.21622,0.38630
1310.72643,0.35350
1309.23664,0.37412
1307.74685,0.35886
1306.25707,0.37858
1304.76728,0.38814
1303.27749,0.39774
1301.78770,0.31273
1300.29791,0.33356
1298.80812,0.38354
1297.31834,0.40734
1295.82855,0.40789
1294.33876,0.43953
1292.84897,0.42946
1291.35918,0.44564
1289.86939,0.39536
1288.37960,0.34512
1286.88982,0.40411
1285.40003,0.45342
1283.91024,0.46977
1282.42045,0.46189
1280.93066,0.45307
1279.44087,0.46466
1277.95109,0.42679
1276.46130,0.46661
1274.97151,0.50209
1273.48172,0.53760
1271.99193,0.52413
1270.50214,0.51943
1269.01235,0.59630
1267.52257,0.62079
1266.03278,0.63657
1264.54299,0.66016
1263.05320,0.69931
1261.56341,0.71180
1260.07362,0.72433
1258.58384,0.71311
1257.09405,0.65824
1255.60426,0.72377
1254.11447,0.71654
1252.62468,0.74913
1251.13489,0.71964
1249.64511,0.65427
1248.15532,0.55011
1246.66553,0.50422
1245.17574,0.45837
1243.68595,0.46981
1242.19616,0.45703
1240.70637,0.46175
1239.21659,0.35876
1237.72680,0.32085
1236.23701,0.29364
1234.74722,0.27714
1233.25743,0.26747
1231.76764,0.25784
1230.27786,0.29482
1228.78807,0.25517
1227.29828,0.28931
1225.80849,0.22449
1224.31870,0.14902
1222.82891,0.16289
1221.33912,0.15058
1219.84934,0.16160
1218.35955,0.17266
1216.86976,0.17986
1215.37997,0.22787
1213.89018,0.23903
1212.40039,0.24440
1210.91061,0.24106
1209.42082,0.19311
1207.93103,0.20101
1206.44124,0.20894
1204.95145,0.12421
1203.46166,0.08902
1201.97188,0.08395
1200.48209,0.10997
1198.99230,0.11759
1197.50251,0.03983
1196.01272,0.03878
1194.52293,0.04116
1193.03314,0.04357
1191.54336,0.06397
1190.05357,0.03685
1188.56378,0.04180
1187.07399,0.01280
1185.58420,0.05955
1184.09441,0.06945
1182.60463,0.07647
1181.11484,0.08353
1179.62505,0.09061
1178.13526,0.01232
1176.64547,0.08159
1175.15568,0.06741
1173.66589,0.04842
1172.17611,0.04887
1170.68632,0.05130
1169.19653,0.05376
1167.70674,0.03103
1166.21695,0.08209
1164.72716,0.04389
1163.23738,0.08628
1161.74759,0.10541
1160.25780,0.04402
1158.76801,0.04284
1157.27822,0.04169
1155.78843,0.04543
1154.29865,0.01232
1152.80886,0.03392
1151.31907,0.03129
1149.82928,0.09081
1148.33949,0.10863
1146.84970,0.09445
1145.35991,0.08031
1143.87013,0.03126
1142.38034,0.16180
1140.89055,0.10506
1139.40076,0.14152
1137.91097,0.23140
1136.42118,0.27861
1134.93140,0.26131
1133.44161,0.24405
1131.95182,0.30980
1130.46203,0.39403
1128.97224,0.40161
1127.48245,0.41312
1125.99266,0.41300
1124.50288,0.42846
1123.01309,0.45850
1121.52330,0.48858
1120.03351,0.52743
1118.54372,0.54399
1117.05393,0.54700
1115.56415,0.55004
1114.07436,0.58805
1112.58457,0.58048
1111.09478,0.57295
1109.60499,0.60136
1108.11520,0.61137
1106.62542,0.65149
1105.13563,0.76251
1103.64584,0.87744
1102.15605,0.93708
1100.66626,0.93027
1099.17647,0.92350
1097.68668,1.02983
1096.19690,1.06340
1094.70711,0.96112
1093.21732,1.09571
1091.72753,1.16821
1090.23774,1.16212
1088.74795,1.15607
1087.25817,1.28982
1085.76838,1.33430
1084.27859,1.32932
1082.78880,1.35738
1081.29901,1.41556
1079.80922,1.38642
1078.31943,1.42962
1076.82965,1.47285
1075.33986,1.47973
1073.85007,1.63805
1072.36028,1.49358
1070.87049,1.59082
1069.38070,1.63083
1067.89092,1.66893
1066.40113,1.70707
1064.91134,1.51035
1063.42155,1.48935
1061.93176,1.41112
1060.44197,1.34942
1058.95219,1.21302
1057.46240,1.17905
1055.97261,1.14511
1054.48282,1.12723
1052.99303,0.98320
1051.50324,0.92170
1050.01345,0.89810
1048.52367,0.84153
1047.03388,0.78741
1045.54409,0.73333
1044.05430,0.71763
1042.56451,0.63499
1041.07472,0.60285
1039.58494,0.51736
1038.09515,0.46977
1036.60536,0.46879
1035.11557,0.46785
1033.62578,0.45335
1032.13599,0.41269
1030.64620,0.38564
1029.15642,0.40716
1027.66663,0.40056
1026.17684,0.39400
1024.68705,0.49036
1023.19726,0.63820
1021.70747,0.76568
1020.21769,0.93882
1018.72790,1.02755
1017.23811,1.12165
1015.74832,1.21579
1014.25853,1.44536
1012.76874,1.56722
1011.27896,1.79589
1009.78917,1.91491
1008.29938,2.00000
1006.80959,1.92497
1005.31980,1.84998
1003.83001,1.68087
1002.34022,1.60109
1000.85044,1.56016
999.36065,1.36398
997.87086,1.37360
996.38107,1.38325
994.89128,1.49097
993.40149,1.39780
991.91171,1.31826
990.42192,1.32126
988.93213,1.31749
987.44234,1.32735
985.95255,1.33724
984.46276,1.30640
982.97297,1.23871
981.48319,1.26714
979.99340,1.16458
978.50361,1.13970
977.01382,1.11485
975.52403,1.18031
974.03424,1.07594
972.54446,1.07255
971.05467,1.02843
969.56488,1.01831
968.07509,0.96067
966.58530,0.90306
965.09551,0.89596
963.60573,0.90248
962.11594,0.84497
960.62615,0.87971
959.13636,0.79121
957.64657,0.70275
956.15678,0.65121
954.66699,0.70646
953.17721,0.72001
951.68742,0.70351
950.19763,0.70549
948.70784,0.70750
947.21805,0.68721
945.72826,0.68153
944.23848,0.74187
942.74869,0.72946
941.25890,0.79764
939.76911,0.82751
938.27932,0.85742
936.78953,0.84709
935.29974,0.83096
933.80996,0.76925
932.32017,0.82793
930.83038,0.90411
929.34059,0.98033
927.85080,0.91488
926.36101,0.84460
924.87123,0.85492
923.38144,0.83713
921.89165,0.87954
920.40186,0.92200
918.91207,0.93925
917.42228,0.89247
915.93250,0.89426
914.44271,0.92811
912.95292,0.90667
911.46313,0.88527
909.97334,0.97455
908.48355,1.01048
906.99376,1.01441
905.50398,0.95335
904.01419,0.96512
902.52440,0.97692
901.03461,0.92179
899.54482,0.98219
898.05503,0.99021
896.56525,1.11862
895.07546,1.09468
893.58567,1.07077
892.09588,1.02943
890.60609,1.10848
889.11630,1.05847
887.62651,1.03470
886.13673,1.05512
884.64694,1.07558
883.15715,1.09948
881.66736,1.02731
880.17757,1.00954
878.68778,1.07721
877.19800,1.14492
875.70821,1.09230
874.21842,1.06981
872.72863,1.17839
871.23884,1.16373
869.74905,1.16415
868.25927,1.16460
866.76948,1.15587
865.27969,1.18502
863.78990,1.32001
862.30011,1.19005
860.81032,1.16835
859.32053,1.14669
857.83075,1.08769
856.34096,0.98213
854.85117,1.04744
853.36138,0.93419
851.87159,0.85591
850.38180,0.77767
848.89202,0.71111
847.40223,0.57179
845.91244,0.50627
844.42265,0.49757
842.93286,0.48890
841.44307,0.41960
839.95329,0.38721
838.46350,0.44804
836.97371,0.38273
835.48392,0.37519
833.99413,0.36770
832.50434,0.38887
831.01455,0.40425
829.52477,0.37890
828.03498,0.32738
826.54519,0.31374
825.05540,0.30014
823.56561,0.22348
822.07582,0.14880
820.58604,0.14404
819.09625,0.14174
817.60646,0.13947
816.11667,0.06881
814.62688,0.05933
813.13709,0.05182
811.64730,0.01232
810.15752,0.02317
808.66773,0.03406
807.17794,0.04498
805.68815,0.03361
804.19836,0.05430
802.70857,0.07357
801.21879,0.09287
799.72900,0.13017
798.23921,0.23932
796.74942,0.33686
795.25963,0.40144
793.76984,0.46605
792.28006,0.49575
790.79027,0.54101
789.30048,0.65717
787.81069,0.63553
786.32090,0.65760
784.83111,0.67971
783.34132,0.71252
781.85154,0.67840
780.36175,0.65791
778.87196,0.69762
777.38217,0.73737
775.89238,0.86645
774.40259,0.95188
772.91281,0.89564
771.42302,0.91709
769.93323,0.93856
768.44344,1.02802
766.95365,0.94474
765.46386,0.94108
763.97407,0.92969
762.48429,0.87903
760.99450,0.82841
759.50471,0.67735
758.01492,0.60981
756.52513,0.54909
755.03534,0.43939
753.54556,0.32973
752.05577,0.29726
750.56598,0.22504
749.07619,0.16546
747.58640,0.17532
746.09661,0.18521
744.60683,0.12768
743.11704,0.10803
741.62725,0.10783
740.13746,0.09602
738.64767,0.08424
737.15788,0.01232
735.66809,0.03506
734.17831,0.10442
732.68852,0.10296
731.19873,0.10153
729.70894,0.05257
728.21915,0.04151
726.72936,0.01301
725.23958,0.09040
723.74979,0.05864
722.26000,0.02692
720.77021,0.09859
719.28042,0.06742
717.79063,0.01007
716.30084,0.03499
714.81106,0.05994
713.32127,0.01359
711.83148,0.02163
710.34169,0.07726
708.85190,0.09604
707.36211,0.11485
705.87233,0.05605
704.38254,0.06232
702.89275,0.01232
701.40296,0.03912
699.91317,0.06596
698.42338,0.08021
696.93360,0.15855
695.44381,0.19228
693.95402,0.19208
692.46423,0.19190
690.97444,0.21603
689.48465,0.20913
687.99486,0.24692
686.50508,0.24591
685.01529,0.24494
683.52550,0.28768
682.03571,0.25377
680.54592,0.24223
679.05613,0.22586
677.56635,0.20953
676.07656,0.22914
674.58677,0.19541
673.09698,0.15783
671.60719,0.16541
670.11740,0.17303
668.62761,0.11905
667.13783,0.06122
665.64804,0.06069
664.15825,0.06020
662.66846,0.09274
661.17867,0.06126
659.68888,0.07057
658.19910,0.10127
656.70931,0.13201
655.21952,0.12686
653.72973,0.10719
652.23994,0.17103
650.75015,0.17715
649.26037,0.18331
647.77058,0.21716
646.28079,0.14234
644.79100,0.09182
643.30121,0.10393
641.81142,0.11608
640.32163,0.08702
638.83185,0.07643
637.34206,0.04743
635.85227,0.03885
634.36248,0.03030
632.87269,0.04967
631.38290,0.08558
629.89312,0.11958
628.40333,0.09052
626.91354,0.06150
625.42375,0.10919
623.93396,0.17341
622.44417,0.15663
620.95438,0.13988
619.46460,0.11005
617.97481,0.01232
616.48502,0.09584
614.99523,0.10515
613.50544,0.11449
612.01565,0.13890
610.52587,0.14782
609.03608,0.18396
607.54629,0.17548
606.05650,0.16703
604.56671,0.19064
603.07692,0.15897
601.58714,0.16130
600.09735,0.16367
598.60756,0.21654
597.11777,0.08503
595.62798,0.05741
594.13819,0.05700
592.64840,0.05662
591.15862,0.05628
589.66883,0.07150
588.17904,0.12461
586.68925,0.11807
585.19946,0.11155
583.70967,0.15409
582.21989,0.13260
580.73010,0.12376
579.24031,0.11495
577.75052,0.18383
576.26073,0.19354
574.77094,0.15184
573.28115,0.19558
571.79137,0.23936
570.30158,0.16185
568.81179,0.30179
567.32200,0.33402
565.83221,0.36629
564.34242,0.41995
562.85264,0.36493
561.36285,0.47883
559.87306,0.51318
558.38327,0.54756
556.89348,0.56644
555.40369,0.57080
553.91391,0.58005
552.42412,0.58933
550.93433,0.57729
549.44454,0.63323
547.95475,0.68920
546.46496,0.69716
544.97517,0.70516
543.48539,0.79812
541.99560,0.96585
540.50581,0.90115
539.01602,0.83649
537.52623,0.73352
536.03644,0.71697
534.54666,0.72569
533.05687,0.73250
531.56708,0.73935
530.07729,0.69867
528.58750,0.67550
527.09771,0.67565
525.60792,0.67584
524.11814,0.65471
522.62835,0.62003
521.13856,0.56791
519.64877,0.52941
518.15898,0.49094
516.66919,0.43310
515.17941,0.45003
513.68962,0.42962
512.19983,0.40925
510.71004,0.41852
509.22025,0.43558
507.73046,0.46045
506.24068,0.49165
504.75089,0.52290
503.26110,0.43624
501.77131,0.49133
500.28152,0.54306
498.79173,0.59482
497.30194,0.48792
495.81216,0.45385
494.32237,0.51930
492.83258,0.58478
491.34279,0.55567
489.85300,0.50427
488.36321,0.48881
486.87343,0.45980
485.38364,0.43082
483.89385,0.39799
482.40406,0.29435
480.91427,0.23781
479.42448,0.18130
477.93469,0.08261
476.44491,0.14119
474.95512,0.12993
473.46533,0.11869
471.97554,0.11914
470.48575,0.07594
468.99596,0.08908
467.50618,0.07118
466.01639,0.05333
464.52660,0.03744
463.03681,0.08177
461.54702,0.04703
460.05723,0.01232
458.56745,0.06064
457.07766,0.16529
455.58787,0.19426
454.09808,0.22327
452.60829,0.16301
451.11850,0.24741
449.62871,0.23915
448.13893,0.23093
446.64914,0.37464
445.15935,0.52809
443.66956,0.55539
442.17977,0.58467
440.68998,0.61398
439.20020,0.63751
437.71041,0.79695
436.22062,0.86034
434.73083,0.92376
433.24104,1.01730
431.75125,1.24386
430.26146,1.28117
428.77168,1.31853
427.28189,1.42677
425.79210,1.42730
424.30231,1.38177
422.81252,1.33627
421.32273,1.32721
419.83295,1.20558
418.34316,1.19367
416.85337,1.18180
415.36358,0.96710
413.87379,0.91647
412.38400,0.82025
410.89422,0.72407
409.40443,0.77448
407.91464,0.80940
406.42485,0.72206
404.93506,0.67745
403.44527,0.63288
401.95548,0.63494
400.46570,0.59432
398.97591,0.57654
397.48612,0.55880
395.99633,0.57361
394.50654,0.60301
393.01675,0.57906
391.52697,0.55515
390.03718,0.44586
388.54739,0.38804
387.05760,0.41810
385.56781,0.44819
384.07802,0.63021
382.58824,0.52594
381.09845,0.50130
379.60866,0.47669
378.11887,0.46667
376.62908,0.40816
375.13929,0.36957
373.64950,0.33102
372.15972,0.30173
370.66993,0.25597
369.18014,0.21170
367.69035,0.16747
366.20056,0.10142
364.71077,0.18586
363.22099,0.18686
361.73120,0.18790
360.24141,0.18023
358.75162,0.15124
357.26183,0.18101
355.77204,0.21081
354.28225,0.17611
352.79247,0.15987
351.30268,0.18250
349.81289,0.20516
348.32310,0.18612
346.83331,0.08267
345.34352,0.09974
343.85374,0.11686
342.36395,0.13400
340.87416,0.17739
339.38437,0.17762
337.89458,0.17788
336.40479,0.18934
334.91501,0.09892
333.42522,0.05560
331.93543,0.01232
330.44564,0.02735
328.95585,0.07346
327.46606,0.10554
325.97627,0.13765
324.48649,0.09942
322.99670,0.13258
321.50691,0.13665
320.01712,0.14075
318.52733,0.19925
317.03754,0.20051
315.54776,0.14794
314.05797,0.09540
312.56818,0.01232
311.07839,0.02569
309.58860,0.02549
308.09881,0.02534
306.60902,0.07860
305.11924,0.20663
303.62945,0.14834
302.13966,0.09008
300.64987,0.02118
299.16008,0.01232
