1778.52000,0.00095
1777.03021,0.00949
1775.54042,0.01203
1774.05063,0.01977
1772.56085,0.03874
1771.07106,0.01727
1769.58127,0.04060
1768.09148,0.02350
1766.60169,0.02279
1765.11190,0.03674
1763.62212,0.04384
1762.13233,0.02514
1760.64254,0.06244
1759.15275,0.04552
1757.66296,0.03983
1756.17317,0.02039
1754.68339,0.04275
1753.19360,0.04189
1751.70381,0.03159
1750.21402,0.02390
1748.72423,0.04035
1747.23444,0.04564
1745.74465,0.06905
1744.25487,0.05546
1742.76508,0.06945
1741.27529,0.05765
1739.78550,0.07171
1738.29571,0.02466
1736.80592,0.06633
1735.31614,0.03313
1733.82635,0.02492
1732.33656,0.04775
1730.84677,0.02583
1729.35698,0.04527
1727.86719,0.04838
1726.37740,0.01192
1724.88762,0.01940
1723.39783,0.00711
1721.90804,0.01393
1720.41825,0.05436
1718.92846,0.03283
1717.43867,0.03458
1715.94889,0.06649
1714.45910,0.05281
1712.96931,0.03140
1711.47952,0.05308
1709.98973,0.03862
1708.49994,0.04744
1707.01016,0.07137
1705.52037,0.09532
1704.03058,0.09907
1702.54079,0.07444
1701.05100,0.11098
1699.56121,0.12085
1698.07142,0.14539
1696.58164,0.11485
1695.09185,0.13860
1693.60206,0.14945
1692.11227,0.15087
1690.62248,0.13682
1689.13269,0.17963
1687.64291,0.17081
1686.15312,0.22316
1684.66333,0.21440
1683.17354,0.20739
1681.68375,0.16597
1680.19396,0.18917
1678.70417,0.17967
1677.21439,0.18140
1675.72460,0.16163
1674.23481,0.17290
1672.74502,0.17730
1671.25523,0.16366
1669.76544,0.22065
1668.27566,0.21224
1666.78587,0.18577
1665.29608,0.18258
1663.80629,0.15617
1662.31650,0.15908
1660.82671,0.19732
1659.33693,0.14431
1657.84714,0.13267
1656.35735,0.11761
1654.86756,0.11464
1653.37777,0.14529
1651.88798,0.15185
1650.39819,0.13003
1648.90841,0.12977
1647.41862,0.12265
1645.92883,0.11126
1644.43904,0.09990
1642.94925,0.14626
1641.45946,0.13496
1639.96968,0.14522
1638.47989,0.10212
1636.99010,0.15464
1635.50031,0.14174
1634.01052,0.10993
1632.52073,0.16082
1631.03094,0.10582
1629.54116,0.12835
1628.05137,0.18278
1626.56158,0.14510
1625.07179,0.16428
1623.58200,0.20588
1622.09221,0.19585
1620.60243,0.19790
1619.11264,0.17587
1617.62285,0.18660
1616.13306,0.15947
1614.64327,0.14012
1613.15348,0.20519
1611.66370,0.13510
1610.17391,0.12015
1608.68412,0.16120
1607.19433,0.13771
1605.70454,0.14696
1604.21475,0.15108
1602.72496,0.15523
1601.23518,0.13444
1599.74539,0.12660
1598.25560,0.14290
1596.76581,0.11789
1595.27602,0.12564
1593.78623,0.12309
1592.29645,0.08871
1590.80666,0.07675
1589.31687,0.08377
1587.82708,0.05723
1586.33729,0.06517
1584.84750,0.04041
1583.35771,0.04755
1581.86793,0.07453
1580.37814,0.09637
1578.88835,0.06744
1577.39856,0.06867
1575.90877,0.04755
1574.41898,0.02130
1572.92920,0.02349
1571.43941,0.01710
1569.94962,0.03528
1568.45983,0.05350
1566.97004,0.04892
1565.48025,0.01424
1563.99047,0.02437
1562.50068,0.00095
1561.01089,0.02170
1559.52110,0.04076
1558.03131,0.05900
1556.54152,0.03421
1555.05173,0.06456
1553.56195,0.03380
1552.07216,0.05991
1550.58237,0.05247
1549.09258,0.01405
1547.60279,0.05748
1546.11300,0.05443
1544.62322,0.07639
1543.13343,0.03896
1541.64364,0.04032
1540.15385,0.02233
1538.66406,0.00437
1537.17427,0.02132
1535.68448,0.01074
1534.19470,0.02172
1532.70491,0.01121
1531.21512,0.02053
1529.72533,0.02816
1528.23554,0.03927
1526.74575,0.03060
1525.25597,0.00733
1523.76618,0.02542
1522.27639,0.04785
1520.78660,0.01433
1519.29681,0.00754
1517.80702,0.04556
1516.31724,0.00095
1514.82745,0.03255
1513.33766,0.03533
1511.84787,0.03814
1510.35808,0.00095
1508.86829,0.01831
1507.37850,0.00298
1505.88872,0.02556
1504.39893,0.02493
1502.90914,0.00970
1501.41935,0.05563
1499.92956,0.02065
1498.43977,0.06234
1496.94999,0.08597
1495.46020,0.12514
1493.97041,0.15401
1492.48062,0.20012
1490.99083,0.26005
1489.50104,0.31398
1488.01125,0.34254
1486.52147,0.37113
1485.03168,0.40880
1483.54189,0.53174
1482.05210,0.61769
1480.56231,0.66233
1479.07252,0.75609
1477.58274,0.87055
1476.09295,0.90840
1474.60316,1.01173
1473.11337,1.13317
1471.62358,1.12806
1470.13379,1.11953
1468.64401,1.03785
1467.15422,0.91142
1465.66443,0.91375
1464.17464,0.91612
1462.68485,0.86039
1461.19506,0.86583
1459.70527,0.79294
1458.21549,0.73214
1456.72570,0.66104
1455.23591,0.62011
1453.74612,0.57318
1452.25633,0.55642
1450.76654,0.47510
1449.27676,0.48768
1447.78697,0.48566
1446.29718,0.44147
1444.80739,0.39817
1443.31760,0.35490
1441.82781,0.31080
1440.33802,0.26243
1438.84824,0.21323
1437.35845,0.23123
1435.86866,0.21051
1434.37887,0.18637
1432.88908,0.18982
1431.39929,0.19933
1429.90951,0.14945
1428.41972,0.16075
1426.92993,0.17552
1425.44014,0.22390
1423.95035,0.21979
1422.46056,0.21571
1420.97078,0.27021
1419.48099,0.25931
1417.99120,0.25188
1416.50141,0.24448
1415.01162,0.29566
1413.52183,0.25216
1412.03204,0.25518
1410.54226,0.23844
1409.05247,0.26736
1407.56268,0.25067
1406.07289,0.31496
1404.58310,0.31082
1403.09331,0.30672
1401.60353,0.32632
1400.11374,0.33477
1398.62395,0.37855
1397.13416,0.39911
1395.64437,0.44467
1394.15458,0.48510
1392.66479,0.54364
1391.17501,0.55313
1389.68522,0.55232
1388.19543,0.55326
1386.70564,0.54218
1385.21585,0.53113
1383.72606,0.53991
1382.23628,0.49793
1380.74649,0.51452
1379.25670,0.50532
1377.76691,0.56762
1376.27712,0.54642
1374.78733,0.67509
1373.29755,0.69012
1371.80776,0.81540
1370.31797,1.00099
1368.82818,1.10137
1367.33839,1.20177
1365.84860,1.30135
1364.35881,1.46726
1362.86903,1.59876
1361.37924,1.75956
1359.88945,1.87993
1358.39966,1.87461
1356.90987,1.95198
1355.42008,1.90108
1353.93030,1.70728
1352.44051,1.64051
1350.95072,1.57377
1349.46093,1.50836
1347.97114,1.38873
1346.48135,1.14944
1344.99156,1.06948
1343.50178,0.94134
1342.01199,0.85025
1340.52220,0.73508
1339.03241,0.66386
1337.54262,0.64089
1336.05283,0.61364
1334.56305,0.58643
1333.07326,0.56959
1331.58347,0.47785
1330.09368,0.43696
1328.60389,0.36165
1327.11410,0.36129
1325.62432,0.37646
1324.13453,0.31243
1322.64474,0.30356
1321.15495,0.32226
1319.66516,0.30742
1318.17537,0.29260
1316.68558,0.26835
1315.19580,0.28288
1313.70601,0.27505
1312.21622,0.23108
1310.72643,0.21642
1309.23664,0.23280
1307.74685,0.24231
1306.25707,0.20966
1304.76728,0.21666
1303.27749,0.22369
1301.78770,0.24108
1300.29791,0.22319
1298.80812,0.21223
1297.31834,0.20130
1295.82855,0.22915
1294.33876,0.24497
1292.84897,0.24360
1291.35918,0.23710
1289.86939,0.23235
1288.37960,0.22763
1286.88982,0.25739
1285.40003,0.35435
1283.91024,0.30667
1282.42045,0.30208
1280.93066,0.28976
1279.44087,0.33001
1277.95109,0.30312
1276.46130,0.29435
1274.97151,0.29594
1273.48172,0.29756
1271.99193,0.39222
1270.50214,0.38615
1269.01235,0.42748
1267.52257,0.45161
1266.03278,0.39139
1264.54299,0.41128
1263.05320,0.47857
1261.56341,0.48690
1260.07362,0.49526
1258.58384,0.48686
1257.09405,0.53963
1255.60426,0.53991
1254.11447,0.52299
1252.62468,0.49835
1251.13489,0.46342
1249.64511,0.42679
1248.15532,0.37383
1246.66553,0.35922
1245.17574,0.34465
1243.68595,0.32881
1242.19616,0.35606
1240.70637,0.31876
1239.21659,0.28407
1237.72680,0.25114
1236.23701,0.22254
1234.74722,0.26803
1233.25743,0.21754
1231.76764,0.16707
1230.27786,0.18252
1228.78807,0.18680
1227.29828,0.18767
1225.80849,0.13259
1224.31870,0.06722
1222.82891,0.11554
1221.33912,0.08984
1219.84934,0.10851
1218.35955,0.12722
1216.86976,0.16189
1215.37997,0.20778
1213.89018,0.17879
1212.40039,0.11280
1210.91061,0.11315
1209.42082,0.09717
1207.93103,0.09931
1206.44124,0.10147
1204.95145,0.13122
1203.46166,0.07662
1201.97188,0.04702
1200.48209,0.07858
1198.99230,0.09899
1197.50251,0.02040
1196.01272,0.07445
1194.52293,0.03768
1193.03314,0.00095
1191.54336,0.03797
1190.05357,0.02163
1188.56378,0.00188
1187.07399,0.02778
1185.58420,0.05198
1184.09441,0.05384
1182.60463,0.06476
1181.11484,0.07572
1179.62505,0.05613
1178.13526,0.02367
1176.64547,0.00587
1175.15568,0.06388
1173.66589,0.04701
1172.17611,0.06030
1170.68632,0.05511
1169.19653,0.04996
1167.70674,0.00910
1166.21695,0.05696
1164.72716,0.02908
1163.23738,0.00037
1161.74759,0.03319
1160.25780,0.01351
1158.76801,0.00721
1157.27822,0.00095
1155.78843,0.01983
1154.29865,0.05855
1152.80886,0.02239
1151.31907,0.03362
1149.82928,0.02938
1148.33949,0.12678
1146.84970,0.10495
1145.35991,0.08316
1143.87013,0.03082
1142.38034,0.09390
1140.89055,0.11224
1139.40076,0.17108
1137.91097,0.17139
1136.42118,0.21652
1134.93140,0.23024
1133.44161,0.24400
1131.95182,0.24530
1130.46203,0.28538
1128.97224,0.35477
1127.48245,0.36392
1125.99266,0.40668
1124.50288,0.42536
1123.01309,0.40575
1121.52330,0.38617
1120.03351,0.42303
1118.54372,0.47197
1117.05393,0.46755
1115.56415,0.47178
1114.07436,0.50704
1112.58457,0.49239
1111.09478,0.47776
1109.60499,0.53378
1108.11520,0.52267
1106.62542,0.56153
1105.13563,0.69428
1103.64584,0.73406
1102.15605,0.77818
1100.66626,0.77066
1099.17647,0.76318
1097.68668,0.80997
1096.19690,0.87230
1094.70711,0.89161
1093.21732,0.91094
1091.72753,0.94150
1090.23774,0.95831
1088.74795,0.97516
1087.25817,0.99462
1085.76838,1.08730
1084.27859,1.20068
1082.78880,1.25726
1081.29901,1.19332
1079.80922,1.11133
1078.31943,1.15422
1076.82965,1.19715
1075.33986,1.24958
1073.85007,1.27621
1072.36028,1.38898
1070.87049,1.36487
1069.38070,1.43895
1067.89092,1.46656
1066.40113,1.49421
1064.91134,1.41425
1063.42155,1.29213
1061.93176,1.21826
1060.44197,1.07639
1058.95219,1.02325
1057.46240,0.99511
1055.97261,0.96701
1054.48282,0.92688
1052.99303,0.87128
1051.50324,0.77093
1050.01345,0.69387
1048.52367,0.70122
1047.03388,0.65522
1045.54409,0.60925
1044.05430,0.55728
1042.56451,0.48898
1041.07472,0.41985
1039.58494,0.38434
1038.09515,0.35747
1036.60536,0.32718
1035.11557,0.29693
1033.62578,0.33215
1032.13599,0.29335
1030.64620,0.30624
1029.15642,0.37256
1027.66663,0.37131
1026.17684,0.37009
1024.68705,0.48816
1023.19726,0.56580
1021.70747,0.70804
1020.21769,0.81588
1018.72790,0.90996
1017.23811,1.02303
1015.74832,1.13612
1014.25853,1.27336
1012.76874,1.44076
1011.27896,1.62456
1009.78917,1.86006
1008.29938,2.00000
1006.80959,1.96776
1005.31980,1.93554
1003.83001,1.72253
1002.34022,1.62235
1000.85044,1.50757
999.36065,1.41176
997.87086,1.33880
996.38107,1.26587
994.89128,1.34582
993.40149,1.37672
991.91171,1.31120
990.42192,1.27672
988.93213,1.24916
987.44234,1.25262
985.95255,1.25612
984.46276,1.14426
982.97297,1.15213
981.48319,1.14366
979.99340,1.06979
978.50361,1.08636
977.01382,1.10296
975.52403,1.08084
974.03424,0.94940
972.54446,0.94371
971.05467,0.79510
969.56488,0.79378
968.07509,0.79119
966.58530,0.78863
965.09551,0.71335
963.60573,0.60020
962.11594,0.63434
960.62615,0.68142
959.13636,0.60626
957.64657,0.53113
956.15678,0.47756
954.66699,0.52391
953.17721,0.55134
951.68742,0.48064
950.19763,0.49780
948.70784,0.51500
947.21805,0.49520
945.72826,0.52795
944.23848,0.55385
942.74869,0.52209
941.25890,0.52996
939.76911,0.56069
938.27932,0.59145
936.78953,0.73117
935.29974,0.72626
933.80996,0.64388
932.32017,0.63300
930.83038,0.68071
929.34059,0.72844
927.85080,0.67460
926.36101,0.70518
924.87123,0.61524
923.38144,0.64846
921.89165,0.64254
920.40186,0.63665
918.91207,0.64757
917.42228,0.63701
915.93250,0.66953
914.44271,0.65730
912.95292,0.64037
911.46313,0.62347
909.97334,0.69142
908.48355,0.66812
906.99376,0.70944
905.50398,0.70687
904.01419,0.69486
902.52440,0.68289
901.03461,0.66233
899.54482,0.67280
898.05503,0.59289
896.56525,0.81956
895.07546,0.82066
893.58567,0.82179
892.09588,0.74114
890.60609,0.67516
889.11630,0.73924
887.62651,0.72155
886.13673,0.77967
884.64694,0.83781
883.15715,0.74185
881.66736,0.75442
880.17757,0.74464
878.68778,0.79731
877.19800,0.85002
875.70821,0.87132
874.21842,0.87888
872.72863,0.89681
871.23884,0.92423
869.74905,0.94093
868.25927,0.95765
866.76948,0.93523
865.27969,0.97053
863.78990,0.99812
862.30011,0.95082
860.81032,0.98578
859.32053,1.02078
857.83075,0.96324
856.34096,0.99270
854.85117,0.90078
853.36138,0.81491
851.87159,0.77687
850.38180,0.73886
848.89202,0.57560
847.40223,0.45025
845.91244,0.44032
844.42265,0.43042
842.93286,0.42055
841.44307,0.39521
839.95329,0.33891
838.46350,0.31363
836.97371,0.29184
835.48392,0.30322
833.99413,0.31464
832.50434,0.30671
831.01455,0.37631
829.52477,0.34606
828.03498,0.29689
826.54519,0.25594
825.05540,0.21501
823.56561,0.23655
822.07582,0.19181
820.58604,0.11439
819.09625,0.09511
817.60646,0.07587
816.11667,0.03729
814.62688,0.08571
813.13709,0.03427
811.64730,0.00095
810.15752,0.01746
808.66773,0.03400
807.17794,0.05617
805.68815,0.05770
804.19836,0.06099
802.70857,0.08110
801.21879,0.10124
799.72900,0.09256
798.23921,0.20619
796.74942,0.27077
795.25963,0.29190
793.76984,0.31306
792.28006,0.38204
790.79027,0.48033
789.30048,0.54420
787.81069,0.55300
786.32090,0.55193
784.83111,0.55088
783.34132,0.56322
781.85154,0.62639
780.36175,0.66376
778.87196,0.66025
777.38217,0.65678
775.89238,0.71922
774.40259,0.70935
772.91281,0.70038
771.42302,0.70909
769.93323,0.71783
768.44344,0.79333
766.95365,0.73712
765.46386,0.76361
763.97407,0.70574
762.48429,0.63671
760.99450,0.56771
759.50471,0.53490
758.01492,0.48060
756.52513,0.39533
755.03534,0.33464
753.54556,0.27397
752.05577,0.20085
750.56598,0.19665
749.07619,0.08398
747.58640,0.07683
746.09661,0.06971
744.60683,0.06822
743.11704,0.04953
741.62725,0.08255
740.13746,0.05488
738.64767,0.02725
737.15788,0.03969
735.66809,0.01944
734.17831,0.00095
732.68852,0.03191
731.19873,0.06291
729.70894,0.07758
728.21915,0.05095
726.72936,0.00971
725.23958,0.03120
723.74979,0.04971
722.26000,0.06825
720.77021,0.04505
719.28042,0.06495
717.79063,0.05732
716.30084,0.03293
714.81106,0.00857
713.32127,0.00189
711.83148,0.00226
710.34169,0.00095
708.85190,0.03454
707.36211,0.06815
705.87233,0.06607
704.38254,0.02699
702.89275,0.04219
701.40296,0.03933
699.91317,0.03651
698.42338,0.11811
696.93360,0.14635
695.44381,0.10487
693.95402,0.11509
692.46423,0.12534
690.97444,0.14940
689.48465,0.16058
687.99486,0.16662
686.50508,0.22478
685.01529,0.28298
683.52550,0.23573
682.03571,0.27031
680.54592,0.19039
679.05613,0.20652
677.56635,0.22268
676.07656,0.16783
674.58677,0.13110
673.09698,0.14175
671.60719,0.11498
670.11740,0.08824
668.62761,0.09211
667.13783,0.04864
665.64804,0.05558
664.15825,0.06254
662.66846,0.00884
661.17867,0.01544
659.68888,0.04274
658.19910,0.06447
656.70931,0.08623
655.21952,0.15668
653.72973,0.11091
652.23994,0.08756
650.75015,0.07931
649.26037,0.07109
647.77058,0.10122
646.28079,0.08574
644.79100,0.02208
643.30121,0.02690
641.81142,0.03175
640.32163,0.03707
638.83185,0.03553
637.34206,0.00990
635.85227,0.00541
634.36248,0.00095
632.87269,0.01553
631.38290,0.00000
629.89312,0.03100
628.40333,0.01597
626.91354,0.00097
625.42375,0.02259
623.93396,0.08902
622.44417,0.06938
620.95438,0.04976
619.46460,0.02674
617.97481,0.04765
616.48502,0.09530
614.99523,0.11800
613.50544,0.14074
612.01565,0.05329
610.52587,0.09330
609.03608,0.04208
607.54629,0.06020
606.05650,0.07836
604.56671,0.17361
603.07692,0.10874
601.58714,0.11579
600.09735,0.12288
598.60756,0.09167
597.11777,0.06050
595.62798,0.00095
594.13819,0.03525
592.64840,0.06958
591.15862,0.10050
589.66883,0.10734
588.17904,0.03068
586.68925,0.04016
585.19946,0.04968
583.70967,0.07473
582.21989,0.11789
580.73010,0.11243
579.24031,0.10700
577.75052,0.08911
576.26073,0.07212
574.77094,0.09391
573.28115,0.10368
571.79137,0.11347
570.30158,0.26194
568.81179,0.22702
567.32200,0.22184
565.83221,0.21669
564.34242,0.21803
562.85264,0.33135
561.36285,0.45158
559.87306,0.42848
558.38327,0.40540
556.89348,0.43445
555.40369,0.42823
553.91391,0.42204
552.42412,0.41588
550.93433,0.49242
549.44454,0.50527
547.95475,0.49059
546.46496,0.52072
544.97517,0.55089
543.48539,0.56300
541.99560,0.62164
540.50581,0.64027
539.01602,0.65893
537.52623,0.61778
536.03644,0.56288
534.54666,0.51491
533.05687,0.56469
531.56708,0.61451
530.07729,0.48655
528.58750,0.47227
527.09771,0.47353
525.60792,0.47483
524.11814,0.44601
522.62835,0.50506
521.13856,0.44789
519.64877,0.42175
518.15898,0.39564
516.66919,0.28518
515.17941,0.36505
513.68962,0.37477
512.19983,0.38452
510.71004,0.30949
509.22025,0.31543
507.73046,0.35412
506.24068,0.36701
504.75089,0.37993
503.26110,0.36705
501.77131,0.39295
500.28152,0.39391
498.79173,0.39491
497.30194,0.32876
495.81216,0.40129
494.32237,0.41917
492.83258,0.43707
491.34279,0.43564
489.85300,0.37568
488.36321,0.31145
486.87343,0.31484
485.38364,0.31827
483.89385,0.25327
482.40406,0.19002
480.91427,0.16039
479.42448,0.13078
477.93469,0.14685
476.44491,0.10956
474.95512,0.07316
473.46533,0.03680
471.97554,0.03663
470.48575,0.08988
468.99596,0.09236
467.50618,0.06473
466.01639,0.03713
464.52660,0.00095
463.03681,0.09689
461.54702,0.08608
460.05723,0.07531
458.56745,0.08265
457.07766,0.11155
455.58787,0.06987
454.09808,0.02822
452.60829,0.11749
451.11850,0.17924
449.62871,0.18978
448.13893,0.20035
446.64914,0.26994
445.15935,0.41276
443.66956,0.39716
442.17977,0.44058
440.68998,0.48403
439.20020,0.46853
437.71041,0.56155
436.22062,0.64169
434.73083,0.72187
433.24104,0.78915
431.75125,0.89608
430.26146,0.94836
428.77168,1.00067
427.28189,1.13439
425.79210,1.19494
424.30231,1.16684
422.81252,1.13876
421.32273,1.07713
419.83295,0.97679
418.34316,0.92254
416.85337,0.86832
415.36358,0.82577
413.87379,0.72554
412.38400,0.68907
410.89422,0.65264
409.40443,0.61192
407.91464,0.64013
406.42485,0.55384
404.93506,0.51150
403.44527,0.46919
401.95548,0.47858
400.46570,0.42514
398.97591,0.42985
397.48612,0.43460
395.99633,0.41914
394.50654,0.43040
393.01675,0.45376
391.52697,0.47714
390.03718,0.31542
388.54739,0.33025
387.05760,0.34254
385.56781,0.35485
384.07802,0.40853
382.58824,0.34427
381.09845,0.32137
379.60866,0.29850
378.11887,0.27222
376.62908,0.24425
375.13929,0.22923
373.64950,0.21424
372.15972,0.23544
370.66993,0.21793
369.18014,0.18194
367.69035,0.14597
366.20056,0.05364
364.71077,0.00095
363.22099,0.05804
361.73120,0.11517
360.24141,0.10086
358.75162,0.09002
357.26183,0.08911
355.77204,0.08824
354.28225,0.08611
352.79247,0.03062
351.30268,0.02252
349.81289,0.01445
348.32310,0.08047
346.83331,0.00272
345.34352,0.00934
343.85374,0.01599
342.36395,0.07907
340.87416,0.08019
339.38437,0.10028
337.89458,0.12040
336.40479,0.15433
334.91501,0.10821
333.42522,0.09356
331.93543,0.07893
330.44564,0.10782
328.95585,0.10402
327.46606,0.05935
325.97627,0.01471
324.48649,0.05022
322.99670,0.07112
321.50691,0.10067
320.01712,0.13024
318.52733,0.11594
317.03754,0.09908
315.54776,0.08526
314.05797,0.07148
312.56818,0.02802
311.07839,0.00095
309.58860,0.00677
308.09881,0.01262
306.60902,0.00861
305.11924,0.10192
303.62945,0.06568
302.13966,0.02946
300.64987,0.00404
299.16008,0.00095
