1778.52000,0.04323
1777.03021,0.02306
1775.54042,0.03834
1774.05063,0.03432
1772.56085,0.00136
1771.07106,0.00170
1769.58127,0.02352
1768.09148,0.00567
1766.60169,0.03936
1765.11190,0.04195
1763.62212,0.04994
1762.13233,0.02791
1760.64254,0.00913
1759.15275,0.05262
1757.66296,0.01457
1756.17317,0.04632
1754.68339,0.03301
1753.19360,0.00579
1751.70381,0.02044
1750.21402,0.00615
1748.72423,0.04126
1747.23444,0.01414
1745.74465,0.03106
1744.25487,0.01796
1742.76508,0.03493
1741.27529,0.04227
1739.78550,0.03140
1738.29571,0.03988
1736.80592,0.00867
1735.31614,0.04403
1733.82635,0.02469
1732.33656,0.03757
1730.84677,0.01399
1729.35698,0.03766
1727.86719,0.03453
1726.37740,0.06362
1724.88762,0.00367
1723.39783,0.00170
1721.90804,0.02430
1720.41825,0.03728
1718.92846,0.03956
1717.43867,0.05689
1715.94889,0.02810
1714.45910,0.03475
1712.96931,0.08114
1711.47952,0.06639
1709.98973,0.05918
1708.49994,0.08527
1707.01016,0.08187
1705.52037,0.07850
1704.03058,0.14867
1702.54079,0.09545
1701.05100,0.11202
1699.56121,0.14364
1698.07142,0.16886
1696.58164,0.13185
1695.09185,0.16678
1693.60206,0.20817
1692.11227,0.21633
1690.62248,0.20949
1689.13269,0.21555
1687.64291,0.22165
1686.15312,0.23421
1684.66333,0.21246
1683.17354,0.25298
1681.68375,0.21841
1680.19396,0.19996
1678.70417,0.19872
1677.21439,0.21789
1675.72460,0.22850
1674.23481,0.22949
1672.74502,0.17255
1671.25523,0.24549
1669.76544,0.23476
1668.27566,0.20366
1666.78587,0.20372
1665.29608,0.25531
1663.80629,0.21786
1662.31650,0.22873
1660.82671,0.17739
1659.33693,0.18725
1657.84714,0.19069
1656.35735,0.17270
1654.86756,0.13864
1653.37777,0.15934
1651.88798,0.14573
1650.39819,0.12357
1648.90841,0.12611
1647.41862,0.13297
1645.92883,0.15167
1644.43904,0.17039
1642.94925,0.16983
1641.45946,0.14461
1639.96968,0.17523
1638.47989,0.14041
1636.99010,0.12601
1635.50031,0.14383
1634.01052,0.16705
1632.52073,0.12376
1631.03094,0.17065
1629.54116,0.17034
1628.05137,0.17328
1626.56158,0.14942
1625.07179,0.21466
1623.58200,0.25954
1622.09221,0.22182
1620.60243,0.20344
1619.11264,0.22694
1617.62285,0.20004
1616.13306,0.19033
1614.64327,0.16562
1613.15348,0.19139
1611.66370,0.18606
1610.17391,0.15929
1608.68412,0.19909
1607.19433,0.17560
1605.70454,0.15000
1604.21475,0.17003
1602.72496,0.19009
1601.23518,0.19247
1599.74539,0.17127
1598.25560,0.13937
1596.76581,0.13432
1595.27602,0.15614
1593.78623,0.11466
1592.29645,0.09897
1590.80666,0.11658
1589.31687,0.14923
1587.82708,0.16153
1586.33729,0.10947
1584.84750,0.11860
1583.35771,0.08376
1581.86793,0.07900
1580.37814,0.10325
1578.88835,0.10820
1577.39856,0.07241
1575.90877,0.06883
1574.41898,0.04275
1572.92920,0.05963
1571.43941,0.04433
1569.94962,0.03497
1568.45983,0.02564
1566.97004,0.04799
1565.48025,0.00170
1563.99047,0.06295
1562.50068,0.04053
1561.01089,0.05570
1559.52110,0.05158
1558.03131,0.06681
1556.54152,0.07133
1555.05173,0.09842
1553.56195,0.07724
1552.07216,0.07219
1550.58237,0.07146
1549.09258,0.04930
1547.60279,0.07975
1546.11300,0.06515
1544.62322,0.09995
1543.13343,0.09829
1541.64364,0.04944
1540.15385,0.03711
1538.66406,0.02480
1537.17427,0.04043
1535.68448,0.02496
1534.19470,0.00630
1532.70491,0.02201
1531.21512,0.03345
1529.72533,0.01166
1528.23554,0.01136
1526.74575,0.03899
1525.25597,0.04089
1523.76618,0.05248
1522.27639,0.01795
1520.78660,0.00170
1519.29681,0.01541
1517.80702,0.04096
1516.31724,0.02147
1514.82745,0.01703
1513.33766,0.01476
1511.84787,0.01253
1510.35808,0.02856
1508.86829,0.00814
1507.37850,0.00170
1505.88872,0.01445
1504.39893,0.02508
1502.90914,0.02501
1501.41935,0.02926
1499.92956,0.02924
1498.43977,0.06145
1496.94999,0.08403
1495.46020,0.09806
1493.97041,0.14752
1492.48062,0.18843
1490.99083,0.24868
1489.50104,0.27248
1488.01125,0.31723
1486.52147,0.36200
1485.03168,0.48676
1483.54189,0.51711
1482.05210,0.58504
1480.56231,0.72491
1479.07252,0.81222
1477.58274,0.89097
1476.09295,0.95795
1474.60316,1.03676
1473.11337,1.11882
1471.62358,1.13544
1470.13379,1.11775
1468.64401,1.11190
1467.15422,1.00735
1465.66443,1.01228
1464.17464,1.01724
1462.68485,0.97073
1461.19506,0.94784
1459.70527,0.90138
1458.21549,0.82490
1456.72570,0.71411
1455.23591,0.71495
1453.74612,0.68899
1452.25633,0.61799
1450.76654,0.62857
1449.27676,0.62094
1447.78697,0.55325
1446.29718,0.49309
1444.80739,0.48179
1443.31760,0.47052
1441.82781,0.36001
1440.33802,0.31607
1438.84824,0.34083
1437.35845,0.25938
1435.86866,0.23055
1434.37887,0.23501
1432.88908,0.27813
1431.39929,0.21289
1429.90951,0.21207
1428.41972,0.26172
1426.92993,0.26310
1425.44014,0.31173
1423.95035,0.30727
1422.46056,0.30283
1420.97078,0.37408
1419.48099,0.35200
1417.99120,0.29883
1416.50141,0.28431
1415.01162,0.33743
1413.52183,0.31117
1412.03204,0.30640
1410.54226,0.34244
1409.05247,0.32806
1407.56268,0.36094
1406.07289,0.31550
1404.58310,0.33180
1403.09331,0.34813
1401.60353,0.42297
1400.11374,0.43345
1398.62395,0.45147
1397.13416,0.48347
1395.64437,0.51121
1394.15458,0.51751
1392.66479,0.59360
1391.17501,0.62356
1389.68522,0.53444
1388.19543,0.64281
1386.70564,0.62672
1385.21585,0.61065
1383.72606,0.55062
1382.23628,0.52281
1380.74649,0.57122
1379.25670,0.54562
1377.76691,0.55438
1376.27712,0.67692
1374.78733,0.67823
1373.29755,0.74717
1371.80776,0.86122
1370.31797,0.97529
1368.82818,1.03895
1367.33839,1.10264
1365.84860,1.31660
1364.35881,1.50483
1362.86903,1.71456
1361.37924,1.82558
1359.88945,1.91625
1358.39966,1.92645
1356.90987,2.00000
1355.42008,1.84715
1353.93030,1.82310
1352.44051,1.79639
1350.95072,1.76972
1349.46093,1.71893
1347.97114,1.45461
1346.48135,1.29656
1344.99156,1.19649
1343.50178,1.02026
1342.01199,0.92561
1340.52220,0.75158
1339.03241,0.68596
1337.54262,0.65793
1336.05283,0.66105
1334.56305,0.66420
1333.07326,0.56222
1331.58347,0.53967
1330.09368,0.49890
1328.60389,0.41954
1327.11410,0.46254
1325.62432,0.39718
1324.13453,0.40911
1322.64474,0.41893
1321.15495,0.40624
1319.66516,0.37587
1318.17537,0.34553
1316.68558,0.35224
1315.19580,0.35469
1313.70601,0.30994
1312.21622,0.32103
1310.72643,0.30103
1309.23664,0.26389
1307.74685,0.24823
1306.25707,0.30880
1304.76728,0.31198
1303.27749,0.31520
1301.78770,0.25244
1300.29791,0.29273
1298.80812,0.25149
1297.31834,0.21779
1295.82855,0.26890
1294.33876,0.32111
1292.84897,0.29394
1291.35918,0.25928
1289.86939,0.26866
1288.37960,0.27805
1286.88982,0.29285
1285.40003,0.31625
1283.91024,0.34398
1282.42045,0.42861
1280.93066,0.37377
1279.44087,0.36939
1277.95109,0.38543
1276.46130,0.36071
1274.97151,0.38271
1273.48172,0.40473
1271.99193,0.41230
1270.50214,0.41560
1269.01235,0.47688
1267.52257,0.47702
1266.03278,0.48363
1264.54299,0.50958
1263.05320,0.51195
1261.56341,0.54494
1260.07362,0.57795
1258.58384,0.55036
1257.09405,0.54533
1255.60426,0.54141
1254.11447,0.51498
1252.62468,0.59052
1251.13489,0.53195
1249.64511,0.46483
1248.15532,0.39236
1246.66553,0.37412
1245.17574,0.35591
1243.68595,0.32860
1242.19616,0.37001
1240.70637,0.30091
1239.21659,0.32413
1237.72680,0.24542
1236.23701,0.21719
1234.74722,0.24478
1233.25743,0.22465
1231.76764,0.20455
1230.27786,0.16999
1228.78807,0.20950
1227.29828,0.16641
1225.80849,0.15662
1224.31870,0.11144
1222.82891,0.11351
1221.33912,0.16926
1219.84934,0.15744
1218.35955,0.14564
1216.86976,0.17894
1215.37997,0.24125
1213.89018,0.17802
1212.40039,0.21249
1210.91061,0.14717
1209.42082,0.16989
1207.93103,0.14917
1206.44124,0.12848
1204.95145,0.09011
1203.46166,0.06143
1201.97188,0.05638
1200.48209,0.08463
1198.99230,0.08716
1197.50251,0.04142
1196.01272,0.00000
1194.52293,0.01334
1193.03314,0.02671
1191.54336,0.06264
1190.05357,0.07607
1188.56378,0.02728
1187.07399,0.06223
1185.58420,0.00170
1184.09441,0.06844
1182.60463,0.05098
1181.11484,0.03354
1179.62505,0.03277
1178.13526,0.03954
1176.64547,0.06994
1175.15568,0.05423
1173.66589,0.05143
1172.17611,0.05831
1170.68632,0.04429
1169.19653,0.03030
1167.70674,0.04478
1166.21695,0.02065
1164.72716,0.01909
1163.23738,0.03473
1161.74759,0.00854
1160.25780,0.01887
1158.76801,0.02547
1157.27822,0.03210
1155.78843,0.04144
1154.29865,0.03042
1152.80886,0.02480
1151.31907,0.03744
1149.82928,0.04368
1148.33949,0.04350
1146.84970,0.03423
1145.35991,0.02499
1143.87013,0.01203
1142.38034,0.11928
1140.89055,0.12032
1139.40076,0.08920
1137.91097,0.13858
1136.42118,0.18585
1134.93140,0.21169
1133.44161,0.23756
1131.95182,0.27740
1130.46203,0.19279
1128.97224,0.25737
1127.48245,0.28443
1125.99266,0.27288
1124.50288,0.34398
1123.01309,0.36361
1121.52330,0.38326
1120.03351,0.41046
1118.54372,0.40120
1117.05393,0.43596
1115.56415,0.38597
1114.07436,0.40148
1112.58457,0.39287
1111.09478,0.38428
1109.60499,0.50075
1108.11520,0.46485
1106.62542,0.49231
1105.13563,0.59705
1103.64584,0.65246
1102.15605,0.74761
1100.66626,0.72688
1099.17647,0.70618
1097.68668,0.73273
1096.19690,0.77433
1094.70711,0.78162
1093.21732,0.77606
1091.72753,0.83170
1090.23774,0.87074
1088.74795,0.90980
1087.25817,0.91937
1085.76838,1.00088
1084.27859,0.97081
1082.78880,1.08135
1081.29901,1.01914
1079.80922,1.08145
1078.31943,1.09227
1076.82965,1.10312
1075.33986,1.21058
1073.85007,1.25154
1072.36028,1.22706
1070.87049,1.30886
1069.38070,1.37780
1067.89092,1.35502
1066.40113,1.33226
1064.91134,1.29613
1063.42155,1.20636
1061.93176,1.08872
1060.44197,1.00115
1058.95219,0.95332
1057.46240,0.90874
1055.97261,0.86419
1054.48282,0.85508
1052.99303,0.79878
1051.50324,0.69314
1050.01345,0.62832
1048.52367,0.55600
1047.03388,0.58459
1045.54409,0.61321
1044.05430,0.52274
1042.56451,0.42694
1041.07472,0.44277
1039.58494,0.40926
1038.09515,0.37256
1036.60536,0.39276
1035.11557,0.41300
1033.62578,0.32273
1032.13599,0.23893
1030.64620,0.29359
1029.15642,0.32681
1027.66663,0.32090
1026.17684,0.31501
1024.68705,0.37300
1023.19726,0.50078
1021.70747,0.60497
1020.21769,0.77144
1018.72790,0.89608
1017.23811,1.02451
1015.74832,1.15296
1014.25853,1.32276
1012.76874,1.41532
1011.27896,1.67211
1009.78917,1.89028
1008.29938,1.88635
1006.80959,1.85239
1005.31980,1.81847
1003.83001,1.58497
1002.34022,1.46632
1000.85044,1.43570
999.36065,1.29565
997.87086,1.28064
996.38107,1.26567
994.89128,1.18687
993.40149,1.16605
991.91171,1.14955
990.42192,1.12128
988.93213,1.15420
987.44234,1.13779
985.95255,1.12140
984.46276,1.07929
982.97297,0.99106
981.48319,0.99944
979.99340,0.95205
978.50361,0.92132
977.01382,0.89062
975.52403,0.83902
974.03424,0.82608
972.54446,0.73484
971.05467,0.83249
969.56488,0.70803
968.07509,0.68769
966.58530,0.66739
965.09551,0.62028
963.60573,0.58608
962.11594,0.63669
960.62615,0.62937
959.13636,0.56252
957.64657,0.49571
956.15678,0.51531
954.66699,0.47913
953.17721,0.47839
951.68742,0.47769
950.19763,0.46682
948.70784,0.45597
947.21805,0.47360
945.72826,0.43652
944.23848,0.44669
942.74869,0.46332
941.25890,0.47355
939.76911,0.51278
938.27932,0.55203
936.78953,0.60205
935.29974,0.62634
933.80996,0.54871
932.32017,0.64925
930.83038,0.66289
929.34059,0.67657
927.85080,0.62803
926.36101,0.64176
924.87123,0.62547
923.38144,0.56628
921.89165,0.59834
920.40186,0.63043
918.91207,0.61640
917.42228,0.68825
915.93250,0.67213
914.44271,0.66355
912.95292,0.62763
911.46313,0.59175
909.97334,0.73027
908.48355,0.70786
906.99376,0.74986
905.50398,0.73502
904.01419,0.70303
902.52440,0.67107
901.03461,0.65309
899.54482,0.76177
898.05503,0.78784
896.56525,0.79892
895.07546,0.81003
893.58567,0.82117
892.09588,0.78082
890.60609,0.76412
889.11630,0.78285
887.62651,0.65996
886.13673,0.70290
884.64694,0.74586
883.15715,0.79905
881.66736,0.81364
880.17757,0.83469
878.68778,0.84236
877.19800,0.85005
875.70821,0.86797
874.21842,0.87948
872.72863,0.88457
871.23884,0.94443
869.74905,0.97480
868.25927,1.00520
866.76948,1.02866
865.27969,0.95341
863.78990,1.04346
862.30011,1.02944
860.81032,1.01277
859.32053,0.99612
857.83075,0.98648
856.34096,0.98760
854.85117,0.92865
853.36138,0.77207
851.87159,0.73035
850.38180,0.68866
848.89202,0.61373
847.40223,0.49804
845.91244,0.45858
844.42265,0.45671
842.93286,0.45487
841.44307,0.41764
839.95329,0.38151
838.46350,0.35507
836.97371,0.40055
835.48392,0.42461
833.99413,0.44869
832.50434,0.39231
831.01455,0.41967
829.52477,0.33867
828.03498,0.35857
826.54519,0.32861
825.05540,0.29866
823.56561,0.29183
822.07582,0.27965
820.58604,0.22243
819.09625,0.19206
817.60646,0.16173
816.11667,0.17864
814.62688,0.11510
813.13709,0.06231
811.64730,0.06965
810.15752,0.09526
808.66773,0.12090
807.17794,0.00170
805.68815,0.08382
804.19836,0.04578
802.70857,0.07216
801.21879,0.09856
799.72900,0.16041
798.23921,0.24911
796.74942,0.29492
795.25963,0.31822
793.76984,0.34155
792.28006,0.37885
790.79027,0.44946
789.30048,0.55443
787.81069,0.56499
786.32090,0.57290
784.83111,0.58084
783.34132,0.61939
781.85154,0.58715
780.36175,0.64507
778.87196,0.64669
777.38217,0.64833
775.89238,0.72780
774.40259,0.71072
772.91281,0.78167
771.42302,0.79684
769.93323,0.81204
768.44344,0.79507
766.95365,0.79423
765.46386,0.74835
763.97407,0.68854
762.48429,0.70710
760.99450,0.72569
759.50471,0.58978
758.01492,0.49145
756.52513,0.42964
755.03534,0.37966
753.54556,0.32972
752.05577,0.22185
750.56598,0.16122
749.07619,0.12531
747.58640,0.12001
746.09661,0.11474
744.60683,0.12077
743.11704,0.05814
741.62725,0.08354
740.13746,0.07033
738.64767,0.05715
737.15788,0.02576
735.66809,0.03196
734.17831,0.08004
732.68852,0.06536
731.19873,0.05072
729.70894,0.02698
728.21915,0.05478
726.72936,0.05900
725.23958,0.04072
723.74979,0.05465
722.26000,0.06862
720.77021,0.06652
719.28042,0.08268
717.79063,0.01518
716.30084,0.04374
714.81106,0.07234
713.32127,0.00170
711.83148,0.07196
710.34169,0.07679
708.85190,0.06233
707.36211,0.04790
705.87233,0.04101
704.38254,0.04166
702.89275,0.07453
701.40296,0.07846
699.91317,0.08241
698.42338,0.07459
696.93360,0.15802
695.44381,0.14596
693.95402,0.15861
692.46423,0.17130
690.97444,0.18186
689.48465,0.14953
687.99486,0.28571
686.50508,0.24163
685.01529,0.19758
683.52550,0.28019
682.03571,0.19327
680.54592,0.16969
679.05613,0.17619
677.56635,0.18272
676.07656,0.15923
674.58677,0.15401
673.09698,0.14346
671.60719,0.13937
670.11740,0.13531
668.62761,0.10230
667.13783,0.09937
665.64804,0.08360
664.15825,0.06785
662.66846,0.06178
661.17867,0.07184
659.68888,0.05189
658.19910,0.08830
656.70931,0.12474
655.21952,0.09950
653.72973,0.10970
652.23994,0.14140
650.75015,0.16508
649.26037,0.18878
647.77058,0.13256
646.28079,0.06779
644.79100,0.03953
643.30121,0.06389
641.81142,0.08827
640.32163,0.04400
638.83185,0.04269
637.34206,0.00170
635.85227,0.01310
634.36248,0.02453
632.87269,0.01024
631.38290,0.07002
629.89312,0.00213
628.40333,0.02334
626.91354,0.04457
625.42375,0.09588
623.93396,0.07103
622.44417,0.05747
620.95438,0.04395
619.46460,0.04386
617.97481,0.05024
616.48502,0.06846
614.99523,0.05826
613.50544,0.04809
612.01565,0.03313
610.52587,0.02463
609.03608,0.08376
607.54629,0.09303
606.05650,0.10232
604.56671,0.19266
603.07692,0.10382
601.58714,0.10676
600.09735,0.10973
598.60756,0.10038
597.11777,0.03634
595.62798,0.07212
594.13819,0.09613
592.64840,0.12017
591.15862,0.01331
589.66883,0.06316
588.17904,0.03362
586.68925,0.03899
585.19946,0.04439
583.70967,0.06323
582.21989,0.13898
580.73010,0.12461
579.24031,0.11027
577.75052,0.05625
576.26073,0.11709
574.77094,0.07601
573.28115,0.07520
571.79137,0.07441
570.30158,0.15575
568.81179,0.18132
567.32200,0.17043
565.83221,0.15956
564.34242,0.19487
562.85264,0.23879
561.36285,0.30528
559.87306,0.28595
558.38327,0.26664
556.89348,0.33214
555.40369,0.40840
553.91391,0.40635
552.42412,0.40432
550.93433,0.37014
549.44454,0.42290
547.95475,0.49608
546.46496,0.49203
544.97517,0.48800
543.48539,0.59668
541.99560,0.58842
540.50581,0.62580
539.01602,0.66320
537.52623,0.59707
536.03644,0.52025
534.54666,0.54432
533.05687,0.51208
531.56708,0.47988
530.07729,0.48043
528.58750,0.44345
527.09771,0.44245
525.60792,0.44147
524.11814,0.44858
522.62835,0.44712
521.13856,0.44034
519.64877,0.39065
518.15898,0.34099
516.66919,0.34287
515.17941,0.24820
513.68962,0.28984
512.19983,0.33152
510.71004,0.29058
509.22025,0.34948
507.73046,0.33651
506.24068,0.32410
504.75089,0.31173
503.26110,0.36859
501.77131,0.36861
500.28152,0.37295
498.79173,0.37732
497.30194,0.32163
495.81216,0.37434
494.32237,0.43621
492.83258,0.49811
491.34279,0.36204
489.85300,0.31399
488.36321,0.30247
486.87343,0.29687
485.38364,0.29130
483.89385,0.23908
482.40406,0.18581
480.91427,0.17335
479.42448,0.16092
477.93469,0.09164
476.44491,0.14580
474.95512,0.13185
473.46533,0.11792
471.97554,0.06915
470.48575,0.05903
468.99596,0.07900
467.50618,0.04533
466.01639,0.01169
464.52660,0.00170
463.03681,0.01739
461.54702,0.05136
460.05723,0.08536
458.56745,0.03783
457.07766,0.04291
455.58787,0.03353
454.09808,0.02418
452.60829,0.12270
451.11850,0.18477
449.62871,0.16692
448.13893,0.14910
446.64914,0.27350
445.15935,0.22193
443.66956,0.33565
442.17977,0.35282
440.68998,0.37002
439.20020,0.44305
437.71041,0.42704
436.22062,0.51515
434.73083,0.60328
433.24104,0.72472
431.75125,0.85799
430.26146,0.87270
428.77168,0.88744
427.28189,1.05192
425.79210,1.07906
424.30231,1.03325
422.81252,0.98748
421.32273,0.98788
419.83295,0.84343
418.34316,0.81920
416.85337,0.79500
415.36358,0.68176
413.87379,0.64904
412.38400,0.60346
410.89422,0.55791
409.40443,0.52420
407.91464,0.49266
406.42485,0.44505
404.93506,0.42698
403.44527,0.40894
401.95548,0.38074
400.46570,0.34075
398.97591,0.34533
397.48612,0.34994
395.99633,0.34009
394.50654,0.37964
393.01675,0.38541
391.52697,0.39120
390.03718,0.32030
388.54739,0.27196
387.05760,0.28267
385.56781,0.29341
384.07802,0.37179
382.58824,0.23020
381.09845,0.23298
379.60866,0.23578
378.11887,0.24667
376.62908,0.17065
375.13929,0.10969
373.64950,0.04876
372.15972,0.15312
370.66993,0.15449
369.18014,0.13013
367.69035,0.10580
366.20056,0.06862
364.71077,0.08512
363.22099,0.09629
361.73120,0.10748
360.24141,0.09832
358.75162,0.03445
357.26183,0.05593
355.77204,0.07743
354.28225,0.08985
352.79247,0.04648
351.30268,0.02407
349.81289,0.00170
348.32310,0.07107
346.83331,0.00205
345.34352,0.03380
343.85374,0.06558
342.36395,0.17573
340.87416,0.12386
339.38437,0.13480
337.89458,0.14576
336.40479,0.09291
334.91501,0.04223
333.42522,0.04255
331.93543,0.04290
330.44564,0.08996
328.95585,0.06729
327.46606,0.07900
325.97627,0.09073
324.48649,0.01879
322.99670,0.10370
321.50691,0.09366
320.01712,0.08366
318.52733,0.07637
317.03754,0.12383
315.54776,0.09460
314.05797,0.06539
312.56818,0.04319
311.07839,0.00170
309.58860,0.02629
308.09881,0.05091
306.60902,0.02512
305.11924,0.09594
303.62945,0.06055
302.13966,0.02519
300.64987,0.00170
299.16008,0.00170
