1778.52000,0.06928
1777.03021,0.05645
1775.54042,0.03307
1774.05063,0.03725
1772.56085,0.00546
1771.07106,0.04466
1769.58127,0.01188
1768.09148,0.04374
1766.60169,0.01208
1765.11190,0.02071
1763.62212,0.05055
1762.13233,0.05077
1760.64254,0.05208
1759.15275,0.05554
1757.66296,0.08234
1756.17317,0.02868
1754.68339,0.00789
1753.19360,0.02201
1751.70381,0.06793
1750.21402,0.04823
1748.72423,0.02432
1747.23444,0.06294
1745.74465,0.10158
1744.25487,0.04918
1742.76508,0.06989
1741.27529,0.11076
1739.78550,0.07435
1738.29571,0.05598
1736.80592,0.07682
1735.31614,0.03627
1733.82635,0.00000
1732.33656,0.06649
1730.84677,0.07794
1729.35698,0.09048
1727.86719,0.06281
1726.37740,0.00870
1724.88762,0.00546
1723.39783,0.03099
1721.90804,0.06502
1720.41825,0.05989
1718.92846,0.05587
1717.43867,0.03599
1715.94889,0.05109
1714.45910,0.09482
1712.96931,0.10152
1711.47952,0.05212
1709.98973,0.05359
1708.49994,0.14300
1707.01016,0.13183
1705.52037,0.12069
1704.03058,0.13607
1702.54079,0.11229
1701.05100,0.13938
1699.56121,0.13262
1698.07142,0.14283
1696.58164,0.20286
1695.09185,0.19408
1693.60206,0.21816
1692.11227,0.24546
1690.62248,0.21348
1689.13269,0.25355
1687.64291,0.25977
1686.15312,0.23213
1684.66333,0.25324
1683.17354,0.22461
1681.68375,0.27968
1680.19396,0.24794
1678.70417,0.22682
1677.21439,0.19938
1675.72460,0.23129
1674.23481,0.22299
1672.74502,0.21048
1671.25523,0.23931
1669.76544,0.30312
1668.27566,0.24518
1666.78587,0.20633
1665.29608,0.20988
1663.80629,0.21240
1662.31650,0.26156
1660.82671,0.21543
1659.33693,0.21700
1657.84714,0.19847
1656.35735,0.16198
1654.86756,0.16471
1653.37777,0.20454
1651.88798,0.13320
1650.39819,0.16250
1648.90841,0.13148
1647.41862,0.15556
1645.92883,0.13572
1644.43904,0.11591
1642.94925,0.18034
1641.45946,0.18866
1639.96968,0.09218
1638.47989,0.08892
1636.99010,0.14184
1635.50031,0.10476
1634.01052,0.12173
1632.52073,0.08260
1631.03094,0.13353
1629.54116,0.17178
1628.05137,0.15500
1626.56158,0.15308
1625.07179,0.22109
1623.58200,0.25206
1622.09221,0.25130
1620.60243,0.22515
1619.11264,0.28059
1617.62285,0.14755
1616.13306,0.14480
1614.64327,0.17916
1613.15348,0.18072
1611.66370,0.21409
1610.17391,0.12146
1608.68412,0.14112
1607.19433,0.18094
1605.70454,0.22504
1604.21475,0.19344
1602.72496,0.16188
1601.23518,0.20607
1599.74539,0.16663
1598.25560,0.11346
1596.76581,0.18105
1595.27602,0.12583
1593.78623,0.15325
1592.29645,0.08327
1590.80666,0.07793
1589.31687,0.13298
1587.82708,0.11606
1586.33729,0.12246
1584.84750,0.09819
1583.35771,0.08666
1581.86793,0.10906
1580.37814,0.11031
1578.88835,0.10735
1577.39856,0.13197
1575.90877,0.06554
1574.41898,0.05633
1572.92920,0.04080
1571.43941,0.01154
1569.94962,0.02309
1568.45983,0.03467
1566.97004,0.08705
1565.48025,0.04734
1563.99047,0.07544
1562.50068,0.04002
1561.01089,0.02583
1559.52110,0.02331
1558.03131,0.07802
1556.54152,0.10841
1555.05173,0.11659
1553.56195,0.08985
1552.07216,0.11293
1550.58237,0.08944
1549.09258,0.05115
1547.60279,0.07433
1546.11300,0.05941
1544.62322,0.03076
1543.13343,0.06675
1541.64364,0.05193
1540.15385,0.02868
1538.66406,0.00546
1537.17427,0.01101
1535.68448,0.00812
1534.19470,0.06140
1532.70491,0.05752
1531.21512,0.04732
1529.72533,0.02762
1528.23554,0.01643
1526.74575,0.03704
1525.25597,0.06087
1523.76618,0.06990
1522.27639,0.03978
1520.78660,0.00546
1519.29681,0.07584
1517.80702,0.05200
1516.31724,0.02396
1514.82745,0.07749
1513.33766,0.08023
1511.84787,0.08300
1510.35808,0.02332
1508.86829,0.04946
1507.37850,0.01526
1505.88872,0.00546
1504.39893,0.02806
1502.90914,0.03586
1501.41935,0.05534
1499.92956,0.02402
1498.43977,0.03934
1496.94999,0.07693
1495.46020,0.12408
1493.97041,0.10349
1492.48062,0.20367
1490.99083,0.18738
1489.50104,0.26856
1488.01125,0.29259
1486.52147,0.31665
1485.03168,0.37675
1483.54189,0.37228
1482.05210,0.41021
1480.56231,0.55196
1479.07252,0.71599
1477.58274,0.76673
1476.09295,0.83445
1474.60316,0.88738
1473.11337,1.00917
1471.62358,1.07276
1470.13379,1.06012
1468.64401,0.92573
1467.15422,0.92058
1465.66443,0.87892
1464.17464,0.83730
1462.68485,0.88097
1461.19506,0.83253
1459.70527,0.73435
1458.21549,0.69869
1456.72570,0.68848
1455.23591,0.65818
1453.74612,0.67345
1452.25633,0.62416
1450.76654,0.57384
1449.27676,0.55745
1447.78697,0.55168
1446.29718,0.49828
1444.80739,0.46293
1443.31760,0.42760
1441.82781,0.37431
1440.33802,0.24692
1438.84824,0.30490
1437.35845,0.21570
1435.86866,0.21338
1434.37887,0.25027
1432.88908,0.25120
1431.39929,0.21403
1429.90951,0.18960
1428.41972,0.18428
1426.92993,0.19593
1425.44014,0.22773
1423.95035,0.22197
1422.46056,0.21625
1420.97078,0.27993
1419.48099,0.29175
1417.99120,0.29407
1416.50141,0.26148
1415.01162,0.29882
1413.52183,0.34149
1412.03204,0.28888
1410.54226,0.27866
1409.05247,0.22400
1407.56268,0.24456
1406.07289,0.25775
1404.58310,0.26567
1403.09331,0.27363
1401.60353,0.37270
1400.11374,0.36166
1398.62395,0.40149
1397.13416,0.39793
1395.64437,0.42830
1394.15458,0.47141
1392.66479,0.46584
1391.17501,0.51749
1389.68522,0.52045
1388.19543,0.44403
1386.70564,0.44441
1385.21585,0.44484
1383.72606,0.54114
1382.23628,0.37694
1380.74649,0.41718
1379.25670,0.46592
1377.76691,0.45434
1376.27712,0.47032
1374.78733,0.59542
1373.29755,0.63053
1371.80776,0.70698
1370.31797,0.79829
1368.82818,0.87693
1367.33839,0.95560
1365.84860,1.09996
1364.35881,1.26872
1362.86903,1.36974
1361.37924,1.48773
1359.88945,1.62587
1358.39966,1.77782
1356.90987,1.91074
1355.42008,1.75457
1353.93030,1.72870
1352.44051,1.70181
1350.95072,1.67494
1349.46093,1.44266
1347.97114,1.34385
1346.48135,1.17623
1344.99156,1.07960
1343.50178,0.99784
1342.01199,0.89069
1340.52220,0.72321
1339.03241,0.71569
1337.54262,0.66477
1336.05283,0.66102
1334.56305,0.65730
1333.07326,0.58319
1331.58347,0.49852
1330.09368,0.48060
1328.60389,0.42989
1327.11410,0.44276
1325.62432,0.45036
1324.13453,0.37539
1322.64474,0.31634
1321.15495,0.38971
1319.66516,0.38104
1318.17537,0.37240
1316.68558,0.33361
1315.19580,0.33615
1313.70601,0.29214
1312.21622,0.30111
1310.72643,0.24762
1309.23664,0.17300
1307.74685,0.26467
1306.25707,0.27060
1304.76728,0.25697
1303.27749,0.24337
1301.78770,0.20704
1300.29791,0.21311
1298.80812,0.27428
1297.31834,0.25393
1295.82855,0.23891
1294.33876,0.22182
1292.84897,0.28206
1291.35918,0.22690
1289.86939,0.22791
1288.37960,0.22895
1286.88982,0.22261
1285.40003,0.26396
1283.91024,0.32123
1282.42045,0.38490
1280.93066,0.36387
1279.44087,0.39794
1277.95109,0.34521
1276.46130,0.31475
1274.97151,0.32351
1273.48172,0.33230
1271.99193,0.44703
1270.50214,0.40929
1269.01235,0.45314
1267.52257,0.36993
1266.03278,0.36618
1264.54299,0.40483
1263.05320,0.46258
1261.56341,0.49971
1260.07362,0.53688
1258.58384,0.58307
1257.09405,0.53611
1255.60426,0.54743
1254.11447,0.55561
1252.62468,0.54158
1251.13489,0.55935
1249.64511,0.45325
1248.15532,0.33130
1246.66553,0.30469
1245.17574,0.27812
1243.68595,0.32360
1242.19616,0.32993
1240.70637,0.30664
1239.21659,0.32363
1237.72680,0.28876
1236.23701,0.19143
1234.74722,0.19052
1233.25743,0.22353
1231.76764,0.25657
1230.27786,0.17845
1228.78807,0.22850
1227.29828,0.13456
1225.80849,0.16774
1224.31870,0.14906
1222.82891,0.09758
1221.33912,0.03978
1219.84934,0.07204
1218.35955,0.10433
1216.86976,0.13877
1215.37997,0.24420
1213.89018,0.22258
1212.40039,0.21159
1210.91061,0.11590
1209.42082,0.16216
1207.93103,0.16345
1206.44124,0.16477
1204.95145,0.09463
1203.46166,0.02453
1201.97188,0.01695
1200.48209,0.08354
1198.99230,0.08026
1197.50251,0.04101
1196.01272,0.00179
1194.52293,0.00550
1193.03314,0.00925
1191.54336,0.03685
1190.05357,0.04649
1188.56378,0.06145
1187.07399,0.00549
1185.58420,0.02582
1184.09441,0.05889
1182.60463,0.03216
1181.11484,0.00546
1179.62505,0.05470
1178.13526,0.06374
1176.64547,0.04844
1175.15568,0.07766
1173.66589,0.07621
1172.17611,0.05784
1170.68632,0.06174
1169.19653,0.06568
1167.70674,0.05906
1166.21695,0.07049
1164.72716,0.09571
1163.23738,0.11355
1161.74759,0.06471
1160.25780,0.02437
1158.76801,0.03120
1157.27822,0.03805
1155.78843,0.07513
1154.29865,0.04552
1152.80886,0.04242
1151.31907,0.00546
1149.82928,0.13124
1148.33949,0.19033
1146.84970,0.15360
1145.35991,0.11692
1143.87013,0.05855
1142.38034,0.14743
1140.89055,0.16009
1139.40076,0.20350
1137.91097,0.21305
1136.42118,0.21310
1134.93140,0.22166
1133.44161,0.23025
1131.95182,0.31301
1130.46203,0.25813
1128.97224,0.32190
1127.48245,0.35922
1125.99266,0.32880
1124.50288,0.39373
1123.01309,0.41580
1121.52330,0.43790
1120.03351,0.49022
1118.54372,0.42608
1117.05393,0.35985
1115.56415,0.40910
1114.07436,0.49756
1112.58457,0.49021
1111.09478,0.48290
1109.60499,0.43273
1108.11520,0.43661
1106.62542,0.43204
1105.13563,0.51542
1103.64584,0.60518
1102.15605,0.72463
1100.66626,0.69160
1099.17647,0.65862
1097.68668,0.65426
1096.19690,0.73889
1094.70711,0.69753
1093.21732,0.75576
1091.72753,0.82461
1090.23774,0.84107
1088.74795,0.85757
1087.25817,0.92017
1085.76838,0.96056
1084.27859,0.99781
1082.78880,1.04251
1081.29901,0.99616
1079.80922,0.95196
1078.31943,0.93269
1076.82965,0.91345
1075.33986,1.08646
1073.85007,1.14513
1072.36028,1.10428
1070.87049,1.17467
1069.38070,1.25991
1067.89092,1.26100
1066.40113,1.26212
1064.91134,1.22568
1063.42155,1.09395
1061.93176,1.04169
1060.44197,1.00747
1058.95219,0.88114
1057.46240,0.85387
1055.97261,0.82663
1054.48282,0.86244
1052.99303,0.79132
1051.50324,0.56667
1050.01345,0.56234
1048.52367,0.50191
1047.03388,0.54266
1045.54409,0.58343
1044.05430,0.62160
1042.56451,0.50518
1041.07472,0.36020
1039.58494,0.35716
1038.09515,0.30756
1036.60536,0.31095
1035.11557,0.31437
1033.62578,0.36230
1032.13599,0.31072
1030.64620,0.25494
1029.15642,0.31780
1027.66663,0.33304
1026.17684,0.34832
1024.68705,0.36892
1023.19726,0.50500
1021.70747,0.63899
1020.21769,0.69570
1018.72790,0.91448
1017.23811,1.06711
1015.74832,1.21977
1014.25853,1.35605
1012.76874,1.57603
1011.27896,1.69437
1009.78917,1.91230
1008.29938,2.00000
1006.80959,1.98659
1005.31980,1.97322
1003.83001,1.72635
1002.34022,1.58861
1000.85044,1.41595
999.36065,1.26662
997.87086,1.21952
996.38107,1.17246
994.89128,1.19586
993.40149,1.11233
991.91171,1.12627
990.42192,1.11588
988.93213,1.08753
987.44234,1.04544
985.95255,1.00338
984.46276,0.90946
982.97297,0.81346
981.48319,0.78527
979.99340,0.82596
978.50361,0.77507
977.01382,0.72421
975.52403,0.74170
974.03424,0.58448
972.54446,0.58721
971.05467,0.64398
969.56488,0.55358
968.07509,0.53894
966.58530,0.52433
965.09551,0.57912
963.60573,0.53228
962.11594,0.44311
960.62615,0.44187
959.13636,0.39884
957.64657,0.35584
956.15678,0.28375
954.66699,0.33666
953.17721,0.38854
951.68742,0.35892
950.19763,0.39128
948.70784,0.42368
947.21805,0.37827
945.72826,0.26935
944.23848,0.41146
942.74869,0.43711
941.25890,0.45326
939.76911,0.47791
938.27932,0.50261
936.78953,0.57181
935.29974,0.49172
933.80996,0.46992
932.32017,0.54982
930.83038,0.53549
929.34059,0.52120
927.85080,0.46670
926.36101,0.48107
924.87123,0.44041
923.38144,0.46226
921.89165,0.43967
920.40186,0.41711
918.91207,0.50685
917.42228,0.49706
915.93250,0.52862
914.44271,0.42465
912.95292,0.44833
911.46313,0.47204
909.97334,0.50797
908.48355,0.59476
906.99376,0.51109
905.50398,0.44015
904.01419,0.42591
902.52440,0.41170
901.03461,0.49231
899.54482,0.50200
898.05503,0.48948
896.56525,0.75765
895.07546,0.74043
893.58567,0.72325
892.09588,0.62932
890.60609,0.58838
889.11630,0.56229
887.62651,0.55425
886.13673,0.58860
884.64694,0.62299
883.15715,0.71036
881.66736,0.61455
880.17757,0.63209
878.68778,0.66556
877.19800,0.69905
875.70821,0.74106
874.21842,0.78733
872.72863,0.84846
871.23884,0.81644
869.74905,0.79238
868.25927,0.76836
866.76948,0.85505
865.27969,0.93330
863.78990,0.88238
862.30011,0.94587
860.81032,0.92361
859.32053,0.90138
857.83075,0.91202
856.34096,0.88986
854.85117,0.83915
853.36138,0.79693
851.87159,0.71398
850.38180,0.63106
848.89202,0.50952
847.40223,0.37637
845.91244,0.33009
844.42265,0.32515
842.93286,0.32024
841.44307,0.35985
839.95329,0.28405
838.46350,0.25065
836.97371,0.31366
835.48392,0.30151
833.99413,0.28939
832.50434,0.35568
831.01455,0.41141
829.52477,0.40469
828.03498,0.24550
826.54519,0.21766
825.05540,0.18987
823.56561,0.25212
822.07582,0.23180
820.58604,0.21470
819.09625,0.15049
817.60646,0.08633
816.11667,0.05450
814.62688,0.08942
813.13709,0.05660
811.64730,0.03228
810.15752,0.04453
808.66773,0.05682
807.17794,0.05697
805.68815,0.08150
804.19836,0.00546
802.70857,0.04819
801.21879,0.09096
799.72900,0.07393
798.23921,0.23908
796.74942,0.30790
795.25963,0.28620
793.76984,0.26453
792.28006,0.32498
790.79027,0.38969
789.30048,0.43644
787.81069,0.45780
786.32090,0.46860
784.83111,0.47944
783.34132,0.55174
781.85154,0.55312
780.36175,0.59583
778.87196,0.61528
777.38217,0.63476
775.89238,0.66486
774.40259,0.57639
772.91281,0.63092
771.42302,0.66325
769.93323,0.69561
768.44344,0.73965
766.95365,0.76149
765.46386,0.78230
763.97407,0.73431
762.48429,0.67046
760.99450,0.60665
759.50471,0.57994
758.01492,0.48760
756.52513,0.50650
755.03534,0.42641
753.54556,0.34635
752.05577,0.29228
750.56598,0.16940
749.07619,0.20964
747.58640,0.22451
746.09661,0.23941
744.60683,0.00546
743.11704,0.05815
741.62725,0.08227
740.13746,0.09478
738.64767,0.10732
737.15788,0.01293
735.66809,0.02342
734.17831,0.13667
732.68852,0.12923
731.19873,0.12181
729.70894,0.09431
728.21915,0.13675
726.72936,0.10508
725.23958,0.13381
723.74979,0.11492
722.26000,0.09606
720.77021,0.18103
719.28042,0.09022
717.79063,0.02699
716.30084,0.01621
714.81106,0.00546
713.32127,0.04602
711.83148,0.10144
710.34169,0.05628
708.85190,0.09164
707.36211,0.12704
705.87233,0.15717
704.38254,0.05919
702.89275,0.11481
701.40296,0.08469
699.91317,0.05459
698.42338,0.12938
696.93360,0.20737
695.44381,0.14031
693.95402,0.18449
692.46423,0.22870
690.97444,0.17339
689.48465,0.26320
687.99486,0.22385
686.50508,0.24701
685.01529,0.27021
683.52550,0.38981
682.03571,0.28070
680.54592,0.22033
679.05613,0.21295
677.56635,0.20561
676.07656,0.21100
674.58677,0.23973
673.09698,0.21978
671.60719,0.21945
670.11740,0.21916
668.62761,0.15483
667.13783,0.12760
665.64804,0.06651
664.15825,0.00546
662.66846,0.12462
661.17867,0.12519
659.68888,0.15015
658.19910,0.20216
656.70931,0.25420
655.21952,0.27397
653.72973,0.24506
652.23994,0.13252
650.75015,0.14339
649.26037,0.15429
647.77058,0.23460
646.28079,0.15079
644.79100,0.08819
643.30121,0.04681
641.81142,0.00546
640.32163,0.12762
638.83185,0.05706
637.34206,0.09668
635.85227,0.07703
634.36248,0.05741
632.87269,0.08018
631.38290,0.09875
629.89312,0.01887
628.40333,0.01845
626.91354,0.01806
625.42375,0.05795
623.93396,0.09364
622.44417,0.08011
620.95438,0.06662
619.46460,0.08865
617.97481,0.09693
616.48502,0.06183
614.99523,0.05907
613.50544,0.05634
612.01565,0.05311
610.52587,0.04039
609.03608,0.00546
607.54629,0.07346
606.05650,0.14150
604.56671,0.23234
603.07692,0.16435
601.58714,0.16524
600.09735,0.16616
598.60756,0.09933
597.11777,0.07067
595.62798,0.04733
594.13819,0.06957
592.64840,0.09184
591.15862,0.12262
589.66883,0.15237
588.17904,0.07201
586.68925,0.08754
585.19946,0.10310
583.70967,0.15205
582.21989,0.13749
580.73010,0.11396
579.24031,0.09047
577.75052,0.09826
576.26073,0.00546
574.77094,0.04820
573.28115,0.07615
571.79137,0.10413
570.30158,0.16710
568.81179,0.21421
567.32200,0.21688
565.83221,0.21958
564.34242,0.17042
562.85264,0.19860
561.36285,0.33167
559.87306,0.32021
558.38327,0.30878
556.89348,0.34346
555.40369,0.41841
553.91391,0.35095
552.42412,0.28353
550.93433,0.42001
549.44454,0.32777
547.95475,0.46856
546.46496,0.43728
544.97517,0.40603
543.48539,0.47808
541.99560,0.57241
540.50581,0.60163
539.01602,0.63089
537.52623,0.44360
536.03644,0.42474
534.54666,0.45145
533.05687,0.48085
531.56708,0.51028
530.07729,0.38247
528.58750,0.36695
527.09771,0.40072
525.60792,0.43452
524.11814,0.42970
522.62835,0.47575
521.13856,0.38839
519.64877,0.34978
518.15898,0.31120
516.66919,0.38280
515.17941,0.34429
513.68962,0.34659
512.19983,0.34893
510.71004,0.26180
509.22025,0.30286
507.73046,0.35031
506.24068,0.37767
504.75089,0.40506
503.26110,0.38165
501.77131,0.33074
500.28152,0.34605
498.79173,0.36140
497.30194,0.26823
495.81216,0.32654
494.32237,0.37376
492.83258,0.42101
491.34279,0.39788
489.85300,0.34194
488.36321,0.25745
486.87343,0.25718
485.38364,0.25695
483.89385,0.31765
482.40406,0.19410
480.91427,0.16008
479.42448,0.12609
477.93469,0.07467
476.44491,0.08470
474.95512,0.12919
473.46533,0.17371
471.97554,0.05040
470.48575,0.15694
468.99596,0.18939
467.50618,0.10748
466.01639,0.02562
464.52660,0.02321
463.03681,0.06426
461.54702,0.07940
460.05723,0.09457
458.56745,0.00546
457.07766,0.06156
455.58787,0.08698
454.09808,0.11243
452.60829,0.17393
451.11850,0.24076
449.62871,0.21283
448.13893,0.18494
446.64914,0.24339
445.15935,0.32730
443.66956,0.40171
442.17977,0.34906
440.68998,0.29645
439.20020,0.42815
437.71041,0.37561
436.22062,0.37340
434.73083,0.37123
433.24104,0.65451
431.75125,0.74826
430.26146,0.78061
428.77168,0.81299
427.28189,0.94920
425.79210,1.01025
424.30231,1.00355
422.81252,0.99689
421.32273,0.87059
419.83295,0.76444
418.34316,0.72134
416.85337,0.67827
415.36358,0.56587
413.87379,0.45880
412.38400,0.45079
410.89422,0.44281
409.40443,0.44810
407.91464,0.47249
406.42485,0.32640
404.93506,0.26931
403.44527,0.21225
401.95548,0.22618
400.46570,0.31217
398.97591,0.28751
397.48612,0.26289
395.99633,0.27696
394.50654,0.33449
393.01675,0.31579
391.52697,0.29713
390.03718,0.09635
388.54739,0.04069
387.05760,0.14657
385.56781,0.25249
384.07802,0.36215
382.58824,0.27167
381.09845,0.28026
379.60866,0.28888
378.11887,0.28853
376.62908,0.18442
375.13929,0.14866
373.64950,0.11293
372.15972,0.12649
370.66993,0.13584
369.18014,0.10180
367.69035,0.06780
366.20056,0.04866
364.71077,0.13758
363.22099,0.14869
361.73120,0.15983
360.24141,0.17472
358.75162,0.27542
357.26183,0.28613
355.77204,0.29688
354.28225,0.20706
352.79247,0.14798
351.30268,0.13023
349.81289,0.11253
348.32310,0.08532
346.83331,0.01684
345.34352,0.05505
343.85374,0.09328
342.36395,0.21416
340.87416,0.20905
339.38437,0.23309
337.89458,0.25716
336.40479,0.26274
334.91501,0.14444
333.42522,0.17444
331.93543,0.20448
330.44564,0.18054
328.95585,0.21912
327.46606,0.15500
325.97627,0.09091
324.48649,0.03851
322.99670,0.10450
321.50691,0.19011
320.01712,0.27576
318.52733,0.24124
317.03754,0.26605
315.54776,0.21360
314.05797,0.16117
312.56818,0.05265
311.07839,0.06172
309.58860,0.04805
308.09881,0.03442
306.60902,0.00546
305.11924,0.07360
303.62945,0.11529
302.13966,0.15702
300.64987,0.08334
299.16008,0.00546
