1778.52000,0.03393
1777.03021,0.00000
1775.54042,0.08142
1774.05063,0.05116
1772.56085,0.02454
1771.07106,0.03999
1769.58127,0.03386
1768.09148,0.03376
1766.60169,0.07814
1765.11190,0.03846
1763.62212,0.03246
1762.13233,0.03489
1760.64254,0.06259
1759.15275,0.05428
1757.66296,0.09165
1756.17317,0.06778
1754.68339,0.08840
1753.19360,0.05980
1751.70381,0.00000
1750.21402,0.06646
1748.72423,0.07289
1747.23444,0.06373
1745.74465,0.07983
1744.25487,0.05032
1742.76508,0.04727
1741.27529,0.10071
1739.78550,0.08211
1738.29571,0.06114
1736.80592,0.11828
1735.31614,0.06494
1733.82635,0.04407
1732.33656,0.05206
1730.84677,0.10092
1729.35698,0.05012
1727.86719,0.04139
1726.37740,0.02428
1724.88762,0.00000
1723.39783,0.05505
1721.90804,0.05007
1720.41825,0.03190
1718.92846,0.04140
1717.43867,0.02691
1715.94889,0.06410
1714.45910,0.05808
1712.96931,0.06651
1711.47952,0.08098
1709.98973,0.08106
1708.49994,0.06556
1707.01016,0.08373
1705.52037,0.10193
1704.03058,0.17422
1702.54079,0.16005
1701.05100,0.15433
1699.56121,0.14864
1698.07142,0.20184
1696.58164,0.17218
1695.09185,0.20263
1693.60206,0.22709
1692.11227,0.22757
1690.62248,0.32298
1689.13269,0.26466
1687.64291,0.28926
1686.15312,0.29707
1684.66333,0.29170
1683.17354,0.26595
1681.68375,0.27867
1680.19396,0.28181
1678.70417,0.29099
1677.21439,0.25095
1675.72460,0.26980
1674.23481,0.26466
1672.74502,0.25956
1671.25523,0.24488
1669.76544,0.33834
1668.27566,0.32252
1666.78587,0.27670
1665.29608,0.24653
1663.80629,0.26205
1662.31650,0.27879
1660.82671,0.26674
1659.33693,0.22589
1657.84714,0.24273
1656.35735,0.21276
1654.86756,0.16841
1653.37777,0.15892
1651.88798,0.18551
1650.39819,0.17368
1648.90841,0.17150
1647.41862,0.16455
1645.92883,0.17144
1644.43904,0.17837
1642.94925,0.23158
1641.45946,0.16469
1639.96968,0.17112
1638.47989,0.19679
1636.99010,0.16244
1635.50031,0.10650
1634.01052,0.13588
1632.52073,0.14847
1631.03094,0.16350
1629.54116,0.18096
1628.05137,0.15642
1626.56158,0.19797
1625.07179,0.22754
1623.58200,0.25955
1622.09221,0.28559
1620.60243,0.28643
1619.11264,0.25007
1617.62285,0.20533
1616.13306,0.25071
1614.64327,0.20484
1613.15348,0.21666
1611.66370,0.19967
1610.17391,0.21876
1608.68412,0.21266
1607.19433,0.23061
1605.70454,0.18854
1604.21475,0.20956
1602.72496,0.23061
1601.23518,0.20065
1599.74539,0.15390
1598.25560,0.15643
1596.76581,0.11575
1595.27602,0.19643
1593.78623,0.09336
1592.29645,0.12245
1590.80666,0.12634
1589.31687,0.13868
1587.82708,0.10421
1586.33729,0.16106
1584.84750,0.12184
1583.35771,0.15233
1581.86793,0.09276
1580.37814,0.08847
1578.88835,0.13828
1577.39856,0.09202
1575.90877,0.08784
1574.41898,0.05846
1572.92920,0.05674
1571.43941,0.06827
1569.94962,0.07743
1568.45983,0.08662
1566.97004,0.06582
1565.48025,0.06787
1563.99047,0.06635
1562.50068,0.06726
1561.01089,0.05980
1559.52110,0.05838
1558.03131,0.12065
1556.54152,0.12290
1555.05173,0.17202
1553.56195,0.10346
1552.07216,0.11061
1550.58237,0.09977
1549.09258,0.07696
1547.60279,0.09742
1546.11300,0.10350
1544.62322,0.04354
1543.13343,0.06890
1541.64364,0.07748
1540.15385,0.05666
1538.66406,0.03588
1537.17427,0.06858
1535.68448,0.02684
1534.19470,0.08723
1532.70491,0.05757
1531.21512,0.07839
1529.72533,0.01275
1528.23554,0.00000
1526.74575,0.04986
1525.25597,0.04570
1523.76618,0.06079
1522.27639,0.01586
1520.78660,0.02861
1519.29681,0.01978
1517.80702,0.03140
1516.31724,0.06227
1514.82745,0.00548
1513.33766,0.04517
1511.84787,0.08488
1510.35808,0.06577
1508.86829,0.07192
1507.37850,0.04807
1505.88872,0.00383
1504.39893,0.05571
1502.90914,0.02954
1501.41935,0.01182
1499.92956,0.03857
1498.43977,0.09299
1496.94999,0.10419
1495.46020,0.16708
1493.97041,0.21919
1492.48062,0.20406
1490.99083,0.20939
1489.50104,0.26880
1488.01125,0.31143
1486.52147,0.35409
1485.03168,0.44003
1483.54189,0.48036
1482.05210,0.50390
1480.56231,0.71367
1479.07252,0.71325
1477.58274,0.90506
1476.09295,0.98038
1474.60316,1.02571
1473.11337,1.17077
1471.62358,1.13568
1470.13379,1.12225
1468.64401,1.03437
1467.15422,0.96334
1465.66443,0.96622
1464.17464,0.96913
1462.68485,0.90901
1461.19506,0.97265
1459.70527,0.95584
1458.21549,0.85978
1456.72570,0.81180
1455.23591,0.79269
1453.74612,0.67630
1452.25633,0.77137
1450.76654,0.70791
1449.27676,0.67691
1447.78697,0.69760
1446.29718,0.65105
1444.80739,0.59853
1443.31760,0.54604
1441.82781,0.45034
1440.33802,0.40513
1438.84824,0.37316
1437.35845,0.32080
1435.86866,0.34535
1434.37887,0.30027
1432.88908,0.32008
1431.39929,0.22341
1429.90951,0.30816
1428.41972,0.22957
1426.92993,0.27954
1425.44014,0.30913
1423.95035,0.30331
1422.46056,0.29753
1420.97078,0.27556
1419.48099,0.30888
1417.99120,0.32902
1416.50141,0.26030
1415.01162,0.31414
1413.52183,0.34880
1412.03204,0.31982
1410.54226,0.34372
1409.05247,0.29319
1407.56268,0.34599
1406.07289,0.31954
1404.58310,0.30935
1403.09331,0.29918
1401.60353,0.31247
1400.11374,0.34982
1398.62395,0.35477
1397.13416,0.33333
1395.64437,0.37438
1394.15458,0.35900
1392.66479,0.43375
1391.17501,0.51094
1389.68522,0.48005
1388.19543,0.39273
1386.70564,0.40034
1385.21585,0.40799
1383.72606,0.37362
1382.23628,0.36692
1380.74649,0.35064
1379.25670,0.38484
1377.76691,0.36982
1376.27712,0.46175
1374.78733,0.50686
1373.29755,0.52198
1371.80776,0.62721
1370.31797,0.66401
1368.82818,0.75971
1367.33839,0.85543
1365.84860,0.89714
1364.35881,1.08542
1362.86903,1.17284
1361.37924,1.27110
1359.88945,1.38260
1358.39966,1.41366
1356.90987,1.62733
1355.42008,1.52632
1353.93030,1.49861
1352.44051,1.47034
1350.95072,1.44210
1349.46093,1.43251
1347.97114,1.28841
1346.48135,1.06627
1344.99156,0.99071
1343.50178,0.90077
1342.01199,0.85531
1340.52220,0.75222
1339.03241,0.73925
1337.54262,0.65425
1336.05283,0.63474
1334.56305,0.61527
1333.07326,0.63607
1331.58347,0.55840
1330.09368,0.50959
1328.60389,0.45842
1327.11410,0.47454
1325.62432,0.44986
1324.13453,0.40479
1322.64474,0.42342
1321.15495,0.37360
1319.66516,0.38809
1318.17537,0.40261
1316.68558,0.38413
1315.19580,0.45097
1313.70601,0.37009
1312.21622,0.33128
1310.72643,0.29491
1309.23664,0.31143
1307.74685,0.31957
1306.25707,0.30252
1304.76728,0.31433
1303.27749,0.32617
1301.78770,0.33445
1300.29791,0.29230
1298.80812,0.31505
1297.31834,0.31862
1295.82855,0.32342
1294.33876,0.31383
1292.84897,0.35954
1291.35918,0.32359
1289.86939,0.32792
1288.37960,0.33228
1286.88982,0.36731
1285.40003,0.33150
1283.91024,0.41704
1282.42045,0.41853
1280.93066,0.44167
1279.44087,0.39157
1277.95109,0.41718
1276.46130,0.39838
1274.97151,0.38862
1273.48172,0.37890
1271.99193,0.52596
1270.50214,0.45684
1269.01235,0.46223
1267.52257,0.51930
1266.03278,0.58481
1264.54299,0.61792
1263.05320,0.57059
1261.56341,0.61518
1260.07362,0.65980
1258.58384,0.64499
1257.09405,0.59779
1255.60426,0.58425
1254.11447,0.69567
1252.62468,0.58610
1251.13489,0.57866
1249.64511,0.61450
1248.15532,0.49542
1246.66553,0.45685
1245.17574,0.41831
1243.68595,0.45429
1242.19616,0.40621
1240.70637,0.35215
1239.21659,0.35098
1237.72680,0.35585
1236.23701,0.29349
1234.74722,0.26239
1233.25743,0.24754
1231.76764,0.23272
1230.27786,0.20172
1228.78807,0.26564
1227.29828,0.21068
1225.80849,0.17257
1224.31870,0.22218
1222.82891,0.13368
1221.33912,0.23020
1219.84934,0.23066
1218.35955,0.23115
1216.86976,0.16801
1215.37997,0.24424
1213.89018,0.24243
1212.40039,0.21182
1210.91061,0.24611
1209.42082,0.20595
1207.93103,0.14541
1206.44124,0.08490
1204.95145,0.11571
1203.46166,0.12374
1201.97188,0.10777
1200.48209,0.10505
1198.99230,0.09395
1197.50251,0.00000
1196.01272,0.04627
1194.52293,0.04031
1193.03314,0.03439
1191.54336,0.00268
1190.05357,0.08151
1188.56378,0.04745
1187.07399,0.00142
1185.58420,0.01030
1184.09441,0.04203
1182.60463,0.03115
1181.11484,0.02030
1179.62505,0.06174
1178.13526,0.08039
1176.64547,0.02580
1175.15568,0.07694
1173.66589,0.06806
1172.17611,0.03999
1170.68632,0.03598
1169.19653,0.03200
1167.70674,0.04608
1166.21695,0.06499
1164.72716,0.07672
1163.23738,0.01762
1161.74759,0.04263
1160.25780,0.05686
1158.76801,0.04050
1157.27822,0.02417
1155.78843,0.07214
1154.29865,0.01083
1152.80886,0.00000
1151.31907,0.01950
1149.82928,0.03422
1148.33949,0.08501
1146.84970,0.07818
1145.35991,0.07138
1143.87013,0.10305
1142.38034,0.06508
1140.89055,0.11724
1139.40076,0.20787
1137.91097,0.16879
1136.42118,0.17781
1134.93140,0.20667
1133.44161,0.23556
1131.95182,0.30834
1130.46203,0.36193
1128.97224,0.32305
1127.48245,0.36469
1125.99266,0.39795
1124.50288,0.35677
1123.01309,0.35166
1121.52330,0.34659
1120.03351,0.45446
1118.54372,0.35094
1117.05393,0.40843
1115.56415,0.45393
1114.07436,0.53671
1112.58457,0.52222
1111.09478,0.50776
1109.60499,0.47651
1108.11520,0.43449
1106.62542,0.51503
1105.13563,0.55355
1103.64584,0.66178
1102.15605,0.69437
1100.66626,0.69215
1099.17647,0.68997
1097.68668,0.76709
1096.19690,0.74335
1094.70711,0.77250
1093.21732,0.79447
1091.72753,0.90536
1090.23774,0.91478
1088.74795,0.92424
1087.25817,1.04244
1085.76838,0.97928
1084.27859,1.04829
1082.78880,1.03446
1081.29901,1.12996
1079.80922,1.09096
1078.31943,1.08983
1076.82965,1.08874
1075.33986,1.20840
1073.85007,1.18515
1072.36028,1.17634
1070.87049,1.25886
1069.38070,1.29817
1067.89092,1.31529
1066.40113,1.33244
1064.91134,1.28777
1063.42155,1.17825
1061.93176,1.13004
1060.44197,1.03500
1058.95219,0.90517
1057.46240,0.88948
1055.97261,0.87383
1054.48282,0.86061
1052.99303,0.78016
1051.50324,0.72857
1050.01345,0.62415
1048.52367,0.65431
1047.03388,0.63885
1045.54409,0.62343
1044.05430,0.58641
1042.56451,0.53261
1041.07472,0.49567
1039.58494,0.46956
1038.09515,0.43748
1036.60536,0.45048
1035.11557,0.46351
1033.62578,0.39670
1032.13599,0.35274
1030.64620,0.36046
1029.15642,0.40666
1027.66663,0.41265
1026.17684,0.41867
1024.68705,0.39529
1023.19726,0.51970
1021.70747,0.59489
1020.21769,0.77822
1018.72790,0.84987
1017.23811,0.98222
1015.74832,1.11460
1014.25853,1.34731
1012.76874,1.56924
1011.27896,1.84407
1009.78917,2.00000
1008.29938,1.94575
1006.80959,1.87171
1005.31980,1.79771
1003.83001,1.55377
1002.34022,1.50926
1000.85044,1.46959
999.36065,1.30382
997.87086,1.28523
996.38107,1.26668
994.89128,1.21513
993.40149,1.17922
991.91171,1.19380
990.42192,1.13034
988.93213,1.17622
987.44234,1.15305
985.95255,1.12993
984.46276,1.15908
982.97297,1.15224
981.48319,1.02290
979.99340,1.03774
978.50361,0.99195
977.01382,0.94620
975.52403,1.00318
974.03424,0.86079
972.54446,0.89501
971.05467,0.87281
969.56488,0.90830
968.07509,0.85854
966.58530,0.80881
965.09551,0.83839
963.60573,0.79353
962.11594,0.71146
960.62615,0.73634
959.13636,0.68136
957.64657,0.62642
956.15678,0.61536
954.66699,0.53586
953.17721,0.70144
951.68742,0.64002
950.19763,0.63029
948.70784,0.62059
947.21805,0.54606
945.72826,0.53523
944.23848,0.49800
942.74869,0.54969
941.25890,0.64947
939.76911,0.64477
938.27932,0.64010
936.78953,0.77361
935.29974,0.74739
933.80996,0.71279
932.32017,0.72627
930.83038,0.71096
929.34059,0.69568
927.85080,0.65881
926.36101,0.71086
924.87123,0.58637
923.38144,0.56161
921.89165,0.61796
920.40186,0.67435
918.91207,0.66891
917.42228,0.65269
915.93250,0.71578
914.44271,0.68881
912.95292,0.63185
911.46313,0.57492
909.97334,0.67057
908.48355,0.70740
906.99376,0.79832
905.50398,0.62860
904.01419,0.64511
902.52440,0.66165
901.03461,0.73588
899.54482,0.73086
898.05503,0.69584
896.56525,0.82903
895.07546,0.79168
893.58567,0.75436
892.09588,0.78794
890.60609,0.80955
889.11630,0.80956
887.62651,0.77838
886.13673,0.80128
884.64694,0.82422
883.15715,0.74989
881.66736,0.78490
880.17757,0.81395
878.68778,0.80999
877.19800,0.80606
875.70821,0.82559
874.21842,0.82232
872.72863,0.85513
871.23884,0.98527
869.74905,0.93706
868.25927,0.88888
866.76948,0.86296
865.27969,0.91756
863.78990,1.07669
862.30011,1.01963
860.81032,1.03949
859.32053,1.05938
857.83075,1.08530
856.34096,0.97913
854.85117,0.93785
853.36138,0.78970
851.87159,0.76891
850.38180,0.74815
848.89202,0.63973
847.40223,0.42564
845.91244,0.43982
844.42265,0.41799
842.93286,0.39620
841.44307,0.42729
839.95329,0.42598
838.46350,0.32500
836.97371,0.35258
835.48392,0.39762
833.99413,0.44269
832.50434,0.40791
831.01455,0.43922
829.52477,0.39850
828.03498,0.32298
826.54519,0.30154
825.05540,0.28014
823.56561,0.23835
822.07582,0.27587
820.58604,0.16927
819.09625,0.17563
817.60646,0.18202
816.11667,0.17042
814.62688,0.06516
813.13709,0.02840
811.64730,0.07215
810.15752,0.03606
808.66773,0.00000
807.17794,0.04109
805.68815,0.00533
804.19836,0.02727
802.70857,0.06485
801.21879,0.10247
799.72900,0.13772
798.23921,0.16939
796.74942,0.33323
795.25963,0.32774
793.76984,0.32227
792.28006,0.33846
790.79027,0.40634
789.30048,0.47185
787.81069,0.52177
786.32090,0.54049
784.83111,0.55925
783.34132,0.56002
781.85154,0.53439
780.36175,0.55325
778.87196,0.59075
777.38217,0.62829
775.89238,0.71211
774.40259,0.71548
772.91281,0.76573
771.42302,0.76916
769.93323,0.77263
768.44344,0.85180
766.95365,0.77125
765.46386,0.91416
763.97407,0.80484
762.48429,0.74841
760.99450,0.69201
759.50471,0.62843
758.01492,0.51204
756.52513,0.46054
755.03534,0.42349
753.54556,0.38648
752.05577,0.26181
750.56598,0.18762
749.07619,0.16631
747.58640,0.15526
746.09661,0.14423
744.60683,0.07978
743.11704,0.08984
741.62725,0.03627
740.13746,0.04760
738.64767,0.05896
737.15788,0.04032
735.66809,0.02772
734.17831,0.02596
732.68852,0.02124
731.19873,0.01654
729.70894,0.02810
728.21915,0.01326
726.72936,0.03929
725.23958,0.06416
723.74979,0.10588
722.26000,0.14763
720.77021,0.06688
719.28042,0.07747
717.79063,0.04003
716.30084,0.02966
714.81106,0.01932
713.32127,0.00000
711.83148,0.00761
710.34169,0.02725
708.85190,0.05294
707.36211,0.07866
705.87233,0.10682
704.38254,0.07375
702.89275,0.05993
701.40296,0.07497
699.91317,0.09004
698.42338,0.11596
696.93360,0.10827
695.44381,0.14387
693.95402,0.13385
692.46423,0.12386
690.97444,0.21600
689.48465,0.18326
687.99486,0.17337
686.50508,0.20615
685.01529,0.23897
683.52550,0.32768
682.03571,0.20020
680.54592,0.24693
679.05613,0.22702
677.56635,0.20715
676.07656,0.18911
674.58677,0.15189
673.09698,0.13752
671.60719,0.14660
670.11740,0.15572
668.62761,0.11502
667.13783,0.06715
665.64804,0.07637
664.15825,0.08562
662.66846,0.07869
661.17867,0.05136
659.68888,0.13339
658.19910,0.11814
656.70931,0.10293
655.21952,0.15502
653.72973,0.18432
652.23994,0.17762
650.75015,0.21779
649.26037,0.25800
647.77058,0.20214
646.28079,0.15352
644.79100,0.08332
643.30121,0.07741
641.81142,0.07153
640.32163,0.15278
638.83185,0.03585
637.34206,0.00665
635.85227,0.00331
634.36248,0.00000
632.87269,0.10286
631.38290,0.13248
629.89312,0.13571
628.40333,0.12455
626.91354,0.11343
625.42375,0.13837
623.93396,0.16455
622.44417,0.13311
620.95438,0.10169
619.46460,0.07512
617.97481,0.04978
616.48502,0.10735
614.99523,0.11991
613.50544,0.13251
612.01565,0.07967
610.52587,0.11215
609.03608,0.10262
607.54629,0.12855
606.05650,0.15452
604.56671,0.19434
603.07692,0.16572
601.58714,0.15515
600.09735,0.14462
598.60756,0.13291
597.11777,0.08040
595.62798,0.09759
594.13819,0.09319
592.64840,0.08882
591.15862,0.08089
589.66883,0.09340
588.17904,0.08913
586.68925,0.10232
585.19946,0.11553
583.70967,0.17142
582.21989,0.20092
580.73010,0.18420
579.24031,0.16751
577.75052,0.15506
576.26073,0.16307
574.77094,0.13627
573.28115,0.15515
571.79137,0.17407
570.30158,0.22184
568.81179,0.25524
567.32200,0.24001
565.83221,0.22482
564.34242,0.28955
562.85264,0.42878
561.36285,0.38185
559.87306,0.40163
558.38327,0.42144
556.89348,0.44788
555.40369,0.39028
553.91391,0.44862
552.42412,0.50700
550.93433,0.45790
549.44454,0.49893
547.95475,0.56041
546.46496,0.56907
544.97517,0.57776
543.48539,0.57807
541.99560,0.65770
540.50581,0.69111
539.01602,0.72456
537.52623,0.64933
536.03644,0.56211
534.54666,0.53620
533.05687,0.55236
531.56708,0.56855
530.07729,0.53072
528.58750,0.57700
527.09771,0.49840
525.60792,0.41982
524.11814,0.43618
522.62835,0.49581
521.13856,0.48820
519.64877,0.44700
518.15898,0.40583
516.66919,0.29621
515.17941,0.36202
513.68962,0.38881
512.19983,0.41564
510.71004,0.34580
509.22025,0.36728
507.73046,0.35517
506.24068,0.38212
504.75089,0.40911
503.26110,0.39349
501.77131,0.37310
500.28152,0.37256
498.79173,0.37205
497.30194,0.32052
495.81216,0.41798
494.32237,0.42057
492.83258,0.42320
491.34279,0.42225
489.85300,0.36969
488.36321,0.30995
486.87343,0.31871
485.38364,0.32751
483.89385,0.34714
482.40406,0.29714
480.91427,0.23036
479.42448,0.16361
477.93469,0.17257
476.44491,0.11069
474.95512,0.08307
473.46533,0.05549
471.97554,0.15107
470.48575,0.04487
468.99596,0.14412
467.50618,0.11787
466.01639,0.09165
464.52660,0.00000
463.03681,0.07605
461.54702,0.10289
460.05723,0.12975
458.56745,0.14825
457.07766,0.13313
455.58787,0.12166
454.09808,0.11022
452.60829,0.20332
451.11850,0.18473
449.62871,0.16919
448.13893,0.15367
446.64914,0.28774
445.15935,0.39782
443.66956,0.46108
442.17977,0.48354
440.68998,0.50602
439.20020,0.53695
437.71041,0.53187
436.22062,0.59770
434.73083,0.66356
433.24104,0.76309
431.75125,0.85184
430.26146,0.88957
428.77168,0.92734
427.28189,0.99456
425.79210,1.01617
424.30231,1.03782
422.81252,1.05950
421.32273,1.06919
419.83295,0.99964
418.34316,0.90970
416.85337,0.81980
415.36358,0.74554
413.87379,0.54158
412.38400,0.59232
410.89422,0.64308
409.40443,0.54493
407.91464,0.52129
406.42485,0.42320
404.93506,0.41224
403.44527,0.40131
401.95548,0.40302
400.46570,0.39275
398.97591,0.32907
397.48612,0.26541
395.99633,0.30569
394.50654,0.37964
393.01675,0.38576
391.52697,0.39190
390.03718,0.20409
388.54739,0.21690
387.05760,0.20032
385.56781,0.18378
384.07802,0.29159
382.58824,0.27211
381.09845,0.24004
379.60866,0.20801
378.11887,0.20904
376.62908,0.14044
375.13929,0.11692
373.64950,0.09342
372.15972,0.11861
370.66993,0.09699
369.18014,0.10302
367.69035,0.10909
366.20056,0.09717
364.71077,0.00000
363.22099,0.04568
361.73120,0.09139
360.24141,0.11671
358.75162,0.11684
357.26183,0.13622
355.77204,0.15563
354.28225,0.08859
352.79247,0.03960
351.30268,0.05190
349.81289,0.06424
348.32310,0.01054
346.83331,0.00493
345.34352,0.01118
343.85374,0.01746
342.36395,0.08444
340.87416,0.11061
339.38437,0.08817
337.89458,0.06575
336.40479,0.08121
334.91501,0.01141
333.42522,0.01673
331.93543,0.02207
330.44564,0.02805
328.95585,0.02565
327.46606,0.03770
325.97627,0.04979
324.48649,0.01625
322.99670,0.09430
321.50691,0.08649
320.01712,0.07872
318.52733,0.12924
317.03754,0.13053
315.54776,0.08442
314.05797,0.03833
312.56818,0.04934
311.07839,0.01714
309.58860,0.01199
308.09881,0.00688
306.60902,0.00000
305.11924,0.10348
303.62945,0.07606
302.13966,0.04867
300.64987,0.09940
299.16008,0.00000
