1778.52000,0.00846
1777.03021,0.03441
1775.54042,0.00401
1774.05063,0.02152
1772.56085,0.03799
1771.07106,0.03535
1769.58127,0.05615
1768.09148,0.03549
1766.60169,0.02444
1765.11190,0.06767
1763.62212,0.02584
1762.13233,0.05744
1760.64254,0.06567
1759.15275,0.08564
1757.66296,0.08649
1756.17317,0.05121
1754.68339,0.00000
1753.19360,0.04989
1751.70381,0.01683
1750.21402,0.01147
1748.72423,0.00401
1747.23444,0.03792
1745.74465,0.02399
1744.25487,0.07605
1742.76508,0.05793
1741.27529,0.02815
1739.78550,0.07180
1738.29571,0.03889
1736.80592,0.04324
1735.31614,0.04125
1733.82635,0.04674
1732.33656,0.00545
1730.84677,0.03547
1729.35698,0.07297
1727.86719,0.02540
1726.37740,0.07255
1724.88762,0.04738
1723.39783,0.02438
1721.90804,0.00886
1720.41825,0.00401
1718.92846,0.00943
1717.43867,0.03085
1715.94889,0.05123
1714.45910,0.08548
1712.96931,0.06338
1711.47952,0.09769
1709.98973,0.06396
1708.49994,0.09621
1707.01016,0.10722
1705.52037,0.11827
1704.03058,0.14211
1702.54079,0.16918
1701.05100,0.18564
1699.56121,0.19682
1698.07142,0.24527
1696.58164,0.18630
1695.09185,0.28800
1693.60206,0.27804
1692.11227,0.31279
1690.62248,0.29225
1689.13269,0.29303
1687.64291,0.29596
1686.15312,0.36489
1684.66333,0.36470
1683.17354,0.37837
1681.68375,0.34208
1680.19396,0.30901
1678.70417,0.32066
1677.21439,0.39617
1675.72460,0.35575
1674.23481,0.36218
1672.74502,0.32502
1671.25523,0.33684
1669.76544,0.39230
1668.27566,0.39354
1666.78587,0.34269
1665.29608,0.32379
1663.80629,0.30173
1662.31650,0.33502
1660.82671,0.33749
1659.33693,0.31021
1657.84714,0.31062
1656.35735,0.28022
1654.86756,0.27219
1653.37777,0.20781
1651.88798,0.22112
1650.39819,0.20042
1648.90841,0.22869
1647.41862,0.18785
1645.92883,0.19332
1644.43904,0.19882
1642.94925,0.20914
1641.45946,0.19396
1639.96968,0.16605
1638.47989,0.15733
1636.99010,0.15182
1635.50031,0.19316
1634.01052,0.17603
1632.52073,0.18233
1631.03094,0.09717
1629.54116,0.16843
1628.05137,0.18547
1626.56158,0.24722
1625.07179,0.28242
1623.58200,0.28147
1622.09221,0.37524
1620.60243,0.34883
1619.11264,0.27883
1617.62285,0.24185
1616.13306,0.25596
1614.64327,0.25096
1613.15348,0.21940
1611.66370,0.23787
1610.17391,0.25212
1608.68412,0.21747
1607.19433,0.29561
1605.70454,0.20251
1604.21475,0.21796
1602.72496,0.23344
1601.23518,0.22129
1599.74539,0.20493
1598.25560,0.13540
1596.76581,0.14357
1595.27602,0.16347
1593.78623,0.17915
1592.29645,0.14380
1590.80666,0.12444
1589.31687,0.12746
1587.82708,0.12199
1586.33729,0.11763
1584.84750,0.15372
1583.35771,0.11006
1581.86793,0.06644
1580.37814,0.12816
1578.88835,0.14631
1577.39856,0.08895
1575.90877,0.10290
1574.41898,0.06689
1572.92920,0.05964
1571.43941,0.07050
1569.94962,0.07608
1568.45983,0.08169
1566.97004,0.08414
1565.48025,0.05684
1563.99047,0.06468
1562.50068,0.10553
1561.01089,0.13152
1559.52110,0.10648
1558.03131,0.18999
1556.54152,0.14693
1555.05173,0.16986
1553.56195,0.14602
1552.07216,0.17859
1550.58237,0.08886
1549.09258,0.10448
1547.60279,0.10205
1546.11300,0.10497
1544.62322,0.11963
1543.13343,0.06836
1541.64364,0.06606
1540.15385,0.05475
1538.66406,0.04348
1537.17427,0.11575
1535.68448,0.04231
1534.19470,0.00401
1532.70491,0.00947
1531.21512,0.02879
1529.72533,0.04177
1528.23554,0.02180
1526.74575,0.05186
1525.25597,0.05217
1523.76618,0.04506
1522.27639,0.05714
1520.78660,0.04265
1519.29681,0.02182
1517.80702,0.02655
1516.31724,0.00791
1514.82745,0.01802
1513.33766,0.03615
1511.84787,0.05432
1510.35808,0.04964
1508.86829,0.05351
1507.37850,0.00422
1505.88872,0.03049
1504.39893,0.04297
1502.90914,0.05442
1501.41935,0.06590
1499.92956,0.00401
1498.43977,0.09574
1496.94999,0.11196
1495.46020,0.20801
1493.97041,0.18494
1492.48062,0.24808
1490.99083,0.22614
1489.50104,0.35849
1488.01125,0.35950
1486.52147,0.36053
1485.03168,0.44405
1483.54189,0.49994
1482.05210,0.52607
1480.56231,0.62139
1479.07252,0.70823
1477.58274,0.85468
1476.09295,0.92670
1474.60316,1.06896
1473.11337,1.10274
1471.62358,1.23975
1470.13379,1.28850
1468.64401,1.23621
1467.15422,1.09991
1465.66443,1.09184
1464.17464,1.08381
1462.68485,0.99442
1461.19506,1.04017
1459.70527,1.00404
1458.21549,0.98816
1456.72570,0.97444
1455.23591,0.97990
1453.74612,1.01412
1452.25633,0.94624
1450.76654,0.93478
1449.27676,0.93187
1447.78697,0.83218
1446.29718,0.84635
1444.80739,0.77226
1443.31760,0.69820
1441.82781,0.54013
1440.33802,0.57678
1438.84824,0.44005
1437.35845,0.41719
1435.86866,0.36989
1434.37887,0.40348
1432.88908,0.41264
1431.39929,0.37821
1429.90951,0.36935
1428.41972,0.44456
1426.92993,0.41448
1425.44014,0.38019
1423.95035,0.41827
1422.46056,0.45638
1420.97078,0.53495
1419.48099,0.49547
1417.99120,0.43368
1416.50141,0.46767
1415.01162,0.41021
1413.52183,0.42831
1412.03204,0.44538
1410.54226,0.41993
1409.05247,0.43387
1407.56268,0.34147
1406.07289,0.41931
1404.58310,0.39080
1403.09331,0.36233
1401.60353,0.42644
1400.11374,0.49697
1398.62395,0.46647
1397.13416,0.46898
1395.64437,0.45875
1394.15458,0.48261
1392.66479,0.49054
1391.17501,0.48680
1389.68522,0.58522
1388.19543,0.49325
1386.70564,0.48961
1385.21585,0.48601
1383.72606,0.50159
1382.23628,0.40124
1380.74649,0.34454
1379.25670,0.44001
1377.76691,0.42806
1376.27712,0.45657
1374.78733,0.46171
1373.29755,0.58710
1371.80776,0.63060
1370.31797,0.67946
1368.82818,0.76558
1367.33839,0.85174
1365.84860,0.95815
1364.35881,1.06991
1362.86903,1.24659
1361.37924,1.25735
1359.88945,1.37666
1358.39966,1.50344
1356.90987,1.60898
1355.42008,1.61030
1353.93030,1.53612
1352.44051,1.52634
1350.95072,1.51659
1349.46093,1.39357
1347.97114,1.29931
1346.48135,1.22636
1344.99156,1.11834
1343.50178,1.16887
1342.01199,1.04815
1340.52220,0.90405
1339.03241,0.73446
1337.54262,0.79470
1336.05283,0.77624
1334.56305,0.75781
1333.07326,0.74687
1331.58347,0.70617
1330.09368,0.67933
1328.60389,0.65466
1327.11410,0.60555
1325.62432,0.60754
1324.13453,0.52551
1322.64474,0.56800
1321.15495,0.60732
1319.66516,0.54721
1318.17537,0.48713
1316.68558,0.53613
1315.19580,0.50537
1313.70601,0.47784
1312.21622,0.45885
1310.72643,0.41224
1309.23664,0.44544
1307.74685,0.44145
1306.25707,0.46834
1304.76728,0.44527
1303.27749,0.42222
1301.78770,0.36411
1300.29791,0.37411
1298.80812,0.34372
1297.31834,0.32720
1295.82855,0.35220
1294.33876,0.39425
1292.84897,0.35016
1291.35918,0.36994
1289.86939,0.38603
1288.37960,0.40215
1286.88982,0.35288
1285.40003,0.47067
1283.91024,0.47679
1282.42045,0.49038
1280.93066,0.52104
1279.44087,0.51342
1277.95109,0.47605
1276.46130,0.52276
1274.97151,0.57429
1273.48172,0.62586
1271.99193,0.59820
1270.50214,0.60462
1269.01235,0.60575
1267.52257,0.68776
1266.03278,0.58577
1264.54299,0.68594
1263.05320,0.65635
1261.56341,0.66350
1260.07362,0.67069
1258.58384,0.68056
1257.09405,0.65324
1255.60426,0.69510
1254.11447,0.73380
1252.62468,0.72253
1251.13489,0.71981
1249.64511,0.67882
1248.15532,0.62936
1246.66553,0.59216
1245.17574,0.55500
1243.68595,0.50989
1242.19616,0.51481
1240.70637,0.53467
1239.21659,0.48221
1237.72680,0.38936
1236.23701,0.34336
1234.74722,0.33994
1233.25743,0.28868
1231.76764,0.23746
1230.27786,0.26818
1228.78807,0.18192
1227.29828,0.23399
1225.80849,0.21801
1224.31870,0.16057
1222.82891,0.18720
1221.33912,0.13302
1219.84934,0.15919
1218.35955,0.18540
1216.86976,0.19408
1215.37997,0.34110
1213.89018,0.40836
1212.40039,0.31396
1210.91061,0.27384
1209.42082,0.28801
1207.93103,0.22668
1206.44124,0.16539
1204.95145,0.13498
1203.46166,0.14078
1201.97188,0.07001
1200.48209,0.12374
1198.99230,0.02964
1197.50251,0.05472
1196.01272,0.06174
1194.52293,0.03423
1193.03314,0.00674
1191.54336,0.05004
1190.05357,0.00401
1188.56378,0.08992
1187.07399,0.03331
1185.58420,0.01290
1184.09441,0.07657
1182.60463,0.07804
1181.11484,0.07954
1179.62505,0.12097
1178.13526,0.07307
1176.64547,0.08371
1175.15568,0.10503
1173.66589,0.11787
1172.17611,0.02861
1170.68632,0.04364
1169.19653,0.05871
1167.70674,0.03020
1166.21695,0.05384
1164.72716,0.08709
1163.23738,0.08953
1161.74759,0.05689
1160.25780,0.03386
1158.76801,0.01990
1157.27822,0.00598
1155.78843,0.04901
1154.29865,0.05165
1152.80886,0.03729
1151.31907,0.01872
1149.82928,0.02678
1148.33949,0.06359
1146.84970,0.10256
1145.35991,0.14157
1143.87013,0.00401
1142.38034,0.02426
1140.89055,0.16051
1139.40076,0.19998
1137.91097,0.22672
1136.42118,0.22157
1134.93140,0.23667
1133.44161,0.25181
1131.95182,0.29995
1130.46203,0.23856
1128.97224,0.27294
1127.48245,0.25523
1125.99266,0.30883
1124.50288,0.36885
1123.01309,0.35603
1121.52330,0.34324
1120.03351,0.33208
1118.54372,0.40393
1117.05393,0.31092
1115.56415,0.36369
1114.07436,0.40586
1112.58457,0.39699
1111.09478,0.38816
1109.60499,0.47830
1108.11520,0.46741
1106.62542,0.43315
1105.13563,0.52126
1103.64584,0.56578
1102.15605,0.73481
1100.66626,0.71026
1099.17647,0.68574
1097.68668,0.66338
1096.19690,0.73360
1094.70711,0.78684
1093.21732,0.75607
1091.72753,0.83065
1090.23774,0.82176
1088.74795,0.81290
1087.25817,0.91524
1085.76838,0.92293
1084.27859,1.04875
1082.78880,1.00970
1081.29901,1.05686
1079.80922,1.05192
1078.31943,1.00393
1076.82965,0.95597
1075.33986,1.05220
1073.85007,1.13570
1072.36028,1.09050
1070.87049,1.16236
1069.38070,1.25234
1067.89092,1.23065
1066.40113,1.20899
1064.91134,1.24587
1063.42155,1.03492
1061.93176,1.05911
1060.44197,0.98971
1058.95219,0.94588
1057.46240,0.93666
1055.97261,0.92747
1054.48282,0.85076
1052.99303,0.80280
1051.50324,0.77403
1050.01345,0.69849
1048.52367,0.69213
1047.03388,0.65016
1045.54409,0.60822
1044.05430,0.58175
1042.56451,0.50637
1041.07472,0.52358
1039.58494,0.50465
1038.09515,0.45597
1036.60536,0.45200
1035.11557,0.44806
1033.62578,0.42289
1032.13599,0.43179
1030.64620,0.43434
1029.15642,0.40181
1027.66663,0.37890
1026.17684,0.35601
1024.68705,0.50338
1023.19726,0.60184
1021.70747,0.69821
1020.21769,0.84886
1018.72790,0.99423
1017.23811,1.06996
1015.74832,1.14571
1014.25853,1.33906
1012.76874,1.50690
1011.27896,1.64925
1009.78917,1.94695
1008.29938,2.00000
1006.80959,1.91266
1005.31980,1.82535
1003.83001,1.51786
1002.34022,1.40509
1000.85044,1.25192
999.36065,1.12964
997.87086,1.08665
996.38107,1.04369
994.89128,0.96938
993.40149,0.97383
991.91171,0.92193
990.42192,0.88602
988.93213,0.88631
987.44234,0.87175
985.95255,0.85722
984.46276,0.73421
982.97297,0.64102
981.48319,0.73722
979.99340,0.64304
978.50361,0.62495
977.01382,0.60689
975.52403,0.61174
974.03424,0.56769
972.54446,0.45346
971.05467,0.50841
969.56488,0.51233
968.07509,0.46043
966.58530,0.40857
965.09551,0.49131
963.60573,0.48579
962.11594,0.50903
960.62615,0.53336
959.13636,0.49443
957.64657,0.45554
956.15678,0.37784
954.66699,0.36614
953.17721,0.35553
951.68742,0.38964
950.19763,0.41528
948.70784,0.44094
947.21805,0.39004
945.72826,0.36258
944.23848,0.40537
942.74869,0.47160
941.25890,0.46126
939.76911,0.45787
938.27932,0.45451
936.78953,0.58789
935.29974,0.54790
933.80996,0.56007
932.32017,0.49674
930.83038,0.50951
929.34059,0.52232
927.85080,0.48036
926.36101,0.58738
924.87123,0.53699
923.38144,0.46109
921.89165,0.48098
920.40186,0.50090
918.91207,0.55489
917.42228,0.52381
915.93250,0.54915
914.44271,0.59260
912.95292,0.55790
911.46313,0.52323
909.97334,0.61892
908.48355,0.62527
906.99376,0.73166
905.50398,0.72319
904.01419,0.71050
902.52440,0.69784
901.03461,0.73096
899.54482,0.77581
898.05503,0.76538
896.56525,0.86137
895.07546,0.85739
893.58567,0.85344
892.09588,0.81974
890.60609,0.88500
889.11630,0.84179
887.62651,0.87096
886.13673,0.84165
884.64694,0.81237
883.15715,0.91929
881.66736,0.83050
880.17757,0.84600
878.68778,0.82590
877.19800,0.80583
875.70821,0.75760
874.21842,0.82643
872.72863,0.74742
871.23884,0.83759
869.74905,0.80439
868.25927,0.77122
866.76948,0.75298
865.27969,0.82308
863.78990,0.82831
862.30011,0.90910
860.81032,0.89366
859.32053,0.87824
857.83075,0.88574
856.34096,0.89433
854.85117,0.78912
853.36138,0.65842
851.87159,0.60115
850.38180,0.54391
848.89202,0.54203
847.40223,0.45614
845.91244,0.32773
844.42265,0.31744
842.93286,0.30718
841.44307,0.32675
839.95329,0.37826
838.46350,0.33619
836.97371,0.31542
835.48392,0.37236
833.99413,0.42932
832.50434,0.34270
831.01455,0.40186
829.52477,0.41637
828.03498,0.30006
826.54519,0.24602
825.05540,0.19202
823.56561,0.21517
822.07582,0.19475
820.58604,0.15946
819.09625,0.11888
817.60646,0.07834
816.11667,0.06231
814.62688,0.06119
813.13709,0.04735
811.64730,0.04950
810.15752,0.04583
808.66773,0.04219
807.17794,0.00401
805.68815,0.02828
804.19836,0.00791
802.70857,0.04554
801.21879,0.08321
799.72900,0.07251
798.23921,0.08205
796.74942,0.22568
795.25963,0.24752
793.76984,0.26940
792.28006,0.34929
790.79027,0.41220
789.30048,0.46769
787.81069,0.45300
786.32090,0.46281
784.83111,0.47266
783.34132,0.58467
781.85154,0.55628
780.36175,0.49814
778.87196,0.51929
777.38217,0.54048
775.89238,0.63776
774.40259,0.58933
772.91281,0.67178
771.42302,0.71118
769.93323,0.75062
768.44344,0.78317
766.95365,0.87853
765.46386,0.82604
763.97407,0.77785
762.48429,0.75841
760.99450,0.73900
759.50471,0.59516
758.01492,0.56837
756.52513,0.46183
755.03534,0.40320
753.54556,0.34460
752.05577,0.29135
750.56598,0.21154
749.07619,0.20197
747.58640,0.16159
746.09661,0.12124
744.60683,0.15114
743.11704,0.08107
741.62725,0.01848
740.13746,0.02561
738.64767,0.03277
737.15788,0.01815
735.66809,0.03549
734.17831,0.02839
732.68852,0.03142
731.19873,0.03449
729.70894,0.11260
728.21915,0.10244
726.72936,0.09125
725.23958,0.06946
723.74979,0.04876
722.26000,0.02809
720.77021,0.05746
719.28042,0.16453
717.79063,0.09290
716.30084,0.05428
714.81106,0.01570
713.32127,0.02715
711.83148,0.12587
710.34169,0.08845
708.85190,0.10852
707.36211,0.12861
705.87233,0.13704
704.38254,0.00401
702.89275,0.03559
701.40296,0.10709
699.91317,0.17863
698.42338,0.19328
696.93360,0.20052
695.44381,0.11524
693.95402,0.13372
692.46423,0.15223
690.97444,0.16918
689.48465,0.14574
687.99486,0.23510
686.50508,0.23725
685.01529,0.23944
683.52550,0.25443
682.03571,0.24286
680.54592,0.23558
679.05613,0.19109
677.56635,0.14664
676.07656,0.18414
674.58677,0.12273
673.09698,0.12200
671.60719,0.12342
670.11740,0.12488
668.62761,0.19021
667.13783,0.07790
665.64804,0.09702
664.15825,0.11617
662.66846,0.12098
661.17867,0.01201
659.68888,0.10732
658.19910,0.11809
656.70931,0.12889
655.21952,0.16899
653.72973,0.21018
652.23994,0.27055
650.75015,0.25542
649.26037,0.24033
647.77058,0.24123
646.28079,0.15918
644.79100,0.13674
643.30121,0.12976
641.81142,0.12282
640.32163,0.08027
638.83185,0.06328
637.34206,0.04420
635.85227,0.02409
634.36248,0.00401
632.87269,0.08153
631.38290,0.14525
629.89312,0.13241
628.40333,0.12758
626.91354,0.12278
625.42375,0.09621
623.93396,0.12393
622.44417,0.10806
620.95438,0.09223
619.46460,0.12111
617.97481,0.07237
616.48502,0.16834
614.99523,0.16700
613.50544,0.16570
612.01565,0.10326
610.52587,0.08979
609.03608,0.00401
607.54629,0.06506
606.05650,0.12615
604.56671,0.13940
603.07692,0.16757
601.58714,0.14790
600.09735,0.12827
598.60756,0.09804
597.11777,0.10507
595.62798,0.09192
594.13819,0.08944
592.64840,0.08700
591.15862,0.06119
589.66883,0.07583
588.17904,0.03625
586.68925,0.02012
585.19946,0.00401
583.70967,0.07511
582.21989,0.06538
580.73010,0.08176
579.24031,0.09816
577.75052,0.12897
576.26073,0.06831
574.77094,0.05131
573.28115,0.03328
571.79137,0.01528
570.30158,0.10901
568.81179,0.23044
567.32200,0.21680
565.83221,0.20319
564.34242,0.17685
562.85264,0.18245
561.36285,0.21149
559.87306,0.24961
558.38327,0.28777
556.89348,0.33606
555.40369,0.38651
553.91391,0.37211
552.42412,0.35773
550.93433,0.40509
549.44454,0.31845
547.95475,0.47439
546.46496,0.46068
544.97517,0.44700
543.48539,0.45624
541.99560,0.48465
540.50581,0.53172
539.01602,0.57881
537.52623,0.62435
536.03644,0.52524
534.54666,0.53467
533.05687,0.53350
531.56708,0.53236
530.07729,0.50678
528.58750,0.48444
527.09771,0.50893
525.60792,0.53345
524.11814,0.45908
522.62835,0.52516
521.13856,0.53064
519.64877,0.48775
518.15898,0.44489
516.66919,0.43557
515.17941,0.41140
513.68962,0.36704
512.19983,0.32272
510.71004,0.30077
509.22025,0.29482
507.73046,0.36549
506.24068,0.38407
504.75089,0.40268
503.26110,0.46388
501.77131,0.43362
500.28152,0.45552
498.79173,0.47746
497.30194,0.35156
495.81216,0.30654
494.32237,0.36103
492.83258,0.41554
491.34279,0.38552
489.85300,0.28532
488.36321,0.31387
486.87343,0.27597
485.38364,0.23810
483.89385,0.30825
482.40406,0.28587
480.91427,0.23268
479.42448,0.17952
477.93469,0.16894
476.44491,0.14883
474.95512,0.12768
473.46533,0.10657
471.97554,0.16954
470.48575,0.07828
468.99596,0.16684
467.50618,0.12618
466.01639,0.08556
464.52660,0.00401
463.03681,0.07388
461.54702,0.09324
460.05723,0.11264
458.56745,0.06026
457.07766,0.08346
455.58787,0.10083
454.09808,0.11823
452.60829,0.12663
451.11850,0.10740
449.62871,0.10044
448.13893,0.09351
446.64914,0.15842
445.15935,0.23082
443.66956,0.42878
442.17977,0.40230
440.68998,0.37586
439.20020,0.40902
437.71041,0.40180
436.22062,0.43556
434.73083,0.46936
433.24104,0.67394
431.75125,0.75301
430.26146,0.79915
428.77168,0.84531
427.28189,0.87024
425.79210,0.91541
424.30231,0.93508
422.81252,0.95478
421.32273,0.79260
419.83295,0.75280
418.34316,0.75026
416.85337,0.74776
415.36358,0.51337
413.87379,0.51732
412.38400,0.49258
410.89422,0.46787
409.40443,0.44213
407.91464,0.47387
406.42485,0.39075
404.93506,0.33053
403.44527,0.27035
401.95548,0.23308
400.46570,0.22137
398.97591,0.24427
397.48612,0.26720
395.99633,0.20027
394.50654,0.33976
393.01675,0.33300
391.52697,0.32628
390.03718,0.22757
388.54739,0.08528
387.05760,0.12493
385.56781,0.16462
384.07802,0.26818
382.58824,0.34516
381.09845,0.30889
379.60866,0.27265
378.11887,0.29761
376.62908,0.23431
375.13929,0.22423
373.64950,0.21419
372.15972,0.28929
370.66993,0.24952
369.18014,0.22522
367.69035,0.20094
366.20056,0.08043
364.71077,0.12697
363.22099,0.15865
361.73120,0.19036
360.24141,0.11041
358.75162,0.22517
357.26183,0.18517
355.77204,0.14521
354.28225,0.17922
352.79247,0.12390
351.30268,0.11329
349.81289,0.10272
348.32310,0.27516
346.83331,0.13380
345.34352,0.12174
343.85374,0.10970
342.36395,0.08440
340.87416,0.13467
339.38437,0.12114
337.89458,0.10765
336.40479,0.17929
334.91501,0.11160
333.42522,0.11842
331.93543,0.12527
330.44564,0.13748
328.95585,0.15184
327.46606,0.11251
325.97627,0.07322
324.48649,0.03769
322.99670,0.12539
321.50691,0.13387
320.01712,0.14238
318.52733,0.28763
317.03754,0.20206
315.54776,0.24099
314.05797,0.27996
312.56818,0.17747
311.07839,0.14948
309.58860,0.13854
308.09881,0.12764
306.60902,0.00401
305.11924,0.09052
303.62945,0.10526
302.13966,0.12003
300.64987,0.01515
299.16008,0.00401
