1778.52000,0.01373
1777.03021,0.03040
1775.54042,0.03894
1774.05063,0.02302
1772.56085,0.05263
1771.07106,0.02163
1769.58127,0.07698
1768.09148,0.05539
1766.60169,0.00000
1765.11190,0.00531
1763.62212,0.03749
1762.13233,0.01488
1760.64254,0.07513
1759.15275,0.09227
1757.66296,0.10127
1756.17317,0.05082
1754.68339,0.03307
1753.19360,0.04452
1751.70381,0.00819
1750.21402,0.06171
1748.72423,0.04295
1747.23444,0.04523
1745.74465,0.10703
1744.25487,0.13971
1742.76508,0.10711
1741.27529,0.10021
1739.78550,0.08284
1738.29571,0.06902
1736.80592,0.10773
1735.31614,0.03915
1733.82635,0.04994
1732.33656,0.04677
1730.84677,0.08330
1729.35698,0.08371
1727.86719,0.01416
1726.37740,0.02514
1724.88762,0.00000
1723.39783,0.09696
1721.90804,0.08197
1720.41825,0.12535
1718.92846,0.10111
1717.43867,0.06758
1715.94889,0.12857
1714.45910,0.14644
1712.96931,0.13635
1711.47952,0.08314
1709.98973,0.09412
1708.49994,0.10981
1707.01016,0.14421
1705.52037,0.17864
1704.03058,0.13846
1702.54079,0.11930
1701.05100,0.17368
1699.56121,0.18611
1698.07142,0.26506
1696.58164,0.19590
1695.09185,0.25744
1693.60206,0.31084
1692.11227,0.31879
1690.62248,0.35478
1689.13269,0.38030
1687.64291,0.36970
1686.15312,0.26582
1684.66333,0.26114
1683.17354,0.32064
1681.68375,0.35453
1680.19396,0.35579
1678.70417,0.35359
1677.21439,0.36776
1675.72460,0.48345
1674.23481,0.35072
1672.74502,0.39883
1671.25523,0.39799
1669.76544,0.38902
1668.27566,0.45358
1666.78587,0.36187
1665.29608,0.42301
1663.80629,0.37220
1662.31650,0.39959
1660.82671,0.33836
1659.33693,0.35299
1657.84714,0.32100
1656.35735,0.23773
1654.86756,0.21398
1653.37777,0.24510
1651.88798,0.20393
1650.39819,0.25263
1648.90841,0.24070
1647.41862,0.19848
1645.92883,0.21171
1644.43904,0.22498
1642.94925,0.28320
1641.45946,0.27380
1639.96968,0.21661
1638.47989,0.16296
1636.99010,0.15601
1635.50031,0.18060
1634.01052,0.20055
1632.52073,0.20072
1631.03094,0.22075
1629.54116,0.25015
1628.05137,0.23527
1626.56158,0.19942
1625.07179,0.33976
1623.58200,0.33316
1622.09221,0.31843
1620.60243,0.33640
1619.11264,0.29142
1617.62285,0.31530
1616.13306,0.22140
1614.64327,0.22902
1613.15348,0.20519
1611.66370,0.25023
1610.17391,0.27430
1608.68412,0.25992
1607.19433,0.24557
1605.70454,0.20444
1604.21475,0.21467
1602.72496,0.22494
1601.23518,0.19558
1599.74539,0.19660
1598.25560,0.23848
1596.76581,0.18241
1595.27602,0.18237
1593.78623,0.20454
1592.29645,0.14159
1590.80666,0.18833
1589.31687,0.14412
1587.82708,0.13961
1586.33729,0.21563
1584.84750,0.12837
1583.35771,0.10531
1581.86793,0.10796
1580.37814,0.14097
1578.88835,0.17635
1577.39856,0.13828
1575.90877,0.09209
1574.41898,0.10426
1572.92920,0.12813
1571.43941,0.00506
1569.94962,0.05293
1568.45983,0.10083
1566.97004,0.06770
1565.48025,0.05560
1563.99047,0.07971
1562.50068,0.09219
1561.01089,0.12453
1559.52110,0.15692
1558.03131,0.22784
1556.54152,0.18448
1555.05173,0.25781
1553.56195,0.14337
1552.07216,0.14912
1550.58237,0.16774
1549.09258,0.12808
1547.60279,0.15144
1546.11300,0.14918
1544.62322,0.16329
1543.13343,0.04679
1541.64364,0.06447
1540.15385,0.07345
1538.66406,0.08246
1537.17427,0.03727
1535.68448,0.03995
1534.19470,0.05666
1532.70491,0.05474
1531.21512,0.13219
1529.72533,0.09886
1528.23554,0.03757
1526.74575,0.02531
1525.25597,0.05859
1523.76618,0.08490
1522.27639,0.05643
1520.78660,0.00000
1519.29681,0.05549
1517.80702,0.08186
1516.31724,0.04177
1514.82745,0.09155
1513.33766,0.09120
1511.84787,0.09089
1510.35808,0.05213
1508.86829,0.02974
1507.37850,0.07154
1505.88872,0.10288
1504.39893,0.02578
1502.90914,0.03387
1501.41935,0.00350
1499.92956,0.00000
1498.43977,0.08184
1496.94999,0.09489
1495.46020,0.11732
1493.97041,0.12812
1492.48062,0.23461
1490.99083,0.12183
1489.50104,0.23890
1488.01125,0.27668
1486.52147,0.31451
1485.03168,0.43402
1483.54189,0.45792
1482.05210,0.53785
1480.56231,0.53267
1479.07252,0.64418
1477.58274,0.80938
1476.09295,0.95479
1474.60316,0.98009
1473.11337,1.02176
1471.62358,1.07746
1470.13379,1.02006
1468.64401,1.01868
1467.15422,0.92169
1465.66443,0.92272
1464.17464,0.92380
1462.68485,0.94590
1461.19506,0.92722
1459.70527,0.85026
1458.21549,0.78966
1456.72570,0.70577
1455.23591,0.79806
1453.74612,0.83323
1452.25633,0.81478
1450.76654,0.69722
1449.27676,0.80017
1447.78697,0.74101
1446.29718,0.72971
1444.80739,0.67063
1443.31760,0.61158
1441.82781,0.54441
1440.33802,0.42129
1438.84824,0.33786
1437.35845,0.27780
1435.86866,0.30761
1434.37887,0.31995
1432.88908,0.33817
1431.39929,0.24327
1429.90951,0.16591
1428.41972,0.33122
1426.92993,0.37292
1425.44014,0.37850
1423.95035,0.41094
1422.46056,0.44343
1420.97078,0.46078
1419.48099,0.34520
1417.99120,0.36497
1416.50141,0.30545
1415.01162,0.36962
1413.52183,0.35918
1412.03204,0.26128
1410.54226,0.38623
1409.05247,0.35257
1407.56268,0.32828
1406.07289,0.32036
1404.58310,0.35506
1403.09331,0.38980
1401.60353,0.40066
1400.11374,0.32174
1398.62395,0.38400
1397.13416,0.40781
1395.64437,0.42466
1394.15458,0.53720
1392.66479,0.54130
1391.17501,0.49294
1389.68522,0.46911
1388.19543,0.44299
1386.70564,0.44374
1385.21585,0.44453
1383.72606,0.41036
1382.23628,0.36106
1380.74649,0.37480
1379.25670,0.35591
1377.76691,0.33823
1376.27712,0.49439
1374.78733,0.52928
1373.29755,0.54904
1371.80776,0.68666
1370.31797,0.70883
1368.82818,0.76195
1367.33839,0.81511
1365.84860,0.86190
1364.35881,1.07786
1362.86903,1.17255
1361.37924,1.30228
1359.88945,1.44020
1358.39966,1.55134
1356.90987,1.59602
1355.42008,1.49609
1353.93030,1.40554
1352.44051,1.47658
1350.95072,1.54767
1349.46093,1.53772
1347.97114,1.26068
1346.48135,1.03033
1344.99156,0.90268
1343.50178,0.83106
1342.01199,0.78164
1340.52220,0.78476
1339.03241,0.71092
1337.54262,0.69661
1336.05283,0.69342
1334.56305,0.69028
1333.07326,0.63759
1331.58347,0.54062
1330.09368,0.52417
1328.60389,0.44010
1327.11410,0.42490
1325.62432,0.48439
1324.13453,0.50193
1322.64474,0.44951
1321.15495,0.51146
1319.66516,0.47895
1318.17537,0.44648
1316.68558,0.43738
1315.19580,0.41199
1313.70601,0.34231
1312.21622,0.28783
1310.72643,0.32088
1309.23664,0.32597
1307.74685,0.36260
1306.25707,0.34910
1304.76728,0.28898
1303.27749,0.22890
1301.78770,0.22252
1300.29791,0.28267
1298.80812,0.30437
1297.31834,0.31443
1295.82855,0.32104
1294.33876,0.39417
1292.84897,0.28071
1291.35918,0.29093
1289.86939,0.27727
1288.37960,0.26366
1286.88982,0.29266
1285.40003,0.38469
1283.91024,0.47676
1282.42045,0.44055
1280.93066,0.37756
1279.44087,0.43475
1277.95109,0.39516
1276.46130,0.39410
1274.97151,0.41933
1273.48172,0.44459
1271.99193,0.45648
1270.50214,0.49991
1269.01235,0.46871
1267.52257,0.49472
1266.03278,0.53942
1264.54299,0.59000
1263.05320,0.59163
1261.56341,0.58862
1260.07362,0.58566
1258.58384,0.55123
1257.09405,0.52618
1255.60426,0.55716
1254.11447,0.64300
1252.62468,0.68223
1251.13489,0.66199
1249.64511,0.60797
1248.15532,0.48400
1246.66553,0.49888
1245.17574,0.51380
1243.68595,0.37828
1242.19616,0.40844
1240.70637,0.49929
1239.21659,0.45721
1237.72680,0.38600
1236.23701,0.31016
1234.74722,0.34518
1233.25743,0.30733
1231.76764,0.26952
1230.27786,0.26616
1228.78807,0.29201
1227.29828,0.26306
1225.80849,0.17350
1224.31870,0.19479
1222.82891,0.20912
1221.33912,0.24449
1219.84934,0.22390
1218.35955,0.20335
1216.86976,0.23067
1215.37997,0.31635
1213.89018,0.34608
1212.40039,0.27786
1210.91061,0.33216
1209.42082,0.33401
1207.93103,0.27582
1206.44124,0.21767
1204.95145,0.17647
1203.46166,0.00000
1201.97188,0.11818
1200.48209,0.13492
1198.99230,0.09570
1197.50251,0.12301
1196.01272,0.03371
1194.52293,0.04011
1193.03314,0.04654
1191.54336,0.08800
1190.05357,0.10501
1188.56378,0.07189
1187.07399,0.04698
1185.58420,0.02561
1184.09441,0.01128
1182.60463,0.04072
1181.11484,0.07021
1179.62505,0.00000
1178.13526,0.09716
1176.64547,0.07187
1175.15568,0.11195
1173.66589,0.16722
1172.17611,0.17355
1170.68632,0.12159
1169.19653,0.06966
1167.70674,0.07727
1166.21695,0.07325
1164.72716,0.02611
1163.23738,0.00000
1161.74759,0.10904
1160.25780,0.06763
1158.76801,0.05659
1157.27822,0.04559
1155.78843,0.09879
1154.29865,0.05638
1152.80886,0.00000
1151.31907,0.12846
1149.82928,0.09482
1148.33949,0.12771
1146.84970,0.13264
1145.35991,0.13761
1143.87013,0.07029
1142.38034,0.15699
1140.89055,0.16791
1139.40076,0.09021
1137.91097,0.18286
1136.42118,0.17056
1134.93140,0.17113
1133.44161,0.17175
1131.95182,0.29371
1130.46203,0.30840
1128.97224,0.27413
1127.48245,0.30639
1125.99266,0.29320
1124.50288,0.22055
1123.01309,0.22960
1121.52330,0.23869
1120.03351,0.31314
1118.54372,0.33396
1117.05393,0.45165
1115.56415,0.37340
1114.07436,0.34302
1112.58457,0.35817
1111.09478,0.37336
1109.60499,0.41309
1108.11520,0.33153
1106.62542,0.37133
1105.13563,0.48583
1103.64584,0.55837
1102.15605,0.59596
1100.66626,0.61258
1099.17647,0.62925
1097.68668,0.62146
1096.19690,0.61020
1094.70711,0.68064
1093.21732,0.75112
1091.72753,0.80181
1090.23774,0.77846
1088.74795,0.75515
1087.25817,0.76162
1085.76838,0.84046
1084.27859,0.87035
1082.78880,0.83028
1081.29901,0.88590
1079.80922,0.80858
1078.31943,0.86778
1076.82965,0.92702
1075.33986,1.01896
1073.85007,1.04095
1072.36028,0.92182
1070.87049,1.04421
1069.38070,1.07681
1067.89092,1.12228
1066.40113,1.16779
1064.91134,1.05353
1063.42155,1.00930
1061.93176,0.91378
1060.44197,0.89179
1058.95219,0.78351
1057.46240,0.78901
1055.97261,0.79455
1054.48282,0.71438
1052.99303,0.69609
1051.50324,0.67199
1050.01345,0.56978
1048.52367,0.46761
1047.03388,0.49029
1045.54409,0.51301
1044.05430,0.51128
1042.56451,0.43026
1041.07472,0.44143
1039.58494,0.35466
1038.09515,0.42306
1036.60536,0.46060
1035.11557,0.49817
1033.62578,0.38706
1032.13599,0.36230
1030.64620,0.18710
1029.15642,0.38406
1027.66663,0.38625
1026.17684,0.38847
1024.68705,0.29625
1023.19726,0.44554
1021.70747,0.67885
1020.21769,0.71739
1018.72790,0.87846
1017.23811,1.00923
1015.74832,1.14005
1014.25853,1.34089
1012.76874,1.37963
1011.27896,1.75436
1009.78917,1.92849
1008.29938,2.00000
1006.80959,1.90649
1005.31980,1.81302
1003.83001,1.53587
1002.34022,1.34507
1000.85044,1.37245
999.36065,1.13741
997.87086,1.09896
996.38107,1.06054
994.89128,1.06125
993.40149,0.97101
991.91171,0.94029
990.42192,0.90612
988.93213,0.88598
987.44234,0.90321
985.95255,0.92048
984.46276,0.94479
982.97297,0.85015
981.48319,0.81504
979.99340,0.79047
978.50361,0.77002
977.01382,0.74961
975.52403,0.68782
974.03424,0.61558
972.54446,0.53637
971.05467,0.65318
969.56488,0.61372
968.07509,0.62503
966.58530,0.63639
965.09551,0.60171
963.60573,0.56589
962.11594,0.57911
960.62615,0.55155
959.13636,0.48960
957.64657,0.42770
956.15678,0.38742
954.66699,0.44049
953.17721,0.42362
951.68742,0.48027
950.19763,0.50430
948.70784,0.52836
947.21805,0.46498
945.72826,0.43080
944.23848,0.40599
942.74869,0.38705
941.25890,0.43347
939.76911,0.49160
938.27932,0.54977
936.78953,0.57881
935.29974,0.52623
933.80996,0.42121
932.32017,0.51335
930.83038,0.53905
929.34059,0.56479
927.85080,0.51707
926.36101,0.48573
924.87123,0.39609
923.38144,0.46398
921.89165,0.49691
920.40186,0.52987
918.91207,0.53255
917.42228,0.51310
915.93250,0.68733
914.44271,0.65863
912.95292,0.58564
911.46313,0.51268
909.97334,0.55175
908.48355,0.63752
906.99376,0.62184
905.50398,0.48022
904.01419,0.47161
902.52440,0.46305
901.03461,0.44753
899.54482,0.61518
898.05503,0.61257
896.56525,0.87829
895.07546,0.82442
893.58567,0.77060
892.09588,0.62932
890.60609,0.70739
889.11630,0.72367
887.62651,0.63617
886.13673,0.65544
884.64694,0.67476
883.15715,0.79734
881.66736,0.81149
880.17757,0.76501
878.68778,0.79147
877.19800,0.81798
875.70821,0.83344
874.21842,0.69963
872.72863,0.81898
871.23884,0.87306
869.74905,0.80527
868.25927,0.73752
866.76948,0.76021
865.27969,0.79577
863.78990,0.84654
862.30011,0.84602
860.81032,0.85137
859.32053,0.85676
857.83075,0.99633
856.34096,0.87931
854.85117,0.73784
853.36138,0.65823
851.87159,0.60257
850.38180,0.54694
848.89202,0.47795
847.40223,0.39032
845.91244,0.34590
844.42265,0.34001
842.93286,0.33416
841.44307,0.34934
839.95329,0.33190
838.46350,0.32033
836.97371,0.29130
835.48392,0.32706
833.99413,0.36285
832.50434,0.38293
831.01455,0.42988
829.52477,0.48387
828.03498,0.30693
826.54519,0.24142
825.05540,0.17596
823.56561,0.20327
822.07582,0.13031
820.58604,0.09354
819.09625,0.07664
817.60646,0.05978
816.11667,0.18527
814.62688,0.11016
813.13709,0.12025
811.64730,0.10704
810.15752,0.11312
808.66773,0.11924
807.17794,0.00000
805.68815,0.07414
804.19836,0.05616
802.70857,0.05746
801.21879,0.05881
799.72900,0.06311
798.23921,0.11061
796.74942,0.23864
795.25963,0.25355
793.76984,0.26851
792.28006,0.24384
790.79027,0.44434
789.30048,0.47925
787.81069,0.46519
786.32090,0.49550
784.83111,0.52585
783.34132,0.51308
781.85154,0.54234
780.36175,0.62880
778.87196,0.64822
777.38217,0.66769
775.89238,0.62478
774.40259,0.65190
772.91281,0.61840
771.42302,0.67009
769.93323,0.72183
768.44344,0.78643
766.95365,0.83124
765.46386,0.86093
763.97407,0.73668
762.48429,0.69528
760.99450,0.65393
759.50471,0.59395
758.01492,0.59933
756.52513,0.54292
755.03534,0.42415
753.54556,0.30542
752.05577,0.15231
750.56598,0.27920
749.07619,0.20549
747.58640,0.15574
746.09661,0.10602
744.60683,0.06276
743.11704,0.08486
741.62725,0.05683
740.13746,0.09243
738.64767,0.12806
737.15788,0.04766
735.66809,0.09562
734.17831,0.12495
732.68852,0.14965
731.19873,0.17439
729.70894,0.14318
728.21915,0.08401
726.72936,0.09604
725.23958,0.02995
723.74979,0.12137
722.26000,0.21284
720.77021,0.21569
719.28042,0.09376
717.79063,0.01036
716.30084,0.00516
714.81106,0.00000
713.32127,0.01322
711.83148,0.06846
710.34169,0.12725
708.85190,0.14816
707.36211,0.16912
705.87233,0.08687
704.38254,0.02333
702.89275,0.13830
701.40296,0.12558
699.91317,0.11289
698.42338,0.14516
696.93360,0.26262
695.44381,0.11415
693.95402,0.12845
692.46423,0.14279
690.97444,0.20325
689.48465,0.26491
687.99486,0.31494
686.50508,0.26936
685.01529,0.22382
683.52550,0.27397
682.03571,0.21100
680.54592,0.13408
679.05613,0.17210
677.56635,0.21015
676.07656,0.19167
674.58677,0.14757
673.09698,0.18166
671.60719,0.19537
670.11740,0.20912
668.62761,0.17917
667.13783,0.08743
665.64804,0.09080
664.15825,0.09421
662.66846,0.10524
661.17867,0.11047
659.68888,0.23940
658.19910,0.19047
656.70931,0.14158
655.21952,0.14580
653.72973,0.22822
652.23994,0.24418
650.75015,0.20011
649.26037,0.15608
647.77058,0.19316
646.28079,0.15445
644.79100,0.13212
643.30121,0.07774
641.81142,0.02340
640.32163,0.04551
638.83185,0.00000
637.34206,0.01162
635.85227,0.04020
634.36248,0.06882
632.87269,0.06889
631.38290,0.05151
629.89312,0.11699
628.40333,0.06177
626.91354,0.00659
625.42375,0.18183
623.93396,0.16114
622.44417,0.14166
620.95438,0.12221
619.46460,0.06081
617.97481,0.09860
616.48502,0.20875
614.99523,0.14455
613.50544,0.08038
612.01565,0.00518
610.52587,0.00000
609.03608,0.02164
607.54629,0.04565
606.05650,0.06969
604.56671,0.15211
603.07692,0.15873
601.58714,0.15607
600.09735,0.15344
598.60756,0.04936
597.11777,0.01298
595.62798,0.12129
594.13819,0.12640
592.64840,0.13155
591.15862,0.12099
589.66883,0.10696
588.17904,0.12448
586.68925,0.07437
585.19946,0.02430
583.70967,0.15508
582.21989,0.16925
580.73010,0.18520
579.24031,0.20120
577.75052,0.14899
576.26073,0.00000
574.77094,0.08535
573.28115,0.11417
571.79137,0.14302
570.30158,0.25415
568.81179,0.24284
567.32200,0.23857
565.83221,0.23433
564.34242,0.22547
562.85264,0.29480
561.36285,0.30117
559.87306,0.35542
558.38327,0.40970
556.89348,0.31821
555.40369,0.29674
553.91391,0.36397
552.42412,0.43124
550.93433,0.40056
549.44454,0.46557
547.95475,0.34398
546.46496,0.40557
544.97517,0.46720
543.48539,0.53237
541.99560,0.49842
540.50581,0.57066
539.01602,0.64295
537.52623,0.47613
536.03644,0.38168
534.54666,0.46574
533.05687,0.50552
531.56708,0.54533
530.07729,0.44053
528.58750,0.39060
527.09771,0.39554
525.60792,0.40051
524.11814,0.47901
522.62835,0.53189
521.13856,0.39000
519.64877,0.36888
518.15898,0.34779
516.66919,0.29701
515.17941,0.33608
513.68962,0.33494
512.19983,0.33385
510.71004,0.27505
509.22025,0.33410
507.73046,0.40020
506.24068,0.37126
504.75089,0.34236
503.26110,0.24176
501.77131,0.37450
500.28152,0.36672
498.79173,0.35897
497.30194,0.34834
495.81216,0.49990
494.32237,0.45086
492.83258,0.40186
491.34279,0.28407
489.85300,0.29230
488.36321,0.34956
486.87343,0.33279
485.38364,0.31606
483.89385,0.31045
482.40406,0.20456
480.91427,0.15703
479.42448,0.10954
477.93469,0.15775
476.44491,0.18966
474.95512,0.17144
473.46533,0.15327
471.97554,0.18763
470.48575,0.13338
468.99596,0.14798
467.50618,0.07397
466.01639,0.00000
464.52660,0.11564
463.03681,0.12867
461.54702,0.14465
460.05723,0.16067
458.56745,0.09915
457.07766,0.07618
455.58787,0.03807
454.09808,0.00000
452.60829,0.26938
451.11850,0.24717
449.62871,0.25475
448.13893,0.26236
446.64914,0.40475
445.15935,0.35586
443.66956,0.40500
442.17977,0.39294
440.68998,0.38092
439.20020,0.46867
437.71041,0.44564
436.22062,0.48623
434.73083,0.52685
433.24104,0.63692
431.75125,0.77153
430.26146,0.83968
428.77168,0.90787
427.28189,0.88162
425.79210,0.86590
424.30231,0.83972
422.81252,0.81358
421.32273,0.77581
419.83295,0.65526
418.34316,0.63682
416.85337,0.61841
415.36358,0.47931
413.87379,0.50940
412.38400,0.47361
410.89422,0.43786
409.40443,0.51822
407.91464,0.35832
406.42485,0.28244
404.93506,0.27485
403.44527,0.26729
401.95548,0.34901
400.46570,0.44243
398.97591,0.33992
397.48612,0.23745
395.99633,0.34965
394.50654,0.27641
393.01675,0.23646
391.52697,0.19655
390.03718,0.08961
388.54739,0.08185
387.05760,0.15638
385.56781,0.23094
384.07802,0.22913
382.58824,0.23436
381.09845,0.20406
379.60866,0.17379
378.11887,0.09281
376.62908,0.03171
375.13929,0.06688
373.64950,0.10209
372.15972,0.20791
370.66993,0.16096
369.18014,0.11638
367.69035,0.07183
366.20056,0.05299
364.71077,0.16368
363.22099,0.16533
361.73120,0.16702
360.24141,0.21949
358.75162,0.21484
357.26183,0.21373
355.77204,0.21266
354.28225,0.25129
352.79247,0.16630
351.30268,0.14785
349.81289,0.12943
348.32310,0.03640
346.83331,0.05407
345.34352,0.06769
343.85374,0.08136
342.36395,0.12597
340.87416,0.14846
339.38437,0.17857
337.89458,0.20872
336.40479,0.05868
334.91501,0.16764
333.42522,0.11975
331.93543,0.07190
330.44564,0.08183
328.95585,0.20611
327.46606,0.13563
325.97627,0.06518
324.48649,0.15227
322.99670,0.18807
321.50691,0.18075
320.01712,0.17347
318.52733,0.22106
317.03754,0.13336
315.54776,0.10345
314.05797,0.07358
312.56818,0.00000
311.07839,0.01112
309.58860,0.07361
308.09881,0.13613
306.60902,0.12171
305.11924,0.17498
303.62945,0.12155
302.13966,0.06816
300.64987,0.05156
299.16008,0.00000
