1778.52000,0.04599
1777.03021,0.01478
1775.54042,0.00100
1774.05063,0.06122
1772.56085,0.05186
1771.07106,0.04471
1769.58127,0.03541
1768.09148,0.03485
1766.60169,0.05717
1765.11190,0.04253
1763.62212,0.02902
1762.13233,0.05796
1760.64254,0.04559
1759.15275,0.05284
1757.66296,0.04925
1756.17317,0.00000
1754.68339,0.03019
1753.19360,0.00712
1751.70381,0.01453
1750.21402,0.03720
1748.72423,0.05447
1747.23444,0.03479
1745.74465,0.00100
1744.25487,0.02231
1742.76508,0.07628
1741.27529,0.07373
1739.78550,0.07447
1738.29571,0.04369
1736.80592,0.02492
1735.31614,0.01053
1733.82635,0.03859
1732.33656,0.03732
1730.84677,0.04261
1729.35698,0.02073
1727.86719,0.01412
1726.37740,0.01297
1724.88762,0.04015
1723.39783,0.00100
1721.90804,0.01037
1720.41825,0.03936
1718.92846,0.01725
1717.43867,0.02346
1715.94889,0.03296
1714.45910,0.05338
1712.96931,0.05424
1711.47952,0.05188
1709.98973,0.08109
1708.49994,0.08097
1707.01016,0.07490
1705.52037,0.06886
1704.03058,0.10038
1702.54079,0.11018
1701.05100,0.08738
1699.56121,0.14619
1698.07142,0.14630
1696.58164,0.18995
1695.09185,0.19012
1693.60206,0.20011
1692.11227,0.23081
1690.62248,0.21803
1689.13269,0.18678
1687.64291,0.24803
1686.15312,0.21577
1684.66333,0.23575
1683.17354,0.25468
1681.68375,0.24100
1680.19396,0.22845
1678.70417,0.20505
1677.21439,0.26979
1675.72460,0.23884
1674.23481,0.23077
1672.74502,0.21512
1671.25523,0.22234
1669.76544,0.27093
1668.27566,0.21621
1666.78587,0.23985
1665.29608,0.27548
1663.80629,0.22630
1662.31650,0.25004
1660.82671,0.24226
1659.33693,0.24431
1657.84714,0.17024
1656.35735,0.16691
1654.86756,0.19081
1653.37777,0.14295
1651.88798,0.18540
1650.39819,0.20179
1648.90841,0.17360
1647.41862,0.14219
1645.92883,0.15649
1644.43904,0.17083
1642.94925,0.14822
1641.45946,0.23224
1639.96968,0.17706
1638.47989,0.12299
1636.99010,0.12771
1635.50031,0.14333
1634.01052,0.14049
1632.52073,0.13660
1631.03094,0.15449
1629.54116,0.16698
1628.05137,0.19147
1626.56158,0.25298
1625.07179,0.22967
1623.58200,0.26404
1622.09221,0.21252
1620.60243,0.26001
1619.11264,0.23466
1617.62285,0.24850
1616.13306,0.17317
1614.64327,0.22515
1613.15348,0.19122
1611.66370,0.19105
1610.17391,0.16807
1608.68412,0.17449
1607.19433,0.19509
1605.70454,0.18417
1604.21475,0.18905
1602.72496,0.19397
1601.23518,0.21361
1599.74539,0.12777
1598.25560,0.16488
1596.76581,0.12914
1595.27602,0.15108
1593.78623,0.14695
1592.29645,0.11240
1590.80666,0.14096
1589.31687,0.10648
1587.82708,0.13729
1586.33729,0.12462
1584.84750,0.09023
1583.35771,0.08959
1581.86793,0.05091
1580.37814,0.13627
1578.88835,0.12159
1577.39856,0.05582
1575.90877,0.04229
1574.41898,0.02227
1572.92920,0.07517
1571.43941,0.10851
1569.94962,0.06792
1568.45983,0.02736
1566.97004,0.04231
1565.48025,0.06491
1563.99047,0.08755
1562.50068,0.07105
1561.01089,0.07634
1559.52110,0.08058
1558.03131,0.10769
1556.54152,0.11526
1555.05173,0.17072
1553.56195,0.09242
1552.07216,0.13163
1550.58237,0.08385
1549.09258,0.10028
1547.60279,0.09173
1546.11300,0.06362
1544.62322,0.08777
1543.13343,0.04015
1541.64364,0.03499
1540.15385,0.03041
1538.66406,0.02586
1537.17427,0.06431
1535.68448,0.03970
1534.19470,0.04341
1532.70491,0.04171
1531.21512,0.04113
1529.72533,0.08300
1528.23554,0.05747
1526.74575,0.03850
1525.25597,0.08808
1523.76618,0.08005
1522.27639,0.05574
1520.78660,0.00100
1519.29681,0.05780
1517.80702,0.05697
1516.31724,0.04095
1514.82745,0.06957
1513.33766,0.05144
1511.84787,0.03334
1510.35808,0.00440
1508.86829,0.02770
1507.37850,0.05648
1505.88872,0.01241
1504.39893,0.00100
1502.90914,0.08455
1501.41935,0.05500
1499.92956,0.03853
1498.43977,0.06235
1496.94999,0.06988
1495.46020,0.16447
1493.97041,0.17859
1492.48062,0.20036
1490.99083,0.27329
1489.50104,0.32668
1488.01125,0.39532
1486.52147,0.46400
1485.03168,0.53488
1483.54189,0.57861
1482.05210,0.70830
1480.56231,0.76297
1479.07252,0.85030
1477.58274,0.99858
1476.09295,1.10556
1474.60316,1.19517
1473.11337,1.29025
1471.62358,1.34185
1470.13379,1.33256
1468.64401,1.25043
1467.15422,1.15745
1465.66443,1.15099
1464.17464,1.14455
1462.68485,1.14196
1461.19506,1.08066
1459.70527,1.03571
1458.21549,0.99514
1456.72570,0.89695
1455.23591,0.84013
1453.74612,0.74528
1452.25633,0.76140
1450.76654,0.74384
1449.27676,0.72740
1447.78697,0.75016
1446.29718,0.64676
1444.80739,0.62335
1443.31760,0.59997
1441.82781,0.49667
1440.33802,0.39884
1438.84824,0.34456
1437.35845,0.29683
1435.86866,0.33617
1434.37887,0.35377
1432.88908,0.32138
1431.39929,0.29663
1429.90951,0.29911
1428.41972,0.29292
1426.92993,0.39553
1425.44014,0.38941
1423.95035,0.41595
1422.46056,0.44252
1420.97078,0.42562
1419.48099,0.36741
1417.99120,0.35274
1416.50141,0.41969
1415.01162,0.35723
1413.52183,0.41337
1412.03204,0.36838
1410.54226,0.40283
1409.05247,0.40577
1407.56268,0.41744
1406.07289,0.36061
1404.58310,0.36636
1403.09331,0.37215
1401.60353,0.36872
1400.11374,0.42733
1398.62395,0.43811
1397.13416,0.52833
1395.64437,0.47935
1394.15458,0.52177
1392.66479,0.52616
1391.17501,0.56430
1389.68522,0.55025
1388.19543,0.43181
1386.70564,0.46461
1385.21585,0.49744
1383.72606,0.50855
1382.23628,0.46856
1380.74649,0.45472
1379.25670,0.50726
1377.76691,0.47498
1376.27712,0.50910
1374.78733,0.58458
1373.29755,0.76561
1371.80776,0.74652
1370.31797,0.86126
1368.82818,0.91893
1367.33839,0.97663
1365.84860,1.15891
1364.35881,1.31729
1362.86903,1.43981
1361.37924,1.60914
1359.88945,1.73607
1358.39966,1.71619
1356.90987,1.75073
1355.42008,1.69719
1353.93030,1.58277
1352.44051,1.60544
1350.95072,1.62815
1349.46093,1.52796
1347.97114,1.43217
1346.48135,1.26787
1344.99156,1.07097
1343.50178,1.04815
1342.01199,0.88069
1340.52220,0.80137
1339.03241,0.74602
1337.54262,0.80274
1336.05283,0.75942
1334.56305,0.71613
1333.07326,0.69136
1331.58347,0.67207
1330.09368,0.49508
1328.60389,0.50522
1327.11410,0.47297
1325.62432,0.43532
1324.13453,0.51735
1322.64474,0.48411
1321.15495,0.52488
1319.66516,0.50204
1318.17537,0.47923
1316.68558,0.47005
1315.19580,0.46091
1313.70601,0.44745
1312.21622,0.39486
1310.72643,0.34013
1309.23664,0.34199
1307.74685,0.37326
1306.25707,0.35017
1304.76728,0.34561
1303.27749,0.34108
1301.78770,0.32026
1300.29791,0.33211
1298.80812,0.30919
1297.31834,0.30044
1295.82855,0.38092
1294.33876,0.36571
1292.84897,0.37011
1291.35918,0.43437
1289.86939,0.40403
1288.37960,0.37372
1286.88982,0.39565
1285.40003,0.37846
1283.91024,0.46356
1282.42045,0.43990
1280.93066,0.46958
1279.44087,0.44056
1277.95109,0.41700
1276.46130,0.46310
1274.97151,0.47225
1273.48172,0.48142
1271.99193,0.47867
1270.50214,0.59343
1269.01235,0.54831
1267.52257,0.56632
1266.03278,0.63223
1264.54299,0.63834
1263.05320,0.70322
1261.56341,0.69906
1260.07362,0.69494
1258.58384,0.71423
1257.09405,0.65742
1255.60426,0.69744
1254.11447,0.67224
1252.62468,0.71233
1251.13489,0.60778
1249.64511,0.62183
1248.15532,0.51953
1246.66553,0.48034
1245.17574,0.44119
1243.68595,0.42274
1242.19616,0.43369
1240.70637,0.46970
1239.21659,0.37193
1237.72680,0.34818
1236.23701,0.36687
1234.74722,0.24637
1233.25743,0.25697
1231.76764,0.26761
1230.27786,0.23640
1228.78807,0.22589
1227.29828,0.22521
1225.80849,0.19953
1224.31870,0.19674
1222.82891,0.20159
1221.33912,0.15317
1219.84934,0.17114
1218.35955,0.18914
1216.86976,0.21806
1215.37997,0.23286
1213.89018,0.27489
1212.40039,0.26583
1210.91061,0.16325
1209.42082,0.17710
1207.93103,0.16705
1206.44124,0.15703
1204.95145,0.11876
1203.46166,0.12295
1201.97188,0.12282
1200.48209,0.13578
1198.99230,0.09438
1197.50251,0.04540
1196.01272,0.02582
1194.52293,0.03455
1193.03314,0.04332
1191.54336,0.00100
1190.05357,0.02197
1188.56378,0.02993
1187.07399,0.03030
1185.58420,0.00351
1184.09441,0.07900
1182.60463,0.10177
1181.11484,0.12457
1179.62505,0.03482
1178.13526,0.06911
1176.64547,0.10017
1175.15568,0.08122
1173.66589,0.06013
1172.17611,0.00100
1170.68632,0.02555
1169.19653,0.05013
1167.70674,0.04863
1166.21695,0.06784
1164.72716,0.09578
1163.23738,0.11070
1161.74759,0.05278
1160.25780,0.05797
1158.76801,0.04199
1157.27822,0.02604
1155.78843,0.06288
1154.29865,0.08996
1152.80886,0.00939
1151.31907,0.06047
1149.82928,0.09309
1148.33949,0.08658
1146.84970,0.08119
1145.35991,0.07584
1143.87013,0.07161
1142.38034,0.10004
1140.89055,0.16549
1139.40076,0.19616
1137.91097,0.24536
1136.42118,0.24564
1134.93140,0.26282
1133.44161,0.28003
1131.95182,0.34350
1130.46203,0.33630
1128.97224,0.32913
1127.48245,0.44164
1125.99266,0.38450
1124.50288,0.50470
1123.01309,0.47645
1121.52330,0.44823
1120.03351,0.46302
1118.54372,0.47239
1117.05393,0.42306
1115.56415,0.51409
1114.07436,0.52030
1112.58457,0.52328
1111.09478,0.52629
1109.60499,0.59352
1108.11520,0.61944
1106.62542,0.48114
1105.13563,0.66594
1103.64584,0.74635
1102.15605,0.81918
1100.66626,0.84200
1099.17647,0.86486
1097.68668,0.89536
1096.19690,0.95309
1094.70711,0.95429
1093.21732,1.07300
1091.72753,1.11125
1090.23774,1.11363
1088.74795,1.11604
1087.25817,1.17288
1085.76838,1.09704
1084.27859,1.14633
1082.78880,1.25222
1081.29901,1.23957
1079.80922,1.21825
1078.31943,1.25788
1076.82965,1.29755
1075.33986,1.41339
1073.85007,1.41613
1072.36028,1.37213
1070.87049,1.45979
1069.38070,1.50288
1067.89092,1.53512
1066.40113,1.56740
1064.91134,1.43110
1063.42155,1.37316
1061.93176,1.29240
1060.44197,1.18449
1058.95219,1.08204
1057.46240,1.04435
1055.97261,1.00670
1054.48282,1.03162
1052.99303,0.88036
1051.50324,0.84226
1050.01345,0.77917
1048.52367,0.70523
1047.03388,0.70748
1045.54409,0.70976
1044.05430,0.64245
1042.56451,0.59584
1041.07472,0.49923
1039.58494,0.47988
1038.09515,0.44316
1036.60536,0.44944
1035.11557,0.45575
1033.62578,0.45285
1032.13599,0.28029
1030.64620,0.34925
1029.15642,0.35515
1027.66663,0.36925
1026.17684,0.38337
1024.68705,0.49271
1023.19726,0.55857
1021.70747,0.74194
1020.21769,0.83615
1018.72790,1.00436
1017.23811,1.04968
1015.74832,1.09504
1014.25853,1.36777
1012.76874,1.65142
1011.27896,1.85678
1009.78917,1.94034
1008.29938,2.00000
1006.80959,1.92535
1005.31980,1.85074
1003.83001,1.61679
1002.34022,1.51777
1000.85044,1.46011
999.36065,1.46340
997.87086,1.41777
996.38107,1.37218
994.89128,1.24721
993.40149,1.29306
991.91171,1.35199
990.42192,1.34134
988.93213,1.24152
987.44234,1.28043
985.95255,1.31936
984.46276,1.29579
982.97297,1.23091
981.48319,1.21501
979.99340,1.16869
978.50361,1.15667
977.01382,1.14468
975.52403,1.02666
974.03424,1.01311
972.54446,0.98327
971.05467,0.95781
969.56488,1.04008
968.07509,0.98423
966.58530,0.92841
965.09551,1.00860
963.60573,0.85168
962.11594,0.84601
960.62615,0.74246
959.13636,0.72433
957.64657,0.70624
956.15678,0.61911
954.66699,0.69844
953.17721,0.73755
951.68742,0.77018
950.19763,0.75116
948.70784,0.73218
947.21805,0.66264
945.72826,0.70845
944.23848,0.64769
942.74869,0.68485
941.25890,0.63612
939.76911,0.68858
938.27932,0.74108
936.78953,0.91544
935.29974,0.81680
933.80996,0.81827
932.32017,0.91006
930.83038,0.87460
929.34059,0.83919
927.85080,0.76790
926.36101,0.74669
924.87123,0.73748
923.38144,0.77399
921.89165,0.76973
920.40186,0.76551
918.91207,0.77710
917.42228,0.77566
915.93250,0.90153
914.44271,0.79356
912.95292,0.82486
911.46313,0.85619
909.97334,0.84839
908.48355,0.82648
906.99376,0.80461
905.50398,0.78277
904.01419,0.79740
902.52440,0.81206
901.03461,0.86538
899.54482,0.86760
898.05503,0.90792
896.56525,0.93632
895.07546,0.98432
893.58567,1.03236
892.09588,0.97166
890.60609,0.92621
889.11630,0.87753
887.62651,0.85826
886.13673,0.89015
884.64694,0.92207
883.15715,0.89419
881.66736,0.93052
880.17757,0.98430
878.68778,0.99459
877.19800,1.00492
875.70821,1.04356
874.21842,0.90710
872.72863,1.05894
871.23884,1.05634
869.74905,1.04997
868.25927,1.04363
866.76948,1.04331
865.27969,1.08218
863.78990,1.10585
862.30011,1.06864
860.81032,1.07661
859.32053,1.08461
857.83075,1.18130
856.34096,1.08983
854.85117,1.03755
853.36138,0.92657
851.87159,0.84227
850.38180,0.75801
848.89202,0.66018
847.40223,0.50037
845.91244,0.49072
844.42265,0.47566
842.93286,0.46063
841.44307,0.35426
839.95329,0.42959
838.46350,0.41357
836.97371,0.37583
835.48392,0.38000
833.99413,0.38421
832.50434,0.38572
831.01455,0.43514
829.52477,0.46718
828.03498,0.32847
826.54519,0.30075
825.05540,0.27306
823.56561,0.19645
822.07582,0.19276
820.58604,0.19563
819.09625,0.15339
817.60646,0.11117
816.11667,0.10435
814.62688,0.08233
813.13709,0.10059
811.64730,0.01119
810.15752,0.04040
808.66773,0.06963
807.17794,0.00100
805.68815,0.02823
804.19836,0.02503
802.70857,0.05178
801.21879,0.07857
799.72900,0.09614
798.23921,0.20511
796.74942,0.33370
795.25963,0.33233
793.76984,0.33100
792.28006,0.45098
790.79027,0.50465
789.30048,0.61600
787.81069,0.53266
786.32090,0.59893
784.83111,0.66524
783.34132,0.67664
781.85154,0.72397
780.36175,0.69628
778.87196,0.70506
777.38217,0.71388
775.89238,0.78745
774.40259,0.82624
772.91281,0.88465
771.42302,0.92188
769.93323,0.95914
768.44344,0.98066
766.95365,0.95326
765.46386,0.95418
763.97407,0.91488
762.48429,0.83537
760.99450,0.75589
759.50471,0.63510
758.01492,0.59050
756.52513,0.52417
755.03534,0.45896
753.54556,0.39378
752.05577,0.32103
750.56598,0.17325
749.07619,0.13754
747.58640,0.15353
746.09661,0.16956
744.60683,0.07195
743.11704,0.10164
741.62725,0.04869
740.13746,0.09585
738.64767,0.14305
737.15788,0.00100
735.66809,0.07207
734.17831,0.15948
732.68852,0.13217
731.19873,0.10489
729.70894,0.10647
728.21915,0.10917
726.72936,0.12386
725.23958,0.12772
723.74979,0.13106
722.26000,0.13443
720.77021,0.12424
719.28042,0.11082
717.79063,0.07894
716.30084,0.07483
714.81106,0.07075
713.32127,0.00198
711.83148,0.00100
710.34169,0.07985
708.85190,0.06626
707.36211,0.05271
705.87233,0.09141
704.38254,0.00722
702.89275,0.12756
701.40296,0.11795
699.91317,0.10837
698.42338,0.10263
696.93360,0.10454
695.44381,0.12606
693.95402,0.14326
692.46423,0.16050
690.97444,0.26914
689.48465,0.25054
687.99486,0.23089
686.50508,0.24934
685.01529,0.26783
683.52550,0.28852
682.03571,0.22658
680.54592,0.22667
679.05613,0.23441
677.56635,0.24218
676.07656,0.22062
674.58677,0.16210
673.09698,0.16235
671.60719,0.18005
670.11740,0.19777
668.62761,0.05454
667.13783,0.06471
665.64804,0.07492
664.15825,0.08517
662.66846,0.05846
661.17867,0.10901
659.68888,0.10956
658.19910,0.13408
656.70931,0.15862
655.21952,0.13752
653.72973,0.13820
652.23994,0.14544
650.75015,0.17392
649.26037,0.20244
647.77058,0.16844
646.28079,0.07900
644.79100,0.10055
643.30121,0.07372
641.81142,0.04692
640.32163,0.05334
638.83185,0.03259
637.34206,0.03254
635.85227,0.01675
634.36248,0.00100
632.87269,0.06894
631.38290,0.10102
629.89312,0.08091
628.40333,0.07825
626.91354,0.07561
625.42375,0.09368
623.93396,0.14115
622.44417,0.12230
620.95438,0.10348
619.46460,0.06511
617.97481,0.05941
616.48502,0.05918
614.99523,0.04702
613.50544,0.03489
612.01565,0.10220
610.52587,0.11298
609.03608,0.05635
607.54629,0.10418
606.05650,0.15204
604.56671,0.24127
603.07692,0.16628
601.58714,0.14136
600.09735,0.11647
598.60756,0.11228
597.11777,0.14293
595.62798,0.09312
594.13819,0.07979
592.64840,0.06649
591.15862,0.03418
589.66883,0.04977
588.17904,0.08062
586.68925,0.09410
585.19946,0.10761
583.70967,0.11898
582.21989,0.20435
580.73010,0.16683
579.24031,0.12935
577.75052,0.16804
576.26073,0.09908
574.77094,0.18352
573.28115,0.18533
571.79137,0.18717
570.30158,0.14118
568.81179,0.15940
567.32200,0.21627
565.83221,0.27318
564.34242,0.25669
562.85264,0.36751
561.36285,0.45551
559.87306,0.47447
558.38327,0.49347
556.89348,0.49128
555.40369,0.49240
553.91391,0.54467
552.42412,0.59697
550.93433,0.46438
549.44454,0.53742
547.95475,0.63877
546.46496,0.64933
544.97517,0.65992
543.48539,0.69501
541.99560,0.73123
540.50581,0.73919
539.01602,0.74719
537.52623,0.68234
536.03644,0.60773
534.54666,0.64520
533.05687,0.66475
531.56708,0.68434
530.07729,0.56309
528.58750,0.57131
527.09771,0.56652
525.60792,0.56176
524.11814,0.52440
522.62835,0.47837
521.13856,0.50199
519.64877,0.44569
518.15898,0.38943
516.66919,0.46645
515.17941,0.50216
513.68962,0.48081
512.19983,0.45948
510.71004,0.40066
509.22025,0.36689
507.73046,0.41038
506.24068,0.42291
504.75089,0.43547
503.26110,0.46492
501.77131,0.40521
500.28152,0.39719
498.79173,0.38922
497.30194,0.40683
495.81216,0.42013
494.32237,0.46991
492.83258,0.51971
491.34279,0.54507
489.85300,0.43232
488.36321,0.36420
486.87343,0.35648
485.38364,0.34880
483.89385,0.33408
482.40406,0.24542
480.91427,0.21499
479.42448,0.18459
477.93469,0.20372
476.44491,0.18155
474.95512,0.16213
473.46533,0.14274
471.97554,0.15548
470.48575,0.10298
468.99596,0.16799
467.50618,0.08891
466.01639,0.00986
464.52660,0.00100
463.03681,0.07655
461.54702,0.08850
460.05723,0.10048
458.56745,0.10869
457.07766,0.09953
455.58787,0.08441
454.09808,0.06933
452.60829,0.24736
451.11850,0.26770
449.62871,0.25163
448.13893,0.23559
446.64914,0.34957
445.15935,0.39506
443.66956,0.57873
442.17977,0.57859
440.68998,0.57849
439.20020,0.64913
437.71041,0.67846
436.22062,0.74264
434.73083,0.80684
433.24104,0.89067
431.75125,1.14530
430.26146,1.20526
428.77168,1.26524
427.28189,1.34158
425.79210,1.36465
424.30231,1.32956
422.81252,1.29449
421.32273,1.20670
419.83295,1.08632
418.34316,1.00838
416.85337,0.93048
415.36358,0.83956
413.87379,0.79001
412.38400,0.74593
410.89422,0.70189
409.40443,0.72205
407.91464,0.58778
406.42485,0.56668
404.93506,0.55104
403.44527,0.53544
401.95548,0.51552
400.46570,0.50325
398.97591,0.50570
397.48612,0.50818
395.99633,0.46554
394.50654,0.45014
393.01675,0.48263
391.52697,0.51515
390.03718,0.47591
388.54739,0.35186
387.05760,0.35076
385.56781,0.34969
384.07802,0.48246
382.58824,0.44774
381.09845,0.42229
379.60866,0.39688
378.11887,0.39924
376.62908,0.37661
375.13929,0.28005
373.64950,0.18352
372.15972,0.18166
370.66993,0.13306
369.18014,0.19272
367.69035,0.25242
366.20056,0.12777
364.71077,0.10323
363.22099,0.12985
361.73120,0.15650
360.24141,0.06353
358.75162,0.11635
357.26183,0.13222
355.77204,0.14813
354.28225,0.18255
352.79247,0.13543
351.30268,0.07366
349.81289,0.01192
348.32310,0.13241
346.83331,0.04952
345.34352,0.05038
343.85374,0.05126
342.36395,0.15824
340.87416,0.18367
339.38437,0.17758
337.89458,0.17152
336.40479,0.16006
334.91501,0.04421
333.42522,0.05348
331.93543,0.06279
330.44564,0.07321
328.95585,0.00100
327.46606,0.04548
325.97627,0.08999
324.48649,0.07743
322.99670,0.15655
321.50691,0.13182
320.01712,0.10713
318.52733,0.19396
317.03754,0.15682
315.54776,0.15452
314.05797,0.15226
312.56818,0.00100
311.07839,0.04512
309.58860,0.03434
308.09881,0.02359
306.60902,0.06671
305.11924,0.13489
303.62945,0.09161
302.13966,0.04836
300.64987,0.01112
299.16008,0.00100
