1778.52000,0.06685
1777.03021,0.01788
1775.54042,0.03633
1774.05063,0.03075
1772.56085,0.05408
1771.07106,0.02931
1769.58127,0.02864
1768.09148,0.04726
1766.60169,0.06350
1765.11190,0.03164
1763.62212,0.02388
1762.13233,0.07873
1760.64254,0.07705
1759.15275,0.00320
1757.66296,0.06056
1756.17317,0.01806
1754.68339,0.04901
1753.19360,0.02222
1751.70381,0.06045
1750.21402,0.04817
1748.72423,0.01667
1747.23444,0.06102
1745.74465,0.06929
1744.25487,0.06316
1742.76508,0.04382
1741.27529,0.06544
1739.78550,0.05098
1738.29571,0.05822
1736.80592,0.08474
1735.31614,0.03789
1733.82635,0.03198
1732.33656,0.02972
1730.84677,0.00222
1729.35698,0.01447
1727.86719,0.00148
1726.37740,0.04147
1724.88762,0.02974
1723.39783,0.00000
1721.90804,0.03593
1720.41825,0.03820
1718.92846,0.00320
1717.43867,0.05732
1715.94889,0.03926
1714.45910,0.05373
1712.96931,0.05499
1711.47952,0.04064
1709.98973,0.06724
1708.49994,0.04212
1707.01016,0.06518
1705.52037,0.08827
1704.03058,0.14268
1702.54079,0.12130
1701.05100,0.17457
1699.56121,0.09550
1698.07142,0.09588
1696.58164,0.10232
1695.09185,0.12082
1693.60206,0.13575
1692.11227,0.13626
1690.62248,0.18615
1689.13269,0.16748
1687.64291,0.17171
1686.15312,0.24576
1684.66333,0.20914
1683.17354,0.18097
1681.68375,0.21180
1680.19396,0.16805
1678.70417,0.14840
1677.21439,0.16248
1675.72460,0.22834
1674.23481,0.17510
1672.74502,0.16400
1671.25523,0.14813
1669.76544,0.13349
1668.27566,0.20312
1666.78587,0.12597
1665.29608,0.15115
1663.80629,0.17394
1662.31650,0.18113
1660.82671,0.12938
1659.33693,0.15348
1657.84714,0.14272
1656.35735,0.09708
1654.86756,0.11887
1653.37777,0.12265
1651.88798,0.12405
1650.39819,0.12668
1648.90841,0.15101
1647.41862,0.14288
1645.92883,0.14260
1644.43904,0.14236
1642.94925,0.10665
1641.45946,0.15039
1639.96968,0.13521
1638.47989,0.17180
1636.99010,0.18556
1635.50031,0.07901
1634.01052,0.15300
1632.52073,0.15242
1631.03094,0.13141
1629.54116,0.09960
1628.05137,0.19058
1626.56158,0.18531
1625.07179,0.18489
1623.58200,0.21218
1622.09221,0.22988
1620.60243,0.21271
1619.11264,0.19316
1617.62285,0.15078
1616.13306,0.12649
1614.64327,0.17323
1613.15348,0.22121
1611.66370,0.17656
1610.17391,0.14157
1608.68412,0.12947
1607.19433,0.24016
1605.70454,0.18360
1604.21475,0.16378
1602.72496,0.14399
1601.23518,0.10920
1599.74539,0.15145
1598.25560,0.14560
1596.76581,0.11933
1595.27602,0.12798
1593.78623,0.12705
1592.29645,0.12614
1590.80666,0.12407
1589.31687,0.10999
1587.82708,0.07187
1586.33729,0.12044
1584.84750,0.09443
1583.35771,0.09011
1581.86793,0.03528
1580.37814,0.03102
1578.88835,0.09058
1577.39856,0.05872
1575.90877,0.07381
1574.41898,0.07089
1572.92920,0.02348
1571.43941,0.02785
1569.94962,0.01720
1568.45983,0.00659
1566.97004,0.00383
1565.48025,0.04564
1563.99047,0.04415
1562.50068,0.03186
1561.01089,0.07256
1559.52110,0.01341
1558.03131,0.01084
1556.54152,0.00591
1555.05173,0.08164
1553.56195,0.08279
1552.07216,0.06952
1550.58237,0.10203
1549.09258,0.04912
1547.60279,0.07206
1546.11300,0.08420
1544.62322,0.08675
1543.13343,0.07248
1541.64364,0.07991
1540.15385,0.06029
1538.66406,0.04070
1537.17427,0.05785
1535.68448,0.06300
1534.19470,0.00320
1532.70491,0.02835
1531.21512,0.04149
1529.72533,0.01976
1528.23554,0.00890
1526.74575,0.03177
1525.25597,0.04625
1523.76618,0.05354
1522.27639,0.00189
1520.78660,0.03679
1519.29681,0.02118
1517.80702,0.00320
1516.31724,0.07656
1514.82745,0.05608
1513.33766,0.04887
1511.84787,0.04169
1510.35808,0.05741
1508.86829,0.05511
1507.37850,0.02878
1505.88872,0.04941
1504.39893,0.08091
1502.90914,0.06671
1501.41935,0.00320
1499.92956,0.07096
1498.43977,0.06775
1496.94999,0.11031
1495.46020,0.19381
1493.97041,0.18709
1492.48062,0.28149
1490.99083,0.32779
1489.50104,0.38615
1488.01125,0.42890
1486.52147,0.47169
1485.03168,0.57227
1483.54189,0.55855
1482.05210,0.66281
1480.56231,0.76710
1479.07252,0.93761
1477.58274,1.07085
1476.09295,1.09822
1474.60316,1.13163
1473.11337,1.20961
1471.62358,1.20218
1470.13379,1.24171
1468.64401,1.19583
1467.15422,1.08981
1465.66443,1.10056
1464.17464,1.11134
1462.68485,1.06800
1461.19506,0.94647
1459.70527,0.84302
1458.21549,0.91170
1456.72570,0.80350
1455.23591,0.74348
1453.74612,0.70394
1452.25633,0.66564
1450.76654,0.59489
1449.27676,0.50491
1447.78697,0.52327
1446.29718,0.47788
1444.80739,0.48066
1443.31760,0.48347
1441.82781,0.39486
1440.33802,0.31230
1438.84824,0.24420
1437.35845,0.23511
1435.86866,0.29225
1434.37887,0.21824
1432.88908,0.23211
1431.39929,0.21473
1429.90951,0.24191
1428.41972,0.26189
1426.92993,0.20369
1425.44014,0.24300
1423.95035,0.26489
1422.46056,0.28682
1420.97078,0.32863
1419.48099,0.25495
1417.99120,0.32571
1416.50141,0.29421
1415.01162,0.29404
1413.52183,0.34324
1412.03204,0.34072
1410.54226,0.31657
1409.05247,0.31172
1407.56268,0.30689
1406.07289,0.26599
1404.58310,0.26424
1403.09331,0.26252
1401.60353,0.42150
1400.11374,0.35305
1398.62395,0.44470
1397.13416,0.45815
1395.64437,0.46442
1394.15458,0.52968
1392.66479,0.50834
1391.17501,0.51951
1389.68522,0.55479
1388.19543,0.58409
1386.70564,0.57731
1385.21585,0.57057
1383.72606,0.56747
1382.23628,0.54515
1380.74649,0.60830
1379.25670,0.55837
1377.76691,0.56623
1376.27712,0.62708
1374.78733,0.63982
1373.29755,0.77534
1371.80776,0.83268
1370.31797,0.90208
1368.82818,0.98535
1367.33839,1.06865
1365.84860,1.39328
1364.35881,1.59158
1362.86903,1.68160
1361.37924,1.76925
1359.88945,1.90386
1358.39966,2.00000
1356.90987,1.99147
1355.42008,1.95891
1353.93030,1.71457
1352.44051,1.69892
1350.95072,1.68330
1349.46093,1.59791
1347.97114,1.42832
1346.48135,1.27080
1344.99156,1.09405
1343.50178,1.09785
1342.01199,0.90191
1340.52220,0.81672
1339.03241,0.73397
1337.54262,0.69939
1336.05283,0.66244
1334.56305,0.62552
1333.07326,0.53568
1331.58347,0.49641
1330.09368,0.53541
1328.60389,0.48056
1327.11410,0.44260
1325.62432,0.41430
1324.13453,0.38483
1322.64474,0.38668
1321.15495,0.36449
1319.66516,0.34174
1318.17537,0.31902
1316.68558,0.29693
1315.19580,0.34708
1313.70601,0.27692
1312.21622,0.30788
1310.72643,0.32684
1309.23664,0.32176
1307.74685,0.32274
1306.25707,0.26598
1304.76728,0.25258
1303.27749,0.23921
1301.78770,0.26558
1300.29791,0.22821
1298.80812,0.25826
1297.31834,0.28112
1295.82855,0.30161
1294.33876,0.28844
1292.84897,0.29455
1291.35918,0.33440
1289.86939,0.30748
1288.37960,0.28060
1286.88982,0.31934
1285.40003,0.40504
1283.91024,0.38247
1282.42045,0.40205
1280.93066,0.35788
1279.44087,0.39798
1277.95109,0.36110
1276.46130,0.35433
1274.97151,0.35964
1273.48172,0.36497
1271.99193,0.42570
1270.50214,0.45396
1269.01235,0.46301
1267.52257,0.45042
1266.03278,0.46916
1264.54299,0.48672
1263.05320,0.54163
1261.56341,0.55204
1260.07362,0.56248
1258.58384,0.57897
1257.09405,0.48959
1255.60426,0.49292
1254.11447,0.60337
1252.62468,0.51289
1251.13489,0.52233
1249.64511,0.52337
1248.15532,0.51362
1246.66553,0.44252
1245.17574,0.37146
1243.68595,0.39670
1242.19616,0.38226
1240.70637,0.37989
1239.21659,0.30655
1237.72680,0.27897
1236.23701,0.28633
1234.74722,0.26844
1233.25743,0.21329
1231.76764,0.15816
1230.27786,0.18129
1228.78807,0.19242
1227.29828,0.19034
1225.80849,0.10887
1224.31870,0.11168
1222.82891,0.16506
1221.33912,0.12219
1219.84934,0.13352
1218.35955,0.14488
1216.86976,0.12257
1215.37997,0.19417
1213.89018,0.17192
1212.40039,0.17860
1210.91061,0.09264
1209.42082,0.15835
1207.93103,0.13684
1206.44124,0.11537
1204.95145,0.19200
1203.46166,0.07973
1201.97188,0.04813
1200.48209,0.12366
1198.99230,0.04157
1197.50251,0.04737
1196.01272,0.00506
1194.52293,0.01574
1193.03314,0.02645
1191.54336,0.06006
1190.05357,0.01307
1188.56378,0.03471
1187.07399,0.03592
1185.58420,0.01791
1184.09441,0.04927
1182.60463,0.03073
1181.11484,0.01221
1179.62505,0.04608
1178.13526,0.07758
1176.64547,0.00320
1175.15568,0.06306
1173.66589,0.04111
1172.17611,0.04808
1170.68632,0.03884
1169.19653,0.02963
1167.70674,0.05475
1166.21695,0.04380
1164.72716,0.05695
1163.23738,0.04607
1161.74759,0.01476
1160.25780,0.02199
1158.76801,0.03888
1157.27822,0.05581
1155.78843,0.05833
1154.29865,0.08013
1152.80886,0.05985
1151.31907,0.04441
1149.82928,0.11445
1148.33949,0.08825
1146.84970,0.10420
1145.35991,0.12018
1143.87013,0.06158
1142.38034,0.14262
1140.89055,0.12259
1139.40076,0.18805
1137.91097,0.23910
1136.42118,0.23963
1134.93140,0.25283
1133.44161,0.26607
1131.95182,0.34492
1130.46203,0.39854
1128.97224,0.33786
1127.48245,0.38673
1125.99266,0.43322
1124.50288,0.47253
1123.01309,0.46132
1121.52330,0.45015
1120.03351,0.45706
1118.54372,0.51335
1117.05393,0.43006
1115.56415,0.53696
1114.07436,0.53317
1112.58457,0.55950
1111.09478,0.58586
1109.60499,0.61346
1108.11520,0.58573
1106.62542,0.63385
1105.13563,0.61582
1103.64584,0.78916
1102.15605,0.82053
1100.66626,0.83028
1099.17647,0.84005
1097.68668,0.92086
1096.19690,0.99930
1094.70711,0.95622
1093.21732,0.98899
1091.72753,1.01337
1090.23774,1.04561
1088.74795,1.07787
1087.25817,1.12762
1085.76838,1.14852
1084.27859,1.14779
1082.78880,1.24217
1081.29901,1.31131
1079.80922,1.29142
1078.31943,1.33294
1076.82965,1.37449
1075.33986,1.38479
1073.85007,1.50945
1072.36028,1.45723
1070.87049,1.49531
1069.38070,1.56230
1067.89092,1.57517
1066.40113,1.58807
1064.91134,1.45298
1063.42155,1.35042
1061.93176,1.39952
1060.44197,1.18029
1058.95219,1.03690
1057.46240,1.02353
1055.97261,1.01018
1054.48282,1.01010
1052.99303,1.04857
1051.50324,0.83314
1050.01345,0.82835
1048.52367,0.69242
1047.03388,0.73222
1045.54409,0.77206
1044.05430,0.62058
1042.56451,0.48237
1041.07472,0.44889
1039.58494,0.38054
1038.09515,0.39045
1036.60536,0.38054
1035.11557,0.37066
1033.62578,0.30606
1032.13599,0.34859
1030.64620,0.30933
1029.15642,0.30860
1027.66663,0.35063
1026.17684,0.39270
1024.68705,0.39207
1023.19726,0.49257
1021.70747,0.61476
1020.21769,0.78512
1018.72790,0.92783
1017.23811,0.99175
1015.74832,1.05571
1014.25853,1.37542
1012.76874,1.47615
1011.27896,1.68281
1009.78917,1.74990
1008.29938,1.90728
1006.80959,1.86673
1005.31980,1.82622
1003.83001,1.71293
1002.34022,1.46248
1000.85044,1.44191
999.36065,1.37927
997.87086,1.35335
996.38107,1.32748
994.89128,1.35398
993.40149,1.36246
991.91171,1.35293
990.42192,1.34944
988.93213,1.25573
987.44234,1.29985
985.95255,1.34400
984.46276,1.24678
982.97297,1.18329
981.48319,1.12584
979.99340,1.02631
978.50361,1.04174
977.01382,1.05720
975.52403,1.05645
974.03424,0.96307
972.54446,0.86129
971.05467,0.94007
969.56488,0.86243
968.07509,0.84620
966.58530,0.83000
965.09551,0.75245
963.60573,0.82898
962.11594,0.74910
960.62615,0.71498
959.13636,0.70797
957.64657,0.70099
956.15678,0.51534
954.66699,0.55235
953.17721,0.51478
951.68742,0.59157
950.19763,0.60522
948.70784,0.61889
947.21805,0.51767
945.72826,0.50434
944.23848,0.56445
942.74869,0.57284
941.25890,0.60052
939.76911,0.64207
938.27932,0.68365
936.78953,0.78965
935.29974,0.76451
933.80996,0.74903
932.32017,0.69868
930.83038,0.73080
929.34059,0.76296
927.85080,0.75964
926.36101,0.68174
924.87123,0.71339
923.38144,0.70536
921.89165,0.70518
920.40186,0.70504
918.91207,0.67785
917.42228,0.76863
915.93250,0.75114
914.44271,0.72765
912.95292,0.71263
911.46313,0.69764
909.97334,0.69111
908.48355,0.77847
906.99376,0.78765
905.50398,0.78362
904.01419,0.77240
902.52440,0.76122
901.03461,0.76330
899.54482,0.78347
898.05503,0.80367
896.56525,0.79744
895.07546,0.82613
893.58567,0.85485
892.09588,0.82945
890.60609,0.84260
889.11630,0.80523
887.62651,0.81243
886.13673,0.83048
884.64694,0.84857
883.15715,0.83541
881.66736,0.81144
880.17757,0.88619
878.68778,0.92307
877.19800,0.95997
875.70821,0.86634
874.21842,0.84254
872.72863,0.97040
871.23884,0.99961
869.74905,1.00419
868.25927,1.00880
866.76948,1.05978
865.27969,1.00127
863.78990,1.09202
862.30011,1.06006
860.81032,1.06002
859.32053,1.06001
857.83075,1.12923
856.34096,0.99511
854.85117,0.96451
853.36138,0.88220
851.87159,0.81195
850.38180,0.74174
848.89202,0.66073
847.40223,0.54726
845.91244,0.49158
844.42265,0.48227
842.93286,0.47300
841.44307,0.36808
839.95329,0.39437
838.46350,0.35451
836.97371,0.30745
835.48392,0.29533
833.99413,0.28324
832.50434,0.40116
831.01455,0.43607
829.52477,0.38196
828.03498,0.31945
826.54519,0.31054
825.05540,0.30165
823.56561,0.18991
822.07582,0.19733
820.58604,0.20720
819.09625,0.17919
817.60646,0.15122
816.11667,0.15878
814.62688,0.08092
813.13709,0.04041
811.64730,0.09741
810.15752,0.05696
808.66773,0.01654
807.17794,0.02430
805.68815,0.00320
804.19836,0.01840
802.70857,0.07455
801.21879,0.13073
799.72900,0.15205
798.23921,0.28532
796.74942,0.32957
795.25963,0.36482
793.76984,0.40010
792.28006,0.47815
790.79027,0.53456
789.30048,0.55129
787.81069,0.58129
786.32090,0.60049
784.83111,0.61973
783.34132,0.66427
781.85154,0.70283
780.36175,0.83047
778.87196,0.78365
777.38217,0.73686
775.89238,0.78156
774.40259,0.80945
772.91281,0.80608
771.42302,0.83584
769.93323,0.86563
768.44344,0.89004
766.95365,0.87477
765.46386,0.79936
763.97407,0.75286
762.48429,0.71181
760.99450,0.67080
759.50471,0.55701
758.01492,0.46371
756.52513,0.44265
755.03534,0.37950
753.54556,0.31639
752.05577,0.22081
750.56598,0.15415
749.07619,0.20065
747.58640,0.14970
746.09661,0.09878
744.60683,0.08280
743.11704,0.00426
741.62725,0.02051
740.13746,0.04881
738.64767,0.07716
737.15788,0.09229
735.66809,0.04729
734.17831,0.02037
732.68852,0.09156
731.19873,0.16279
729.70894,0.08061
728.21915,0.00809
726.72936,0.04632
725.23958,0.07496
723.74979,0.06873
722.26000,0.06253
720.77021,0.08885
719.28042,0.05745
717.79063,0.03691
716.30084,0.03625
714.81106,0.03563
713.32127,0.02241
711.83148,0.00320
710.34169,0.03058
708.85190,0.05618
707.36211,0.08182
705.87233,0.09486
704.38254,0.08145
702.89275,0.08372
701.40296,0.06075
699.91317,0.03781
698.42338,0.05221
696.93360,0.12682
695.44381,0.17619
693.95402,0.20814
692.46423,0.24012
690.97444,0.28357
689.48465,0.22114
687.99486,0.24540
686.50508,0.25465
685.01529,0.26393
683.52550,0.31356
682.03571,0.30184
680.54592,0.26489
679.05613,0.23218
677.56635,0.19950
676.07656,0.19273
674.58677,0.15110
673.09698,0.21299
671.60719,0.17142
670.11740,0.12988
668.62761,0.13410
667.13783,0.10226
665.64804,0.07586
664.15825,0.04949
662.66846,0.08032
661.17867,0.10276
659.68888,0.09756
658.19910,0.13089
656.70931,0.16426
655.21952,0.09296
653.72973,0.12760
652.23994,0.14061
650.75015,0.15304
649.26037,0.16552
647.77058,0.16538
646.28079,0.13760
644.79100,0.12671
643.30121,0.09418
641.81142,0.06169
640.32163,0.05690
638.83185,0.04012
637.34206,0.04022
635.85227,0.02169
634.36248,0.00320
632.87269,0.06333
631.38290,0.09943
629.89312,0.11871
628.40333,0.08928
626.91354,0.05989
625.42375,0.08408
623.93396,0.12876
622.44417,0.11932
620.95438,0.10992
619.46460,0.04518
617.97481,0.05269
616.48502,0.10596
614.99523,0.09247
613.50544,0.07902
612.01565,0.06259
610.52587,0.05100
609.03608,0.01659
607.54629,0.10315
606.05650,0.18974
604.56671,0.16505
603.07692,0.18973
601.58714,0.17293
600.09735,0.15615
598.60756,0.23268
597.11777,0.13113
595.62798,0.13311
594.13819,0.10865
592.64840,0.08422
591.15862,0.09232
589.66883,0.17506
588.17904,0.10620
586.68925,0.09754
585.19946,0.08892
583.70967,0.12486
582.21989,0.21017
580.73010,0.18480
579.24031,0.15946
577.75052,0.12693
576.26073,0.12211
574.77094,0.08123
573.28115,0.14808
571.79137,0.21497
570.30158,0.28489
568.81179,0.27182
567.32200,0.30390
565.83221,0.33602
564.34242,0.31221
562.85264,0.45210
561.36285,0.49214
559.87306,0.46722
558.38327,0.44234
556.89348,0.54866
555.40369,0.54551
553.91391,0.57668
552.42412,0.60789
550.93433,0.54466
549.44454,0.57172
547.95475,0.59039
546.46496,0.58744
544.97517,0.58451
543.48539,0.67428
541.99560,0.75686
540.50581,0.76186
539.01602,0.76688
537.52623,0.75208
536.03644,0.72288
534.54666,0.65158
533.05687,0.64952
531.56708,0.64749
530.07729,0.65452
528.58750,0.64954
527.09771,0.58142
525.60792,0.51333
524.11814,0.56983
522.62835,0.53370
521.13856,0.51806
519.64877,0.48199
518.15898,0.44596
516.66919,0.52308
515.17941,0.49673
513.68962,0.45959
512.19983,0.42249
510.71004,0.35894
509.22025,0.36883
507.73046,0.39319
506.24068,0.43143
504.75089,0.46970
503.26110,0.46167
501.77131,0.51505
500.28152,0.50589
498.79173,0.49675
497.30194,0.47441
495.81216,0.47738
494.32237,0.47376
492.83258,0.47017
491.34279,0.49850
489.85300,0.46429
488.36321,0.39401
486.87343,0.34723
485.38364,0.30048
483.89385,0.39998
482.40406,0.26846
480.91427,0.21278
479.42448,0.15714
477.93469,0.16531
476.44491,0.11695
474.95512,0.12338
473.46533,0.12985
471.97554,0.17184
470.48575,0.09955
468.99596,0.13559
467.50618,0.06938
466.01639,0.00320
464.52660,0.04757
463.03681,0.11123
461.54702,0.12499
460.05723,0.13877
458.56745,0.11829
457.07766,0.09062
455.58787,0.06418
454.09808,0.03778
452.60829,0.16545
451.11850,0.21975
449.62871,0.20488
448.13893,0.19004
446.64914,0.25045
445.15935,0.37106
443.66956,0.51578
442.17977,0.55342
440.68998,0.59110
439.20020,0.62880
437.71041,0.61359
436.22062,0.66280
434.73083,0.71204
433.24104,0.84735
431.75125,1.05370
430.26146,1.11267
428.77168,1.17167
427.28189,1.23130
425.79210,1.30059
424.30231,1.25318
422.81252,1.20580
421.32273,1.11634
419.83295,1.10392
418.34316,1.05665
416.85337,1.00940
415.36358,0.87073
413.87379,0.90417
412.38400,0.79084
410.89422,0.67753
409.40443,0.64008
407.91464,0.66283
406.42485,0.55805
404.93506,0.53814
403.44527,0.51826
401.95548,0.48819
400.46570,0.46297
398.97591,0.42514
397.48612,0.38734
395.99633,0.49098
394.50654,0.60067
393.01675,0.54613
391.52697,0.49161
390.03718,0.44014
388.54739,0.32974
387.05760,0.31383
385.56781,0.29796
384.07802,0.48971
382.58824,0.42637
381.09845,0.41300
379.60866,0.39967
378.11887,0.33762
376.62908,0.26599
375.13929,0.25456
373.64950,0.24316
372.15972,0.19448
370.66993,0.15788
369.18014,0.13875
367.69035,0.11966
366.20056,0.05427
364.71077,0.06834
363.22099,0.09628
361.73120,0.12426
360.24141,0.12519
358.75162,0.15623
357.26183,0.12654
355.77204,0.09688
354.28225,0.09553
352.79247,0.11709
351.30268,0.08391
349.81289,0.05077
348.32310,0.12417
346.83331,0.11095
345.34352,0.08694
343.85374,0.06295
342.36395,0.08593
340.87416,0.15227
339.38437,0.09710
337.89458,0.04196
336.40479,0.19143
334.91501,0.03406
333.42522,0.06988
331.93543,0.10573
330.44564,0.10009
328.95585,0.07643
327.46606,0.08710
325.97627,0.09781
324.48649,0.01528
322.99670,0.13718
321.50691,0.07018
320.01712,0.00320
318.52733,0.16322
317.03754,0.11748
315.54776,0.10788
314.05797,0.09831
312.56818,0.11645
311.07839,0.04677
309.58860,0.06197
308.09881,0.07720
306.60902,0.01725
305.11924,0.08008
303.62945,0.06292
302.13966,0.04579
300.64987,0.02929
299.16008,0.00320
