1778.52000,0.00000
1777.03021,0.02614
1775.54042,0.01238
1774.05063,0.02083
1772.56085,0.04618
1771.07106,0.02719
1769.58127,0.01533
1768.09148,0.04609
1766.60169,0.01654
1765.11190,0.00832
1763.62212,0.01877
1762.13233,0.03013
1760.64254,0.04064
1759.15275,0.01303
1757.66296,0.00940
1756.17317,0.03154
1754.68339,0.01998
1753.19360,0.03331
1751.70381,0.00940
1750.21402,0.02289
1748.72423,0.01511
1747.23444,0.03842
1745.74465,0.02626
1744.25487,0.03455
1742.76508,0.05618
1741.27529,0.05210
1739.78550,0.02321
1738.29571,0.03695
1736.80592,0.03829
1735.31614,0.05209
1733.82635,0.04905
1732.33656,0.01233
1730.84677,0.04220
1729.35698,0.02506
1727.86719,0.06830
1726.37740,0.02194
1724.88762,0.00667
1723.39783,0.05251
1721.90804,0.02029
1720.41825,0.00940
1718.92846,0.02905
1717.43867,0.04785
1715.94889,0.04893
1714.45910,0.06867
1712.96931,0.03876
1711.47952,0.06832
1709.98973,0.07929
1708.49994,0.07076
1707.01016,0.08667
1705.52037,0.10261
1704.03058,0.09773
1702.54079,0.12837
1701.05100,0.16348
1699.56121,0.13828
1698.07142,0.14151
1696.58164,0.13412
1695.09185,0.16758
1693.60206,0.18864
1692.11227,0.16271
1690.62248,0.23974
1689.13269,0.27776
1687.64291,0.24128
1686.15312,0.23233
1684.66333,0.24294
1683.17354,0.24381
1681.68375,0.23584
1680.19396,0.21815
1678.70417,0.23154
1677.21439,0.22100
1675.72460,0.24244
1674.23481,0.19914
1672.74502,0.19402
1671.25523,0.24040
1669.76544,0.24155
1668.27566,0.22499
1666.78587,0.17385
1665.29608,0.16090
1663.80629,0.15597
1662.31650,0.19633
1660.82671,0.21009
1659.33693,0.20170
1657.84714,0.18092
1656.35735,0.17259
1654.86756,0.16607
1653.37777,0.15160
1651.88798,0.17531
1650.39819,0.14492
1648.90841,0.18112
1647.41862,0.14636
1645.92883,0.17064
1644.43904,0.19495
1642.94925,0.17448
1641.45946,0.17267
1639.96968,0.15848
1638.47989,0.14875
1636.99010,0.16123
1635.50031,0.14092
1634.01052,0.19695
1632.52073,0.12611
1631.03094,0.14494
1629.54116,0.16379
1628.05137,0.19066
1626.56158,0.15101
1625.07179,0.19391
1623.58200,0.26879
1622.09221,0.22125
1620.60243,0.17551
1619.11264,0.20701
1617.62285,0.20570
1616.13306,0.21507
1614.64327,0.17123
1613.15348,0.22681
1611.66370,0.24603
1610.17391,0.19341
1608.68412,0.18785
1607.19433,0.18055
1605.70454,0.17949
1604.21475,0.16471
1602.72496,0.14996
1601.23518,0.15698
1599.74539,0.15338
1598.25560,0.14449
1596.76581,0.14894
1595.27602,0.13124
1593.78623,0.13309
1592.29645,0.12787
1590.80666,0.11914
1589.31687,0.10600
1587.82708,0.11773
1586.33729,0.11885
1584.84750,0.11645
1583.35771,0.05197
1581.86793,0.08868
1580.37814,0.07838
1578.88835,0.10007
1577.39856,0.08540
1575.90877,0.07254
1574.41898,0.06681
1572.92920,0.08063
1571.43941,0.02172
1569.94962,0.02806
1568.45983,0.03443
1566.97004,0.05902
1565.48025,0.05081
1563.99047,0.07902
1562.50068,0.09395
1561.01089,0.05034
1559.52110,0.06266
1558.03131,0.07236
1556.54152,0.04038
1555.05173,0.13000
1553.56195,0.07856
1552.07216,0.07595
1550.58237,0.07604
1549.09258,0.08415
1547.60279,0.06123
1546.11300,0.09424
1544.62322,0.09978
1543.13343,0.09470
1541.64364,0.05593
1540.15385,0.05713
1538.66406,0.05835
1537.17427,0.05961
1535.68448,0.04404
1534.19470,0.01962
1532.70491,0.01565
1531.21512,0.01081
1529.72533,0.05304
1528.23554,0.03585
1526.74575,0.06306
1525.25597,0.03439
1523.76618,0.05989
1522.27639,0.06855
1520.78660,0.02046
1519.29681,0.07000
1517.80702,0.06723
1516.31724,0.03697
1514.82745,0.09460
1513.33766,0.05198
1511.84787,0.00940
1510.35808,0.04225
1508.86829,0.09376
1507.37850,0.06544
1505.88872,0.06112
1504.39893,0.05682
1502.90914,0.07918
1501.41935,0.06163
1499.92956,0.09558
1498.43977,0.07189
1496.94999,0.13607
1495.46020,0.16391
1493.97041,0.22106
1492.48062,0.28445
1490.99083,0.27422
1489.50104,0.33945
1488.01125,0.36389
1486.52147,0.38836
1485.03168,0.43948
1483.54189,0.55453
1482.05210,0.65363
1480.56231,0.72526
1479.07252,0.82176
1477.58274,0.86949
1476.09295,0.97670
1474.60316,1.01473
1473.11337,1.12733
1471.62358,1.15034
1470.13379,1.17072
1468.64401,1.07222
1467.15422,1.04829
1465.66443,1.02794
1464.17464,1.00762
1462.68485,0.95628
1461.19506,0.97773
1459.70527,0.91668
1458.21549,0.87164
1456.72570,0.75476
1455.23591,0.73463
1453.74612,0.70299
1452.25633,0.67582
1450.76654,0.67175
1449.27676,0.59141
1447.78697,0.59716
1446.29718,0.55503
1444.80739,0.51515
1443.31760,0.47531
1441.82781,0.43327
1440.33802,0.37086
1438.84824,0.32711
1437.35845,0.26209
1435.86866,0.32311
1434.37887,0.29365
1432.88908,0.23317
1431.39929,0.27831
1429.90951,0.25605
1428.41972,0.22583
1426.92993,0.23557
1425.44014,0.30479
1423.95035,0.31859
1422.46056,0.33242
1420.97078,0.33252
1419.48099,0.36460
1417.99120,0.35234
1416.50141,0.32326
1415.01162,0.35543
1413.52183,0.36900
1412.03204,0.37728
1410.54226,0.33412
1409.05247,0.35754
1407.56268,0.35260
1406.07289,0.38762
1404.58310,0.36367
1403.09331,0.33974
1401.60353,0.38728
1400.11374,0.42509
1398.62395,0.49310
1397.13416,0.48571
1395.64437,0.49344
1394.15458,0.51540
1392.66479,0.59063
1391.17501,0.59491
1389.68522,0.66310
1388.19543,0.67010
1386.70564,0.64918
1385.21585,0.62829
1383.72606,0.56883
1382.23628,0.56619
1380.74649,0.60174
1379.25670,0.54149
1377.76691,0.57710
1376.27712,0.61452
1374.78733,0.67415
1373.29755,0.78173
1371.80776,0.84764
1370.31797,0.99255
1368.82818,1.05985
1367.33839,1.12718
1365.84860,1.37600
1364.35881,1.55210
1362.86903,1.77614
1361.37924,1.81120
1359.88945,1.91729
1358.39966,1.99412
1356.90987,2.00000
1355.42008,1.97307
1353.93030,1.88140
1352.44051,1.83191
1350.95072,1.78245
1349.46093,1.61722
1347.97114,1.45291
1346.48135,1.29218
1344.99156,1.18118
1343.50178,1.06843
1342.01199,0.94417
1340.52220,0.79954
1339.03241,0.75698
1337.54262,0.72954
1336.05283,0.70302
1334.56305,0.67653
1333.07326,0.64652
1331.58347,0.57572
1330.09368,0.53424
1328.60389,0.48747
1327.11410,0.45226
1325.62432,0.40643
1324.13453,0.39702
1322.64474,0.39207
1321.15495,0.45016
1319.66516,0.39337
1318.17537,0.33660
1316.68558,0.35485
1315.19580,0.33587
1313.70601,0.31336
1312.21622,0.35477
1310.72643,0.27376
1309.23664,0.29572
1307.74685,0.31149
1306.25707,0.31754
1304.76728,0.32272
1303.27749,0.32794
1301.78770,0.26753
1300.29791,0.27991
1298.80812,0.27457
1297.31834,0.24708
1295.82855,0.30659
1294.33876,0.29247
1292.84897,0.31743
1291.35918,0.33088
1289.86939,0.33372
1288.37960,0.33659
1286.88982,0.33327
1285.40003,0.33886
1283.91024,0.33828
1282.42045,0.40427
1280.93066,0.33719
1279.44087,0.38461
1277.95109,0.37172
1276.46130,0.33047
1274.97151,0.38109
1273.48172,0.43174
1271.99193,0.41099
1270.50214,0.40447
1269.01235,0.45300
1267.52257,0.45009
1266.03278,0.46851
1264.54299,0.48252
1263.05320,0.51697
1261.56341,0.54569
1260.07362,0.57444
1258.58384,0.54332
1257.09405,0.55926
1255.60426,0.54418
1254.11447,0.52380
1252.62468,0.48926
1251.13489,0.56655
1249.64511,0.56756
1248.15532,0.44704
1246.66553,0.41218
1245.17574,0.37734
1243.68595,0.37316
1242.19616,0.30422
1240.70637,0.32228
1239.21659,0.34481
1237.72680,0.29638
1236.23701,0.25951
1234.74722,0.20671
1233.25743,0.19608
1231.76764,0.18549
1230.27786,0.15585
1228.78807,0.18746
1227.29828,0.19870
1225.80849,0.17714
1224.31870,0.18045
1222.82891,0.10394
1221.33912,0.14104
1219.84934,0.14932
1218.35955,0.15764
1216.86976,0.19927
1215.37997,0.20366
1213.89018,0.18590
1212.40039,0.22140
1210.91061,0.19483
1209.42082,0.15852
1207.93103,0.15686
1206.44124,0.15522
1204.95145,0.15361
1203.46166,0.07218
1201.97188,0.04046
1200.48209,0.09574
1198.99230,0.11733
1197.50251,0.00940
1196.01272,0.05840
1194.52293,0.04753
1193.03314,0.03669
1191.54336,0.04408
1190.05357,0.06392
1188.56378,0.04386
1187.07399,0.07440
1185.58420,0.04287
1184.09441,0.06283
1182.60463,0.04201
1181.11484,0.02122
1179.62505,0.04926
1178.13526,0.07822
1176.64547,0.01493
1175.15568,0.06702
1173.66589,0.11382
1172.17611,0.02933
1170.68632,0.03936
1169.19653,0.04943
1167.70674,0.00940
1166.21695,0.10601
1164.72716,0.08375
1163.23738,0.05886
1161.74759,0.05440
1160.25780,0.03046
1158.76801,0.02695
1157.27822,0.02348
1155.78843,0.04577
1154.29865,0.00864
1152.80886,0.02355
1151.31907,0.07487
1149.82928,0.09073
1148.33949,0.07999
1146.84970,0.06929
1145.35991,0.05862
1143.87013,0.05774
1142.38034,0.08351
1140.89055,0.14037
1139.40076,0.16798
1137.91097,0.20982
1136.42118,0.21708
1134.93140,0.19864
1133.44161,0.18023
1131.95182,0.31625
1130.46203,0.30234
1128.97224,0.28225
1127.48245,0.30833
1125.99266,0.29984
1124.50288,0.37301
1123.01309,0.38543
1121.52330,0.39789
1120.03351,0.39928
1118.54372,0.45483
1117.05393,0.42611
1115.56415,0.39210
1114.07436,0.44952
1112.58457,0.43687
1111.09478,0.42425
1109.60499,0.52436
1108.11520,0.53842
1106.62542,0.49306
1105.13563,0.54890
1103.64584,0.63582
1102.15605,0.65976
1100.66626,0.68685
1099.17647,0.71397
1097.68668,0.73091
1096.19690,0.74699
1094.70711,0.80393
1093.21732,0.82363
1091.72753,0.89749
1090.23774,0.87066
1088.74795,0.84386
1087.25817,0.94355
1085.76838,0.99623
1084.27859,1.04806
1082.78880,1.07064
1081.29901,1.00895
1079.80922,1.02893
1078.31943,1.07201
1076.82965,1.11512
1075.33986,1.14406
1073.85007,1.18368
1072.36028,1.20648
1070.87049,1.26391
1069.38070,1.33912
1067.89092,1.37133
1066.40113,1.40356
1064.91134,1.31914
1063.42155,1.17707
1061.93176,1.07408
1060.44197,1.06873
1058.95219,0.96757
1057.46240,0.92058
1055.97261,0.87361
1054.48282,0.80804
1052.99303,0.81083
1051.50324,0.65748
1050.01345,0.65323
1048.52367,0.56028
1047.03388,0.54633
1045.54409,0.53241
1044.05430,0.54692
1042.56451,0.47273
1041.07472,0.45270
1039.58494,0.34396
1038.09515,0.33020
1036.60536,0.31514
1035.11557,0.30011
1033.62578,0.35122
1032.13599,0.31273
1030.64620,0.27961
1029.15642,0.29887
1027.66663,0.30928
1026.17684,0.31973
1024.68705,0.36925
1023.19726,0.50044
1021.70747,0.53937
1020.21769,0.82236
1018.72790,0.94211
1017.23811,1.00421
1015.74832,1.06634
1014.25853,1.37164
1012.76874,1.51369
1011.27896,1.66909
1009.78917,1.86534
1008.29938,1.95779
1006.80959,1.91185
1005.31980,1.86594
1003.83001,1.69761
1002.34022,1.61006
1000.85044,1.46131
999.36065,1.37559
997.87086,1.35202
996.38107,1.32848
994.89128,1.27036
993.40149,1.25842
991.91171,1.12583
990.42192,1.16542
988.93213,1.13760
987.44234,1.14530
985.95255,1.15304
984.46276,1.14217
982.97297,1.09406
981.48319,0.97411
979.99340,0.96334
978.50361,0.95880
977.01382,0.95430
975.52403,0.92854
974.03424,0.86287
972.54446,0.73956
971.05467,0.68904
969.56488,0.70332
968.07509,0.69235
966.58530,0.68142
965.09551,0.66918
963.60573,0.64721
962.11594,0.64923
960.62615,0.60159
959.13636,0.54377
957.64657,0.48599
956.15678,0.50233
954.66699,0.44328
953.17721,0.43928
951.68742,0.43708
950.19763,0.46109
948.70784,0.48513
947.21805,0.43244
945.72826,0.44634
944.23848,0.45672
942.74869,0.53634
941.25890,0.54590
939.76911,0.55548
938.27932,0.56510
936.78953,0.64307
935.29974,0.68292
933.80996,0.66601
932.32017,0.61630
930.83038,0.63450
929.34059,0.65273
927.85080,0.65636
926.36101,0.60144
924.87123,0.58738
923.38144,0.57601
921.89165,0.57887
920.40186,0.58176
918.91207,0.61840
917.42228,0.66572
915.93250,0.65806
914.44271,0.63267
912.95292,0.65302
911.46313,0.67340
909.97334,0.70668
908.48355,0.68497
906.99376,0.65265
905.50398,0.69489
904.01419,0.67062
902.52440,0.64637
901.03461,0.63813
899.54482,0.71244
898.05503,0.69894
896.56525,0.69434
895.07546,0.72083
893.58567,0.74735
892.09588,0.70113
890.60609,0.76055
889.11630,0.72860
887.62651,0.66562
886.13673,0.72113
884.64694,0.77668
883.15715,0.72977
881.66736,0.74411
880.17757,0.84989
878.68778,0.81638
877.19800,0.78290
875.70821,0.77252
874.21842,0.88907
872.72863,0.90537
871.23884,0.94656
869.74905,0.99753
868.25927,1.04854
866.76948,0.97535
865.27969,0.89686
863.78990,0.98701
862.30011,0.96360
860.81032,0.97572
859.32053,0.98787
857.83075,0.95568
856.34096,0.98652
854.85117,0.89140
853.36138,0.81937
851.87159,0.74028
850.38180,0.66121
848.89202,0.61679
847.40223,0.42687
845.91244,0.46503
844.42265,0.43091
842.93286,0.39681
841.44307,0.44305
839.95329,0.35888
838.46350,0.36614
836.97371,0.33794
835.48392,0.36345
833.99413,0.38899
832.50434,0.35024
831.01455,0.41355
829.52477,0.38284
828.03498,0.34329
826.54519,0.28691
825.05540,0.23056
823.56561,0.21417
822.07582,0.21378
820.58604,0.23118
819.09625,0.17584
817.60646,0.12053
816.11667,0.08123
814.62688,0.07301
813.13709,0.03820
811.64730,0.03360
810.15752,0.02148
808.66773,0.00940
807.17794,0.03705
805.68815,0.02569
804.19836,0.01348
802.70857,0.01993
801.21879,0.02641
799.72900,0.07640
798.23921,0.14772
796.74942,0.29006
795.25963,0.36055
793.76984,0.43108
792.28006,0.45461
790.79027,0.43557
789.30048,0.49909
787.81069,0.54933
786.32090,0.56633
784.83111,0.58335
783.34132,0.59997
781.85154,0.62105
780.36175,0.66701
778.87196,0.69304
777.38217,0.71909
775.89238,0.72521
774.40259,0.83164
772.91281,0.79523
771.42302,0.82673
769.93323,0.85826
768.44344,0.84857
766.95365,0.74928
765.46386,0.87985
763.97407,0.77352
762.48429,0.72358
760.99450,0.67366
759.50471,0.57808
758.01492,0.44881
756.52513,0.42161
755.03534,0.37981
753.54556,0.33803
752.05577,0.25237
750.56598,0.21021
749.07619,0.12194
747.58640,0.09804
746.09661,0.07417
744.60683,0.09958
743.11704,0.03628
741.62725,0.01738
740.13746,0.01937
738.64767,0.02138
737.15788,0.06292
735.66809,0.02995
734.17831,0.01742
732.68852,0.04440
731.19873,0.07142
729.70894,0.07939
728.21915,0.05367
726.72936,0.05904
725.23958,0.08574
723.74979,0.06766
722.26000,0.04961
720.77021,0.05777
719.28042,0.06773
717.79063,0.00940
716.30084,0.03594
714.81106,0.06251
713.32127,0.07448
711.83148,0.04920
710.34169,0.05058
708.85190,0.07506
707.36211,0.09956
705.87233,0.10458
704.38254,0.04841
702.89275,0.02598
701.40296,0.04884
699.91317,0.07173
698.42338,0.06625
696.93360,0.10252
695.44381,0.17076
693.95402,0.18978
692.46423,0.20883
690.97444,0.22747
689.48465,0.19467
687.99486,0.22491
686.50508,0.21924
685.01529,0.21360
683.52550,0.30427
682.03571,0.22993
680.54592,0.27452
679.05613,0.26412
677.56635,0.25376
676.07656,0.19462
674.58677,0.19852
673.09698,0.18115
671.60719,0.15804
670.11740,0.13497
668.62761,0.09373
667.13783,0.06673
665.64804,0.06282
664.15825,0.05895
662.66846,0.08439
661.17867,0.05928
659.68888,0.08834
658.19910,0.11343
656.70931,0.13855
655.21952,0.17391
653.72973,0.14718
652.23994,0.19236
650.75015,0.18788
649.26037,0.18343
647.77058,0.12932
646.28079,0.11694
644.79100,0.06556
643.30121,0.04437
641.81142,0.02322
640.32163,0.10858
638.83185,0.00940
637.34206,0.00872
635.85227,0.01605
634.36248,0.02341
632.87269,0.06808
631.38290,0.05066
629.89312,0.12289
628.40333,0.09888
626.91354,0.07490
625.42375,0.07180
623.93396,0.07761
622.44417,0.06437
620.95438,0.05116
619.46460,0.06239
617.97481,0.02661
616.48502,0.07517
614.99523,0.08515
613.50544,0.09517
612.01565,0.11188
610.52587,0.05851
609.03608,0.09213
607.54629,0.08985
606.05650,0.08760
604.56671,0.14617
603.07692,0.15419
601.58714,0.11387
600.09735,0.07359
598.60756,0.14825
597.11777,0.04104
595.62798,0.08914
594.13819,0.10311
592.64840,0.11711
591.15862,0.07125
589.66883,0.10350
588.17904,0.01688
586.68925,0.02480
585.19946,0.03274
583.70967,0.06157
582.21989,0.11883
580.73010,0.14151
579.24031,0.16422
577.75052,0.12130
576.26073,0.09615
574.77094,0.04264
573.28115,0.08811
571.79137,0.13360
570.30158,0.12012
568.81179,0.20072
567.32200,0.22368
565.83221,0.24667
564.34242,0.24219
562.85264,0.30251
561.36285,0.38504
559.87306,0.38731
558.38327,0.38960
556.89348,0.37196
555.40369,0.49455
553.91391,0.49339
552.42412,0.49225
550.93433,0.52887
549.44454,0.48653
547.95475,0.47973
546.46496,0.49558
544.97517,0.51146
543.48539,0.54645
541.99560,0.58680
540.50581,0.63161
539.01602,0.67646
537.52623,0.62550
536.03644,0.53642
534.54666,0.53522
533.05687,0.51275
531.56708,0.49031
530.07729,0.54244
528.58750,0.52628
527.09771,0.52434
525.60792,0.52244
524.11814,0.48596
522.62835,0.46814
521.13856,0.46722
519.64877,0.44148
518.15898,0.41577
516.66919,0.36702
515.17941,0.31742
513.68962,0.34904
512.19983,0.38069
510.71004,0.30544
509.22025,0.32251
507.73046,0.32986
506.24068,0.34521
504.75089,0.36060
503.26110,0.39643
501.77131,0.38438
500.28152,0.38167
498.79173,0.37899
497.30194,0.41229
495.81216,0.36486
494.32237,0.37559
492.83258,0.38634
491.34279,0.48454
489.85300,0.43812
488.36321,0.35625
486.87343,0.32986
485.38364,0.30350
483.89385,0.34240
482.40406,0.25887
480.91427,0.24104
479.42448,0.22323
477.93469,0.15577
476.44491,0.17264
474.95512,0.16292
473.46533,0.15322
471.97554,0.06015
470.48575,0.08247
468.99596,0.09594
467.50618,0.05265
466.01639,0.00940
464.52660,0.02440
463.03681,0.06428
461.54702,0.08023
460.05723,0.09621
458.56745,0.05454
457.07766,0.01291
455.58787,0.05294
454.09808,0.09301
452.60829,0.11713
451.11850,0.13064
449.62871,0.15127
448.13893,0.17194
446.64914,0.19175
445.15935,0.32340
443.66956,0.41515
442.17977,0.41686
440.68998,0.41861
439.20020,0.46785
437.71041,0.49850
436.22062,0.53095
434.73083,0.56343
433.24104,0.77697
431.75125,0.85299
430.26146,0.92816
428.77168,1.00336
427.28189,1.02180
425.79210,1.14320
424.30231,1.11867
422.81252,1.09416
421.32273,1.05682
419.83295,0.95474
418.34316,0.93698
416.85337,0.91926
415.36358,0.71965
413.87379,0.60349
412.38400,0.56279
410.89422,0.52212
409.40443,0.55424
407.91464,0.51718
406.42485,0.49524
404.93506,0.47643
403.44527,0.45765
401.95548,0.33020
400.46570,0.34654
398.97591,0.32697
397.48612,0.30743
395.99633,0.44454
394.50654,0.46278
393.01675,0.44067
391.52697,0.41859
390.03718,0.29494
388.54739,0.27781
387.05760,0.28377
385.56781,0.28977
384.07802,0.34461
382.58824,0.34357
381.09845,0.29864
379.60866,0.25374
378.11887,0.24658
376.62908,0.16314
375.13929,0.14806
373.64950,0.13301
372.15972,0.14195
370.66993,0.19529
369.18014,0.15903
367.69035,0.12281
366.20056,0.12123
364.71077,0.05135
363.22099,0.08310
361.73120,0.11489
360.24141,0.15425
358.75162,0.10756
357.26183,0.12125
355.77204,0.13497
354.28225,0.12742
352.79247,0.12611
351.30268,0.10842
349.81289,0.09077
348.32310,0.04341
346.83331,0.00940
345.34352,0.03905
343.85374,0.06873
342.36395,0.07936
340.87416,0.13085
339.38437,0.11448
337.89458,0.09814
336.40479,0.08317
334.91501,0.12679
333.42522,0.12696
331.93543,0.12717
330.44564,0.11054
328.95585,0.03272
327.46606,0.05697
325.97627,0.08126
324.48649,0.02483
322.99670,0.09910
321.50691,0.12550
320.01712,0.15192
318.52733,0.11980
317.03754,0.18178
315.54776,0.14574
314.05797,0.10973
312.56818,0.08572
311.07839,0.00940
309.58860,0.01780
308.09881,0.02623
306.60902,0.05599
305.11924,0.06093
303.62945,0.04949
302.13966,0.03808
300.64987,0.00940
299.16008,0.00940
