1778.52000,0.00000
1777.03021,0.04500
1775.54042,0.05272
1774.05063,0.01569
1772.56085,0.03093
1771.07106,0.02488
1769.58127,0.02207
1768.09148,0.00649
1766.60169,0.04745
1765.11190,0.04366
1763.62212,0.04417
1762.13233,0.04365
1760.64254,0.05595
1759.15275,0.04270
1757.66296,0.06893
1756.17317,0.03121
1754.68339,0.04364
1753.19360,0.02199
1751.70381,0.04515
1750.21402,0.01715
1748.72423,0.04464
1747.23444,0.01245
1745.74465,0.03467
1744.25487,0.03773
1742.76508,0.07281
1741.27529,0.07914
1739.78550,0.05884
1738.29571,0.02044
1736.80592,0.04179
1735.31614,0.07809
1733.82635,0.00141
1732.33656,0.07487
1730.84677,0.05026
1729.35698,0.01289
1727.86719,0.01394
1726.37740,0.00649
1724.88762,0.02620
1723.39783,0.00863
1721.90804,0.02521
1720.41825,0.01836
1718.92846,0.03821
1717.43867,0.04635
1715.94889,0.05560
1714.45910,0.06274
1712.96931,0.04220
1711.47952,0.07073
1709.98973,0.06091
1708.49994,0.05966
1707.01016,0.07016
1705.52037,0.08070
1704.03058,0.13178
1702.54079,0.12852
1701.05100,0.14342
1699.56121,0.14875
1698.07142,0.17118
1696.58164,0.20323
1695.09185,0.23425
1693.60206,0.21093
1692.11227,0.23988
1690.62248,0.21555
1689.13269,0.23070
1687.64291,0.23096
1686.15312,0.25151
1684.66333,0.23158
1683.17354,0.24793
1681.68375,0.23019
1680.19396,0.26366
1678.70417,0.27051
1677.21439,0.25820
1675.72460,0.28644
1674.23481,0.26033
1672.74502,0.21186
1671.25523,0.23486
1669.76544,0.28776
1668.27566,0.26711
1666.78587,0.26782
1665.29608,0.22484
1663.80629,0.24267
1662.31650,0.22642
1660.82671,0.24005
1659.33693,0.21746
1657.84714,0.16611
1656.35735,0.19690
1654.86756,0.17761
1653.37777,0.14982
1651.88798,0.19243
1650.39819,0.13378
1648.90841,0.16047
1647.41862,0.12427
1645.92883,0.14782
1644.43904,0.17141
1642.94925,0.15237
1641.45946,0.20694
1639.96968,0.14212
1638.47989,0.17756
1636.99010,0.19917
1635.50031,0.17069
1634.01052,0.14545
1632.52073,0.15330
1631.03094,0.17184
1629.54116,0.17975
1628.05137,0.18449
1626.56158,0.18073
1625.07179,0.27298
1623.58200,0.20104
1622.09221,0.28482
1620.60243,0.26413
1619.11264,0.25627
1617.62285,0.18340
1616.13306,0.23638
1614.64327,0.21263
1613.15348,0.22622
1611.66370,0.19826
1610.17391,0.24817
1608.68412,0.19682
1607.19433,0.21481
1605.70454,0.16032
1604.21475,0.16344
1602.72496,0.16660
1601.23518,0.14740
1599.74539,0.17088
1598.25560,0.16453
1596.76581,0.14649
1595.27602,0.16474
1593.78623,0.15742
1592.29645,0.12668
1590.80666,0.13436
1589.31687,0.13354
1587.82708,0.11889
1586.33729,0.09041
1584.84750,0.10355
1583.35771,0.08153
1581.86793,0.12139
1580.37814,0.09944
1578.88835,0.09351
1577.39856,0.07802
1575.90877,0.05937
1574.41898,0.11751
1572.92920,0.07226
1571.43941,0.01531
1569.94962,0.03570
1568.45983,0.05613
1566.97004,0.05792
1565.48025,0.02883
1563.99047,0.07973
1562.50068,0.07629
1561.01089,0.04196
1559.52110,0.08017
1558.03131,0.09602
1556.54152,0.12043
1555.05173,0.12035
1553.56195,0.08831
1552.07216,0.10216
1550.58237,0.10431
1549.09258,0.08729
1547.60279,0.08204
1546.11300,0.07362
1544.62322,0.03965
1543.13343,0.11339
1541.64364,0.08375
1540.15385,0.08985
1538.66406,0.09599
1537.17427,0.05577
1535.68448,0.09556
1534.19470,0.08740
1532.70491,0.06221
1531.21512,0.06691
1529.72533,0.03005
1528.23554,0.03908
1526.74575,0.02575
1525.25597,0.07003
1523.76618,0.12607
1522.27639,0.05419
1520.78660,0.05591
1519.29681,0.00649
1517.80702,0.05520
1516.31724,0.04529
1514.82745,0.04502
1513.33766,0.04745
1511.84787,0.04990
1510.35808,0.02946
1508.86829,0.05811
1507.37850,0.00788
1505.88872,0.04938
1504.39893,0.04614
1502.90914,0.02373
1501.41935,0.01734
1499.92956,0.08777
1498.43977,0.06332
1496.94999,0.13061
1495.46020,0.17234
1493.97041,0.20450
1492.48062,0.24523
1490.99083,0.27213
1489.50104,0.33424
1488.01125,0.37453
1486.52147,0.41486
1485.03168,0.56877
1483.54189,0.56917
1482.05210,0.60692
1480.56231,0.73428
1479.07252,0.84673
1477.58274,0.99121
1476.09295,1.11013
1474.60316,1.19602
1473.11337,1.30648
1471.62358,1.35192
1470.13379,1.28010
1468.64401,1.22751
1467.15422,1.15789
1465.66443,1.12562
1464.17464,1.09338
1462.68485,1.14648
1461.19506,1.12924
1459.70527,0.99580
1458.21549,0.98289
1456.72570,0.92735
1455.23591,0.93583
1453.74612,0.85157
1452.25633,0.88037
1450.76654,0.74819
1449.27676,0.76106
1447.78697,0.70039
1446.29718,0.66747
1444.80739,0.59300
1443.31760,0.51856
1441.82781,0.48147
1440.33802,0.45722
1438.84824,0.33169
1437.35845,0.37041
1435.86866,0.32812
1434.37887,0.37117
1432.88908,0.30548
1431.39929,0.31554
1429.90951,0.31390
1428.41972,0.31335
1426.92993,0.34270
1425.44014,0.38381
1423.95035,0.36790
1422.46056,0.35202
1420.97078,0.39962
1419.48099,0.40567
1417.99120,0.36376
1416.50141,0.31763
1415.01162,0.38562
1413.52183,0.43444
1412.03204,0.37454
1410.54226,0.44049
1409.05247,0.38385
1407.56268,0.36137
1406.07289,0.38903
1404.58310,0.38314
1403.09331,0.37728
1401.60353,0.42956
1400.11374,0.40404
1398.62395,0.44679
1397.13416,0.47464
1395.64437,0.49400
1394.15458,0.53151
1392.66479,0.49122
1391.17501,0.49575
1389.68522,0.51416
1388.19543,0.48676
1386.70564,0.49618
1385.21585,0.50564
1383.72606,0.49753
1382.23628,0.44360
1380.74649,0.49313
1379.25670,0.50964
1377.76691,0.51019
1376.27712,0.51717
1374.78733,0.57110
1373.29755,0.61120
1371.80776,0.67052
1370.31797,0.72454
1368.82818,0.79992
1367.33839,0.87534
1365.84860,1.02862
1364.35881,1.15955
1362.86903,1.31396
1361.37924,1.42896
1359.88945,1.59303
1358.39966,1.63665
1356.90987,1.69203
1355.42008,1.60136
1353.93030,1.61308
1352.44051,1.59019
1350.95072,1.56732
1349.46093,1.43946
1347.97114,1.30310
1346.48135,1.05908
1344.99156,1.02088
1343.50178,0.98912
1342.01199,0.92113
1340.52220,0.82652
1339.03241,0.77032
1337.54262,0.73762
1336.05283,0.71454
1334.56305,0.69150
1333.07326,0.66102
1331.58347,0.55060
1330.09368,0.57564
1328.60389,0.49514
1327.11410,0.47226
1325.62432,0.47287
1324.13453,0.48524
1322.64474,0.55735
1321.15495,0.52713
1319.66516,0.49534
1318.17537,0.46359
1316.68558,0.46759
1315.19580,0.44283
1313.70601,0.36692
1312.21622,0.37528
1310.72643,0.35382
1309.23664,0.38890
1307.74685,0.35790
1306.25707,0.38985
1304.76728,0.38131
1303.27749,0.37280
1301.78770,0.31314
1300.29791,0.39747
1298.80812,0.35280
1297.31834,0.37001
1295.82855,0.39045
1294.33876,0.37468
1292.84897,0.38025
1291.35918,0.36667
1289.86939,0.35099
1288.37960,0.33534
1286.88982,0.40822
1285.40003,0.43422
1283.91024,0.43786
1282.42045,0.43193
1280.93066,0.42924
1279.44087,0.48842
1277.95109,0.44954
1276.46130,0.51838
1274.97151,0.50462
1273.48172,0.49089
1271.99193,0.53317
1270.50214,0.58721
1269.01235,0.57411
1267.52257,0.61116
1266.03278,0.65250
1264.54299,0.60858
1263.05320,0.71610
1261.56341,0.73408
1260.07362,0.75209
1258.58384,0.73069
1257.09405,0.63894
1255.60426,0.64852
1254.11447,0.68159
1252.62468,0.65498
1251.13489,0.72544
1249.64511,0.66370
1248.15532,0.51670
1246.66553,0.52114
1245.17574,0.52562
1243.68595,0.43309
1242.19616,0.40991
1240.70637,0.48165
1239.21659,0.38922
1237.72680,0.38213
1236.23701,0.32922
1234.74722,0.26247
1233.25743,0.29333
1231.76764,0.32422
1230.27786,0.27570
1228.78807,0.32957
1227.29828,0.22994
1225.80849,0.21990
1224.31870,0.20883
1222.82891,0.21912
1221.33912,0.18146
1219.84934,0.19874
1218.35955,0.21605
1216.86976,0.20621
1215.37997,0.26464
1213.89018,0.28791
1212.40039,0.24938
1210.91061,0.23540
1209.42082,0.19799
1207.93103,0.22139
1206.44124,0.24483
1204.95145,0.15847
1203.46166,0.10413
1201.97188,0.15112
1200.48209,0.12564
1198.99230,0.09592
1197.50251,0.08436
1196.01272,0.06857
1194.52293,0.07254
1193.03314,0.07654
1191.54336,0.06084
1190.05357,0.09529
1188.56378,0.09139
1187.07399,0.00649
1185.58420,0.05101
1184.09441,0.03372
1182.60463,0.05752
1181.11484,0.08134
1179.62505,0.04282
1178.13526,0.05552
1176.64547,0.09917
1175.15568,0.05115
1173.66589,0.11939
1172.17611,0.05651
1170.68632,0.03311
1169.19653,0.00974
1167.70674,0.04506
1166.21695,0.05054
1164.72716,0.09338
1163.23738,0.01150
1161.74759,0.03201
1160.25780,0.04190
1158.76801,0.03795
1157.27822,0.03403
1155.78843,0.02908
1154.29865,0.06362
1152.80886,0.00649
1151.31907,0.03119
1149.82928,0.09858
1148.33949,0.05724
1146.84970,0.04525
1145.35991,0.03330
1143.87013,0.03683
1142.38034,0.08626
1140.89055,0.09199
1139.40076,0.12548
1137.91097,0.18033
1136.42118,0.23735
1134.93140,0.24588
1133.44161,0.25444
1131.95182,0.26143
1130.46203,0.35163
1128.97224,0.32457
1127.48245,0.36685
1125.99266,0.39636
1124.50288,0.42271
1123.01309,0.41124
1121.52330,0.39980
1120.03351,0.48915
1118.54372,0.43779
1117.05393,0.49522
1115.56415,0.53669
1114.07436,0.51528
1112.58457,0.53122
1111.09478,0.54720
1109.60499,0.54721
1108.11520,0.56538
1106.62542,0.57826
1105.13563,0.67540
1103.64584,0.84508
1102.15605,0.86018
1100.66626,0.82573
1099.17647,0.79131
1097.68668,0.89821
1096.19690,0.90278
1094.70711,0.90631
1093.21732,0.94080
1091.72753,0.95825
1090.23774,0.94536
1088.74795,0.93249
1087.25817,1.04281
1085.76838,1.09879
1084.27859,1.18998
1082.78880,1.25455
1081.29901,1.18693
1079.80922,1.21744
1078.31943,1.22772
1076.82965,1.23804
1075.33986,1.35181
1073.85007,1.41124
1072.36028,1.34062
1070.87049,1.35000
1069.38070,1.40419
1067.89092,1.44829
1066.40113,1.49242
1064.91134,1.38570
1063.42155,1.28328
1061.93176,1.26406
1060.44197,1.14464
1058.95219,1.03379
1057.46240,1.06158
1055.97261,1.08941
1054.48282,0.96798
1052.99303,0.87538
1051.50324,0.82440
1050.01345,0.65723
1048.52367,0.67242
1047.03388,0.65885
1045.54409,0.64532
1044.05430,0.64461
1042.56451,0.53304
1041.07472,0.52707
1039.58494,0.48701
1038.09515,0.45871
1036.60536,0.47042
1035.11557,0.48217
1033.62578,0.42838
1032.13599,0.34902
1030.64620,0.44244
1029.15642,0.39727
1027.66663,0.41557
1026.17684,0.43391
1024.68705,0.41870
1023.19726,0.49308
1021.70747,0.69865
1020.21769,0.74857
1018.72790,0.92861
1017.23811,1.03831
1015.74832,1.14804
1014.25853,1.41455
1012.76874,1.61498
1011.27896,1.66616
1009.78917,1.88691
1008.29938,2.00000
1006.80959,1.95478
1005.31980,1.90959
1003.83001,1.65491
1002.34022,1.54101
1000.85044,1.54443
999.36065,1.41567
997.87086,1.36371
996.38107,1.31179
994.89128,1.32600
993.40149,1.29333
991.91171,1.33747
990.42192,1.25581
988.93213,1.26163
987.44234,1.25894
985.95255,1.25629
984.46276,1.28886
982.97297,1.23615
981.48319,1.27731
979.99340,1.14044
978.50361,1.16514
977.01382,1.18987
975.52403,1.15972
974.03424,1.01124
972.54446,0.94383
971.05467,1.08332
969.56488,0.99998
968.07509,0.97532
966.58530,0.95069
965.09551,0.93889
963.60573,0.89940
962.11594,0.85035
960.62615,0.70749
959.13636,0.71128
957.64657,0.71510
956.15678,0.68644
954.66699,0.65140
953.17721,0.72197
951.68742,0.69126
950.19763,0.69844
948.70784,0.70566
947.21805,0.70384
945.72826,0.61675
944.23848,0.59474
942.74869,0.63780
941.25890,0.67557
939.76911,0.73309
938.27932,0.79064
936.78953,0.83490
935.29974,0.73844
933.80996,0.71025
932.32017,0.76207
930.83038,0.77980
929.34059,0.79756
927.85080,0.76951
926.36101,0.75747
924.87123,0.70602
923.38144,0.68233
921.89165,0.70878
920.40186,0.73526
918.91207,0.83109
917.42228,0.76914
915.93250,0.82770
914.44271,0.82126
912.95292,0.77433
911.46313,0.72744
909.97334,0.82772
908.48355,0.86726
906.99376,0.85138
905.50398,0.78968
904.01419,0.78880
902.52440,0.78794
901.03461,0.78819
899.54482,0.77993
898.05503,0.85275
896.56525,0.90640
895.07546,0.91264
893.58567,0.91891
892.09588,0.87563
890.60609,0.93048
889.11630,0.91392
887.62651,0.90379
886.13673,0.90702
884.64694,0.91029
883.15715,0.82455
881.66736,0.87319
880.17757,0.96346
878.68778,0.99191
877.19800,1.02039
875.70821,0.95720
874.21842,0.93776
872.72863,0.96528
871.23884,0.91178
869.74905,0.93403
868.25927,0.95630
866.76948,1.02233
865.27969,1.05747
863.78990,1.12569
862.30011,1.08839
860.81032,1.11989
859.32053,1.15142
857.83075,1.07582
856.34096,1.02692
854.85117,0.96311
853.36138,0.87268
851.87159,0.81428
850.38180,0.75590
848.89202,0.62932
847.40223,0.51983
845.91244,0.49247
844.42265,0.50460
842.93286,0.51676
841.44307,0.45964
839.95329,0.42602
838.46350,0.41161
836.97371,0.37485
835.48392,0.41010
833.99413,0.44538
832.50434,0.42044
831.01455,0.41367
829.52477,0.40586
828.03498,0.35223
826.54519,0.33862
825.05540,0.32504
823.56561,0.29923
822.07582,0.20521
820.58604,0.21786
819.09625,0.21667
817.60646,0.21551
816.11667,0.16108
814.62688,0.17598
813.13709,0.06403
811.64730,0.00649
810.15752,0.04802
808.66773,0.08958
807.17794,0.04374
805.68815,0.07044
804.19836,0.04919
802.70857,0.08129
801.21879,0.11342
799.72900,0.10613
798.23921,0.18523
796.74942,0.32302
795.25963,0.36167
793.76984,0.40036
792.28006,0.39323
790.79027,0.47996
789.30048,0.63924
787.81069,0.56716
786.32090,0.61400
784.83111,0.66088
783.34132,0.73604
781.85154,0.69928
780.36175,0.68388
778.87196,0.69889
777.38217,0.71394
775.89238,0.78713
774.40259,0.74094
772.91281,0.80566
771.42302,0.82990
769.93323,0.85417
768.44344,0.90514
766.95365,0.88682
765.46386,0.82909
763.97407,0.81723
762.48429,0.75477
760.99450,0.69233
759.50471,0.65392
758.01492,0.55369
756.52513,0.44603
755.03534,0.40612
753.54556,0.36623
752.05577,0.22028
750.56598,0.24604
749.07619,0.13854
747.58640,0.14251
746.09661,0.14650
744.60683,0.03910
743.11704,0.10553
741.62725,0.09736
740.13746,0.08016
738.64767,0.06299
737.15788,0.06984
735.66809,0.03407
734.17831,0.03459
732.68852,0.05274
731.19873,0.07091
729.70894,0.00649
728.21915,0.05857
726.72936,0.03605
725.23958,0.02636
723.74979,0.06255
722.26000,0.09877
720.77021,0.15528
719.28042,0.03483
717.79063,0.03276
716.30084,0.05844
714.81106,0.08416
713.32127,0.00649
711.83148,0.06169
710.34169,0.04656
708.85190,0.08957
707.36211,0.13261
705.87233,0.05466
704.38254,0.05459
702.89275,0.07800
701.40296,0.08598
699.91317,0.09400
698.42338,0.09192
696.93360,0.12719
695.44381,0.13370
693.95402,0.15677
692.46423,0.17987
690.97444,0.18222
689.48465,0.24750
687.99486,0.19127
686.50508,0.20010
685.01529,0.20897
683.52550,0.26159
682.03571,0.22361
680.54592,0.20059
679.05613,0.19786
677.56635,0.19516
676.07656,0.25967
674.58677,0.17067
673.09698,0.16380
671.60719,0.16336
670.11740,0.16295
668.62761,0.10074
667.13783,0.12599
665.64804,0.11128
664.15825,0.09661
662.66846,0.02599
661.17867,0.07056
659.68888,0.08531
658.19910,0.08570
656.70931,0.08611
655.21952,0.15214
653.72973,0.13396
652.23994,0.19898
650.75015,0.21126
649.26037,0.22356
647.77058,0.16179
646.28079,0.11605
644.79100,0.14178
643.30121,0.09664
641.81142,0.05153
640.32163,0.06349
638.83185,0.04457
637.34206,0.00649
635.85227,0.03903
634.36248,0.07160
632.87269,0.11060
631.38290,0.06006
629.89312,0.06501
628.40333,0.08864
626.91354,0.11231
625.42375,0.10456
623.93396,0.05525
622.44417,0.06142
620.95438,0.06762
619.46460,0.10905
617.97481,0.05347
616.48502,0.10135
614.99523,0.09383
613.50544,0.08633
612.01565,0.05540
610.52587,0.09595
609.03608,0.16959
607.54629,0.18408
606.05650,0.19860
604.56671,0.20622
603.07692,0.11365
601.58714,0.14319
600.09735,0.17277
598.60756,0.15280
597.11777,0.11793
595.62798,0.07776
594.13819,0.08721
592.64840,0.09669
591.15862,0.10034
589.66883,0.12001
588.17904,0.08000
586.68925,0.04323
585.19946,0.00649
583.70967,0.18800
582.21989,0.16375
580.73010,0.17045
579.24031,0.17719
577.75052,0.11038
576.26073,0.13424
574.77094,0.17093
573.28115,0.16927
571.79137,0.16763
570.30158,0.22681
568.81179,0.27749
567.32200,0.30900
565.83221,0.34055
564.34242,0.29430
562.85264,0.44640
561.36285,0.45885
559.87306,0.44575
558.38327,0.43268
556.89348,0.48254
555.40369,0.48980
553.91391,0.54080
552.42412,0.59183
550.93433,0.54906
549.44454,0.65134
547.95475,0.69500
546.46496,0.66566
544.97517,0.63634
543.48539,0.69183
541.99560,0.77828
540.50581,0.76986
539.01602,0.76147
537.52623,0.72112
536.03644,0.64135
534.54666,0.67784
533.05687,0.65945
531.56708,0.64109
530.07729,0.65315
528.58750,0.62366
527.09771,0.59047
525.60792,0.55731
524.11814,0.56417
522.62835,0.52094
521.13856,0.43083
519.64877,0.42019
518.15898,0.40959
516.66919,0.48911
515.17941,0.44711
513.68962,0.43980
512.19983,0.43252
510.71004,0.39915
509.22025,0.48737
507.73046,0.37516
506.24068,0.40906
504.75089,0.44299
503.26110,0.43431
501.77131,0.46191
500.28152,0.45808
498.79173,0.45429
497.30194,0.44147
495.81216,0.50012
494.32237,0.51668
492.83258,0.53328
491.34279,0.50886
489.85300,0.40663
488.36321,0.39613
486.87343,0.40805
485.38364,0.42001
483.89385,0.29979
482.40406,0.28409
480.91427,0.26895
479.42448,0.25385
477.93469,0.16574
476.44491,0.17256
474.95512,0.19700
473.46533,0.22148
471.97554,0.16762
470.48575,0.10952
468.99596,0.08878
467.50618,0.06860
466.01639,0.04846
464.52660,0.00649
463.03681,0.01093
461.54702,0.05965
460.05723,0.10841
458.56745,0.09375
457.07766,0.16870
455.58787,0.14131
454.09808,0.11396
452.60829,0.26577
451.11850,0.27154
449.62871,0.27840
448.13893,0.28530
446.64914,0.35087
445.15935,0.41861
443.66956,0.47252
442.17977,0.50460
440.68998,0.53671
439.20020,0.63017
437.71041,0.66181
436.22062,0.71215
434.73083,0.76252
433.24104,0.97233
431.75125,1.11073
430.26146,1.14147
428.77168,1.17224
427.28189,1.35126
425.79210,1.33305
424.30231,1.28501
422.81252,1.23700
421.32273,1.18477
419.83295,1.06965
418.34316,1.05959
416.85337,1.04957
415.36358,0.94521
413.87379,0.86328
412.38400,0.80857
410.89422,0.75389
409.40443,0.68485
407.91464,0.60411
406.42485,0.52660
404.93506,0.54563
403.44527,0.56468
401.95548,0.54698
400.46570,0.51972
398.97591,0.51861
397.48612,0.51753
395.99633,0.50210
394.50654,0.53680
393.01675,0.50650
391.52697,0.47623
390.03718,0.37029
388.54739,0.41259
387.05760,0.45546
385.56781,0.49836
384.07802,0.43413
382.58824,0.43070
381.09845,0.37454
379.60866,0.31840
378.11887,0.37265
376.62908,0.24674
375.13929,0.24775
373.64950,0.24878
372.15972,0.24559
370.66993,0.17205
369.18014,0.18811
367.69035,0.20421
366.20056,0.10837
364.71077,0.15759
363.22099,0.16791
361.73120,0.17827
360.24141,0.23291
358.75162,0.20015
357.26183,0.21807
355.77204,0.23602
354.28225,0.13938
352.79247,0.07475
351.30268,0.06828
349.81289,0.06183
348.32310,0.06555
346.83331,0.06767
345.34352,0.05810
343.85374,0.04857
342.36395,0.18088
340.87416,0.12662
339.38437,0.14223
337.89458,0.15788
336.40479,0.13891
334.91501,0.09438
333.42522,0.09999
331.93543,0.10564
330.44564,0.06013
328.95585,0.17034
327.46606,0.16862
325.97627,0.16693
324.48649,0.09810
322.99670,0.11907
321.50691,0.13474
320.01712,0.15044
318.52733,0.13952
317.03754,0.16808
315.54776,0.13857
314.05797,0.10908
312.56818,0.11215
311.07839,0.00649
309.58860,0.03767
308.09881,0.06889
306.60902,0.08202
305.11924,0.02267
303.62945,0.04865
302.13966,0.05020
300.64987,0.04219
299.16008,0.00649
