1778.52000,0.04342
1777.03021,0.00295
1775.54042,0.06366
1774.05063,0.08900
1772.56085,0.04156
1771.07106,0.05787
1769.58127,0.06814
1768.09148,0.06429
1766.60169,0.08779
1765.11190,0.02534
1763.62212,0.06205
1762.13233,0.08262
1760.64254,0.06275
1759.15275,0.08339
1757.66296,0.08079
1756.17317,0.01855
1754.68339,0.11046
1753.19360,0.03349
1751.70381,0.06174
1750.21402,0.02328
1748.72423,0.08599
1747.23444,0.05568
1745.74465,0.08205
1744.25487,0.08621
1742.76508,0.07219
1741.27529,0.08147
1739.78550,0.04830
1738.29571,0.07990
1736.80592,0.12873
1735.31614,0.07442
1733.82635,0.04645
1732.33656,0.03369
1730.84677,0.04523
1729.35698,0.05479
1727.86719,0.05831
1726.37740,0.01938
1724.88762,0.01387
1723.39783,0.01042
1721.90804,0.00295
1720.41825,0.04258
1718.92846,0.04887
1717.43867,0.09363
1715.94889,0.04032
1714.45910,0.01030
1712.96931,0.05920
1711.47952,0.09298
1709.98973,0.02968
1708.49994,0.06251
1707.01016,0.08223
1705.52037,0.10198
1704.03058,0.10052
1702.54079,0.13248
1701.05100,0.14020
1699.56121,0.15604
1698.07142,0.13752
1696.58164,0.12107
1695.09185,0.12791
1693.60206,0.16008
1692.11227,0.17811
1690.62248,0.17495
1689.13269,0.19204
1687.64291,0.16872
1686.15312,0.23038
1684.66333,0.16768
1683.17354,0.22031
1681.68375,0.18701
1680.19396,0.16487
1678.70417,0.18018
1677.21439,0.18238
1675.72460,0.18765
1674.23481,0.16261
1672.74502,0.19627
1671.25523,0.16827
1669.76544,0.21919
1668.27566,0.20036
1666.78587,0.17752
1665.29608,0.07885
1663.80629,0.13901
1662.31650,0.18202
1660.82671,0.18460
1659.33693,0.20340
1657.84714,0.16559
1656.35735,0.15007
1654.86756,0.12649
1653.37777,0.14037
1651.88798,0.13608
1650.39819,0.11058
1648.90841,0.14783
1647.41862,0.13353
1645.92883,0.15567
1644.43904,0.17785
1642.94925,0.16062
1641.45946,0.13027
1639.96968,0.10603
1638.47989,0.13239
1636.99010,0.16587
1635.50031,0.13667
1634.01052,0.10043
1632.52073,0.10974
1631.03094,0.09278
1629.54116,0.16588
1628.05137,0.18136
1626.56158,0.16754
1625.07179,0.21950
1623.58200,0.19564
1622.09221,0.21530
1620.60243,0.23096
1619.11264,0.22743
1617.62285,0.15515
1616.13306,0.21238
1614.64327,0.22614
1613.15348,0.15498
1611.66370,0.16275
1610.17391,0.13516
1608.68412,0.19761
1607.19433,0.17615
1605.70454,0.14562
1604.21475,0.14901
1602.72496,0.15244
1601.23518,0.16348
1599.74539,0.14928
1598.25560,0.12904
1596.76581,0.12805
1595.27602,0.11900
1593.78623,0.14640
1592.29645,0.09798
1590.80666,0.14669
1589.31687,0.08620
1587.82708,0.07631
1586.33729,0.04118
1584.84750,0.02630
1583.35771,0.06204
1581.86793,0.06342
1580.37814,0.08911
1578.88835,0.10270
1577.39856,0.09306
1575.90877,0.03186
1574.41898,0.03342
1572.92920,0.07749
1571.43941,0.04978
1569.94962,0.04182
1568.45983,0.03391
1566.97004,0.05586
1565.48025,0.03840
1563.99047,0.02199
1562.50068,0.06226
1561.01089,0.01052
1559.52110,0.06299
1558.03131,0.04065
1556.54152,0.05475
1555.05173,0.05675
1553.56195,0.06587
1552.07216,0.07907
1550.58237,0.06398
1549.09258,0.05904
1547.60279,0.06526
1546.11300,0.05129
1544.62322,0.11726
1543.13343,0.07200
1541.64364,0.09050
1540.15385,0.05643
1538.66406,0.02240
1537.17427,0.04202
1535.68448,0.04245
1534.19470,0.02167
1532.70491,0.00295
1531.21512,0.00380
1529.72533,0.03365
1528.23554,0.06859
1526.74575,0.02568
1525.25597,0.05260
1523.76618,0.04920
1522.27639,0.07821
1520.78660,0.05466
1519.29681,0.02609
1517.80702,0.07037
1516.31724,0.04793
1514.82745,0.03160
1513.33766,0.02440
1511.84787,0.01724
1510.35808,0.00000
1508.86829,0.02835
1507.37850,0.04257
1505.88872,0.01435
1504.39893,0.05292
1502.90914,0.05005
1501.41935,0.05936
1499.92956,0.00295
1498.43977,0.07538
1496.94999,0.11042
1495.46020,0.09695
1493.97041,0.14015
1492.48062,0.21980
1490.99083,0.26812
1489.50104,0.31042
1488.01125,0.36033
1486.52147,0.41028
1485.03168,0.48201
1483.54189,0.54366
1482.05210,0.52847
1480.56231,0.64582
1479.07252,0.74095
1477.58274,0.92715
1476.09295,0.93233
1474.60316,0.99520
1473.11337,1.12689
1471.62358,1.10486
1470.13379,1.11524
1468.64401,1.12666
1467.15422,1.01270
1465.66443,0.97210
1464.17464,0.93153
1462.68485,0.96939
1461.19506,0.92637
1459.70527,0.86011
1458.21549,0.74332
1456.72570,0.69433
1455.23591,0.68382
1453.74612,0.60556
1452.25633,0.55668
1450.76654,0.54525
1449.27676,0.56319
1447.78697,0.54172
1446.29718,0.50815
1444.80739,0.48219
1443.31760,0.45627
1441.82781,0.33986
1440.33802,0.27810
1438.84824,0.25178
1437.35845,0.21842
1435.86866,0.20835
1434.37887,0.22765
1432.88908,0.26114
1431.39929,0.22083
1429.90951,0.16943
1428.41972,0.19392
1426.92993,0.16687
1425.44014,0.20863
1423.95035,0.23373
1422.46056,0.25887
1420.97078,0.28657
1419.48099,0.31026
1417.99120,0.33702
1416.50141,0.28289
1415.01162,0.26117
1413.52183,0.29410
1412.03204,0.30077
1410.54226,0.31051
1409.05247,0.32332
1407.56268,0.24614
1406.07289,0.32476
1404.58310,0.29468
1403.09331,0.26464
1401.60353,0.34639
1400.11374,0.35840
1398.62395,0.35830
1397.13416,0.44825
1395.64437,0.47654
1394.15458,0.50588
1392.66479,0.52513
1391.17501,0.56971
1389.68522,0.65478
1388.19543,0.56894
1386.70564,0.55951
1385.21585,0.55011
1383.72606,0.58272
1382.23628,0.51625
1380.74649,0.49734
1379.25670,0.56141
1377.76691,0.51729
1376.27712,0.58143
1374.78733,0.66483
1373.29755,0.77759
1371.80776,0.83475
1370.31797,0.93140
1368.82818,1.04123
1367.33839,1.15109
1365.84860,1.35101
1364.35881,1.51354
1362.86903,1.63767
1361.37924,1.70013
1359.88945,1.74139
1358.39966,1.94654
1356.90987,2.00000
1355.42008,1.93819
1353.93030,1.81168
1352.44051,1.74944
1350.95072,1.68723
1349.46093,1.59521
1347.97114,1.38186
1346.48135,1.12201
1344.99156,1.02707
1343.50178,1.04949
1342.01199,0.89392
1340.52220,0.71108
1339.03241,0.64359
1337.54262,0.61861
1336.05283,0.60630
1334.56305,0.59403
1333.07326,0.56916
1331.58347,0.55746
1330.09368,0.50838
1328.60389,0.38145
1327.11410,0.41639
1325.62432,0.38359
1324.13453,0.35993
1322.64474,0.35755
1321.15495,0.34711
1319.66516,0.30839
1318.17537,0.26969
1316.68558,0.33926
1315.19580,0.32997
1313.70601,0.33791
1312.21622,0.28520
1310.72643,0.35895
1309.23664,0.26181
1307.74685,0.28303
1306.25707,0.27092
1304.76728,0.28159
1303.27749,0.29230
1301.78770,0.23275
1300.29791,0.22280
1298.80812,0.30289
1297.31834,0.28593
1295.82855,0.25686
1294.33876,0.24603
1292.84897,0.28986
1291.35918,0.29123
1289.86939,0.29872
1288.37960,0.30623
1286.88982,0.32187
1285.40003,0.37498
1283.91024,0.37046
1282.42045,0.36699
1280.93066,0.38074
1279.44087,0.37835
1277.95109,0.36689
1276.46130,0.37469
1274.97151,0.37999
1273.48172,0.38532
1271.99193,0.39423
1270.50214,0.45273
1269.01235,0.43339
1267.52257,0.44847
1266.03278,0.41200
1264.54299,0.50908
1263.05320,0.59810
1261.56341,0.57944
1260.07362,0.56081
1258.58384,0.56901
1257.09405,0.61266
1255.60426,0.58857
1254.11447,0.59385
1252.62468,0.52532
1251.13489,0.46897
1249.64511,0.55021
1248.15532,0.41301
1246.66553,0.37193
1245.17574,0.33089
1243.68595,0.35158
1242.19616,0.33994
1240.70637,0.34755
1239.21659,0.28844
1237.72680,0.24858
1236.23701,0.27349
1234.74722,0.20639
1233.25743,0.21064
1231.76764,0.21492
1230.27786,0.16815
1228.78807,0.20942
1227.29828,0.22543
1225.80849,0.22125
1224.31870,0.14024
1222.82891,0.15737
1221.33912,0.19173
1219.84934,0.17352
1218.35955,0.15536
1216.86976,0.12205
1215.37997,0.18993
1213.89018,0.20322
1212.40039,0.22261
1210.91061,0.17933
1209.42082,0.17250
1207.93103,0.17632
1206.44124,0.18018
1204.95145,0.10669
1203.46166,0.09190
1201.97188,0.04883
1200.48209,0.13222
1198.99230,0.17014
1197.50251,0.09480
1196.01272,0.06602
1194.52293,0.05448
1193.03314,0.04297
1191.54336,0.07802
1190.05357,0.07568
1188.56378,0.12496
1187.07399,0.06099
1185.58420,0.03145
1184.09441,0.00295
1182.60463,0.04303
1181.11484,0.08314
1179.62505,0.10559
1178.13526,0.10076
1176.64547,0.13947
1175.15568,0.18933
1173.66589,0.07941
1172.17611,0.08787
1170.68632,0.07968
1169.19653,0.07152
1167.70674,0.07502
1166.21695,0.10082
1164.72716,0.02651
1163.23738,0.10497
1161.74759,0.04894
1160.25780,0.07285
1158.76801,0.07151
1157.27822,0.07020
1155.78843,0.02341
1154.29865,0.00295
1152.80886,0.09765
1151.31907,0.09428
1149.82928,0.05756
1148.33949,0.11089
1146.84970,0.09245
1145.35991,0.07404
1143.87013,0.07387
1142.38034,0.11622
1140.89055,0.17883
1139.40076,0.18686
1137.91097,0.18481
1136.42118,0.23640
1134.93140,0.22430
1133.44161,0.21223
1131.95182,0.24269
1130.46203,0.28329
1128.97224,0.27032
1127.48245,0.34336
1125.99266,0.31022
1124.50288,0.41772
1123.01309,0.42663
1121.52330,0.43558
1120.03351,0.50677
1118.54372,0.47685
1117.05393,0.44493
1115.56415,0.47476
1114.07436,0.52585
1112.58457,0.50112
1111.09478,0.47643
1109.60499,0.52358
1108.11520,0.52627
1106.62542,0.57451
1105.13563,0.62480
1103.64584,0.64579
1102.15605,0.80641
1100.66626,0.80572
1099.17647,0.80508
1097.68668,0.73315
1096.19690,0.81198
1094.70711,0.78969
1093.21732,0.83520
1091.72753,0.90199
1090.23774,0.91672
1088.74795,0.93148
1087.25817,1.02164
1085.76838,1.01169
1084.27859,1.05337
1082.78880,1.20634
1081.29901,1.21470
1079.80922,1.11993
1078.31943,1.10106
1076.82965,1.08222
1075.33986,1.24446
1073.85007,1.26514
1072.36028,1.41835
1070.87049,1.41583
1069.38070,1.46797
1067.89092,1.44782
1066.40113,1.42770
1064.91134,1.35856
1063.42155,1.19438
1061.93176,1.16678
1060.44197,1.00874
1058.95219,0.96402
1057.46240,0.96282
1055.97261,0.96166
1054.48282,0.96559
1052.99303,0.86436
1051.50324,0.69439
1050.01345,0.59626
1048.52367,0.53358
1047.03388,0.51745
1045.54409,0.50136
1044.05430,0.56318
1042.56451,0.47939
1041.07472,0.42194
1039.58494,0.36552
1038.09515,0.31623
1036.60536,0.33372
1035.11557,0.35125
1033.62578,0.28082
1032.13599,0.27616
1030.64620,0.26851
1029.15642,0.33473
1027.66663,0.33018
1026.17684,0.32566
1024.68705,0.32623
1023.19726,0.49070
1021.70747,0.57631
1020.21769,0.79547
1018.72790,0.95802
1017.23811,1.03159
1015.74832,1.10520
1014.25853,1.32450
1012.76874,1.45279
1011.27896,1.72678
1009.78917,1.85514
1008.29938,1.95826
1006.80959,1.93700
1005.31980,1.91577
1003.83001,1.78028
1002.34022,1.62865
1000.85044,1.49424
999.36065,1.39932
997.87086,1.33780
996.38107,1.27633
994.89128,1.28771
993.40149,1.41949
991.91171,1.34598
990.42192,1.20777
988.93213,1.26481
987.44234,1.23287
985.95255,1.20097
984.46276,1.17517
982.97297,1.19188
981.48319,1.12064
979.99340,1.01706
978.50361,0.99544
977.01382,0.97386
975.52403,0.93613
974.03424,0.85697
972.54446,0.79503
971.05467,0.86361
969.56488,0.74308
968.07509,0.78694
966.58530,0.83085
965.09551,0.72761
963.60573,0.70028
962.11594,0.68106
960.62615,0.63862
959.13636,0.59773
957.64657,0.55688
956.15678,0.46498
954.66699,0.44594
953.17721,0.47043
951.68742,0.51923
950.19763,0.51698
948.70784,0.51477
947.21805,0.55052
945.72826,0.50236
944.23848,0.55538
942.74869,0.61551
941.25890,0.55329
939.76911,0.56545
938.27932,0.57764
936.78953,0.67028
935.29974,0.71035
933.80996,0.64527
932.32017,0.67226
930.83038,0.68058
929.34059,0.68894
927.85080,0.63006
926.36101,0.62685
924.87123,0.62671
923.38144,0.65088
921.89165,0.59619
920.40186,0.54153
918.91207,0.53142
917.42228,0.62147
915.93250,0.62457
914.44271,0.65502
912.95292,0.65111
911.46313,0.64723
909.97334,0.67778
908.48355,0.76197
906.99376,0.72887
905.50398,0.71603
904.01419,0.65922
902.52440,0.60245
901.03461,0.62916
899.54482,0.68322
898.05503,0.65740
896.56525,0.75704
895.07546,0.79957
893.58567,0.84213
892.09588,0.80836
890.60609,0.79182
889.11630,0.78442
887.62651,0.76087
886.13673,0.76922
884.64694,0.77759
883.15715,0.76527
881.66736,0.78940
880.17757,0.77917
878.68778,0.84382
877.19800,0.90851
875.70821,0.84276
874.21842,0.78310
872.72863,0.93691
871.23884,1.01185
869.74905,1.01703
868.25927,1.02225
866.76948,0.93142
865.27969,0.89928
863.78990,1.00980
862.30011,1.00504
860.81032,0.96643
859.32053,0.92786
857.83075,1.01222
856.34096,1.01165
854.85117,0.81691
853.36138,0.77291
851.87159,0.76233
850.38180,0.75178
848.89202,0.56224
847.40223,0.43139
845.91244,0.31980
844.42265,0.34833
842.93286,0.37690
841.44307,0.38375
839.95329,0.36131
838.46350,0.29136
836.97371,0.24370
835.48392,0.27648
833.99413,0.30930
832.50434,0.28501
831.01455,0.31739
829.52477,0.35992
828.03498,0.29021
826.54519,0.21346
825.05540,0.13674
823.56561,0.17335
822.07582,0.10378
820.58604,0.17484
819.09625,0.12759
817.60646,0.08038
816.11667,0.02208
814.62688,0.02146
813.13709,0.03403
811.64730,0.03955
810.15752,0.02842
808.66773,0.01732
807.17794,0.02801
805.68815,0.00838
804.19836,0.00295
802.70857,0.01565
801.21879,0.02838
799.72900,0.05329
798.23921,0.16218
796.74942,0.30954
795.25963,0.32595
793.76984,0.34239
792.28006,0.48379
790.79027,0.51396
789.30048,0.50876
787.81069,0.55923
786.32090,0.57383
784.83111,0.58846
783.34132,0.62588
781.85154,0.67244
780.36175,0.73522
778.87196,0.69790
777.38217,0.66061
775.89238,0.75687
774.40259,0.87542
772.91281,0.89083
771.42302,0.87492
769.93323,0.85905
768.44344,0.89479
766.95365,0.84055
765.46386,0.86423
763.97407,0.84242
762.48429,0.77413
760.99450,0.70587
759.50471,0.57695
758.01492,0.48650
756.52513,0.47701
755.03534,0.39169
753.54556,0.30641
752.05577,0.20902
750.56598,0.21686
749.07619,0.11145
747.58640,0.13048
746.09661,0.14955
744.60683,0.09583
743.11704,0.00978
741.62725,0.05222
740.13746,0.05524
738.64767,0.05830
737.15788,0.08971
735.66809,0.02002
734.17831,0.00295
732.68852,0.05041
731.19873,0.09790
729.70894,0.08980
728.21915,0.07364
726.72936,0.05853
725.23958,0.07581
723.74979,0.04711
722.26000,0.01845
720.77021,0.09046
719.28042,0.06035
717.79063,0.03128
716.30084,0.02905
714.81106,0.02686
713.32127,0.00295
711.83148,0.05888
710.34169,0.07541
708.85190,0.05454
707.36211,0.03370
705.87233,0.11405
704.38254,0.06597
702.89275,0.00782
701.40296,0.02657
699.91317,0.04536
698.42338,0.03990
696.93360,0.17002
695.44381,0.18385
693.95402,0.18204
692.46423,0.18027
690.97444,0.14565
689.48465,0.22132
687.99486,0.26163
686.50508,0.27769
685.01529,0.29379
683.52550,0.35847
682.03571,0.33721
680.54592,0.27047
679.05613,0.26698
677.56635,0.26353
676.07656,0.14228
674.58677,0.14041
673.09698,0.14465
671.60719,0.12313
670.11740,0.10164
668.62761,0.02304
667.13783,0.09013
665.64804,0.08796
664.15825,0.08583
662.66846,0.06705
661.17867,0.12719
659.68888,0.07206
658.19910,0.08372
656.70931,0.09542
655.21952,0.22954
653.72973,0.18669
652.23994,0.22074
650.75015,0.21387
649.26037,0.20702
647.77058,0.20679
646.28079,0.11354
644.79100,0.08303
643.30121,0.09757
641.81142,0.11214
640.32163,0.10298
638.83185,0.05744
637.34206,0.02811
635.85227,0.01551
634.36248,0.00295
632.87269,0.10386
631.38290,0.10769
629.89312,0.05594
628.40333,0.05782
626.91354,0.05974
625.42375,0.03843
623.93396,0.09908
622.44417,0.10920
620.95438,0.11935
619.46460,0.05165
617.97481,0.08513
616.48502,0.08021
614.99523,0.08595
613.50544,0.09172
612.01565,0.15366
610.52587,0.13067
609.03608,0.10975
607.54629,0.12981
606.05650,0.14992
604.56671,0.19686
603.07692,0.22563
601.58714,0.17150
600.09735,0.11740
598.60756,0.13312
597.11777,0.14888
595.62798,0.06050
594.13819,0.06520
592.64840,0.06994
591.15862,0.08685
589.66883,0.12503
588.17904,0.09548
586.68925,0.07153
585.19946,0.04762
583.70967,0.07785
582.21989,0.15768
580.73010,0.16219
579.24031,0.16673
577.75052,0.17080
576.26073,0.11827
574.77094,0.14264
573.28115,0.13619
571.79137,0.12979
570.30158,0.19168
568.81179,0.28093
567.32200,0.29283
565.83221,0.30476
564.34242,0.33949
562.85264,0.30446
561.36285,0.40601
559.87306,0.46108
558.38327,0.51617
556.89348,0.49342
555.40369,0.59814
553.91391,0.59923
552.42412,0.60035
550.93433,0.60707
549.44454,0.56729
547.95475,0.61150
546.46496,0.61377
544.97517,0.61608
543.48539,0.66444
541.99560,0.69766
540.50581,0.76986
539.01602,0.84210
537.52623,0.77731
536.03644,0.63367
534.54666,0.68830
533.05687,0.67672
531.56708,0.66518
530.07729,0.66024
528.58750,0.56532
527.09771,0.58372
525.60792,0.60215
524.11814,0.53363
522.62835,0.49043
521.13856,0.48672
519.64877,0.41577
518.15898,0.34486
516.66919,0.40801
515.17941,0.34475
513.68962,0.38976
512.19983,0.43480
510.71004,0.39795
509.22025,0.36619
507.73046,0.42651
506.24068,0.43831
504.75089,0.45014
503.26110,0.43875
501.77131,0.42031
500.28152,0.43933
498.79173,0.45839
497.30194,0.39555
495.81216,0.31453
494.32237,0.37668
492.83258,0.43886
491.34279,0.47225
489.85300,0.45813
488.36321,0.37021
486.87343,0.37185
485.38364,0.37351
483.89385,0.36459
482.40406,0.26366
480.91427,0.22042
479.42448,0.17721
477.93469,0.06223
476.44491,0.08989
474.95512,0.12366
473.46533,0.15746
471.97554,0.07802
470.48575,0.09166
468.99596,0.14782
467.50618,0.09123
466.01639,0.03468
464.52660,0.00295
463.03681,0.10329
461.54702,0.09695
460.05723,0.09065
458.56745,0.02015
457.07766,0.05994
455.58787,0.10583
454.09808,0.15175
452.60829,0.15523
451.11850,0.17796
449.62871,0.20781
448.13893,0.23769
446.64914,0.21602
445.15935,0.34914
443.66956,0.48634
442.17977,0.50776
440.68998,0.52922
439.20020,0.61291
437.71041,0.62382
436.22062,0.68685
434.73083,0.74991
433.24104,0.86004
431.75125,1.06731
430.26146,1.12289
428.77168,1.17851
427.28189,1.21494
425.79210,1.31615
424.30231,1.32787
422.81252,1.33962
421.32273,1.41665
419.83295,1.30356
418.34316,1.19860
416.85337,1.09367
415.36358,0.89572
413.87379,0.75243
412.38400,0.75583
410.89422,0.75926
409.40443,0.73643
407.91464,0.70757
406.42485,0.65852
404.93506,0.60646
403.44527,0.55444
401.95548,0.57325
400.46570,0.46263
398.97591,0.47444
397.48612,0.48628
395.99633,0.45466
394.50654,0.58895
393.01675,0.58016
391.52697,0.57140
390.03718,0.49946
388.54739,0.35878
387.05760,0.35872
385.56781,0.35870
384.07802,0.51953
382.58824,0.48823
381.09845,0.43521
379.60866,0.38222
378.11887,0.33787
376.62908,0.32996
375.13929,0.30236
373.64950,0.27480
372.15972,0.27509
370.66993,0.19349
369.18014,0.17766
367.69035,0.16187
366.20056,0.05508
364.71077,0.00295
363.22099,0.06071
361.73120,0.11849
360.24141,0.15306
358.75162,0.14618
357.26183,0.17171
355.77204,0.19727
354.28225,0.22590
352.79247,0.11599
351.30268,0.07186
349.81289,0.02777
348.32310,0.11925
346.83331,0.01454
345.34352,0.03036
343.85374,0.04621
342.36395,0.09750
340.87416,0.17917
339.38437,0.19614
337.89458,0.21314
336.40479,0.21602
334.91501,0.20781
333.42522,0.18901
331.93543,0.17024
330.44564,0.16618
328.95585,0.17226
327.46606,0.12933
325.97627,0.08642
324.48649,0.03496
322.99670,0.08934
321.50691,0.11899
320.01712,0.14866
318.52733,0.16977
317.03754,0.27892
315.54776,0.26672
314.05797,0.25456
312.56818,0.22119
311.07839,0.07053
309.58860,0.03672
308.09881,0.00295
306.60902,0.01846
305.11924,0.05524
303.62945,0.04958
302.13966,0.04395
300.64987,0.00295
299.16008,0.00295
