1778.52000,0.03593
1777.03021,0.03222
1775.54042,0.00666
1774.05063,0.02177
1772.56085,0.01504
1771.07106,0.00000
1769.58127,0.02042
1768.09148,0.02420
1766.60169,0.00510
1765.11190,0.02354
1763.62212,0.03159
1762.13233,0.04697
1760.64254,0.05509
1759.15275,0.03199
1757.66296,0.07143
1756.17317,0.04006
1754.68339,0.03998
1753.19360,0.03785
1751.70381,0.02534
1750.21402,0.00140
1748.72423,0.05742
1747.23444,0.02077
1745.74465,0.05498
1744.25487,0.02985
1742.76508,0.07455
1741.27529,0.04636
1739.78550,0.07030
1738.29571,0.04426
1736.80592,0.04534
1735.31614,0.02562
1733.82635,0.04448
1732.33656,0.04150
1730.84677,0.00834
1729.35698,0.02417
1727.86719,0.02442
1726.37740,0.02886
1724.88762,0.00000
1723.39783,0.00975
1721.90804,0.00808
1720.41825,0.00957
1718.92846,0.04651
1717.43867,0.02515
1715.94889,0.03507
1714.45910,0.01899
1712.96931,0.09773
1711.47952,0.04629
1709.98973,0.03135
1708.49994,0.07269
1707.01016,0.08282
1705.52037,0.09298
1704.03058,0.10734
1702.54079,0.15195
1701.05100,0.12366
1699.56121,0.12979
1698.07142,0.15783
1696.58164,0.16090
1695.09185,0.22442
1693.60206,0.20152
1692.11227,0.19635
1690.62248,0.23289
1689.13269,0.19863
1687.64291,0.26128
1686.15312,0.28959
1684.66333,0.24709
1683.17354,0.24526
1681.68375,0.24450
1680.19396,0.28336
1678.70417,0.25245
1677.21439,0.27680
1675.72460,0.25325
1674.23481,0.26412
1672.74502,0.21668
1671.25523,0.24012
1669.76544,0.25942
1668.27566,0.27251
1666.78587,0.25750
1665.29608,0.24878
1663.80629,0.24009
1662.31650,0.23560
1660.82671,0.23739
1659.33693,0.21005
1657.84714,0.19629
1656.35735,0.16798
1654.86756,0.18449
1653.37777,0.16145
1651.88798,0.14470
1650.39819,0.17694
1648.90841,0.12796
1647.41862,0.20507
1645.92883,0.18168
1644.43904,0.15832
1642.94925,0.17302
1641.45946,0.15234
1639.96968,0.13586
1638.47989,0.20379
1636.99010,0.16654
1635.50031,0.15745
1634.01052,0.12860
1632.52073,0.12582
1631.03094,0.12204
1629.54116,0.19226
1628.05137,0.18855
1626.56158,0.19529
1625.07179,0.22394
1623.58200,0.27867
1622.09221,0.23134
1620.60243,0.26738
1619.11264,0.21074
1617.62285,0.19164
1616.13306,0.22049
1614.64327,0.17437
1613.15348,0.19495
1611.66370,0.20411
1610.17391,0.20914
1608.68412,0.18086
1607.19433,0.18387
1605.70454,0.19421
1604.21475,0.18270
1602.72496,0.17123
1601.23518,0.13791
1599.74539,0.13380
1598.25560,0.14535
1596.76581,0.14651
1595.27602,0.13312
1593.78623,0.16769
1592.29645,0.10957
1590.80666,0.12545
1589.31687,0.13095
1587.82708,0.10836
1586.33729,0.14309
1584.84750,0.09348
1583.35771,0.07307
1581.86793,0.04540
1580.37814,0.05839
1578.88835,0.09434
1577.39856,0.08240
1575.90877,0.05591
1574.41898,0.05653
1572.92920,0.07491
1571.43941,0.06101
1569.94962,0.05393
1568.45983,0.04688
1566.97004,0.05184
1565.48025,0.01308
1563.99047,0.06604
1562.50068,0.06277
1561.01089,0.08245
1559.52110,0.09071
1558.03131,0.10317
1556.54152,0.09274
1555.05173,0.06463
1553.56195,0.13241
1552.07216,0.11583
1550.58237,0.08991
1549.09258,0.04111
1547.60279,0.05693
1546.11300,0.09362
1544.62322,0.13555
1543.13343,0.06709
1541.64364,0.03512
1540.15385,0.05371
1538.66406,0.07234
1537.17427,0.06756
1535.68448,0.03989
1534.19470,0.01747
1532.70491,0.07321
1531.21512,0.04878
1529.72533,0.06708
1528.23554,0.00000
1526.74575,0.01942
1525.25597,0.03053
1523.76618,0.05314
1522.27639,0.00286
1520.78660,0.03075
1519.29681,0.01075
1517.80702,0.00641
1516.31724,0.03648
1514.82745,0.03638
1513.33766,0.02850
1511.84787,0.02065
1510.35808,0.02898
1508.86829,0.04047
1507.37850,0.02074
1505.88872,0.00000
1504.39893,0.02954
1502.90914,0.04661
1501.41935,0.00746
1499.92956,0.00688
1498.43977,0.06885
1496.94999,0.09439
1495.46020,0.13872
1493.97041,0.13515
1492.48062,0.21601
1490.99083,0.24272
1489.50104,0.25176
1488.01125,0.28792
1486.52147,0.32412
1485.03168,0.43848
1483.54189,0.51016
1482.05210,0.57250
1480.56231,0.70363
1479.07252,0.75770
1477.58274,0.88473
1476.09295,0.99721
1474.60316,1.08368
1473.11337,1.13268
1471.62358,1.19213
1470.13379,1.11514
1468.64401,1.13195
1467.15422,0.98522
1465.66443,0.99845
1464.17464,1.01171
1462.68485,0.95885
1461.19506,0.95603
1459.70527,0.93866
1458.21549,0.86402
1456.72570,0.84567
1455.23591,0.80965
1453.74612,0.72574
1452.25633,0.72312
1450.76654,0.70387
1449.27676,0.61901
1447.78697,0.63733
1446.29718,0.61922
1444.80739,0.56312
1443.31760,0.50705
1441.82781,0.45154
1440.33802,0.32939
1438.84824,0.29582
1437.35845,0.17894
1435.86866,0.22878
1434.37887,0.28595
1432.88908,0.25981
1431.39929,0.22641
1429.90951,0.20763
1428.41972,0.20242
1426.92993,0.22643
1425.44014,0.28796
1423.95035,0.30265
1422.46056,0.31738
1420.97078,0.31547
1419.48099,0.29692
1417.99120,0.28779
1416.50141,0.24431
1415.01162,0.26233
1413.52183,0.28038
1412.03204,0.27451
1410.54226,0.29159
1409.05247,0.22952
1407.56268,0.32480
1406.07289,0.23676
1404.58310,0.27742
1403.09331,0.31810
1401.60353,0.30621
1400.11374,0.27977
1398.62395,0.28775
1397.13416,0.35513
1395.64437,0.33192
1394.15458,0.30145
1392.66479,0.33560
1391.17501,0.30103
1389.68522,0.34983
1388.19543,0.31012
1386.70564,0.29388
1385.21585,0.27767
1383.72606,0.23077
1382.23628,0.22765
1380.74649,0.20998
1379.25670,0.26007
1377.76691,0.27893
1376.27712,0.27699
1374.78733,0.38760
1373.29755,0.42948
1371.80776,0.42868
1370.31797,0.50189
1368.82818,0.54596
1367.33839,0.59006
1365.84860,0.68212
1364.35881,0.77629
1362.86903,0.87988
1361.37924,0.96266
1359.88945,1.00797
1358.39966,1.00331
1356.90987,1.11953
1355.42008,1.07014
1353.93030,1.13226
1352.44051,1.11732
1350.95072,1.10241
1349.46093,1.11774
1347.97114,0.97997
1346.48135,0.78077
1344.99156,0.75453
1343.50178,0.67416
1342.01199,0.67404
1340.52220,0.58853
1339.03241,0.55618
1337.54262,0.54678
1336.05283,0.55304
1334.56305,0.55934
1333.07326,0.47712
1331.58347,0.52620
1330.09368,0.46697
1328.60389,0.36505
1327.11410,0.39965
1325.62432,0.35614
1324.13453,0.34497
1322.64474,0.38591
1321.15495,0.36335
1319.66516,0.33821
1318.17537,0.31310
1316.68558,0.33543
1315.19580,0.33071
1313.70601,0.33435
1312.21622,0.34220
1310.72643,0.26361
1309.23664,0.28923
1307.74685,0.33156
1306.25707,0.33433
1304.76728,0.28557
1303.27749,0.23684
1301.78770,0.21888
1300.29791,0.31659
1298.80812,0.21222
1297.31834,0.25687
1295.82855,0.30988
1294.33876,0.31501
1292.84897,0.32538
1291.35918,0.24514
1289.86939,0.25922
1288.37960,0.27334
1286.88982,0.26092
1285.40003,0.33605
1283.91024,0.38829
1282.42045,0.35618
1280.93066,0.41474
1279.44087,0.42854
1277.95109,0.35174
1276.46130,0.34372
1274.97151,0.40659
1273.48172,0.46948
1271.99193,0.40011
1270.50214,0.48390
1269.01235,0.46356
1267.52257,0.51721
1266.03278,0.56986
1264.54299,0.54232
1263.05320,0.60025
1261.56341,0.58632
1260.07362,0.57243
1258.58384,0.59295
1257.09405,0.61350
1255.60426,0.62055
1254.11447,0.63908
1252.62468,0.66182
1251.13489,0.61584
1249.64511,0.55634
1248.15532,0.47396
1246.66553,0.48173
1245.17574,0.48953
1243.68595,0.40309
1242.19616,0.43648
1240.70637,0.36364
1239.21659,0.35647
1237.72680,0.25974
1236.23701,0.23493
1234.74722,0.23932
1233.25743,0.27031
1231.76764,0.30134
1230.27786,0.31312
1228.78807,0.18118
1227.29828,0.21907
1225.80849,0.11636
1224.31870,0.10016
1222.82891,0.15066
1221.33912,0.18139
1219.84934,0.17258
1218.35955,0.16380
1216.86976,0.17693
1215.37997,0.25573
1213.89018,0.24392
1212.40039,0.19256
1210.91061,0.18499
1209.42082,0.15141
1207.93103,0.14131
1206.44124,0.13123
1204.95145,0.12484
1203.46166,0.01326
1201.97188,0.04235
1200.48209,0.10065
1198.99230,0.07460
1197.50251,0.05900
1196.01272,0.05281
1194.52293,0.04353
1193.03314,0.03428
1191.54336,0.05944
1190.05357,0.06172
1188.56378,0.01924
1187.07399,0.02575
1185.58420,0.00000
1184.09441,0.06413
1182.60463,0.08141
1181.11484,0.09873
1179.62505,0.06920
1178.13526,0.06054
1176.64547,0.07691
1175.15568,0.06519
1173.66589,0.09935
1172.17611,0.03873
1170.68632,0.03545
1169.19653,0.03220
1167.70674,0.04148
1166.21695,0.04976
1164.72716,0.06016
1163.23738,0.04350
1161.74759,0.03000
1160.25780,0.08217
1158.76801,0.05884
1157.27822,0.03554
1155.78843,0.06489
1154.29865,0.00468
1152.80886,0.03410
1151.31907,0.00000
1149.82928,0.05334
1148.33949,0.10047
1146.84970,0.09189
1145.35991,0.08334
1143.87013,0.06910
1142.38034,0.08199
1140.89055,0.10219
1139.40076,0.18911
1137.91097,0.16146
1136.42118,0.16510
1134.93140,0.21200
1133.44161,0.25894
1131.95182,0.32103
1130.46203,0.32897
1128.97224,0.29110
1127.48245,0.34495
1125.99266,0.36445
1124.50288,0.38607
1123.01309,0.37856
1121.52330,0.37107
1120.03351,0.39384
1118.54372,0.39475
1117.05393,0.47488
1115.56415,0.47379
1114.07436,0.50710
1112.58457,0.50659
1111.09478,0.50612
1109.60499,0.49682
1108.11520,0.55111
1106.62542,0.56584
1105.13563,0.68270
1103.64584,0.78501
1102.15605,0.81443
1100.66626,0.85846
1099.17647,0.90253
1097.68668,0.93205
1096.19690,0.93869
1094.70711,0.89639
1093.21732,0.97289
1091.72753,0.95567
1090.23774,0.99317
1088.74795,1.03070
1087.25817,1.08129
1085.76838,1.12671
1084.27859,1.19508
1082.78880,1.25827
1081.29901,1.28191
1079.80922,1.21599
1078.31943,1.25012
1076.82965,1.28428
1075.33986,1.34451
1073.85007,1.29123
1072.36028,1.29945
1070.87049,1.37541
1069.38070,1.41078
1067.89092,1.46702
1066.40113,1.52329
1064.91134,1.36811
1063.42155,1.27444
1061.93176,1.25789
1060.44197,1.13198
1058.95219,1.15092
1057.46240,1.08655
1055.97261,1.02221
1054.48282,0.96832
1052.99303,0.87801
1051.50324,0.80856
1050.01345,0.78811
1048.52367,0.77707
1047.03388,0.74263
1045.54409,0.70822
1044.05430,0.66498
1042.56451,0.50302
1041.07472,0.46715
1039.58494,0.46152
1038.09515,0.56219
1036.60536,0.53892
1035.11557,0.51568
1033.62578,0.45810
1032.13599,0.37868
1030.64620,0.41805
1029.15642,0.44599
1027.66663,0.39271
1026.17684,0.33947
1024.68705,0.43627
1023.19726,0.64250
1021.70747,0.71333
1020.21769,0.82169
1018.72790,0.88113
1017.23811,1.05363
1015.74832,1.22617
1014.25853,1.35551
1012.76874,1.55989
1011.27896,1.85077
1009.78917,2.00000
1008.29938,1.92320
1006.80959,1.92040
1005.31980,1.91763
1003.83001,1.75446
1002.34022,1.57466
1000.85044,1.52407
999.36065,1.30787
997.87086,1.31204
996.38107,1.31625
994.89128,1.35539
993.40149,1.36852
991.91171,1.41606
990.42192,1.31674
988.93213,1.27059
987.44234,1.29323
985.95255,1.31591
984.46276,1.35945
982.97297,1.28114
981.48319,1.40184
979.99340,1.25484
978.50361,1.31519
977.01382,1.37557
975.52403,1.27659
974.03424,1.13180
972.54446,1.04956
971.05467,1.12674
969.56488,1.13625
968.07509,1.13641
966.58530,1.13660
965.09551,1.06494
963.60573,1.06625
962.11594,0.97382
960.62615,0.92935
959.13636,0.89169
957.64657,0.85406
956.15678,0.73364
954.66699,0.78203
953.17721,0.81690
951.68742,0.79347
950.19763,0.76956
948.70784,0.74567
947.21805,0.66504
945.72826,0.67717
944.23848,0.70808
942.74869,0.75153
941.25890,0.71166
939.76911,0.76091
938.27932,0.81019
936.78953,0.90586
935.29974,0.91093
933.80996,0.77226
932.32017,0.75240
930.83038,0.81174
929.34059,0.87112
927.85080,0.85135
926.36101,0.84516
924.87123,0.88068
923.38144,0.79642
921.89165,0.82732
920.40186,0.85825
918.91207,0.89599
917.42228,0.89521
915.93250,0.82883
914.44271,0.82396
912.95292,0.88266
911.46313,0.94140
909.97334,0.90537
908.48355,1.05378
906.99376,1.00531
905.50398,0.90271
904.01419,0.84702
902.52440,0.79137
901.03461,0.91181
899.54482,1.00624
898.05503,1.02153
896.56525,1.11186
895.07546,1.12253
893.58567,1.13323
892.09588,1.01739
890.60609,1.02139
889.11630,1.04313
887.62651,0.96489
886.13673,0.99972
884.64694,1.03459
883.15715,1.04917
881.66736,0.98149
880.17757,0.98468
878.68778,1.01760
877.19800,1.05055
875.70821,0.99967
874.21842,1.10718
872.72863,1.04282
871.23884,1.07330
869.74905,1.07048
868.25927,1.06769
866.76948,1.00660
865.27969,1.11639
863.78990,1.17829
862.30011,1.29023
860.81032,1.20427
859.32053,1.11834
857.83075,1.10641
856.34096,1.00076
854.85117,1.00244
853.36138,0.93019
851.87159,0.83766
850.38180,0.74516
848.89202,0.71676
847.40223,0.56130
845.91244,0.51943
844.42265,0.52031
842.93286,0.52122
841.44307,0.49299
839.95329,0.37729
838.46350,0.43456
836.97371,0.38352
835.48392,0.40283
833.99413,0.42217
832.50434,0.38998
831.01455,0.45054
829.52477,0.40279
828.03498,0.36862
826.54519,0.33292
825.05540,0.29725
823.56561,0.29651
822.07582,0.26560
820.58604,0.13471
819.09625,0.10959
817.60646,0.08451
816.11667,0.04853
814.62688,0.11467
813.13709,0.00582
811.64730,0.03661
810.15752,0.04504
808.66773,0.05349
807.17794,0.00000
805.68815,0.03656
804.19836,0.14712
802.70857,0.12853
801.21879,0.10998
799.72900,0.16647
798.23921,0.25424
796.74942,0.31080
795.25963,0.36166
793.76984,0.41255
792.28006,0.47129
790.79027,0.60091
789.30048,0.66909
787.81069,0.65188
786.32090,0.65815
784.83111,0.66445
783.34132,0.69735
781.85154,0.64173
780.36175,0.73616
778.87196,0.76239
777.38217,0.78865
775.89238,0.81338
774.40259,0.83294
772.91281,0.89420
771.42302,0.92633
769.93323,0.95849
768.44344,0.97714
766.95365,0.91769
765.46386,1.00100
763.97407,0.84369
762.48429,0.82653
760.99450,0.80941
759.50471,0.65116
758.01492,0.65129
756.52513,0.51082
755.03534,0.45008
753.54556,0.38937
752.05577,0.28025
750.56598,0.17221
749.07619,0.15901
747.58640,0.11771
746.09661,0.07644
744.60683,0.08730
743.11704,0.10131
741.62725,0.08827
740.13746,0.08308
738.64767,0.07793
737.15788,0.01290
735.66809,0.00000
734.17831,0.02414
732.68852,0.06707
731.19873,0.11003
729.70894,0.02697
728.21915,0.01478
726.72936,0.02451
725.23958,0.03635
723.74979,0.04250
722.26000,0.04868
720.77021,0.11375
719.28042,0.05176
717.79063,0.01064
716.30084,0.02061
714.81106,0.03060
713.32127,0.00000
711.83148,0.05771
710.34169,0.02481
708.85190,0.01382
707.36211,0.00287
705.87233,0.03988
704.38254,0.02691
702.89275,0.00981
701.40296,0.04400
699.91317,0.07822
698.42338,0.08695
696.93360,0.12385
695.44381,0.17744
693.95402,0.15138
692.46423,0.12534
690.97444,0.18008
689.48465,0.14422
687.99486,0.18757
686.50508,0.16636
685.01529,0.14518
683.52550,0.28239
682.03571,0.25816
680.54592,0.23291
679.05613,0.20302
677.56635,0.17315
676.07656,0.17614
674.58677,0.11040
673.09698,0.11763
671.60719,0.15926
670.11740,0.20093
668.62761,0.11866
667.13783,0.11664
665.64804,0.06882
664.15825,0.02103
662.66846,0.04099
661.17867,0.09015
659.68888,0.09247
658.19910,0.10940
656.70931,0.12637
655.21952,0.14962
653.72973,0.16666
652.23994,0.20769
650.75015,0.21386
649.26037,0.22006
647.77058,0.21848
646.28079,0.08775
644.79100,0.15708
643.30121,0.12539
641.81142,0.09373
640.32163,0.08606
638.83185,0.02947
637.34206,0.00000
635.85227,0.01584
634.36248,0.03172
632.87269,0.07680
631.38290,0.11045
629.89312,0.08580
628.40333,0.09452
626.91354,0.10327
625.42375,0.15685
623.93396,0.05316
622.44417,0.04065
620.95438,0.02818
619.46460,0.05482
617.97481,0.12315
616.48502,0.11026
614.99523,0.10001
613.50544,0.08979
612.01565,0.04888
610.52587,0.11217
609.03608,0.02965
607.54629,0.07791
606.05650,0.12620
604.56671,0.13859
603.07692,0.13538
601.58714,0.14262
600.09735,0.14989
598.60756,0.11657
597.11777,0.05099
595.62798,0.07400
594.13819,0.06786
592.64840,0.06177
591.15862,0.00569
589.66883,0.12572
588.17904,0.08222
586.68925,0.07417
585.19946,0.06616
583.70967,0.06026
582.21989,0.14295
580.73010,0.17358
579.24031,0.20425
577.75052,0.11619
576.26073,0.11775
574.77094,0.04851
573.28115,0.10327
571.79137,0.15807
570.30158,0.26812
568.81179,0.26152
567.32200,0.27422
565.83221,0.28696
564.34242,0.31068
562.85264,0.41985
561.36285,0.46446
559.87306,0.48619
558.38327,0.50796
556.89348,0.47350
555.40369,0.49429
553.91391,0.51980
552.42412,0.54534
550.93433,0.64333
549.44454,0.62675
547.95475,0.60708
546.46496,0.66036
544.97517,0.71368
543.48539,0.75349
541.99560,0.88085
540.50581,0.83530
539.01602,0.78979
537.52623,0.74848
536.03644,0.65615
534.54666,0.62636
533.05687,0.62682
531.56708,0.62732
530.07729,0.63618
528.58750,0.64299
527.09771,0.66390
525.60792,0.68484
524.11814,0.55633
522.62835,0.53723
521.13856,0.47545
519.64877,0.46528
518.15898,0.45513
516.66919,0.44450
515.17941,0.29431
513.68962,0.32073
512.19983,0.34719
510.71004,0.34607
509.22025,0.42000
507.73046,0.40436
506.24068,0.39293
504.75089,0.38153
503.26110,0.39620
501.77131,0.35466
500.28152,0.43660
498.79173,0.51857
497.30194,0.35212
495.81216,0.41384
494.32237,0.47456
492.83258,0.53532
491.34279,0.49505
489.85300,0.38710
488.36321,0.39170
486.87343,0.38174
485.38364,0.37182
483.89385,0.34006
482.40406,0.21665
480.91427,0.21465
479.42448,0.21267
477.93469,0.07895
476.44491,0.08694
474.95512,0.08039
473.46533,0.07386
471.97554,0.02362
470.48575,0.10467
468.99596,0.08470
467.50618,0.05175
466.01639,0.01882
464.52660,0.00000
463.03681,0.05058
461.54702,0.07462
460.05723,0.09870
458.56745,0.06083
457.07766,0.10217
455.58787,0.10604
454.09808,0.10994
452.60829,0.21180
451.11850,0.25223
449.62871,0.24373
448.13893,0.23526
446.64914,0.31955
445.15935,0.40283
443.66956,0.46947
442.17977,0.51635
440.68998,0.56327
439.20020,0.61335
437.71041,0.69367
436.22062,0.77663
434.73083,0.85962
433.24104,0.99943
431.75125,1.11531
430.26146,1.17184
428.77168,1.22840
427.28189,1.23603
425.79210,1.36350
424.30231,1.36860
422.81252,1.37373
421.32273,1.24711
419.83295,1.20490
418.34316,1.17732
416.85337,1.14977
415.36358,0.91910
413.87379,0.85724
412.38400,0.82614
410.89422,0.79508
409.40443,0.65206
407.91464,0.68409
406.42485,0.59427
404.93506,0.59251
403.44527,0.59078
401.95548,0.55003
400.46570,0.47597
398.97591,0.46393
397.48612,0.45192
395.99633,0.57277
394.50654,0.63532
393.01675,0.57133
391.52697,0.50736
390.03718,0.44292
388.54739,0.39309
387.05760,0.39903
385.56781,0.40500
384.07802,0.47195
382.58824,0.40559
381.09845,0.40593
379.60866,0.40631
378.11887,0.37964
376.62908,0.25403
375.13929,0.24096
373.64950,0.22793
372.15972,0.23369
370.66993,0.22073
369.18014,0.18852
367.69035,0.15636
366.20056,0.09661
364.71077,0.15255
363.22099,0.14444
361.73120,0.13637
360.24141,0.10801
358.75162,0.14220
357.26183,0.13944
355.77204,0.13671
354.28225,0.03870
352.79247,0.00426
351.30268,0.05133
349.81289,0.09844
348.32310,0.05650
346.83331,0.04585
345.34352,0.05660
343.85374,0.06737
342.36395,0.08287
340.87416,0.08486
339.38437,0.12803
337.89458,0.17124
336.40479,0.10041
334.91501,0.00252
333.42522,0.01353
331.93543,0.02458
330.44564,0.11223
328.95585,0.12803
327.46606,0.09126
325.97627,0.05452
324.48649,0.03084
322.99670,0.21584
321.50691,0.17272
320.01712,0.12964
318.52733,0.09284
317.03754,0.11234
315.54776,0.11520
314.05797,0.11809
312.56818,0.06163
311.07839,0.00000
309.58860,0.03257
308.09881,0.06518
306.60902,0.07177
305.11924,0.09924
303.62945,0.06163
302.13966,0.02405
300.64987,0.00000
299.16008,0.00000
