1778.52000,0.01710
1777.03021,0.04325
1775.54042,0.00000
1774.05063,0.01128
1772.56085,0.01731
1771.07106,0.02074
1769.58127,0.02859
1768.09148,0.03647
1766.60169,0.03032
1765.11190,0.01805
1763.62212,0.03394
1762.13233,0.05074
1760.64254,0.00867
1759.15275,0.01938
1757.66296,0.03891
1756.17317,0.00660
1754.68339,0.02180
1753.19360,0.04669
1751.70381,0.01712
1750.21402,0.00867
1748.72423,0.03784
1747.23444,0.03100
1745.74465,0.04177
1744.25487,0.03412
1742.76508,0.06868
1741.27529,0.06373
1739.78550,0.05177
1738.29571,0.03808
1736.80592,0.03322
1735.31614,0.05387
1733.82635,0.04643
1732.33656,0.02672
1730.84677,0.05626
1729.35698,0.07704
1727.86719,0.03720
1726.37740,0.04574
1724.88762,0.00772
1723.39783,0.00867
1721.90804,0.02475
1720.41825,0.04965
1718.92846,0.04382
1717.43867,0.06791
1715.94889,0.04280
1714.45910,0.04760
1712.96931,0.05420
1711.47952,0.07138
1709.98973,0.07012
1708.49994,0.09176
1707.01016,0.09145
1705.52037,0.09117
1704.03058,0.14717
1702.54079,0.07488
1701.05100,0.08787
1699.56121,0.12463
1698.07142,0.13242
1696.58164,0.15254
1695.09185,0.20873
1693.60206,0.16739
1692.11227,0.16563
1690.62248,0.20081
1689.13269,0.20263
1687.64291,0.20272
1686.15312,0.23009
1684.66333,0.24519
1683.17354,0.24361
1681.68375,0.24646
1680.19396,0.16672
1678.70417,0.19776
1677.21439,0.22444
1675.72460,0.19929
1674.23481,0.19878
1672.74502,0.20533
1671.25523,0.21806
1669.76544,0.24226
1668.27566,0.20759
1666.78587,0.20372
1665.29608,0.18757
1663.80629,0.18816
1662.31650,0.15625
1660.82671,0.18942
1659.33693,0.18307
1657.84714,0.16092
1656.35735,0.15287
1654.86756,0.17738
1653.37777,0.15708
1651.88798,0.14561
1650.39819,0.16493
1648.90841,0.19220
1647.41862,0.14741
1645.92883,0.15101
1644.43904,0.15463
1642.94925,0.16971
1641.45946,0.15143
1639.96968,0.15426
1638.47989,0.14043
1636.99010,0.14069
1635.50031,0.16033
1634.01052,0.13252
1632.52073,0.12585
1631.03094,0.15348
1629.54116,0.14863
1628.05137,0.16929
1626.56158,0.15922
1625.07179,0.17467
1623.58200,0.22444
1622.09221,0.23204
1620.60243,0.18958
1619.11264,0.19900
1617.62285,0.20758
1616.13306,0.16872
1614.64327,0.14219
1613.15348,0.21239
1611.66370,0.20000
1610.17391,0.17181
1608.68412,0.19375
1607.19433,0.16651
1605.70454,0.14105
1604.21475,0.16705
1602.72496,0.19307
1601.23518,0.17386
1599.74539,0.15556
1598.25560,0.09509
1596.76581,0.12871
1595.27602,0.11138
1593.78623,0.13628
1592.29645,0.14801
1590.80666,0.13342
1589.31687,0.11093
1587.82708,0.10519
1586.33729,0.10914
1584.84750,0.10169
1583.35771,0.06967
1581.86793,0.05613
1580.37814,0.08130
1578.88835,0.07398
1577.39856,0.07812
1575.90877,0.06822
1574.41898,0.06099
1572.92920,0.07665
1571.43941,0.05630
1569.94962,0.04521
1568.45983,0.03415
1566.97004,0.05784
1565.48025,0.06749
1563.99047,0.04642
1562.50068,0.00867
1561.01089,0.09684
1559.52110,0.02594
1558.03131,0.07724
1556.54152,0.08200
1555.05173,0.12194
1553.56195,0.05556
1552.07216,0.06480
1550.58237,0.04594
1549.09258,0.04997
1547.60279,0.03909
1546.11300,0.06955
1544.62322,0.05521
1543.13343,0.07782
1541.64364,0.02223
1540.15385,0.01854
1538.66406,0.01487
1537.17427,0.08331
1535.68448,0.04982
1534.19470,0.04977
1532.70491,0.03392
1531.21512,0.05502
1529.72533,0.02341
1528.23554,0.01820
1526.74575,0.05522
1525.25597,0.05095
1523.76618,0.05111
1522.27639,0.09789
1520.78660,0.06031
1519.29681,0.02013
1517.80702,0.05558
1516.31724,0.05853
1514.82745,0.01932
1513.33766,0.01398
1511.84787,0.00867
1510.35808,0.04014
1508.86829,0.06373
1507.37850,0.08383
1505.88872,0.03804
1504.39893,0.05996
1502.90914,0.06873
1501.41935,0.03973
1499.92956,0.03011
1498.43977,0.10665
1496.94999,0.14191
1495.46020,0.17281
1493.97041,0.14133
1492.48062,0.19866
1490.99083,0.21647
1489.50104,0.28353
1488.01125,0.32732
1486.52147,0.37115
1485.03168,0.47259
1483.54189,0.49670
1482.05210,0.58677
1480.56231,0.63292
1479.07252,0.78722
1477.58274,0.87035
1476.09295,0.94999
1474.60316,1.04021
1473.11337,1.09091
1471.62358,1.09154
1470.13379,1.15549
1468.64401,1.04631
1467.15422,1.00044
1465.66443,0.95724
1464.17464,0.91407
1462.68485,0.95532
1461.19506,0.90343
1459.70527,0.84189
1458.21549,0.81555
1456.72570,0.73738
1455.23591,0.69352
1453.74612,0.61980
1452.25633,0.59007
1450.76654,0.56564
1449.27676,0.61508
1447.78697,0.58455
1446.29718,0.53736
1444.80739,0.47350
1443.31760,0.40967
1441.82781,0.33620
1440.33802,0.33572
1438.84824,0.30187
1437.35845,0.23201
1435.86866,0.21580
1434.37887,0.27610
1432.88908,0.24852
1431.39929,0.23768
1429.90951,0.16710
1428.41972,0.20993
1426.92993,0.23083
1425.44014,0.24824
1423.95035,0.25952
1422.46056,0.27084
1420.97078,0.26197
1419.48099,0.32873
1417.99120,0.33310
1416.50141,0.32872
1415.01162,0.29888
1413.52183,0.31830
1412.03204,0.26479
1410.54226,0.27195
1409.05247,0.29937
1407.56268,0.31012
1406.07289,0.30508
1404.58310,0.32775
1403.09331,0.35046
1401.60353,0.34287
1400.11374,0.32653
1398.62395,0.39899
1397.13416,0.40907
1395.64437,0.38403
1394.15458,0.47416
1392.66479,0.47643
1391.17501,0.50686
1389.68522,0.50127
1388.19543,0.51155
1386.70564,0.50383
1385.21585,0.49614
1383.72606,0.44410
1382.23628,0.43339
1380.74649,0.49304
1379.25670,0.51053
1377.76691,0.50256
1376.27712,0.52538
1374.78733,0.55263
1373.29755,0.68100
1371.80776,0.73292
1370.31797,0.84465
1368.82818,0.94190
1367.33839,1.03918
1365.84860,1.22747
1364.35881,1.30856
1362.86903,1.43099
1361.37924,1.57630
1359.88945,1.70406
1358.39966,1.75714
1356.90987,1.81114
1355.42008,1.78165
1353.93030,1.62475
1352.44051,1.58697
1350.95072,1.54923
1349.46093,1.55240
1347.97114,1.25937
1346.48135,1.08944
1344.99156,1.08039
1343.50178,0.92546
1342.01199,0.84966
1340.52220,0.76072
1339.03241,0.72630
1337.54262,0.66291
1336.05283,0.66635
1334.56305,0.66982
1333.07326,0.57664
1331.58347,0.53798
1330.09368,0.46244
1328.60389,0.49680
1327.11410,0.42571
1325.62432,0.39333
1324.13453,0.38735
1322.64474,0.39986
1321.15495,0.34472
1319.66516,0.34103
1318.17537,0.33737
1316.68558,0.33243
1315.19580,0.35652
1313.70601,0.26901
1312.21622,0.29931
1310.72643,0.34196
1309.23664,0.30289
1307.74685,0.30428
1306.25707,0.31185
1304.76728,0.29924
1303.27749,0.28667
1301.78770,0.27676
1300.29791,0.32049
1298.80812,0.24912
1297.31834,0.28940
1295.82855,0.28137
1294.33876,0.33842
1292.84897,0.32606
1291.35918,0.31988
1289.86939,0.28736
1288.37960,0.25487
1286.88982,0.34899
1285.40003,0.38337
1283.91024,0.35625
1282.42045,0.36520
1280.93066,0.39000
1279.44087,0.38847
1277.95109,0.39312
1276.46130,0.42417
1274.97151,0.45744
1273.48172,0.49075
1271.99193,0.43927
1270.50214,0.45549
1269.01235,0.43572
1267.52257,0.48277
1266.03278,0.49470
1264.54299,0.53830
1263.05320,0.54589
1261.56341,0.54165
1260.07362,0.53744
1258.58384,0.58381
1257.09405,0.54054
1255.60426,0.54829
1254.11447,0.58244
1252.62468,0.59816
1251.13489,0.55326
1249.64511,0.46884
1248.15532,0.42312
1246.66553,0.40689
1245.17574,0.39068
1243.68595,0.38901
1242.19616,0.36891
1240.70637,0.33565
1239.21659,0.33143
1237.72680,0.28330
1236.23701,0.23080
1234.74722,0.20646
1233.25743,0.21423
1231.76764,0.22203
1230.27786,0.19075
1228.78807,0.22279
1227.29828,0.18278
1225.80849,0.10501
1224.31870,0.10725
1222.82891,0.09898
1221.33912,0.14524
1219.84934,0.15944
1218.35955,0.17368
1216.86976,0.20245
1215.37997,0.19169
1213.89018,0.20470
1212.40039,0.16588
1210.91061,0.14555
1209.42082,0.18502
1207.93103,0.16036
1206.44124,0.13572
1204.95145,0.13046
1203.46166,0.02590
1201.97188,0.06904
1200.48209,0.05245
1198.99230,0.08071
1197.50251,0.04395
1196.01272,0.07931
1194.52293,0.05053
1193.03314,0.02178
1191.54336,0.04404
1190.05357,0.05051
1188.56378,0.00867
1187.07399,0.04891
1185.58420,0.00919
1184.09441,0.04543
1182.60463,0.05182
1181.11484,0.05824
1179.62505,0.02161
1178.13526,0.03952
1176.64547,0.02933
1175.15568,0.07806
1173.66589,0.08727
1172.17611,0.08685
1170.68632,0.05656
1169.19653,0.02631
1167.70674,0.03916
1166.21695,0.05995
1164.72716,0.11066
1163.23738,0.08229
1161.74759,0.05219
1160.25780,0.03883
1158.76801,0.02373
1157.27822,0.00867
1155.78843,0.02212
1154.29865,0.08395
1152.80886,0.03506
1151.31907,0.04333
1149.82928,0.10085
1148.33949,0.07930
1146.84970,0.10392
1145.35991,0.12858
1143.87013,0.06844
1142.38034,0.10766
1140.89055,0.11879
1139.40076,0.12467
1137.91097,0.24045
1136.42118,0.22178
1134.93140,0.24182
1133.44161,0.26189
1131.95182,0.31803
1130.46203,0.25289
1128.97224,0.28624
1127.48245,0.33280
1125.99266,0.34951
1124.50288,0.37592
1123.01309,0.40191
1121.52330,0.42794
1120.03351,0.39819
1118.54372,0.42823
1117.05393,0.43370
1115.56415,0.43041
1114.07436,0.42363
1112.58457,0.43929
1111.09478,0.45499
1109.60499,0.48171
1108.11520,0.50054
1106.62542,0.58270
1105.13563,0.62972
1103.64584,0.68557
1102.15605,0.75024
1100.66626,0.74989
1099.17647,0.74957
1097.68668,0.82400
1096.19690,0.78244
1094.70711,0.83056
1093.21732,0.83300
1091.72753,0.93568
1090.23774,0.96632
1088.74795,0.99698
1087.25817,0.93274
1085.76838,0.98896
1084.27859,1.08125
1082.78880,1.11907
1081.29901,1.09100
1079.80922,1.10954
1078.31943,1.14965
1076.82965,1.18979
1075.33986,1.22513
1073.85007,1.27193
1072.36028,1.20536
1070.87049,1.40341
1069.38070,1.36855
1067.89092,1.39438
1066.40113,1.42023
1064.91134,1.27120
1063.42155,1.23295
1061.93176,1.13056
1060.44197,1.08270
1058.95219,1.00499
1057.46240,0.98005
1055.97261,0.95514
1054.48282,0.88719
1052.99303,0.78147
1051.50324,0.74259
1050.01345,0.65100
1048.52367,0.66053
1047.03388,0.64152
1045.54409,0.62254
1044.05430,0.56359
1042.56451,0.52138
1041.07472,0.48096
1039.58494,0.44232
1038.09515,0.32549
1036.60536,0.33834
1035.11557,0.35122
1033.62578,0.36808
1032.13599,0.30851
1030.64620,0.35532
1029.15642,0.35646
1027.66663,0.32378
1026.17684,0.29114
1024.68705,0.36884
1023.19726,0.51162
1021.70747,0.72211
1020.21769,0.73838
1018.72790,0.94454
1017.23811,1.05624
1015.74832,1.16796
1014.25853,1.39619
1012.76874,1.46799
1011.27896,1.71825
1009.78917,1.85516
1008.29938,2.00000
1006.80959,1.95238
1005.31980,1.90478
1003.83001,1.74120
1002.34022,1.62247
1000.85044,1.46422
999.36065,1.27523
997.87086,1.23658
996.38107,1.19797
994.89128,1.18751
993.40149,1.27026
991.91171,1.25546
990.42192,1.21785
988.93213,1.16093
987.44234,1.16733
985.95255,1.17376
984.46276,1.15912
982.97297,1.10760
981.48319,1.04028
979.99340,1.00376
978.50361,1.00376
977.01382,1.00378
975.52403,0.95944
974.03424,0.87206
972.54446,0.78736
971.05467,0.76157
969.56488,0.73318
968.07509,0.72064
966.58530,0.70813
965.09551,0.64468
963.60573,0.69464
962.11594,0.64794
960.62615,0.57491
959.13636,0.54718
957.64657,0.51947
956.15678,0.53707
954.66699,0.50898
953.17721,0.46951
951.68742,0.49862
950.19763,0.50272
948.70784,0.50684
947.21805,0.44463
945.72826,0.47475
944.23848,0.53391
942.74869,0.50431
941.25890,0.54155
939.76911,0.57004
938.27932,0.59855
936.78953,0.65171
935.29974,0.67853
933.80996,0.64297
932.32017,0.66809
930.83038,0.68269
929.34059,0.69733
927.85080,0.66453
926.36101,0.57375
924.87123,0.65088
923.38144,0.62873
921.89165,0.66901
920.40186,0.70932
918.91207,0.64242
917.42228,0.64324
915.93250,0.66783
914.44271,0.63618
912.95292,0.64105
911.46313,0.64595
909.97334,0.68824
908.48355,0.71297
906.99376,0.70258
905.50398,0.70716
904.01419,0.61245
902.52440,0.51777
901.03461,0.64111
899.54482,0.70559
898.05503,0.70065
896.56525,0.81178
895.07546,0.83240
893.58567,0.85305
892.09588,0.69794
890.60609,0.81973
889.11630,0.77104
887.62651,0.70743
886.13673,0.69703
884.64694,0.68666
883.15715,0.79807
881.66736,0.81721
880.17757,0.79683
878.68778,0.79537
877.19800,0.79395
875.70821,0.82464
874.21842,0.87207
872.72863,0.91337
871.23884,0.94327
869.74905,0.96134
868.25927,0.97944
866.76948,0.93824
865.27969,0.97179
863.78990,1.01064
862.30011,0.95635
860.81032,1.00493
859.32053,1.05354
857.83075,1.00989
856.34096,0.94605
854.85117,0.96399
853.36138,0.87912
851.87159,0.81801
850.38180,0.75693
848.89202,0.65194
847.40223,0.56631
845.91244,0.49214
844.42265,0.45184
842.93286,0.41158
841.44307,0.45001
839.95329,0.36278
838.46350,0.37842
836.97371,0.32729
835.48392,0.31883
833.99413,0.31039
832.50434,0.36307
831.01455,0.38414
829.52477,0.37448
828.03498,0.31211
826.54519,0.28625
825.05540,0.26042
823.56561,0.28164
822.07582,0.25983
820.58604,0.21431
819.09625,0.17235
817.60646,0.13041
816.11667,0.15355
814.62688,0.10903
813.13709,0.08828
811.64730,0.00867
810.15752,0.05257
808.66773,0.09650
807.17794,0.06224
805.68815,0.04470
804.19836,0.08169
802.70857,0.09498
801.21879,0.10830
799.72900,0.13133
798.23921,0.18778
796.74942,0.28909
795.25963,0.29375
793.76984,0.29843
792.28006,0.37699
790.79027,0.49600
789.30048,0.56143
787.81069,0.57591
786.32090,0.56405
784.83111,0.55222
783.34132,0.63711
781.85154,0.62271
780.36175,0.60833
778.87196,0.63662
777.38217,0.66494
775.89238,0.78954
774.40259,0.74628
772.91281,0.79799
771.42302,0.77897
769.93323,0.75998
768.44344,0.80035
766.95365,0.81086
765.46386,0.83723
763.97407,0.75991
762.48429,0.72130
760.99450,0.68271
759.50471,0.59230
758.01492,0.51422
756.52513,0.44673
755.03534,0.40431
753.54556,0.36193
752.05577,0.24178
750.56598,0.18672
749.07619,0.09740
747.58640,0.09162
746.09661,0.08586
744.60683,0.10915
743.11704,0.06215
741.62725,0.02133
740.13746,0.04427
738.64767,0.06724
737.15788,0.06167
735.66809,0.00867
734.17831,0.02511
732.68852,0.04817
731.19873,0.07126
729.70894,0.03417
728.21915,0.08326
726.72936,0.04359
725.23958,0.02593
723.74979,0.05533
722.26000,0.08476
720.77021,0.05665
719.28042,0.04703
717.79063,0.06820
716.30084,0.03842
714.81106,0.00867
713.32127,0.02217
711.83148,0.04537
710.34169,0.03695
708.85190,0.06109
707.36211,0.08526
705.87233,0.06112
704.38254,0.05722
702.89275,0.03665
701.40296,0.06314
699.91317,0.08966
698.42338,0.10259
696.93360,0.08127
695.44381,0.09602
693.95402,0.10948
692.46423,0.12297
690.97444,0.13078
689.48465,0.16411
687.99486,0.23878
686.50508,0.24361
685.01529,0.24846
683.52550,0.25291
682.03571,0.27145
680.54592,0.28124
679.05613,0.26248
677.56635,0.24376
676.07656,0.18244
674.58677,0.12466
673.09698,0.15745
671.60719,0.15380
670.11740,0.15017
668.62761,0.16460
667.13783,0.12368
665.64804,0.07927
664.15825,0.03490
662.66846,0.05648
661.17867,0.07282
659.68888,0.06633
658.19910,0.10690
656.70931,0.14751
655.21952,0.11562
653.72973,0.17167
652.23994,0.13282
650.75015,0.15684
649.26037,0.18090
647.77058,0.16236
646.28079,0.14208
644.79100,0.07877
643.30121,0.09680
641.81142,0.11486
640.32163,0.12372
638.83185,0.00867
637.34206,0.03897
635.85227,0.03238
634.36248,0.02582
632.87269,0.03512
631.38290,0.06378
629.89312,0.07577
628.40333,0.07549
626.91354,0.07524
625.42375,0.13040
623.93396,0.06692
622.44417,0.05050
620.95438,0.03412
619.46460,0.09379
617.97481,0.07527
616.48502,0.12270
614.99523,0.12885
613.50544,0.13503
612.01565,0.06828
610.52587,0.04200
609.03608,0.05091
607.54629,0.07084
606.05650,0.09080
604.56671,0.13760
603.07692,0.13521
601.58714,0.14911
600.09735,0.16304
598.60756,0.07724
597.11777,0.07585
595.62798,0.08591
594.13819,0.06613
592.64840,0.04637
591.15862,0.12773
589.66883,0.13440
588.17904,0.07343
586.68925,0.05643
585.19946,0.03947
583.70967,0.07879
582.21989,0.11638
580.73010,0.09512
579.24031,0.07388
577.75052,0.11948
576.26073,0.13259
574.77094,0.04200
573.28115,0.09385
571.79137,0.14572
570.30158,0.23103
568.81179,0.27506
567.32200,0.25407
565.83221,0.23311
564.34242,0.21394
562.85264,0.25018
561.36285,0.30579
559.87306,0.35703
558.38327,0.40830
556.89348,0.41918
555.40369,0.41953
553.91391,0.39750
552.42412,0.37550
550.93433,0.51835
549.44454,0.49949
547.95475,0.51055
546.46496,0.48823
544.97517,0.46595
543.48539,0.53863
541.99560,0.58057
540.50581,0.60629
539.01602,0.63204
537.52623,0.61518
536.03644,0.55265
534.54666,0.49806
533.05687,0.55162
531.56708,0.60521
530.07729,0.50676
528.58750,0.47955
527.09771,0.47961
525.60792,0.47970
524.11814,0.44555
522.62835,0.45801
521.13856,0.41249
519.64877,0.36656
518.15898,0.32066
516.66919,0.36577
515.17941,0.32652
513.68962,0.32643
512.19983,0.32636
510.71004,0.28633
509.22025,0.38257
507.73046,0.36897
506.24068,0.38222
504.75089,0.39549
503.26110,0.35737
501.77131,0.39400
500.28152,0.39198
498.79173,0.38999
497.30194,0.33706
495.81216,0.40721
494.32237,0.39609
492.83258,0.38499
491.34279,0.35416
489.85300,0.38136
488.36321,0.37520
486.87343,0.33215
485.38364,0.28912
483.89385,0.30503
482.40406,0.28229
480.91427,0.23408
479.42448,0.18591
477.93469,0.17821
476.44491,0.09933
474.95512,0.08685
473.46533,0.07441
471.97554,0.04661
470.48575,0.08740
468.99596,0.12295
467.50618,0.06579
466.01639,0.00867
464.52660,0.02004
463.03681,0.02791
461.54702,0.06791
460.05723,0.10793
458.56745,0.04382
457.07766,0.07116
455.58787,0.09590
454.09808,0.12066
452.60829,0.15776
451.11850,0.16765
449.62871,0.15910
448.13893,0.15059
446.64914,0.24407
445.15935,0.33407
443.66956,0.36081
442.17977,0.38406
440.68998,0.40734
439.20020,0.51241
437.71041,0.47422
436.22062,0.52309
434.73083,0.57199
433.24104,0.77563
431.75125,0.84920
430.26146,0.90566
428.77168,0.96216
427.28189,1.05692
425.79210,1.02777
424.30231,1.05052
422.81252,1.07330
421.32273,1.00996
419.83295,0.88425
418.34316,0.82933
416.85337,0.77444
415.36358,0.71563
413.87379,0.58828
412.38400,0.59501
410.89422,0.60178
409.40443,0.52199
407.91464,0.46772
406.42485,0.43283
404.93506,0.42082
403.44527,0.40884
401.95548,0.40919
400.46570,0.36915
398.97591,0.33792
397.48612,0.30672
395.99633,0.31336
394.50654,0.40528
393.01675,0.38605
391.52697,0.36684
390.03718,0.26285
388.54739,0.28282
387.05760,0.32128
385.56781,0.35977
384.07802,0.35874
382.58824,0.30676
381.09845,0.27019
379.60866,0.23366
378.11887,0.22132
376.62908,0.15804
375.13929,0.16466
373.64950,0.17132
372.15972,0.24525
370.66993,0.20055
369.18014,0.16599
367.69035,0.13146
366.20056,0.05696
364.71077,0.02381
363.22099,0.03244
361.73120,0.04110
360.24141,0.12495
358.75162,0.12181
357.26183,0.12353
355.77204,0.12529
354.28225,0.12839
352.79247,0.04714
351.30268,0.02789
349.81289,0.00867
348.32310,0.03198
346.83331,0.01312
345.34352,0.04248
343.85374,0.07188
342.36395,0.14525
340.87416,0.10087
339.38437,0.10223
337.89458,0.10363
336.40479,0.10505
334.91501,0.01684
333.42522,0.04953
331.93543,0.08225
330.44564,0.05831
328.95585,0.09416
327.46606,0.09929
325.97627,0.10444
324.48649,0.03052
322.99670,0.09790
321.50691,0.09586
320.01712,0.09386
318.52733,0.09980
317.03754,0.12424
315.54776,0.09288
314.05797,0.06156
312.56818,0.03334
311.07839,0.00867
309.58860,0.03252
308.09881,0.05641
306.60902,0.11328
305.11924,0.14470
303.62945,0.09044
302.13966,0.03622
300.64987,0.00867
299.16008,0.00867
