1778.52000,0.01520
1777.03021,0.03810
1775.54042,0.03477
1774.05063,0.01022
1772.56085,0.00572
1771.07106,0.00000
1769.58127,0.03558
1768.09148,0.02368
1766.60169,0.02682
1765.11190,0.00374
1763.62212,0.01195
1762.13233,0.04645
1760.64254,0.01848
1759.15275,0.06681
1757.66296,0.03015
1756.17317,0.04605
1754.68339,0.05322
1753.19360,0.11420
1751.70381,0.03267
1750.21402,0.03495
1748.72423,0.03477
1747.23444,0.04088
1745.74465,0.05702
1744.25487,0.04819
1742.76508,0.05315
1741.27529,0.05065
1739.78550,0.04818
1738.29571,0.04074
1736.80592,0.06085
1735.31614,0.07099
1733.82635,0.09367
1732.33656,0.08263
1730.84677,0.07162
1729.35698,0.05315
1727.86719,0.03471
1726.37740,0.00256
1724.88762,0.00374
1723.39783,0.02456
1721.90804,0.07668
1720.41825,0.05881
1718.92846,0.04848
1717.43867,0.05195
1715.94889,0.09671
1714.45910,0.07398
1712.96931,0.08380
1711.47952,0.13367
1709.98973,0.08355
1708.49994,0.01595
1707.01016,0.05718
1705.52037,0.09843
1704.03058,0.15973
1702.54079,0.12604
1701.05100,0.13740
1699.56121,0.15129
1698.07142,0.16022
1696.58164,0.13167
1695.09185,0.20694
1693.60206,0.25223
1692.11227,0.19129
1690.62248,0.25041
1689.13269,0.28580
1687.64291,0.21621
1686.15312,0.23918
1684.66333,0.25468
1683.17354,0.25896
1681.68375,0.26578
1680.19396,0.23763
1678.70417,0.25202
1677.21439,0.20268
1675.72460,0.26466
1674.23481,0.25415
1672.74502,0.23993
1671.25523,0.24825
1669.76544,0.33038
1668.27566,0.30501
1666.78587,0.25967
1665.29608,0.25188
1663.80629,0.19036
1662.31650,0.23015
1660.82671,0.22246
1659.33693,0.24232
1657.84714,0.15719
1656.35735,0.14961
1654.86756,0.16708
1653.37777,0.17457
1651.88798,0.16961
1650.39819,0.17717
1648.90841,0.16602
1647.41862,0.14366
1645.92883,0.15946
1644.43904,0.17530
1642.94925,0.19680
1641.45946,0.16457
1639.96968,0.15364
1638.47989,0.18275
1636.99010,0.14313
1635.50031,0.19357
1634.01052,0.12526
1632.52073,0.07949
1631.03094,0.15504
1629.54116,0.18437
1628.05137,0.16246
1626.56158,0.21187
1625.07179,0.23755
1623.58200,0.27327
1622.09221,0.30277
1620.60243,0.29105
1619.11264,0.25186
1617.62285,0.24146
1616.13306,0.19233
1614.64327,0.20451
1613.15348,0.19546
1611.66370,0.18396
1610.17391,0.23500
1608.68412,0.18606
1607.19433,0.20091
1605.70454,0.12828
1604.21475,0.15634
1602.72496,0.18443
1601.23518,0.20318
1599.74539,0.18696
1598.25560,0.16827
1596.76581,0.13961
1595.27602,0.16851
1593.78623,0.12367
1592.29645,0.10262
1590.80666,0.09412
1589.31687,0.08564
1587.82708,0.13222
1586.33729,0.11757
1584.84750,0.09420
1583.35771,0.09713
1581.86793,0.06008
1580.37814,0.10684
1578.88835,0.10987
1577.39856,0.06292
1575.90877,0.07603
1574.41898,0.01040
1572.92920,0.02232
1571.43941,0.08305
1569.94962,0.08004
1568.45983,0.07707
1566.97004,0.07914
1565.48025,0.04373
1563.99047,0.04837
1562.50068,0.03304
1561.01089,0.04900
1559.52110,0.00374
1558.03131,0.08083
1556.54152,0.10795
1555.05173,0.11510
1553.56195,0.09728
1552.07216,0.08074
1550.58237,0.07675
1549.09258,0.08029
1547.60279,0.02760
1546.11300,0.05872
1544.62322,0.10613
1543.13343,0.09981
1541.64364,0.03851
1540.15385,0.05352
1538.66406,0.06856
1537.17427,0.07114
1535.68448,0.05624
1534.19470,0.02638
1532.70491,0.07908
1531.21512,0.05554
1529.72533,0.06580
1528.23554,0.01357
1526.74575,0.05516
1525.25597,0.05427
1523.76618,0.02091
1522.27639,0.00384
1520.78660,0.06170
1519.29681,0.07334
1517.80702,0.00374
1516.31724,0.00783
1514.82745,0.05196
1513.33766,0.05300
1511.84787,0.05407
1510.35808,0.01204
1508.86829,0.00506
1507.37850,0.03187
1505.88872,0.00620
1504.39893,0.09810
1502.90914,0.00374
1501.41935,0.04390
1499.92956,0.01783
1498.43977,0.05432
1496.94999,0.08709
1495.46020,0.10864
1493.97041,0.17649
1492.48062,0.28939
1490.99083,0.24729
1489.50104,0.31524
1488.01125,0.35761
1486.52147,0.40000
1485.03168,0.47307
1483.54189,0.57243
1482.05210,0.60681
1480.56231,0.70374
1479.07252,0.85197
1477.58274,0.93397
1476.09295,1.05101
1474.60316,1.16559
1473.11337,1.20018
1471.62358,1.29608
1470.13379,1.19195
1468.64401,1.10162
1467.15422,0.95505
1465.66443,0.97669
1464.17464,0.99837
1462.68485,1.03696
1461.19506,1.05308
1459.70527,0.91920
1458.21549,0.81286
1456.72570,0.75282
1455.23591,0.69031
1453.74612,0.72537
1452.25633,0.68794
1450.76654,0.64054
1449.27676,0.72572
1447.78697,0.60838
1446.29718,0.59610
1444.80739,0.54197
1443.31760,0.48787
1441.82781,0.44194
1440.33802,0.30102
1438.84824,0.23391
1437.35845,0.33687
1435.86866,0.28608
1434.37887,0.37787
1432.88908,0.34716
1431.39929,0.22646
1429.90951,0.17081
1428.41972,0.22523
1426.92993,0.30344
1425.44014,0.34667
1423.95035,0.32868
1422.46056,0.31072
1420.97078,0.39157
1419.48099,0.36118
1417.99120,0.32458
1416.50141,0.40054
1415.01162,0.32649
1413.52183,0.39877
1412.03204,0.39731
1410.54226,0.39339
1409.05247,0.36951
1407.56268,0.37941
1406.07289,0.35309
1404.58310,0.35119
1403.09331,0.34933
1401.60353,0.40939
1400.11374,0.40572
1398.62395,0.45085
1397.13416,0.47601
1395.64437,0.48120
1394.15458,0.52893
1392.66479,0.51044
1391.17501,0.50823
1389.68522,0.50732
1388.19543,0.50143
1386.70564,0.51496
1385.21585,0.52853
1383.72606,0.48024
1382.23628,0.45949
1380.74649,0.37376
1379.25670,0.48938
1377.76691,0.43998
1376.27712,0.51691
1374.78733,0.54385
1373.29755,0.62460
1371.80776,0.65161
1370.31797,0.84746
1368.82818,0.92457
1367.33839,1.00171
1365.84860,1.07763
1364.35881,1.34489
1362.86903,1.46340
1361.37924,1.48566
1359.88945,1.53172
1358.39966,1.70660
1356.90987,1.78399
1355.42008,1.63010
1353.93030,1.76758
1352.44051,1.67815
1350.95072,1.58876
1349.46093,1.50878
1347.97114,1.37132
1346.48135,1.24265
1344.99156,1.04275
1343.50178,0.96292
1342.01199,0.88562
1340.52220,0.73708
1339.03241,0.68361
1337.54262,0.71395
1336.05283,0.72932
1334.56305,0.74473
1333.07326,0.69515
1331.58347,0.57559
1330.09368,0.58736
1328.60389,0.46787
1327.11410,0.52096
1325.62432,0.43406
1324.13453,0.43221
1322.64474,0.46790
1321.15495,0.51989
1319.66516,0.49189
1318.17537,0.46393
1316.68558,0.45601
1315.19580,0.48813
1313.70601,0.39026
1312.21622,0.39495
1310.72643,0.29089
1309.23664,0.28315
1307.74685,0.33296
1306.25707,0.35654
1304.76728,0.34015
1303.27749,0.32380
1301.78770,0.21996
1300.29791,0.31871
1298.80812,0.33372
1297.31834,0.27000
1295.82855,0.33260
1294.33876,0.34522
1292.84897,0.32911
1291.35918,0.31805
1289.86939,0.35140
1288.37960,0.38480
1286.88982,0.35258
1285.40003,0.34666
1283.91024,0.39329
1282.42045,0.41745
1280.93066,0.43039
1279.44087,0.45587
1277.95109,0.46638
1276.46130,0.44942
1274.97151,0.43749
1273.48172,0.42561
1271.99193,0.46752
1270.50214,0.42945
1269.01235,0.53395
1267.52257,0.61348
1266.03278,0.53800
1264.54299,0.55383
1263.05320,0.58346
1261.56341,0.62312
1260.07362,0.66282
1258.58384,0.70130
1257.09405,0.61104
1255.60426,0.69835
1254.11447,0.65192
1252.62468,0.63803
1251.13489,0.65919
1249.64511,0.68788
1248.15532,0.51906
1246.66553,0.50844
1245.17574,0.49785
1243.68595,0.40541
1242.19616,0.44428
1240.70637,0.43443
1239.21659,0.37460
1237.72680,0.29980
1236.23701,0.34382
1234.74722,0.27785
1233.25743,0.26255
1231.76764,0.24728
1230.27786,0.27894
1228.78807,0.24937
1227.29828,0.26110
1225.80849,0.25660
1224.31870,0.20088
1222.82891,0.21521
1221.33912,0.19332
1219.84934,0.18147
1218.35955,0.16965
1216.86976,0.18288
1215.37997,0.30742
1213.89018,0.31947
1212.40039,0.28279
1210.91061,0.21238
1209.42082,0.29205
1207.93103,0.23860
1206.44124,0.18518
1204.95145,0.18244
1203.46166,0.12097
1201.97188,0.15455
1200.48209,0.12191
1198.99230,0.13556
1197.50251,0.12800
1196.01272,0.05420
1194.52293,0.06108
1193.03314,0.06800
1191.54336,0.07683
1190.05357,0.10196
1188.56378,0.12211
1187.07399,0.05228
1185.58420,0.00374
1184.09441,0.06517
1182.60463,0.06849
1181.11484,0.07185
1179.62505,0.12463
1178.13526,0.10118
1176.64547,0.11528
1175.15568,0.17817
1173.66589,0.11857
1172.17611,0.13402
1170.68632,0.06886
1169.19653,0.00374
1167.70674,0.15060
1166.21695,0.09244
1164.72716,0.11935
1163.23738,0.10502
1161.74759,0.06073
1160.25780,0.07398
1158.76801,0.08540
1157.27822,0.09685
1155.78843,0.10896
1154.29865,0.10861
1152.80886,0.08828
1151.31907,0.05424
1149.82928,0.12651
1148.33949,0.17131
1146.84970,0.16363
1145.35991,0.15599
1143.87013,0.12463
1142.38034,0.22458
1140.89055,0.24206
1139.40076,0.14453
1137.91097,0.17208
1136.42118,0.18840
1134.93140,0.22915
1133.44161,0.26993
1131.95182,0.35138
1130.46203,0.35035
1128.97224,0.41562
1127.48245,0.33713
1125.99266,0.43748
1124.50288,0.43534
1123.01309,0.43324
1121.52330,0.43117
1120.03351,0.46539
1118.54372,0.48840
1117.05393,0.43892
1115.56415,0.51952
1114.07436,0.60515
1112.58457,0.57766
1111.09478,0.55021
1109.60499,0.54468
1108.11520,0.57419
1106.62542,0.65625
1105.13563,0.66207
1103.64584,0.84298
1102.15605,0.93015
1100.66626,0.94483
1099.17647,0.95955
1097.68668,0.99056
1096.19690,1.03036
1094.70711,1.00643
1093.21732,0.99503
1091.72753,1.19873
1090.23774,1.18366
1088.74795,1.16862
1087.25817,1.22739
1085.76838,1.25618
1084.27859,1.25500
1082.78880,1.37140
1081.29901,1.35278
1079.80922,1.26544
1078.31943,1.29691
1076.82965,1.32842
1075.33986,1.52001
1073.85007,1.40030
1072.36028,1.49819
1070.87049,1.56360
1069.38070,1.55028
1067.89092,1.59575
1066.40113,1.64127
1064.91134,1.55678
1063.42155,1.37105
1061.93176,1.33790
1060.44197,1.30353
1058.95219,1.20294
1057.46240,1.14176
1055.97261,1.08062
1054.48282,1.07890
1052.99303,0.95969
1051.50324,0.85177
1050.01345,0.84141
1048.52367,0.71606
1047.03388,0.69264
1045.54409,0.66926
1044.05430,0.79158
1042.56451,0.67012
1041.07472,0.61871
1039.58494,0.58234
1038.09515,0.52226
1036.60536,0.51910
1035.11557,0.51597
1033.62578,0.44724
1032.13599,0.48232
1030.64620,0.45867
1029.15642,0.47632
1027.66663,0.48087
1026.17684,0.48546
1024.68705,0.42945
1023.19726,0.58728
1021.70747,0.76765
1020.21769,0.84428
1018.72790,1.01222
1017.23811,1.10205
1015.74832,1.19192
1014.25853,1.43373
1012.76874,1.60432
1011.27896,1.79119
1009.78917,1.82556
1008.29938,2.00000
1006.80959,1.96942
1005.31980,1.93888
1003.83001,1.69331
1002.34022,1.60657
1000.85044,1.47485
999.36065,1.39319
997.87086,1.32781
996.38107,1.26247
994.89128,1.29095
993.40149,1.29570
991.91171,1.28423
990.42192,1.24529
988.93213,1.20139
987.44234,1.22566
985.95255,1.24997
984.46276,1.17866
982.97297,1.17741
981.48319,1.21121
979.99340,1.04749
978.50361,1.05760
977.01382,1.06774
975.52403,1.00165
974.03424,0.93310
972.54446,0.88833
971.05467,0.96739
969.56488,0.97021
968.07509,0.91743
966.58530,0.86468
965.09551,0.78759
963.60573,0.81806
962.11594,0.74229
960.62615,0.79909
959.13636,0.70401
957.64657,0.60897
956.15678,0.62336
954.66699,0.50901
953.17721,0.60100
951.68742,0.72803
950.19763,0.70569
948.70784,0.68338
947.21805,0.67423
945.72826,0.53759
944.23848,0.59103
942.74869,0.52698
941.25890,0.66301
939.76911,0.71031
938.27932,0.75764
936.78953,0.91505
935.29974,0.92744
933.80996,0.90736
932.32017,0.78229
930.83038,0.83106
929.34059,0.87985
927.85080,0.76614
926.36101,0.81376
924.87123,0.71763
923.38144,0.73531
921.89165,0.77116
920.40186,0.80704
918.91207,0.73606
917.42228,0.82766
915.93250,0.93804
914.44271,0.86966
912.95292,0.90635
911.46313,0.94308
909.97334,0.93732
908.48355,1.06539
906.99376,1.03221
905.50398,1.01531
904.01419,0.98469
902.52440,0.95411
901.03461,0.98233
899.54482,1.02434
898.05503,1.07014
896.56525,1.21100
895.07546,1.22748
893.58567,1.24400
892.09588,1.23743
890.60609,1.06835
889.11630,1.05934
887.62651,1.11414
886.13673,1.13147
884.64694,1.14883
883.15715,0.98993
881.66736,1.13739
880.17757,1.05233
878.68778,1.07171
877.19800,1.09113
875.70821,1.07994
874.21842,1.21509
872.72863,1.14396
871.23884,1.06536
869.74905,1.06683
868.25927,1.06833
866.76948,1.07361
865.27969,1.05268
863.78990,1.11180
862.30011,1.09344
860.81032,1.09136
859.32053,1.08932
857.83075,1.13734
856.34096,1.14662
854.85117,0.97839
853.36138,0.82771
851.87159,0.75020
850.38180,0.67273
848.89202,0.66594
847.40223,0.46789
845.91244,0.46742
844.42265,0.46949
842.93286,0.47160
841.44307,0.44623
839.95329,0.43465
838.46350,0.41186
836.97371,0.24281
835.48392,0.30011
833.99413,0.35745
832.50434,0.49734
831.01455,0.46222
829.52477,0.35337
828.03498,0.38959
826.54519,0.28831
825.05540,0.18707
823.56561,0.27841
822.07582,0.29102
820.58604,0.25365
819.09625,0.23007
817.60646,0.20653
816.11667,0.13300
814.62688,0.13579
813.13709,0.07734
811.64730,0.00893
810.15752,0.01995
808.66773,0.03100
807.17794,0.07272
805.68815,0.09448
804.19836,0.00374
802.70857,0.05828
801.21879,0.11286
799.72900,0.14310
798.23921,0.25714
796.74942,0.37497
795.25963,0.37468
793.76984,0.37443
792.28006,0.51862
790.79027,0.53157
789.30048,0.58206
787.81069,0.59507
786.32090,0.62125
784.83111,0.64747
783.34132,0.72936
781.85154,0.84880
780.36175,0.82198
778.87196,0.77145
777.38217,0.72094
775.89238,0.81177
774.40259,0.80135
772.91281,0.83348
771.42302,0.87877
769.93323,0.92410
768.44344,0.97634
766.95365,0.96985
765.46386,1.00340
763.97407,0.91446
762.48429,0.85494
760.99450,0.79545
759.50471,0.68911
758.01492,0.58156
756.52513,0.57782
755.03534,0.50472
753.54556,0.43166
752.05577,0.32300
750.56598,0.21187
749.07619,0.14705
747.58640,0.09788
746.09661,0.04876
744.60683,0.09031
743.11704,0.07940
741.62725,0.08602
740.13746,0.08329
738.64767,0.08061
737.15788,0.00731
735.66809,0.01283
734.17831,0.00462
732.68852,0.02584
731.19873,0.04709
729.70894,0.04149
728.21915,0.07344
726.72936,0.06166
725.23958,0.10493
723.74979,0.11198
722.26000,0.11907
720.77021,0.15245
719.28042,0.07833
717.79063,0.03301
716.30084,0.01835
714.81106,0.00374
713.32127,0.07025
711.83148,0.08179
710.34169,0.08086
708.85190,0.13186
707.36211,0.18289
705.87233,0.17082
704.38254,0.00374
702.89275,0.05293
701.40296,0.11091
699.91317,0.16893
698.42338,0.18197
696.93360,0.11627
695.44381,0.10562
693.95402,0.16878
692.46423,0.23198
690.97444,0.14392
689.48465,0.28096
687.99486,0.24549
686.50508,0.26944
685.01529,0.29343
683.52550,0.32183
682.03571,0.24649
680.54592,0.23995
679.05613,0.25033
677.56635,0.26074
676.07656,0.20680
674.58677,0.17290
673.09698,0.16279
671.60719,0.16772
670.11740,0.17268
668.62761,0.15643
667.13783,0.08644
665.64804,0.13778
664.15825,0.18915
662.66846,0.09677
661.17867,0.08819
659.68888,0.16843
658.19910,0.17931
656.70931,0.19022
655.21952,0.20180
653.72973,0.24341
652.23994,0.18629
650.75015,0.21360
649.26037,0.24095
647.77058,0.17393
646.28079,0.09694
644.79100,0.09001
643.30121,0.09562
641.81142,0.10126
640.32163,0.10194
638.83185,0.06890
637.34206,0.04464
635.85227,0.02417
634.36248,0.00374
632.87269,0.10440
631.38290,0.18384
629.89312,0.08077
628.40333,0.06276
626.91354,0.04479
625.42375,0.09687
623.93396,0.19149
622.44417,0.16237
620.95438,0.13329
619.46460,0.17051
617.97481,0.11773
616.48502,0.10626
614.99523,0.11358
613.50544,0.12093
612.01565,0.12707
610.52587,0.04947
609.03608,0.06818
607.54629,0.07130
606.05650,0.07446
604.56671,0.21456
603.07692,0.12714
601.58714,0.11102
600.09735,0.09494
598.60756,0.09264
597.11777,0.10039
595.62798,0.06566
594.13819,0.07785
592.64840,0.09008
591.15862,0.05421
589.66883,0.10589
588.17904,0.04633
586.68925,0.07371
585.19946,0.10112
583.70967,0.10669
582.21989,0.16230
580.73010,0.18795
579.24031,0.21362
577.75052,0.16682
576.26073,0.05128
574.77094,0.05206
573.28115,0.05788
571.79137,0.06373
570.30158,0.16714
568.81179,0.20683
567.32200,0.23404
565.83221,0.26129
564.34242,0.30358
562.85264,0.33590
561.36285,0.39327
559.87306,0.38065
558.38327,0.36807
556.89348,0.48681
555.40369,0.46305
553.91391,0.45495
552.42412,0.44689
550.93433,0.54951
549.44454,0.61217
547.95475,0.54607
546.46496,0.58316
544.97517,0.62029
543.48539,0.65183
541.99560,0.66340
540.50581,0.68313
539.01602,0.70289
537.52623,0.65080
536.03644,0.61500
534.54666,0.60924
533.05687,0.62289
531.56708,0.63659
530.07729,0.66344
528.58750,0.57906
527.09771,0.58535
525.60792,0.59169
524.11814,0.47115
522.62835,0.58446
521.13856,0.50025
519.64877,0.50735
518.15898,0.51448
516.66919,0.45789
515.17941,0.46885
513.68962,0.44734
512.19983,0.42586
510.71004,0.40317
509.22025,0.38676
507.73046,0.45166
506.24068,0.45284
504.75089,0.45404
503.26110,0.46279
501.77131,0.35153
500.28152,0.36660
498.79173,0.38170
497.30194,0.27181
495.81216,0.39201
494.32237,0.45786
492.83258,0.52375
491.34279,0.47526
489.85300,0.33429
488.36321,0.31338
486.87343,0.34878
485.38364,0.38421
483.89385,0.34590
482.40406,0.35765
480.91427,0.30941
479.42448,0.26121
477.93469,0.09801
476.44491,0.15491
474.95512,0.13183
473.46533,0.10878
471.97554,0.12453
470.48575,0.17532
468.99596,0.13237
467.50618,0.10633
466.01639,0.08034
464.52660,0.00374
463.03681,0.06014
461.54702,0.05907
460.05723,0.05804
458.56745,0.03203
457.07766,0.11359
455.58787,0.08515
454.09808,0.05675
452.60829,0.19468
451.11850,0.16135
449.62871,0.16494
448.13893,0.16856
446.64914,0.35290
445.15935,0.40724
443.66956,0.42535
442.17977,0.48476
440.68998,0.54420
439.20020,0.56242
437.71041,0.54442
436.22062,0.57584
434.73083,0.60729
433.24104,0.82196
431.75125,0.98665
430.26146,0.98820
428.77168,0.98979
427.28189,1.20210
425.79210,1.33817
424.30231,1.30361
422.81252,1.26908
421.32273,1.21646
419.83295,1.13261
418.34316,1.01817
416.85337,0.90376
415.36358,0.75750
413.87379,0.66755
412.38400,0.64640
410.89422,0.62528
409.40443,0.61171
407.91464,0.67194
406.42485,0.58966
404.93506,0.54806
403.44527,0.50650
401.95548,0.40182
400.46570,0.54851
398.97591,0.50955
397.48612,0.47063
395.99633,0.51739
394.50654,0.48166
393.01675,0.45160
391.52697,0.42157
390.03718,0.30718
388.54739,0.32661
387.05760,0.35671
385.56781,0.38684
384.07802,0.37888
382.58824,0.50973
381.09845,0.45307
379.60866,0.39645
378.11887,0.44739
376.62908,0.30831
375.13929,0.26493
373.64950,0.22157
372.15972,0.29766
370.66993,0.34003
369.18014,0.28741
367.69035,0.23482
366.20056,0.17227
364.71077,0.19102
363.22099,0.24670
361.73120,0.30241
360.24141,0.29251
358.75162,0.34892
357.26183,0.31033
355.77204,0.27178
354.28225,0.26203
352.79247,0.10977
351.30268,0.07321
349.81289,0.03668
348.32310,0.07833
346.83331,0.00374
345.34352,0.00650
343.85374,0.00929
342.36395,0.23719
340.87416,0.12377
339.38437,0.15669
337.89458,0.18963
336.40479,0.24637
334.91501,0.15186
333.42522,0.12240
331.93543,0.09297
330.44564,0.16611
328.95585,0.25929
327.46606,0.21809
325.97627,0.17692
324.48649,0.00764
322.99670,0.12616
321.50691,0.15407
320.01712,0.18201
318.52733,0.26563
317.03754,0.33679
315.54776,0.27419
314.05797,0.21162
312.56818,0.14159
311.07839,0.04284
309.58860,0.03790
308.09881,0.03299
306.60902,0.02437
305.11924,0.00079
303.62945,0.01541
302.13966,0.01398
300.64987,0.08949
299.16008,0.00374
