1778.52000,0.04438
1777.03021,0.01218
1775.54042,0.02462
1774.05063,0.02800
1772.56085,0.04050
1771.07106,0.04643
1769.58127,0.05817
1768.09148,0.03195
1766.60169,0.03219
1765.11190,0.04156
1763.62212,0.02617
1762.13233,0.02734
1760.64254,0.05993
1759.15275,0.04052
1757.66296,0.06409
1756.17317,0.04557
1754.68339,0.01800
1753.19360,0.02680
1751.70381,0.04720
1750.21402,0.03459
1748.72423,0.00715
1747.23444,0.02930
1745.74465,0.02588
1744.25487,0.02167
1742.76508,0.06457
1741.27529,0.04803
1739.78550,0.08026
1738.29571,0.05387
1736.80592,0.04652
1735.31614,0.01443
1733.82635,0.01000
1732.33656,0.02378
1730.84677,0.02768
1729.35698,0.00932
1727.86719,0.02308
1726.37740,0.01870
1724.88762,0.01684
1723.39783,0.01087
1721.90804,0.01320
1720.41825,0.03291
1718.92846,0.01218
1717.43867,0.02080
1715.94889,0.04844
1714.45910,0.04887
1712.96931,0.04107
1711.47952,0.08285
1709.98973,0.07099
1708.49994,0.10706
1707.01016,0.09650
1705.52037,0.08597
1704.03058,0.11471
1702.54079,0.13357
1701.05100,0.13759
1699.56121,0.13835
1698.07142,0.16061
1696.58164,0.16556
1695.09185,0.19532
1693.60206,0.19869
1692.11227,0.23264
1690.62248,0.24847
1689.13269,0.24202
1687.64291,0.24469
1686.15312,0.26309
1684.66333,0.25509
1683.17354,0.25373
1681.68375,0.24497
1680.19396,0.24203
1678.70417,0.26638
1677.21439,0.22633
1675.72460,0.26644
1674.23481,0.21985
1672.74502,0.26828
1671.25523,0.21020
1669.76544,0.26695
1668.27566,0.23784
1666.78587,0.24015
1665.29608,0.19542
1663.80629,0.21762
1662.31650,0.24976
1660.82671,0.22082
1659.33693,0.21338
1657.84714,0.21920
1656.35735,0.17053
1654.86756,0.12355
1653.37777,0.17406
1651.88798,0.16266
1650.39819,0.14552
1648.90841,0.18126
1647.41862,0.13362
1645.92883,0.13268
1644.43904,0.13177
1642.94925,0.14204
1641.45946,0.17217
1639.96968,0.16517
1638.47989,0.14746
1636.99010,0.11905
1635.50031,0.16748
1634.01052,0.15978
1632.52073,0.16203
1631.03094,0.14449
1629.54116,0.16084
1628.05137,0.17805
1626.56158,0.17465
1625.07179,0.19276
1623.58200,0.23319
1622.09221,0.23072
1620.60243,0.23488
1619.11264,0.24403
1617.62285,0.23505
1616.13306,0.18315
1614.64327,0.22461
1613.15348,0.19095
1611.66370,0.16558
1610.17391,0.22283
1608.68412,0.19340
1607.19433,0.19538
1605.70454,0.21062
1604.21475,0.18417
1602.72496,0.15776
1601.23518,0.13180
1599.74539,0.12156
1598.25560,0.13448
1596.76581,0.15486
1595.27602,0.17776
1593.78623,0.13131
1592.29645,0.13611
1590.80666,0.10872
1589.31687,0.10037
1587.82708,0.11104
1586.33729,0.09532
1584.84750,0.08376
1583.35771,0.07306
1581.86793,0.08800
1580.37814,0.08397
1578.88835,0.12706
1577.39856,0.06280
1575.90877,0.04731
1574.41898,0.05250
1572.92920,0.06268
1571.43941,0.01839
1569.94962,0.04102
1568.45983,0.06369
1566.97004,0.03105
1565.48025,0.03479
1563.99047,0.03691
1562.50068,0.01594
1561.01089,0.06107
1559.52110,0.01539
1558.03131,0.07133
1556.54152,0.09591
1555.05173,0.08997
1553.56195,0.09397
1552.07216,0.07406
1550.58237,0.08143
1549.09258,0.05911
1547.60279,0.03103
1546.11300,0.05998
1544.62322,0.06831
1543.13343,0.02299
1541.64364,0.06112
1540.15385,0.05593
1538.66406,0.05076
1537.17427,0.01218
1535.68448,0.02792
1534.19470,0.04205
1532.70491,0.05290
1531.21512,0.01670
1529.72533,0.05075
1528.23554,0.01793
1526.74575,0.02808
1525.25597,0.06553
1523.76618,0.06998
1522.27639,0.00920
1520.78660,0.01276
1519.29681,0.01387
1517.80702,0.04723
1516.31724,0.04510
1514.82745,0.01327
1513.33766,0.01788
1511.84787,0.02253
1510.35808,0.04042
1508.86829,0.02035
1507.37850,0.01435
1505.88872,0.03235
1504.39893,0.03881
1502.90914,0.02548
1501.41935,0.01218
1499.92956,0.04520
1498.43977,0.06009
1496.94999,0.11052
1495.46020,0.13290
1493.97041,0.15944
1492.48062,0.23888
1490.99083,0.23411
1489.50104,0.29957
1488.01125,0.35351
1486.52147,0.40748
1485.03168,0.48625
1483.54189,0.55185
1482.05210,0.63317
1480.56231,0.73435
1479.07252,0.80500
1477.58274,0.92111
1476.09295,1.07195
1474.60316,1.06424
1473.11337,1.20688
1471.62358,1.19015
1470.13379,1.22465
1468.64401,1.15017
1467.15422,1.09224
1465.66443,1.08845
1464.17464,1.08468
1462.68485,1.07476
1461.19506,0.99796
1459.70527,0.99719
1458.21549,0.90477
1456.72570,0.86855
1455.23591,0.76546
1453.74612,0.76151
1452.25633,0.75925
1450.76654,0.69178
1449.27676,0.66728
1447.78697,0.63621
1446.29718,0.60766
1444.80739,0.57913
1443.31760,0.55064
1441.82781,0.45941
1440.33802,0.40538
1438.84824,0.30431
1437.35845,0.28338
1435.86866,0.28727
1434.37887,0.28128
1432.88908,0.24806
1431.39929,0.24048
1429.90951,0.26515
1428.41972,0.26590
1426.92993,0.26090
1425.44014,0.23694
1423.95035,0.26215
1422.46056,0.28739
1420.97078,0.36430
1419.48099,0.32395
1417.99120,0.37696
1416.50141,0.34659
1415.01162,0.34929
1413.52183,0.37597
1412.03204,0.36056
1410.54226,0.32950
1409.05247,0.33811
1407.56268,0.37897
1406.07289,0.38517
1404.58310,0.37612
1403.09331,0.36711
1401.60353,0.39158
1400.11374,0.39544
1398.62395,0.48522
1397.13416,0.51062
1395.64437,0.50466
1394.15458,0.54086
1392.66479,0.57710
1391.17501,0.56546
1389.68522,0.60176
1388.19543,0.59019
1386.70564,0.56874
1385.21585,0.54732
1383.72606,0.55154
1382.23628,0.52771
1380.74649,0.52870
1379.25670,0.53467
1377.76691,0.55389
1376.27712,0.60040
1374.78733,0.58995
1373.29755,0.68360
1371.80776,0.78885
1370.31797,0.89414
1368.82818,0.96352
1367.33839,1.03295
1365.84860,1.30930
1364.35881,1.39324
1362.86903,1.67379
1361.37924,1.71154
1359.88945,1.82119
1358.39966,1.92426
1356.90987,1.99432
1355.42008,2.00000
1353.93030,1.86530
1352.44051,1.80703
1350.95072,1.74880
1349.46093,1.65962
1347.97114,1.56635
1346.48135,1.32362
1344.99156,1.18995
1343.50178,1.09182
1342.01199,0.99868
1340.52220,0.88906
1339.03241,0.78855
1337.54262,0.74507
1336.05283,0.72557
1334.56305,0.70611
1333.07326,0.65695
1331.58347,0.60038
1330.09368,0.54633
1328.60389,0.55838
1327.11410,0.48622
1325.62432,0.47274
1324.13453,0.46177
1322.64474,0.48469
1321.15495,0.45231
1319.66516,0.44061
1318.17537,0.42895
1316.68558,0.44870
1315.19580,0.40572
1313.70601,0.42801
1312.21622,0.40822
1310.72643,0.35460
1309.23664,0.35056
1307.74685,0.33418
1306.25707,0.35499
1304.76728,0.33206
1303.27749,0.30916
1301.78770,0.30199
1300.29791,0.31963
1298.80812,0.34804
1297.31834,0.32692
1295.82855,0.33888
1294.33876,0.28728
1292.84897,0.35381
1291.35918,0.39147
1289.86939,0.39159
1288.37960,0.39174
1286.88982,0.35516
1285.40003,0.39378
1283.91024,0.45804
1282.42045,0.47360
1280.93066,0.40825
1279.44087,0.40901
1277.95109,0.36438
1276.46130,0.41311
1274.97151,0.42346
1273.48172,0.43385
1271.99193,0.48020
1270.50214,0.54063
1269.01235,0.53501
1267.52257,0.57155
1266.03278,0.54370
1264.54299,0.62904
1263.05320,0.59135
1261.56341,0.64206
1260.07362,0.69281
1258.58384,0.64034
1257.09405,0.66307
1255.60426,0.67345
1254.11447,0.74167
1252.62468,0.67035
1251.13489,0.60731
1249.64511,0.71446
1248.15532,0.52347
1246.66553,0.53156
1245.17574,0.53969
1243.68595,0.44048
1242.19616,0.51228
1240.70637,0.42717
1239.21659,0.35532
1237.72680,0.30663
1236.23701,0.31826
1234.74722,0.28780
1233.25743,0.26233
1231.76764,0.23689
1230.27786,0.19745
1228.78807,0.26046
1227.29828,0.26238
1225.80849,0.23294
1224.31870,0.17298
1222.82891,0.16922
1221.33912,0.23239
1219.84934,0.21135
1218.35955,0.19034
1216.86976,0.19580
1215.37997,0.21698
1213.89018,0.23241
1212.40039,0.23962
1210.91061,0.19483
1209.42082,0.21201
1207.93103,0.21064
1206.44124,0.20931
1204.95145,0.11509
1203.46166,0.10928
1201.97188,0.11094
1200.48209,0.08042
1198.99230,0.11518
1197.50251,0.04921
1196.01272,0.01218
1194.52293,0.03324
1193.03314,0.05432
1191.54336,0.02589
1190.05357,0.02309
1188.56378,0.05419
1187.07399,0.03411
1185.58420,0.07024
1184.09441,0.08326
1182.60463,0.06742
1181.11484,0.05160
1179.62505,0.08951
1178.13526,0.07211
1176.64547,0.05639
1175.15568,0.12826
1173.66589,0.03993
1172.17611,0.07139
1170.68632,0.04177
1169.19653,0.01218
1167.70674,0.05458
1166.21695,0.05240
1164.72716,0.07504
1163.23738,0.06798
1161.74759,0.06425
1160.25780,0.02835
1158.76801,0.02634
1157.27822,0.02437
1155.78843,0.09924
1154.29865,0.04447
1152.80886,0.02442
1151.31907,0.01515
1149.82928,0.01829
1148.33949,0.05451
1146.84970,0.05814
1145.35991,0.06180
1143.87013,0.10059
1142.38034,0.09565
1140.89055,0.12460
1139.40076,0.16597
1137.91097,0.18094
1136.42118,0.21412
1134.93140,0.23618
1133.44161,0.25828
1131.95182,0.28495
1130.46203,0.32157
1128.97224,0.34004
1127.48245,0.35938
1125.99266,0.40270
1124.50288,0.45680
1123.01309,0.43741
1121.52330,0.41806
1120.03351,0.43426
1118.54372,0.43645
1117.05393,0.43290
1115.56415,0.42276
1114.07436,0.46966
1112.58457,0.52030
1111.09478,0.57097
1109.60499,0.54610
1108.11520,0.56918
1106.62542,0.57081
1105.13563,0.65837
1103.64584,0.70549
1102.15605,0.79560
1100.66626,0.84857
1099.17647,0.90157
1097.68668,0.85880
1096.19690,0.95399
1094.70711,0.90386
1093.21732,1.02389
1091.72753,0.98208
1090.23774,1.02744
1088.74795,1.07283
1087.25817,1.11453
1085.76838,1.22896
1084.27859,1.13940
1082.78880,1.22003
1081.29901,1.28665
1079.80922,1.27896
1078.31943,1.28287
1076.82965,1.28682
1075.33986,1.37752
1073.85007,1.46578
1072.36028,1.42440
1070.87049,1.45490
1069.38070,1.50940
1067.89092,1.52056
1066.40113,1.53176
1064.91134,1.55414
1063.42155,1.33043
1061.93176,1.28845
1060.44197,1.18374
1058.95219,1.12118
1057.46240,1.08343
1055.97261,1.04572
1054.48282,0.95766
1052.99303,0.91423
1051.50324,0.86175
1050.01345,0.71845
1048.52367,0.71311
1047.03388,0.68344
1045.54409,0.65381
1044.05430,0.67913
1042.56451,0.60950
1041.07472,0.45319
1039.58494,0.48604
1038.09515,0.42808
1036.60536,0.44283
1035.11557,0.45761
1033.62578,0.41709
1032.13599,0.35513
1030.64620,0.34028
1029.15642,0.36842
1027.66663,0.38213
1026.17684,0.39587
1024.68705,0.40676
1023.19726,0.56552
1021.70747,0.64090
1020.21769,0.85919
1018.72790,1.01641
1017.23811,1.11625
1015.74832,1.21612
1014.25853,1.39408
1012.76874,1.57703
1011.27896,1.76001
1009.78917,1.97028
1008.29938,1.99640
1006.80959,1.92137
1005.31980,1.84638
1003.83001,1.69254
1002.34022,1.62629
1000.85044,1.58484
999.36065,1.37742
997.87086,1.35793
996.38107,1.33848
994.89128,1.32112
993.40149,1.29719
991.91171,1.26338
990.42192,1.20482
988.93213,1.22311
987.44234,1.17908
985.95255,1.13508
984.46276,1.16420
982.97297,1.14298
981.48319,1.03011
979.99340,0.99739
978.50361,1.01468
977.01382,1.03199
975.52403,0.99111
974.03424,0.90732
972.54446,0.91276
971.05467,0.84059
969.56488,0.79737
968.07509,0.76904
966.58530,0.74075
965.09551,0.70671
963.60573,0.71979
962.11594,0.65112
960.62615,0.63783
959.13636,0.62044
957.64657,0.60309
956.15678,0.56182
954.66699,0.45615
953.17721,0.50167
951.68742,0.54804
950.19763,0.55233
948.70784,0.55664
947.21805,0.54613
945.72826,0.49105
944.23848,0.57062
942.74869,0.60233
941.25890,0.63655
939.76911,0.65180
938.27932,0.66709
936.78953,0.77657
935.29974,0.78697
933.80996,0.67351
932.32017,0.67819
930.83038,0.69530
929.34059,0.71243
927.85080,0.72382
926.36101,0.70469
924.87123,0.67154
923.38144,0.71194
921.89165,0.72140
920.40186,0.73089
918.91207,0.71605
917.42228,0.73593
915.93250,0.73272
914.44271,0.74688
912.95292,0.73878
911.46313,0.73071
909.97334,0.79701
908.48355,0.79975
906.99376,0.88842
905.50398,0.78550
904.01419,0.77925
902.52440,0.77303
901.03461,0.82714
899.54482,0.81851
898.05503,0.89416
896.56525,0.82696
895.07546,0.90432
893.58567,0.98173
892.09588,0.95757
890.60609,0.92767
889.11630,0.88210
887.62651,0.87622
886.13673,0.87738
884.64694,0.87859
883.15715,0.94053
881.66736,0.89265
880.17757,0.87206
878.68778,0.89983
877.19800,0.92762
875.70821,0.92366
874.21842,0.93789
872.72863,0.99346
871.23884,1.09448
869.74905,1.06793
868.25927,1.04142
866.76948,1.01617
865.27969,1.04960
863.78990,1.04672
862.30011,1.11161
860.81032,1.09682
859.32053,1.08207
857.83075,1.02646
856.34096,1.04027
854.85117,0.96904
853.36138,0.87471
851.87159,0.82667
850.38180,0.77867
848.89202,0.67123
847.40223,0.54069
845.91244,0.44736
844.42265,0.43252
842.93286,0.41772
841.44307,0.43599
839.95329,0.41795
838.46350,0.33635
836.97371,0.37454
835.48392,0.39707
833.99413,0.41963
832.50434,0.41002
831.01455,0.42686
829.52477,0.37189
828.03498,0.33760
826.54519,0.31325
825.05540,0.28893
823.56561,0.20518
822.07582,0.21810
820.58604,0.20297
819.09625,0.19530
817.60646,0.18767
816.11667,0.13547
814.62688,0.10726
813.13709,0.05595
811.64730,0.03854
810.15752,0.04718
808.66773,0.05585
807.17794,0.04102
805.68815,0.01218
804.19836,0.11041
802.70857,0.12442
801.21879,0.13847
799.72900,0.16164
798.23921,0.29138
796.74942,0.34270
795.25963,0.38455
793.76984,0.42643
792.28006,0.48693
790.79027,0.53012
789.30048,0.58490
787.81069,0.53317
786.32090,0.56655
784.83111,0.59996
783.34132,0.71516
781.85154,0.66522
780.36175,0.67560
778.87196,0.69552
777.38217,0.71546
775.89238,0.76642
774.40259,0.82070
772.91281,0.84777
771.42302,0.85298
769.93323,0.85823
768.44344,0.91100
766.95365,0.86882
765.46386,0.89770
763.97407,0.88202
762.48429,0.79328
760.99450,0.70456
759.50471,0.59234
758.01492,0.57845
756.52513,0.46464
755.03534,0.43470
753.54556,0.40480
752.05577,0.25558
750.56598,0.19064
749.07619,0.13647
747.58640,0.11454
746.09661,0.09265
744.60683,0.11126
743.11704,0.05061
741.62725,0.07094
740.13746,0.05827
738.64767,0.04563
737.15788,0.02889
735.66809,0.01218
734.17831,0.04912
732.68852,0.04272
731.19873,0.03636
729.70894,0.05936
728.21915,0.01961
726.72936,0.03607
725.23958,0.02860
723.74979,0.04099
722.26000,0.05341
720.77021,0.02787
719.28042,0.08992
717.79063,0.03554
716.30084,0.05263
714.81106,0.06977
713.32127,0.01218
711.83148,0.02810
710.34169,0.03331
708.85190,0.04558
707.36211,0.05788
705.87233,0.08797
704.38254,0.04789
702.89275,0.04501
701.40296,0.04257
699.91317,0.04017
698.42338,0.03326
696.93360,0.09328
695.44381,0.11617
693.95402,0.12340
692.46423,0.13066
690.97444,0.20899
689.48465,0.24522
687.99486,0.20716
686.50508,0.23190
685.01529,0.25667
683.52550,0.29139
682.03571,0.22124
680.54592,0.20152
679.05613,0.16819
677.56635,0.13490
676.07656,0.16070
674.58677,0.16423
673.09698,0.09924
671.60719,0.10573
670.11740,0.11225
668.62761,0.07049
667.13783,0.12044
665.64804,0.10517
664.15825,0.08993
662.66846,0.09621
661.17867,0.09343
659.68888,0.08573
658.19910,0.11316
656.70931,0.14063
655.21952,0.15285
653.72973,0.11142
652.23994,0.13279
650.75015,0.16782
649.26037,0.20289
647.77058,0.14260
646.28079,0.15667
644.79100,0.06836
643.30121,0.07010
641.81142,0.07189
640.32163,0.07370
638.83185,0.03673
637.34206,0.01218
635.85227,0.02125
634.36248,0.03034
632.87269,0.04773
631.38290,0.11141
629.89312,0.10574
628.40333,0.06459
626.91354,0.02347
625.42375,0.03855
623.93396,0.04953
622.44417,0.09069
620.95438,0.13189
619.46460,0.06368
617.97481,0.12352
616.48502,0.09668
614.99523,0.07936
613.50544,0.06208
612.01565,0.05516
610.52587,0.06726
609.03608,0.12648
607.54629,0.12709
606.05650,0.12773
604.56671,0.17879
603.07692,0.13490
601.58714,0.14101
600.09735,0.14715
598.60756,0.10005
597.11777,0.10833
595.62798,0.06378
594.13819,0.04651
592.64840,0.02928
591.15862,0.07073
589.66883,0.08990
588.17904,0.06204
586.68925,0.03709
585.19946,0.01218
583.70967,0.19227
582.21989,0.14690
580.73010,0.13709
579.24031,0.12731
577.75052,0.10517
576.26073,0.07728
574.77094,0.07338
573.28115,0.10503
571.79137,0.13671
570.30158,0.19486
568.81179,0.24560
567.32200,0.25632
565.83221,0.26707
564.34242,0.25267
562.85264,0.27959
561.36285,0.38419
559.87306,0.39383
558.38327,0.40351
556.89348,0.43139
555.40369,0.47831
553.91391,0.47817
552.42412,0.47807
550.93433,0.54573
549.44454,0.48954
547.95475,0.48954
546.46496,0.49287
544.97517,0.49624
543.48539,0.62767
541.99560,0.71452
540.50581,0.72171
539.01602,0.72893
537.52623,0.68538
536.03644,0.61214
534.54666,0.57114
533.05687,0.60905
531.56708,0.64700
530.07729,0.61601
528.58750,0.52146
527.09771,0.50004
525.60792,0.47865
524.11814,0.59233
522.62835,0.50121
521.13856,0.50511
519.64877,0.51318
518.15898,0.52127
516.66919,0.36091
515.17941,0.30465
513.68962,0.32441
512.19983,0.34420
510.71004,0.29960
509.22025,0.33515
507.73046,0.32779
506.24068,0.36341
504.75089,0.39906
503.26110,0.45456
501.77131,0.43990
500.28152,0.42816
498.79173,0.41645
497.30194,0.35233
495.81216,0.37992
494.32237,0.38730
492.83258,0.39473
491.34279,0.43233
489.85300,0.36259
488.36321,0.34905
486.87343,0.33967
485.38364,0.33032
483.89385,0.30532
482.40406,0.23492
480.91427,0.19718
479.42448,0.15947
477.93469,0.13212
476.44491,0.13371
474.95512,0.11139
473.46533,0.08909
471.97554,0.06022
470.48575,0.07021
468.99596,0.02571
467.50618,0.03287
466.01639,0.04006
464.52660,0.01218
463.03681,0.04336
461.54702,0.05062
460.05723,0.05792
458.56745,0.07516
457.07766,0.08417
455.58787,0.08082
454.09808,0.07751
452.60829,0.20804
451.11850,0.10816
449.62871,0.13014
448.13893,0.15215
446.64914,0.19774
445.15935,0.29952
443.66956,0.39803
442.17977,0.44826
440.68998,0.49852
439.20020,0.49059
437.71041,0.62723
436.22062,0.64248
434.73083,0.65778
433.24104,0.73009
431.75125,0.96845
430.26146,0.95617
428.77168,0.94393
427.28189,1.08410
425.79210,1.22265
424.30231,1.17623
422.81252,1.12984
421.32273,1.10992
419.83295,1.00743
418.34316,0.95743
416.85337,0.90745
415.36358,0.76542
413.87379,0.63499
412.38400,0.59213
410.89422,0.54931
409.40443,0.55939
407.91464,0.53893
406.42485,0.46896
404.93506,0.45063
403.44527,0.43234
401.95548,0.46406
400.46570,0.42477
398.97591,0.41443
397.48612,0.40412
395.99633,0.41036
394.50654,0.47693
393.01675,0.45970
391.52697,0.44250
390.03718,0.39106
388.54739,0.28266
387.05760,0.30190
385.56781,0.32118
384.07802,0.37807
382.58824,0.37800
381.09845,0.31602
379.60866,0.25408
378.11887,0.37222
376.62908,0.25748
375.13929,0.19646
373.64950,0.13547
372.15972,0.16950
370.66993,0.15318
369.18014,0.14680
367.69035,0.14046
366.20056,0.09615
364.71077,0.02710
363.22099,0.07000
361.73120,0.11294
360.24141,0.04729
358.75162,0.08740
357.26183,0.11969
355.77204,0.15202
354.28225,0.08734
352.79247,0.08215
351.30268,0.06172
349.81289,0.04132
348.32310,0.08083
346.83331,0.01218
345.34352,0.02984
343.85374,0.04754
342.36395,0.06485
340.87416,0.06155
339.38437,0.10329
337.89458,0.14507
336.40479,0.09066
334.91501,0.07345
333.42522,0.07197
331.93543,0.07051
330.44564,0.02202
328.95585,0.05119
327.46606,0.03167
325.97627,0.01218
324.48649,0.05584
322.99670,0.09209
321.50691,0.12921
320.01712,0.16635
318.52733,0.08955
317.03754,0.12264
315.54776,0.13015
314.05797,0.13770
312.56818,0.10728
311.07839,0.06038
309.58860,0.04532
308.09881,0.03028
306.60902,0.00000
305.11924,0.17211
303.62945,0.15263
302.13966,0.13318
300.64987,0.01218
299.16008,0.01218
