1778.52000,0.00000
1777.03021,0.01951
1775.54042,0.01311
1774.05063,0.02063
1772.56085,0.03283
1771.07106,0.01724
1769.58127,0.04618
1768.09148,0.00563
1766.60169,0.01702
1765.11190,0.05532
1763.62212,0.02506
1762.13233,0.06435
1760.64254,0.05176
1759.15275,0.04848
1757.66296,0.06098
1756.17317,0.04385
1754.68339,0.03232
1753.19360,0.03286
1751.70381,0.00563
1750.21402,0.02269
1748.72423,0.07872
1747.23444,0.05413
1745.74465,0.04997
1744.25487,0.05325
1742.76508,0.05378
1741.27529,0.06269
1739.78550,0.04660
1738.29571,0.04073
1736.80592,0.05251
1735.31614,0.03559
1733.82635,0.05392
1732.33656,0.04169
1730.84677,0.03042
1729.35698,0.01918
1727.86719,0.03949
1726.37740,0.02368
1724.88762,0.02551
1723.39783,0.02459
1721.90804,0.02926
1720.41825,0.01728
1718.92846,0.01739
1717.43867,0.02771
1715.94889,0.00563
1714.45910,0.04328
1712.96931,0.04574
1711.47952,0.07882
1709.98973,0.08134
1708.49994,0.06814
1707.01016,0.07258
1705.52037,0.07705
1704.03058,0.12789
1702.54079,0.09720
1701.05100,0.12957
1699.56121,0.15363
1698.07142,0.14435
1696.58164,0.14715
1695.09185,0.19633
1693.60206,0.19826
1692.11227,0.22526
1690.62248,0.25877
1689.13269,0.23114
1687.64291,0.21929
1686.15312,0.24734
1684.66333,0.21238
1683.17354,0.23771
1681.68375,0.25380
1680.19396,0.23284
1678.70417,0.23694
1677.21439,0.21048
1675.72460,0.23133
1674.23481,0.24294
1672.74502,0.23511
1671.25523,0.23380
1669.76544,0.24180
1668.27566,0.22109
1666.78587,0.27271
1665.29608,0.22425
1663.80629,0.27037
1662.31650,0.20437
1660.82671,0.20698
1659.33693,0.21983
1657.84714,0.18543
1656.35735,0.19649
1654.86756,0.19274
1653.37777,0.14638
1651.88798,0.16865
1650.39819,0.14275
1648.90841,0.18177
1647.41862,0.13276
1645.92883,0.14774
1644.43904,0.16274
1642.94925,0.20466
1641.45946,0.24384
1639.96968,0.17366
1638.47989,0.16099
1636.99010,0.18449
1635.50031,0.17466
1634.01052,0.16393
1632.52073,0.19216
1631.03094,0.19540
1629.54116,0.19218
1628.05137,0.19270
1626.56158,0.19788
1625.07179,0.23832
1623.58200,0.24635
1622.09221,0.20528
1620.60243,0.24952
1619.11264,0.24466
1617.62285,0.21666
1616.13306,0.21558
1614.64327,0.19969
1613.15348,0.23667
1611.66370,0.20045
1610.17391,0.21988
1608.68412,0.19670
1607.19433,0.18560
1605.70454,0.19308
1604.21475,0.18436
1602.72496,0.17567
1601.23518,0.15636
1599.74539,0.14449
1598.25560,0.18363
1596.76581,0.12269
1595.27602,0.12389
1593.78623,0.13161
1592.29645,0.09117
1590.80666,0.09524
1589.31687,0.15774
1587.82708,0.09699
1586.33729,0.13824
1584.84750,0.13873
1583.35771,0.10310
1581.86793,0.10087
1580.37814,0.08106
1578.88835,0.08260
1577.39856,0.11013
1575.90877,0.06168
1574.41898,0.06053
1572.92920,0.04922
1571.43941,0.00735
1569.94962,0.01928
1568.45983,0.03123
1566.97004,0.03673
1565.48025,0.03206
1563.99047,0.05894
1562.50068,0.02652
1561.01089,0.07385
1559.52110,0.06375
1558.03131,0.04904
1556.54152,0.08627
1555.05173,0.08274
1553.56195,0.06257
1552.07216,0.06930
1550.58237,0.10294
1549.09258,0.03929
1547.60279,0.07300
1546.11300,0.11416
1544.62322,0.12475
1543.13343,0.10016
1541.64364,0.09228
1540.15385,0.06496
1538.66406,0.03768
1537.17427,0.04379
1535.68448,0.04438
1534.19470,0.03944
1532.70491,0.02711
1531.21512,0.00832
1529.72533,0.05723
1528.23554,0.01255
1526.74575,0.02167
1525.25597,0.05677
1523.76618,0.07336
1522.27639,0.06125
1520.78660,0.03712
1519.29681,0.04917
1517.80702,0.00563
1516.31724,0.07514
1514.82745,0.05385
1513.33766,0.04139
1511.84787,0.02896
1510.35808,0.03557
1508.86829,0.05889
1507.37850,0.06463
1505.88872,0.04908
1504.39893,0.01224
1502.90914,0.05886
1501.41935,0.03970
1499.92956,0.03818
1498.43977,0.09508
1496.94999,0.12236
1495.46020,0.11630
1493.97041,0.16125
1492.48062,0.22198
1490.99083,0.27997
1489.50104,0.34448
1488.01125,0.38167
1486.52147,0.41890
1485.03168,0.51502
1483.54189,0.55091
1482.05210,0.61650
1480.56231,0.75257
1479.07252,0.80895
1477.58274,0.98494
1476.09295,1.02470
1474.60316,1.12103
1473.11337,1.13768
1471.62358,1.19329
1470.13379,1.19424
1468.64401,1.16464
1467.15422,1.02291
1465.66443,1.01746
1464.17464,1.01205
1462.68485,0.99462
1461.19506,0.93737
1459.70527,0.83658
1458.21549,0.81646
1456.72570,0.71944
1455.23591,0.71050
1453.74612,0.64506
1452.25633,0.70015
1450.76654,0.59120
1449.27676,0.58239
1447.78697,0.58752
1446.29718,0.55560
1444.80739,0.52649
1443.31760,0.49741
1441.82781,0.36733
1440.33802,0.33924
1438.84824,0.28152
1437.35845,0.27853
1435.86866,0.27741
1434.37887,0.33843
1432.88908,0.23820
1431.39929,0.22698
1429.90951,0.22970
1428.41972,0.20834
1426.92993,0.21483
1425.44014,0.27233
1423.95035,0.27424
1422.46056,0.27619
1420.97078,0.32265
1419.48099,0.33115
1417.99120,0.29982
1416.50141,0.30467
1415.01162,0.29750
1413.52183,0.29221
1412.03204,0.34906
1410.54226,0.27618
1409.05247,0.32196
1407.56268,0.27787
1406.07289,0.30148
1404.58310,0.29638
1403.09331,0.29131
1401.60353,0.38268
1400.11374,0.37952
1398.62395,0.38938
1397.13416,0.44747
1395.64437,0.43977
1394.15458,0.46733
1392.66479,0.51346
1391.17501,0.50864
1389.68522,0.53259
1388.19543,0.52690
1386.70564,0.50735
1385.21585,0.48782
1383.72606,0.46832
1382.23628,0.46647
1380.74649,0.40718
1379.25670,0.45359
1377.76691,0.49632
1376.27712,0.51591
1374.78733,0.60042
1373.29755,0.57743
1371.80776,0.66014
1370.31797,0.76513
1368.82818,0.85671
1367.33839,0.94833
1365.84860,1.09048
1364.35881,1.27531
1362.86903,1.49354
1361.37924,1.54959
1359.88945,1.68261
1358.39966,1.71276
1356.90987,1.79486
1355.42008,1.74815
1353.93030,1.65512
1352.44051,1.60476
1350.95072,1.55443
1349.46093,1.53657
1347.97114,1.37322
1346.48135,1.18395
1344.99156,1.02993
1343.50178,0.91672
1342.01199,0.83043
1340.52220,0.72934
1339.03241,0.65238
1337.54262,0.66814
1336.05283,0.65195
1334.56305,0.63580
1333.07326,0.61736
1331.58347,0.54796
1330.09368,0.43875
1328.60389,0.38517
1327.11410,0.46140
1325.62432,0.45517
1324.13453,0.39983
1322.64474,0.34546
1321.15495,0.38473
1319.66516,0.38557
1318.17537,0.38644
1316.68558,0.33590
1315.19580,0.31041
1313.70601,0.35726
1312.21622,0.30773
1310.72643,0.31756
1309.23664,0.26440
1307.74685,0.30580
1306.25707,0.25270
1304.76728,0.25987
1303.27749,0.26707
1301.78770,0.31231
1300.29791,0.28343
1298.80812,0.21936
1297.31834,0.25264
1295.82855,0.33600
1294.33876,0.26275
1292.84897,0.25164
1291.35918,0.26650
1289.86939,0.26611
1288.37960,0.26574
1286.88982,0.33539
1285.40003,0.30404
1283.91024,0.41546
1282.42045,0.36656
1280.93066,0.32325
1279.44087,0.36246
1277.95109,0.34702
1276.46130,0.41596
1274.97151,0.38529
1273.48172,0.35464
1271.99193,0.39679
1270.50214,0.43620
1269.01235,0.41630
1267.52257,0.50211
1266.03278,0.50453
1264.54299,0.48659
1263.05320,0.60957
1261.56341,0.57315
1260.07362,0.53676
1258.58384,0.58104
1257.09405,0.57345
1255.60426,0.60297
1254.11447,0.56577
1252.62468,0.58145
1251.13489,0.60735
1249.64511,0.50073
1248.15532,0.45069
1246.66553,0.40206
1245.17574,0.35347
1243.68595,0.34986
1242.19616,0.38337
1240.70637,0.30381
1239.21659,0.30030
1237.72680,0.26994
1236.23701,0.27020
1234.74722,0.18984
1233.25743,0.21612
1231.76764,0.24242
1230.27786,0.23075
1228.78807,0.21169
1227.29828,0.19916
1225.80849,0.18758
1224.31870,0.13433
1222.82891,0.18584
1221.33912,0.13450
1219.84934,0.12027
1218.35955,0.10607
1216.86976,0.16883
1215.37997,0.23719
1213.89018,0.23698
1212.40039,0.19602
1210.91061,0.15880
1209.42082,0.15035
1207.93103,0.14192
1206.44124,0.13353
1204.95145,0.12332
1203.46166,0.06586
1201.97188,0.03161
1200.48209,0.09842
1198.99230,0.04291
1197.50251,0.04119
1196.01272,0.05526
1194.52293,0.03043
1193.03314,0.00563
1191.54336,0.07413
1190.05357,0.06759
1188.56378,0.03697
1187.07399,0.00639
1185.58420,0.05270
1184.09441,0.07124
1182.60463,0.06942
1181.11484,0.06763
1179.62505,0.04455
1178.13526,0.04004
1176.64547,0.09210
1175.15568,0.03019
1173.66589,0.08046
1172.17611,0.01582
1170.68632,0.02213
1169.19653,0.02846
1167.70674,0.00563
1166.21695,0.09429
1164.72716,0.05877
1163.23738,0.02328
1161.74759,0.02211
1160.25780,0.02562
1158.76801,0.02359
1157.27822,0.02159
1155.78843,0.07339
1154.29865,0.04272
1152.80886,0.05564
1151.31907,0.07138
1149.82928,0.06954
1148.33949,0.07515
1146.84970,0.05668
1145.35991,0.03825
1143.87013,0.03653
1142.38034,0.07655
1140.89055,0.13237
1139.40076,0.21231
1137.91097,0.10598
1136.42118,0.20174
1134.93140,0.20669
1133.44161,0.21168
1131.95182,0.23617
1130.46203,0.30054
1128.97224,0.30840
1127.48245,0.42937
1125.99266,0.40207
1124.50288,0.38778
1123.01309,0.38001
1121.52330,0.37227
1120.03351,0.42944
1118.54372,0.43937
1117.05393,0.51237
1115.56415,0.49548
1114.07436,0.52682
1112.58457,0.52066
1111.09478,0.51453
1109.60499,0.52557
1108.11520,0.53016
1106.62542,0.53292
1105.13563,0.65714
1103.64584,0.75915
1102.15605,0.81855
1100.66626,0.80522
1099.17647,0.79191
1097.68668,0.87087
1096.19690,0.90908
1094.70711,0.93897
1093.21732,0.91142
1091.72753,0.95621
1090.23774,0.97507
1088.74795,0.99397
1087.25817,1.11207
1085.76838,1.18479
1084.27859,1.17041
1082.78880,1.25431
1081.29901,1.17325
1079.80922,1.17379
1078.31943,1.22164
1076.82965,1.26951
1075.33986,1.37489
1073.85007,1.42190
1072.36028,1.39664
1070.87049,1.43723
1069.38070,1.45374
1067.89092,1.48651
1066.40113,1.51931
1064.91134,1.37927
1063.42155,1.28653
1061.93176,1.27725
1060.44197,1.15399
1058.95219,1.08545
1057.46240,1.05586
1055.97261,1.02631
1054.48282,0.95972
1052.99303,0.88666
1051.50324,0.80066
1050.01345,0.71655
1048.52367,0.71959
1047.03388,0.70367
1045.54409,0.68777
1044.05430,0.59266
1042.56451,0.45309
1041.07472,0.47390
1039.58494,0.39463
1038.09515,0.40809
1036.60536,0.41139
1035.11557,0.41471
1033.62578,0.37172
1032.13599,0.33154
1030.64620,0.36277
1029.15642,0.36715
1027.66663,0.34884
1026.17684,0.33057
1024.68705,0.43700
1023.19726,0.54531
1021.70747,0.74079
1020.21769,0.84546
1018.72790,0.98631
1017.23811,1.12070
1015.74832,1.25512
1014.25853,1.39977
1012.76874,1.57875
1011.27896,1.84211
1009.78917,1.93679
1008.29938,2.00000
1006.80959,1.92142
1005.31980,1.84287
1003.83001,1.64200
1002.34022,1.51901
1000.85044,1.50081
999.36065,1.36306
997.87086,1.34630
996.38107,1.32958
994.89128,1.25866
993.40149,1.30456
991.91171,1.17253
990.42192,1.20644
988.93213,1.18107
987.44234,1.16128
985.95255,1.14153
984.46276,1.11347
982.97297,1.18369
981.48319,1.05836
979.99340,1.00073
978.50361,0.99179
977.01382,0.98288
975.52403,0.93740
974.03424,0.87803
972.54446,0.78904
971.05467,0.80482
969.56488,0.76780
968.07509,0.75074
966.58530,0.73370
965.09551,0.76444
963.60573,0.69973
962.11594,0.70736
960.62615,0.62788
959.13636,0.57856
957.64657,0.52927
956.15678,0.51663
954.66699,0.50124
953.17721,0.50997
951.68742,0.49371
950.19763,0.50946
948.70784,0.52525
947.21805,0.46922
945.72826,0.48924
944.23848,0.53153
942.74869,0.50063
941.25890,0.51981
939.76911,0.56080
938.27932,0.60183
936.78953,0.67301
935.29974,0.72661
933.80996,0.61061
932.32017,0.64945
930.83038,0.66004
929.34059,0.67066
927.85080,0.72720
926.36101,0.71332
924.87123,0.69020
923.38144,0.65321
921.89165,0.62413
920.40186,0.59509
918.91207,0.69445
917.42228,0.71876
915.93250,0.70139
914.44271,0.69332
912.95292,0.68111
911.46313,0.66893
909.97334,0.71843
908.48355,0.72160
906.99376,0.70442
905.50398,0.76698
904.01419,0.73781
902.52440,0.70867
901.03461,0.75372
899.54482,0.79045
898.05503,0.76326
896.56525,0.82322
895.07546,0.85866
893.58567,0.89413
892.09588,0.85223
890.60609,0.84373
889.11630,0.78706
887.62651,0.79901
886.13673,0.78041
884.64694,0.76184
883.15715,0.87955
881.66736,0.80357
880.17757,0.84164
878.68778,0.85378
877.19800,0.86595
875.70821,0.84478
874.21842,0.93024
872.72863,0.89894
871.23884,0.91494
869.74905,0.94210
868.25927,0.96928
866.76948,0.98538
865.27969,0.94867
863.78990,1.02601
862.30011,0.95507
860.81032,0.94255
859.32053,0.93007
857.83075,0.94542
856.34096,0.94690
854.85117,0.92153
853.36138,0.75994
851.87159,0.72305
850.38180,0.68619
848.89202,0.63036
847.40223,0.53655
845.91244,0.37511
844.42265,0.38889
842.93286,0.40270
841.44307,0.36186
839.95329,0.27470
838.46350,0.33402
836.97371,0.35352
835.48392,0.35080
833.99413,0.34811
832.50434,0.36862
831.01455,0.35024
829.52477,0.28554
828.03498,0.28483
826.54519,0.23595
825.05540,0.18711
823.56561,0.16980
822.07582,0.16458
820.58604,0.18164
819.09625,0.15470
817.60646,0.12779
816.11667,0.08469
814.62688,0.10465
813.13709,0.07922
811.64730,0.06958
810.15752,0.05766
808.66773,0.04577
807.17794,0.00563
805.68815,0.00824
804.19836,0.03221
802.70857,0.04508
801.21879,0.05798
799.72900,0.11818
798.23921,0.22662
796.74942,0.33045
795.25963,0.35275
793.76984,0.37507
792.28006,0.45026
790.79027,0.48470
789.30048,0.55068
787.81069,0.54718
786.32090,0.57569
784.83111,0.60422
783.34132,0.65272
781.85154,0.62153
780.36175,0.62282
778.87196,0.66538
777.38217,0.70798
775.89238,0.76590
774.40259,0.71818
772.91281,0.81417
771.42302,0.79803
769.93323,0.78192
768.44344,0.83721
766.95365,0.80448
765.46386,0.85613
763.97407,0.76506
762.48429,0.71157
760.99450,0.65811
759.50471,0.59958
758.01492,0.49937
756.52513,0.42051
755.03534,0.37504
753.54556,0.32962
752.05577,0.18874
750.56598,0.15265
749.07619,0.15273
747.58640,0.13477
746.09661,0.11684
744.60683,0.11330
743.11704,0.09497
741.62725,0.02291
740.13746,0.03477
738.64767,0.04665
737.15788,0.06923
735.66809,0.00563
734.17831,0.04155
732.68852,0.03996
731.19873,0.03840
729.70894,0.06699
728.21915,0.04464
726.72936,0.03714
725.23958,0.06305
723.74979,0.05701
722.26000,0.05100
720.77021,0.01768
719.28042,0.05205
717.79063,0.02528
716.30084,0.02959
714.81106,0.03393
713.32127,0.03877
711.83148,0.00563
710.34169,0.02545
708.85190,0.03603
707.36211,0.04664
705.87233,0.03781
704.38254,0.01326
702.89275,0.06104
701.40296,0.06575
699.91317,0.07049
698.42338,0.07016
696.93360,0.17553
695.44381,0.19102
693.95402,0.16854
692.46423,0.14609
690.97444,0.15519
689.48465,0.19398
687.99486,0.16977
686.50508,0.21603
685.01529,0.26233
683.52550,0.21967
682.03571,0.18725
680.54592,0.22715
679.05613,0.20173
677.56635,0.17635
676.07656,0.16166
674.58677,0.13494
673.09698,0.10733
671.60719,0.11127
670.11740,0.11524
668.62761,0.07846
667.13783,0.03800
665.64804,0.04530
664.15825,0.05264
662.66846,0.09940
661.17867,0.00716
659.68888,0.12350
658.19910,0.13096
656.70931,0.13845
655.21952,0.11492
653.72973,0.15446
652.23994,0.14953
650.75015,0.13953
649.26037,0.12957
647.77058,0.14049
646.28079,0.08378
644.79100,0.08735
643.30121,0.06685
641.81142,0.04638
640.32163,0.09546
638.83185,0.01202
637.34206,0.03365
635.85227,0.01963
634.36248,0.00563
632.87269,0.07406
631.38290,0.05631
629.89312,0.05157
628.40333,0.06633
626.91354,0.08112
625.42375,0.06535
623.93396,0.07186
622.44417,0.07979
620.95438,0.08776
619.46460,0.06840
617.97481,0.05557
616.48502,0.10117
614.99523,0.08469
613.50544,0.06824
612.01565,0.06387
610.52587,0.09384
609.03608,0.04133
607.54629,0.07738
606.05650,0.11346
604.56671,0.17969
603.07692,0.13844
601.58714,0.15792
600.09735,0.17744
598.60756,0.05286
597.11777,0.09515
595.62798,0.05497
594.13819,0.07461
592.64840,0.09429
591.15862,0.07460
589.66883,0.08182
588.17904,0.05014
586.68925,0.06438
585.19946,0.07864
583.70967,0.15921
582.21989,0.13971
580.73010,0.13368
579.24031,0.12768
577.75052,0.12866
576.26073,0.06757
574.77094,0.08159
573.28115,0.07664
571.79137,0.07172
570.30158,0.17389
568.81179,0.24272
567.32200,0.24345
565.83221,0.24422
564.34242,0.29460
562.85264,0.31814
561.36285,0.33522
559.87306,0.32962
558.38327,0.32406
556.89348,0.44968
555.40369,0.53176
553.91391,0.51795
552.42412,0.50416
550.93433,0.47697
549.44454,0.54064
547.95475,0.63586
546.46496,0.63981
544.97517,0.64379
543.48539,0.66309
541.99560,0.69355
540.50581,0.70319
539.01602,0.71285
537.52623,0.66369
536.03644,0.64329
534.54666,0.64610
533.05687,0.62577
531.56708,0.60546
530.07729,0.66861
528.58750,0.61778
527.09771,0.60591
525.60792,0.59407
524.11814,0.57485
522.62835,0.49448
521.13856,0.45122
519.64877,0.41726
518.15898,0.38333
516.66919,0.39208
515.17941,0.47500
513.68962,0.43514
512.19983,0.39531
510.71004,0.32817
509.22025,0.31203
507.73046,0.32467
506.24068,0.38275
504.75089,0.44087
503.26110,0.43320
501.77131,0.46079
500.28152,0.41472
498.79173,0.36868
497.30194,0.38153
495.81216,0.41480
494.32237,0.44440
492.83258,0.47403
491.34279,0.47588
489.85300,0.38971
488.36321,0.37123
486.87343,0.36854
485.38364,0.36588
483.89385,0.32247
482.40406,0.21791
480.91427,0.17687
479.42448,0.13587
477.93469,0.13800
476.44491,0.11143
474.95512,0.10111
473.46533,0.09082
471.97554,0.13386
470.48575,0.10092
468.99596,0.07172
467.50618,0.04209
466.01639,0.01249
464.52660,0.00563
463.03681,0.03536
461.54702,0.05586
460.05723,0.07638
458.56745,0.02556
457.07766,0.04244
455.58787,0.05749
454.09808,0.07258
452.60829,0.14980
451.11850,0.15846
449.62871,0.18430
448.13893,0.21017
446.64914,0.29122
445.15935,0.35006
443.66956,0.44879
442.17977,0.41916
440.68998,0.38957
439.20020,0.51435
437.71041,0.66603
436.22062,0.70698
434.73083,0.74796
433.24104,0.90622
431.75125,0.96441
430.26146,0.99297
428.77168,1.02156
427.28189,1.20776
425.79210,1.22529
424.30231,1.21087
422.81252,1.19648
421.32273,1.19649
419.83295,1.14648
418.34316,1.06359
416.85337,0.98074
415.36358,0.85666
413.87379,0.71223
412.38400,0.67025
410.89422,0.62830
409.40443,0.62671
407.91464,0.54914
406.42485,0.47530
404.93506,0.47056
403.44527,0.46584
401.95548,0.42640
400.46570,0.43240
398.97591,0.40090
397.48612,0.36943
395.99633,0.45061
394.50654,0.50030
393.01675,0.48653
391.52697,0.47280
390.03718,0.38447
388.54739,0.34067
387.05760,0.34093
385.56781,0.34122
384.07802,0.38279
382.58824,0.32892
381.09845,0.30938
379.60866,0.28986
378.11887,0.29633
376.62908,0.29820
375.13929,0.27507
373.64950,0.25197
372.15972,0.25671
370.66993,0.19753
369.18014,0.13884
367.69035,0.08018
366.20056,0.04889
364.71077,0.08716
363.22099,0.13658
361.73120,0.18602
360.24141,0.12242
358.75162,0.18584
357.26183,0.14732
355.77204,0.10884
354.28225,0.18347
352.79247,0.06255
351.30268,0.06541
349.81289,0.06830
348.32310,0.03460
346.83331,0.03209
345.34352,0.02821
343.85374,0.02436
342.36395,0.09516
340.87416,0.11223
339.38437,0.12145
337.89458,0.13070
336.40479,0.06259
334.91501,0.00563
333.42522,0.03770
331.93543,0.06981
330.44564,0.00925
328.95585,0.02937
327.46606,0.03839
325.97627,0.04745
324.48649,0.03692
322.99670,0.12097
321.50691,0.07666
320.01712,0.03240
318.52733,0.11097
317.03754,0.11543
315.54776,0.07125
314.05797,0.02711
312.56818,0.02517
311.07839,0.04180
309.58860,0.02370
308.09881,0.00563
306.60902,0.11122
305.11924,0.09635
303.62945,0.06945
302.13966,0.04258
300.64987,0.06858
299.16008,0.00563
