1778.52000,0.03908
1777.03021,0.04979
1775.54042,0.01848
1774.05063,0.00000
1772.56085,0.02727
1771.07106,0.04452
1769.58127,0.04443
1768.09148,0.04620
1766.60169,0.05350
1765.11190,0.03249
1763.62212,0.00694
1762.13233,0.05914
1760.64254,0.06018
1759.15275,0.04388
1757.66296,0.06418
1756.17317,0.03424
1754.68339,0.00982
1753.19360,0.02840
1751.70381,0.02142
1750.21402,0.01996
1748.72423,0.01122
1747.23444,0.03268
1745.74465,0.04595
1744.25487,0.03000
1742.76508,0.08448
1741.27529,0.08049
1739.78550,0.03813
1738.29571,0.02141
1736.80592,0.05683
1735.31614,0.02281
1733.82635,0.03636
1732.33656,0.06091
1730.84677,0.06448
1729.35698,0.09185
1727.86719,0.06714
1726.37740,0.05435
1724.88762,0.01692
1723.39783,0.00694
1721.90804,0.05940
1720.41825,0.05795
1718.92846,0.05197
1717.43867,0.04053
1715.94889,0.08673
1714.45910,0.04977
1712.96931,0.07501
1711.47952,0.09388
1709.98973,0.12833
1708.49994,0.09243
1707.01016,0.13563
1705.52037,0.17887
1704.03058,0.19427
1702.54079,0.14113
1701.05100,0.14288
1699.56121,0.16752
1698.07142,0.18488
1696.58164,0.19679
1695.09185,0.22794
1693.60206,0.22529
1692.11227,0.28210
1690.62248,0.25941
1689.13269,0.28156
1687.64291,0.30282
1686.15312,0.33874
1684.66333,0.30340
1683.17354,0.27174
1681.68375,0.33245
1680.19396,0.31001
1678.70417,0.30680
1677.21439,0.32191
1675.72460,0.28403
1674.23481,0.30652
1672.74502,0.23031
1671.25523,0.26293
1669.76544,0.30656
1668.27566,0.29810
1666.78587,0.24855
1665.29608,0.23834
1663.80629,0.27205
1662.31650,0.26739
1660.82671,0.22712
1659.33693,0.25270
1657.84714,0.26278
1656.35735,0.19884
1654.86756,0.22636
1653.37777,0.19815
1651.88798,0.21202
1650.39819,0.19576
1648.90841,0.18685
1647.41862,0.17249
1645.92883,0.18742
1644.43904,0.20239
1642.94925,0.19819
1641.45946,0.19676
1639.96968,0.13138
1638.47989,0.18854
1636.99010,0.17260
1635.50031,0.17588
1634.01052,0.18652
1632.52073,0.14783
1631.03094,0.17408
1629.54116,0.16836
1628.05137,0.22485
1626.56158,0.20275
1625.07179,0.22457
1623.58200,0.25099
1622.09221,0.33962
1620.60243,0.27469
1619.11264,0.24911
1617.62285,0.21900
1616.13306,0.20903
1614.64327,0.25029
1613.15348,0.22942
1611.66370,0.22047
1610.17391,0.23075
1608.68412,0.18804
1607.19433,0.21942
1605.70454,0.15028
1604.21475,0.17350
1602.72496,0.19675
1601.23518,0.16794
1599.74539,0.17572
1598.25560,0.13783
1596.76581,0.15117
1595.27602,0.13072
1593.78623,0.16059
1592.29645,0.13198
1590.80666,0.11804
1589.31687,0.10321
1587.82708,0.11768
1586.33729,0.08646
1584.84750,0.08363
1583.35771,0.08083
1581.86793,0.08263
1580.37814,0.11099
1578.88835,0.11195
1577.39856,0.08918
1575.90877,0.06735
1574.41898,0.06293
1572.92920,0.06221
1571.43941,0.01855
1569.94962,0.04166
1568.45983,0.06481
1566.97004,0.03222
1565.48025,0.03441
1563.99047,0.04212
1562.50068,0.01330
1561.01089,0.04119
1559.52110,0.05449
1558.03131,0.10074
1556.54152,0.06474
1555.05173,0.09735
1553.56195,0.06416
1552.07216,0.07764
1550.58237,0.09389
1549.09258,0.07361
1547.60279,0.03965
1546.11300,0.06881
1544.62322,0.06966
1543.13343,0.02850
1541.64364,0.01753
1540.15385,0.02489
1538.66406,0.03228
1537.17427,0.03971
1535.68448,0.00694
1534.19470,0.03877
1532.70491,0.04411
1531.21512,0.03029
1529.72533,0.03845
1528.23554,0.00550
1526.74575,0.07773
1525.25597,0.02657
1523.76618,0.01841
1522.27639,0.02034
1520.78660,0.01408
1519.29681,0.00694
1517.80702,0.00937
1516.31724,0.02555
1514.82745,0.07284
1513.33766,0.06440
1511.84787,0.05600
1510.35808,0.05403
1508.86829,0.03747
1507.37850,0.00540
1505.88872,0.00537
1504.39893,0.04700
1502.90914,0.00912
1501.41935,0.00694
1499.92956,0.02148
1498.43977,0.07079
1496.94999,0.09363
1495.46020,0.14027
1493.97041,0.15403
1492.48062,0.26839
1490.99083,0.29137
1489.50104,0.36100
1488.01125,0.40188
1486.52147,0.44278
1485.03168,0.51252
1483.54189,0.59601
1482.05210,0.62560
1480.56231,0.80332
1479.07252,0.86588
1477.58274,0.98242
1476.09295,1.09900
1474.60316,1.18544
1473.11337,1.28654
1471.62358,1.30814
1470.13379,1.32795
1468.64401,1.24632
1467.15422,1.08701
1465.66443,1.06350
1464.17464,1.04002
1462.68485,1.06183
1461.19506,1.06997
1459.70527,0.93278
1458.21549,0.94464
1456.72570,0.91631
1455.23591,0.80299
1453.74612,0.81587
1452.25633,0.74651
1450.76654,0.66530
1449.27676,0.67005
1447.78697,0.63736
1446.29718,0.66413
1444.80739,0.60225
1443.31760,0.54041
1441.82781,0.43838
1440.33802,0.37844
1438.84824,0.31214
1437.35845,0.25135
1435.86866,0.27013
1434.37887,0.27890
1432.88908,0.29958
1431.39929,0.26545
1429.90951,0.31545
1428.41972,0.23294
1426.92993,0.26930
1425.44014,0.28742
1423.95035,0.32111
1422.46056,0.35483
1420.97078,0.37123
1419.48099,0.39405
1417.99120,0.32915
1416.50141,0.33650
1415.01162,0.36401
1413.52183,0.41714
1412.03204,0.33135
1410.54226,0.35896
1409.05247,0.33998
1407.56268,0.41976
1406.07289,0.36611
1404.58310,0.38243
1403.09331,0.39878
1401.60353,0.41655
1400.11374,0.42794
1398.62395,0.46314
1397.13416,0.46638
1395.64437,0.54096
1394.15458,0.51684
1392.66479,0.55218
1391.17501,0.60676
1389.68522,0.55258
1388.19543,0.60173
1386.70564,0.58968
1385.21585,0.57765
1383.72606,0.50624
1382.23628,0.49429
1380.74649,0.53082
1379.25670,0.50065
1377.76691,0.51258
1376.27712,0.53459
1374.78733,0.64806
1373.29755,0.75790
1371.80776,0.79465
1370.31797,0.97313
1368.82818,1.03371
1367.33839,1.09433
1365.84860,1.30034
1364.35881,1.43416
1362.86903,1.54425
1361.37924,1.67632
1359.88945,1.77917
1358.39966,1.89211
1356.90987,1.90086
1355.42008,1.87674
1353.93030,1.76123
1352.44051,1.75135
1350.95072,1.74150
1349.46093,1.62335
1347.97114,1.48970
1346.48135,1.27746
1344.99156,1.10000
1343.50178,0.97834
1342.01199,0.90790
1340.52220,0.79180
1339.03241,0.71869
1337.54262,0.75533
1336.05283,0.69646
1334.56305,0.63763
1333.07326,0.61952
1331.58347,0.61973
1330.09368,0.56237
1328.60389,0.51968
1327.11410,0.52365
1325.62432,0.43258
1324.13453,0.46678
1322.64474,0.42697
1321.15495,0.44937
1319.66516,0.41008
1318.17537,0.37084
1316.68558,0.39608
1315.19580,0.37838
1313.70601,0.35341
1312.21622,0.30197
1310.72643,0.30175
1309.23664,0.31071
1307.74685,0.31421
1306.25707,0.31044
1304.76728,0.28797
1303.27749,0.26553
1301.78770,0.29477
1300.29791,0.24726
1298.80812,0.21898
1297.31834,0.22639
1295.82855,0.34171
1294.33876,0.28337
1292.84897,0.30643
1291.35918,0.32678
1289.86939,0.29140
1288.37960,0.25605
1286.88982,0.29936
1285.40003,0.37561
1283.91024,0.38608
1282.42045,0.38561
1280.93066,0.43455
1279.44087,0.43781
1277.95109,0.37893
1276.46130,0.38318
1274.97151,0.39477
1273.48172,0.40640
1271.99193,0.43086
1270.50214,0.51203
1269.01235,0.49542
1267.52257,0.50719
1266.03278,0.49431
1264.54299,0.56923
1263.05320,0.57927
1261.56341,0.56466
1260.07362,0.55009
1258.58384,0.60230
1257.09405,0.58231
1255.60426,0.66475
1254.11447,0.63204
1252.62468,0.63044
1251.13489,0.69013
1249.64511,0.57616
1248.15532,0.43662
1246.66553,0.41322
1245.17574,0.38986
1243.68595,0.36653
1242.19616,0.34233
1240.70637,0.37849
1239.21659,0.33241
1237.72680,0.28546
1236.23701,0.25225
1234.74722,0.19713
1233.25743,0.22250
1231.76764,0.24791
1230.27786,0.23404
1228.78807,0.19277
1227.29828,0.22103
1225.80849,0.17344
1224.31870,0.16336
1222.82891,0.11401
1221.33912,0.14880
1219.84934,0.15849
1218.35955,0.16821
1216.86976,0.20677
1215.37997,0.24718
1213.89018,0.22547
1212.40039,0.23396
1210.91061,0.14924
1209.42082,0.14682
1207.93103,0.15222
1206.44124,0.15765
1204.95145,0.16174
1203.46166,0.05251
1201.97188,0.06582
1200.48209,0.10841
1198.99230,0.11722
1197.50251,0.03647
1196.01272,0.00694
1194.52293,0.01217
1193.03314,0.01743
1191.54336,0.05244
1190.05357,0.06554
1188.56378,0.06771
1187.07399,0.03792
1185.58420,0.00907
1184.09441,0.03806
1182.60463,0.05611
1181.11484,0.07420
1179.62505,0.03747
1178.13526,0.01358
1176.64547,0.06926
1175.15568,0.03812
1173.66589,0.09021
1172.17611,0.06097
1170.68632,0.03954
1169.19653,0.01814
1167.70674,0.04934
1166.21695,0.07692
1164.72716,0.03140
1163.23738,0.00694
1161.74759,0.06947
1160.25780,0.03970
1158.76801,0.04653
1157.27822,0.05339
1155.78843,0.04932
1154.29865,0.02609
1152.80886,0.02208
1151.31907,0.00898
1149.82928,0.09281
1148.33949,0.11451
1146.84970,0.09968
1145.35991,0.08488
1143.87013,0.02990
1142.38034,0.00694
1140.89055,0.16974
1139.40076,0.18722
1137.91097,0.18918
1136.42118,0.19210
1134.93140,0.23482
1133.44161,0.27758
1131.95182,0.29065
1130.46203,0.33851
1128.97224,0.29223
1127.48245,0.36758
1125.99266,0.35612
1124.50288,0.39131
1123.01309,0.36529
1121.52330,0.33930
1120.03351,0.44499
1118.54372,0.48490
1117.05393,0.49010
1115.56415,0.45511
1114.07436,0.49421
1112.58457,0.47254
1111.09478,0.45091
1109.60499,0.54862
1108.11520,0.51198
1106.62542,0.53845
1105.13563,0.64358
1103.64584,0.82645
1102.15605,0.86034
1100.66626,0.87507
1099.17647,0.88983
1097.68668,0.83423
1096.19690,1.01088
1094.70711,1.01386
1093.21732,1.08545
1091.72753,1.09581
1090.23774,1.11718
1088.74795,1.13859
1087.25817,1.17374
1085.76838,1.27293
1084.27859,1.22862
1082.78880,1.30684
1081.29901,1.45733
1079.80922,1.38387
1078.31943,1.34198
1076.82965,1.30013
1075.33986,1.50469
1073.85007,1.52736
1072.36028,1.47602
1070.87049,1.55635
1069.38070,1.53799
1067.89092,1.58868
1066.40113,1.63941
1064.91134,1.54345
1063.42155,1.48134
1061.93176,1.30134
1060.44197,1.30055
1058.95219,1.28883
1057.46240,1.21178
1055.97261,1.13477
1054.48282,1.03630
1052.99303,0.95159
1051.50324,0.85959
1050.01345,0.83711
1048.52367,0.77353
1047.03388,0.69170
1045.54409,0.60990
1044.05430,0.65521
1042.56451,0.59725
1041.07472,0.56675
1039.58494,0.45035
1038.09515,0.40438
1036.60536,0.44530
1035.11557,0.48625
1033.62578,0.43124
1032.13599,0.40827
1030.64620,0.37253
1029.15642,0.39076
1027.66663,0.40081
1026.17684,0.41088
1024.68705,0.45939
1023.19726,0.68163
1021.70747,0.77958
1020.21769,0.86019
1018.72790,1.03134
1017.23811,1.12756
1015.74832,1.22382
1014.25853,1.37953
1012.76874,1.59836
1011.27896,1.89311
1009.78917,1.95751
1008.29938,2.00000
1006.80959,1.93374
1005.31980,1.86751
1003.83001,1.79401
1002.34022,1.77173
1000.85044,1.57305
999.36065,1.40549
997.87086,1.37189
996.38107,1.33833
994.89128,1.38205
993.40149,1.33713
991.91171,1.32150
990.42192,1.33790
988.93213,1.33148
987.44234,1.32601
985.95255,1.32058
984.46276,1.23473
982.97297,1.21108
981.48319,1.16644
979.99340,1.14926
978.50361,1.10560
977.01382,1.06198
975.52403,1.16193
974.03424,1.03701
972.54446,0.91853
971.05467,0.88236
969.56488,0.91388
968.07509,0.91161
966.58530,0.90937
965.09551,0.83403
963.60573,0.81358
962.11594,0.82425
960.62615,0.80753
959.13636,0.76478
957.64657,0.72207
956.15678,0.71002
954.66699,0.57642
953.17721,0.77105
951.68742,0.69786
950.19763,0.69783
948.70784,0.69784
947.21805,0.61287
945.72826,0.63215
944.23848,0.57924
942.74869,0.75675
941.25890,0.72493
939.76911,0.77681
938.27932,0.82872
936.78953,0.97345
935.29974,0.92350
933.80996,0.81964
932.32017,0.83375
930.83038,0.88263
929.34059,0.93155
927.85080,0.88451
926.36101,0.85671
924.87123,0.87008
923.38144,0.84234
921.89165,0.89783
920.40186,0.95336
918.91207,0.94127
917.42228,0.92465
915.93250,0.93091
914.44271,0.97013
912.95292,0.96641
911.46313,0.96272
909.97334,1.05963
908.48355,1.04688
906.99376,1.14569
905.50398,1.06809
904.01419,1.06092
902.52440,1.05379
901.03461,1.07595
899.54482,1.11642
898.05503,1.13134
896.56525,1.23039
895.07546,1.26366
893.58567,1.29696
892.09588,1.22608
890.60609,1.27591
889.11630,1.24258
887.62651,1.21751
886.13673,1.20436
884.64694,1.19125
883.15715,1.20103
881.66736,1.16422
880.17757,1.18686
878.68778,1.20680
877.19800,1.22678
875.70821,1.27056
874.21842,1.27232
872.72863,1.33353
871.23884,1.26497
869.74905,1.23987
868.25927,1.21480
866.76948,1.14999
865.27969,1.21504
863.78990,1.36332
862.30011,1.38090
860.81032,1.35555
859.32053,1.33024
857.83075,1.29398
856.34096,1.24497
854.85117,1.17405
853.36138,1.01448
851.87159,0.93312
850.38180,0.85179
848.89202,0.71610
847.40223,0.52010
845.91244,0.51522
844.42265,0.52407
842.93286,0.53297
841.44307,0.49527
839.95329,0.47590
838.46350,0.36879
836.97371,0.44365
835.48392,0.42758
833.99413,0.41154
832.50434,0.39965
831.01455,0.39054
829.52477,0.48843
828.03498,0.43825
826.54519,0.36708
825.05540,0.29594
823.56561,0.31077
822.07582,0.34576
820.58604,0.29027
819.09625,0.23070
817.60646,0.17116
816.11667,0.06276
814.62688,0.08694
813.13709,0.00694
811.64730,0.02832
810.15752,0.03785
808.66773,0.04741
807.17794,0.04421
805.68815,0.06481
804.19836,0.10830
802.70857,0.06406
801.21879,0.01986
799.72900,0.10551
798.23921,0.24971
796.74942,0.40034
795.25963,0.39559
793.76984,0.39087
792.28006,0.46938
790.79027,0.63112
789.30048,0.79198
787.81069,0.79380
786.32090,0.76549
784.83111,0.73722
783.34132,0.81594
781.85154,0.80968
780.36175,0.81167
778.87196,0.81462
777.38217,0.81760
775.89238,0.92667
774.40259,0.99920
772.91281,1.00503
771.42302,1.01044
769.93323,1.01588
768.44344,1.06204
766.95365,1.05613
765.46386,0.99631
763.97407,1.04806
762.48429,0.96180
760.99450,0.87558
759.50471,0.71717
758.01492,0.67764
756.52513,0.54032
755.03534,0.48075
753.54556,0.42121
752.05577,0.28583
750.56598,0.26202
749.07619,0.21721
747.58640,0.17838
746.09661,0.13959
744.60683,0.06472
743.11704,0.05845
741.62725,0.12170
740.13746,0.10773
738.64767,0.09379
737.15788,0.04744
735.66809,0.05963
734.17831,0.00694
732.68852,0.06202
731.19873,0.11714
729.70894,0.06853
728.21915,0.10681
726.72936,0.05278
725.23958,0.10118
723.74979,0.10482
722.26000,0.10849
720.77021,0.09026
719.28042,0.04007
717.79063,0.05665
716.30084,0.05178
714.81106,0.04694
713.32127,0.00694
711.83148,0.07801
710.34169,0.07872
708.85190,0.10415
707.36211,0.12961
705.87233,0.09843
704.38254,0.00694
702.89275,0.07996
701.40296,0.10959
699.91317,0.13925
698.42338,0.14929
696.93360,0.13194
695.44381,0.15577
693.95402,0.18054
692.46423,0.20535
690.97444,0.21831
689.48465,0.26604
687.99486,0.22148
686.50508,0.26105
685.01529,0.30066
683.52550,0.37231
682.03571,0.29588
680.54592,0.20213
679.05613,0.22177
677.56635,0.24144
676.07656,0.23464
674.58677,0.17027
673.09698,0.15805
671.60719,0.15090
670.11740,0.14378
668.62761,0.14720
667.13783,0.12690
665.64804,0.11897
664.15825,0.11107
662.66846,0.08447
661.17867,0.05882
659.68888,0.18039
658.19910,0.16121
656.70931,0.14206
655.21952,0.19334
653.72973,0.19163
652.23994,0.22013
650.75015,0.22718
649.26037,0.23426
647.77058,0.17052
646.28079,0.13060
644.79100,0.05962
643.30121,0.06730
641.81142,0.07501
640.32163,0.07088
638.83185,0.07043
637.34206,0.00694
635.85227,0.00767
634.36248,0.00842
632.87269,0.04350
631.38290,0.02010
629.89312,0.11559
628.40333,0.08952
626.91354,0.06348
625.42375,0.09416
623.93396,0.12213
622.44417,0.10032
620.95438,0.07853
619.46460,0.08376
617.97481,0.15575
616.48502,0.15373
614.99523,0.15174
613.50544,0.14979
612.01565,0.09394
610.52587,0.10302
609.03608,0.07009
607.54629,0.10988
606.05650,0.14970
604.56671,0.18727
603.07692,0.18008
601.58714,0.16012
600.09735,0.14020
598.60756,0.16145
597.11777,0.06755
595.62798,0.07790
594.13819,0.09652
592.64840,0.11517
591.15862,0.10277
589.66883,0.14709
588.17904,0.15030
586.68925,0.09230
585.19946,0.03433
583.70967,0.11719
582.21989,0.17722
580.73010,0.16416
579.24031,0.15113
577.75052,0.13264
576.26073,0.09957
574.77094,0.09761
573.28115,0.13866
571.79137,0.17974
570.30158,0.37079
568.81179,0.37354
567.32200,0.38867
565.83221,0.40384
564.34242,0.34087
562.85264,0.32000
561.36285,0.38601
559.87306,0.43560
558.38327,0.48522
556.89348,0.60802
555.40369,0.58732
553.91391,0.55614
552.42412,0.52500
550.93433,0.63879
549.44454,0.63377
547.95475,0.66535
546.46496,0.66726
544.97517,0.66921
543.48539,0.80237
541.99560,0.87889
540.50581,0.86403
539.01602,0.84920
537.52623,0.76310
536.03644,0.71634
534.54666,0.77658
533.05687,0.75412
531.56708,0.73169
530.07729,0.67410
528.58750,0.73265
527.09771,0.69342
525.60792,0.65422
524.11814,0.62694
522.62835,0.64267
521.13856,0.60723
519.64877,0.58920
518.15898,0.57120
516.66919,0.50296
515.17941,0.48686
513.68962,0.48085
512.19983,0.47488
510.71004,0.50368
509.22025,0.52978
507.73046,0.56322
506.24068,0.53728
504.75089,0.51137
503.26110,0.47726
501.77131,0.52182
500.28152,0.55589
498.79173,0.59000
497.30194,0.46370
495.81216,0.51662
494.32237,0.53164
492.83258,0.54669
491.34279,0.54670
489.85300,0.51656
488.36321,0.42887
486.87343,0.41618
485.38364,0.40353
483.89385,0.45856
482.40406,0.36095
480.91427,0.29674
479.42448,0.23258
477.93469,0.16707
476.44491,0.12811
474.95512,0.14130
473.46533,0.15452
471.97554,0.17052
470.48575,0.12713
468.99596,0.17519
467.50618,0.10902
466.01639,0.04288
464.52660,0.00694
463.03681,0.08827
461.54702,0.10701
460.05723,0.12579
458.56745,0.08746
457.07766,0.01351
455.58787,0.07673
454.09808,0.13998
452.60829,0.18499
451.11850,0.18340
449.62871,0.18368
448.13893,0.18400
446.64914,0.28308
445.15935,0.45442
443.66956,0.51609
442.17977,0.51929
440.68998,0.52252
439.20020,0.65926
437.71041,0.69364
436.22062,0.73812
434.73083,0.78263
433.24104,1.00270
431.75125,1.16795
430.26146,1.20388
428.77168,1.23985
427.28189,1.26534
425.79210,1.39416
424.30231,1.35390
422.81252,1.31367
421.32273,1.22593
419.83295,1.10258
418.34316,1.03777
416.85337,0.97300
415.36358,0.91557
413.87379,0.70642
412.38400,0.70483
410.89422,0.70328
409.40443,0.60211
407.91464,0.69205
406.42485,0.63940
404.93506,0.58908
403.44527,0.53879
401.95548,0.54841
400.46570,0.63212
398.97591,0.58285
397.48612,0.53362
395.99633,0.48305
394.50654,0.59707
393.01675,0.58999
391.52697,0.58295
390.03718,0.48589
388.54739,0.33493
387.05760,0.38102
385.56781,0.42714
384.07802,0.48290
382.58824,0.47012
381.09845,0.43819
379.60866,0.40628
378.11887,0.33145
376.62908,0.30144
375.13929,0.32313
373.64950,0.34484
372.15972,0.29209
370.66993,0.24943
369.18014,0.25616
367.69035,0.26294
366.20056,0.19112
364.71077,0.15134
363.22099,0.18291
361.73120,0.21450
360.24141,0.16569
358.75162,0.20741
357.26183,0.22494
355.77204,0.24251
354.28225,0.04939
352.79247,0.06743
351.30268,0.08185
349.81289,0.09630
348.32310,0.13091
346.83331,0.06955
345.34352,0.06492
343.85374,0.06031
342.36395,0.15905
340.87416,0.11064
339.38437,0.11574
337.89458,0.12087
336.40479,0.16033
334.91501,0.09925
333.42522,0.09535
331.93543,0.09149
330.44564,0.11920
328.95585,0.14877
327.46606,0.11758
325.97627,0.08643
324.48649,0.08468
322.99670,0.09942
321.50691,0.12196
320.01712,0.14454
318.52733,0.25903
317.03754,0.27573
315.54776,0.22894
314.05797,0.18217
312.56818,0.07465
311.07839,0.12807
309.58860,0.07775
308.09881,0.02748
306.60902,0.00694
305.11924,0.10854
303.62945,0.08950
302.13966,0.02992
300.64987,0.00694
299.16008,0.00694
