1778.52000,0.06939
1777.03021,0.00862
1775.54042,0.03278
1774.05063,0.03852
1772.56085,0.00369
1771.07106,0.03780
1769.58127,0.01534
1768.09148,0.03598
1766.60169,0.03082
1765.11190,0.07122
1763.62212,0.01936
1762.13233,0.01430
1760.64254,0.08680
1759.15275,0.01290
1757.66296,0.07685
1756.17317,0.07193
1754.68339,0.01290
1753.19360,0.02401
1751.70381,0.02653
1750.21402,0.02663
1748.72423,0.06491
1747.23444,0.03185
1745.74465,0.06282
1744.25487,0.05075
1742.76508,0.04364
1741.27529,0.09439
1739.78550,0.07504
1738.29571,0.03604
1736.80592,0.07952
1735.31614,0.06027
1733.82635,0.06321
1732.33656,0.03542
1730.84677,0.04704
1729.35698,0.05009
1727.86719,0.04578
1726.37740,0.02551
1724.88762,0.03727
1723.39783,0.03430
1721.90804,0.01290
1720.41825,0.04930
1718.92846,0.05621
1717.43867,0.10867
1715.94889,0.09227
1714.45910,0.09189
1712.96931,0.07186
1711.47952,0.10478
1709.98973,0.09220
1708.49994,0.10058
1707.01016,0.11699
1705.52037,0.13343
1704.03058,0.13207
1702.54079,0.14673
1701.05100,0.13683
1699.56121,0.16140
1698.07142,0.16141
1696.58164,0.16760
1695.09185,0.20705
1693.60206,0.26376
1692.11227,0.21960
1690.62248,0.24193
1689.13269,0.31227
1687.64291,0.32975
1686.15312,0.27096
1684.66333,0.28235
1683.17354,0.28024
1681.68375,0.29292
1680.19396,0.24658
1678.70417,0.19412
1677.21439,0.23644
1675.72460,0.30341
1674.23481,0.26705
1672.74502,0.26764
1671.25523,0.26826
1669.76544,0.31691
1668.27566,0.28438
1666.78587,0.22727
1665.29608,0.25018
1663.80629,0.28790
1662.31650,0.21736
1660.82671,0.26867
1659.33693,0.28680
1657.84714,0.24097
1656.35735,0.20872
1654.86756,0.19618
1653.37777,0.18492
1651.88798,0.19214
1650.39819,0.15879
1648.90841,0.21530
1647.41862,0.13034
1645.92883,0.16724
1644.43904,0.20417
1642.94925,0.16238
1641.45946,0.17599
1639.96968,0.17365
1638.47989,0.14550
1636.99010,0.14938
1635.50031,0.19266
1634.01052,0.16585
1632.52073,0.09476
1631.03094,0.14923
1629.54116,0.18404
1628.05137,0.17459
1626.56158,0.18732
1625.07179,0.19886
1623.58200,0.27687
1622.09221,0.26017
1620.60243,0.28781
1619.11264,0.27979
1617.62285,0.20168
1616.13306,0.18758
1614.64327,0.21289
1613.15348,0.16441
1611.66370,0.20578
1610.17391,0.21151
1608.68412,0.18774
1607.19433,0.19230
1605.70454,0.15261
1604.21475,0.15786
1602.72496,0.16314
1601.23518,0.18753
1599.74539,0.16766
1598.25560,0.11583
1596.76581,0.16739
1595.27602,0.13040
1593.78623,0.14389
1592.29645,0.14387
1590.80666,0.15005
1589.31687,0.08858
1587.82708,0.13789
1586.33729,0.06542
1584.84750,0.11234
1583.35771,0.07439
1581.86793,0.05862
1580.37814,0.07119
1578.88835,0.09117
1577.39856,0.04967
1575.90877,0.02789
1574.41898,0.03690
1572.92920,0.08410
1571.43941,0.01443
1569.94962,0.03462
1568.45983,0.05485
1566.97004,0.01851
1565.48025,0.04618
1563.99047,0.07390
1562.50068,0.01920
1561.01089,0.09128
1559.52110,0.07849
1558.03131,0.09281
1556.54152,0.04194
1555.05173,0.07970
1553.56195,0.11996
1552.07216,0.14549
1550.58237,0.08369
1549.09258,0.01946
1547.60279,0.09923
1546.11300,0.10890
1544.62322,0.11245
1543.13343,0.10250
1541.64364,0.04214
1540.15385,0.05809
1538.66406,0.07409
1537.17427,0.05197
1535.68448,0.01758
1534.19470,0.02138
1532.70491,0.04858
1531.21512,0.03891
1529.72533,0.06249
1528.23554,0.04181
1526.74575,0.03962
1525.25597,0.06208
1523.76618,0.03289
1522.27639,0.05295
1520.78660,0.01891
1519.29681,0.01074
1517.80702,0.04617
1516.31724,0.01273
1514.82745,0.01353
1513.33766,0.04155
1511.84787,0.06961
1510.35808,0.06510
1508.86829,0.03970
1507.37850,0.05125
1505.88872,0.03700
1504.39893,0.08800
1502.90914,0.06274
1501.41935,0.01290
1499.92956,0.12018
1498.43977,0.09828
1496.94999,0.13549
1495.46020,0.16657
1493.97041,0.27029
1492.48062,0.24854
1490.99083,0.26742
1489.50104,0.43769
1488.01125,0.45726
1486.52147,0.47687
1485.03168,0.56357
1483.54189,0.67737
1482.05210,0.72354
1480.56231,0.86325
1479.07252,1.00546
1477.58274,1.08003
1476.09295,1.15094
1474.60316,1.17635
1473.11337,1.34454
1471.62358,1.39218
1470.13379,1.33033
1468.64401,1.23161
1467.15422,1.19813
1465.66443,1.15669
1464.17464,1.11529
1462.68485,1.12252
1461.19506,1.05965
1459.70527,1.01897
1458.21549,1.00662
1456.72570,0.93647
1455.23591,0.80852
1453.74612,0.80366
1452.25633,0.79268
1450.76654,0.74974
1449.27676,0.75113
1447.78697,0.67872
1446.29718,0.68265
1444.80739,0.63677
1443.31760,0.59092
1441.82781,0.42145
1440.33802,0.42920
1438.84824,0.34593
1437.35845,0.27500
1435.86866,0.28654
1434.37887,0.33873
1432.88908,0.34788
1431.39929,0.34354
1429.90951,0.31461
1428.41972,0.32633
1426.92993,0.32701
1425.44014,0.33018
1423.95035,0.33585
1422.46056,0.34156
1420.97078,0.42112
1419.48099,0.39859
1417.99120,0.35518
1416.50141,0.29704
1415.01162,0.34967
1413.52183,0.35804
1412.03204,0.36891
1410.54226,0.37366
1409.05247,0.37475
1407.56268,0.29835
1406.07289,0.37211
1404.58310,0.35854
1403.09331,0.34501
1401.60353,0.39180
1400.11374,0.32050
1398.62395,0.37351
1397.13416,0.37242
1395.64437,0.42673
1394.15458,0.43309
1392.66479,0.39272
1391.17501,0.41514
1389.68522,0.40069
1388.19543,0.44656
1386.70564,0.40940
1385.21585,0.37229
1383.72606,0.42564
1382.23628,0.29692
1380.74649,0.37496
1379.25670,0.37428
1377.76691,0.37486
1376.27712,0.46039
1374.78733,0.45119
1373.29755,0.50479
1371.80776,0.55597
1370.31797,0.67731
1368.82818,0.68241
1367.33839,0.68754
1365.84860,0.95665
1364.35881,0.96492
1362.86903,1.05199
1361.37924,1.09233
1359.88945,1.23975
1358.39966,1.34661
1356.90987,1.45842
1355.42008,1.31678
1353.93030,1.30561
1352.44051,1.28771
1350.95072,1.26984
1349.46093,1.35845
1347.97114,1.23298
1346.48135,0.96604
1344.99156,0.89355
1343.50178,0.84694
1342.01199,0.71053
1340.52220,0.61354
1339.03241,0.63962
1337.54262,0.66821
1336.05283,0.63407
1334.56305,0.59997
1333.07326,0.59298
1331.58347,0.55771
1330.09368,0.52248
1328.60389,0.49098
1327.11410,0.49520
1325.62432,0.46253
1324.13453,0.39914
1322.64474,0.40961
1321.15495,0.44596
1319.66516,0.42758
1318.17537,0.40924
1316.68558,0.38171
1315.19580,0.42804
1313.70601,0.38088
1312.21622,0.37191
1310.72643,0.38758
1309.23664,0.37006
1307.74685,0.34396
1306.25707,0.32405
1304.76728,0.33309
1303.27749,0.34216
1301.78770,0.39126
1300.29791,0.30750
1298.80812,0.28161
1297.31834,0.33573
1295.82855,0.28776
1294.33876,0.31488
1292.84897,0.34450
1291.35918,0.27202
1289.86939,0.31524
1288.37960,0.35850
1286.88982,0.32796
1285.40003,0.42297
1283.91024,0.47864
1282.42045,0.41744
1280.93066,0.45102
1279.44087,0.43788
1277.95109,0.45308
1276.46130,0.49169
1274.97151,0.50142
1273.48172,0.51118
1271.99193,0.55359
1270.50214,0.55050
1269.01235,0.56590
1267.52257,0.56780
1266.03278,0.60296
1264.54299,0.60616
1263.05320,0.63770
1261.56341,0.65266
1260.07362,0.66766
1258.58384,0.66238
1257.09405,0.66453
1255.60426,0.78114
1254.11447,0.64677
1252.62468,0.69085
1251.13489,0.67221
1249.64511,0.67945
1248.15532,0.54029
1246.66553,0.51130
1245.17574,0.48234
1243.68595,0.45772
1242.19616,0.44299
1240.70637,0.41844
1239.21659,0.38162
1237.72680,0.29069
1236.23701,0.30685
1234.74722,0.30459
1233.25743,0.28021
1231.76764,0.25587
1230.27786,0.22787
1228.78807,0.25282
1227.29828,0.26426
1225.80849,0.23760
1224.31870,0.15190
1222.82891,0.16591
1221.33912,0.19841
1219.84934,0.23157
1218.35955,0.26475
1216.86976,0.19892
1215.37997,0.24386
1213.89018,0.25685
1212.40039,0.20588
1210.91061,0.17464
1209.42082,0.19388
1207.93103,0.19101
1206.44124,0.18817
1204.95145,0.15214
1203.46166,0.17275
1201.97188,0.07773
1200.48209,0.11933
1198.99230,0.10559
1197.50251,0.06235
1196.01272,0.05729
1194.52293,0.04858
1193.03314,0.03990
1191.54336,0.05955
1190.05357,0.01895
1188.56378,0.05344
1187.07399,0.01290
1185.58420,0.11997
1184.09441,0.06096
1182.60463,0.08504
1181.11484,0.10915
1179.62505,0.09084
1178.13526,0.12056
1176.64547,0.06049
1175.15568,0.08782
1173.66589,0.09796
1172.17611,0.08475
1170.68632,0.04881
1169.19653,0.01290
1167.70674,0.10231
1166.21695,0.08347
1164.72716,0.06712
1163.23738,0.04342
1161.74759,0.04314
1160.25780,0.08104
1158.76801,0.08206
1157.27822,0.08311
1155.78843,0.10142
1154.29865,0.07670
1152.80886,0.08524
1151.31907,0.09258
1149.82928,0.11718
1148.33949,0.16274
1146.84970,0.12343
1145.35991,0.08415
1143.87013,0.05352
1142.38034,0.17919
1140.89055,0.14617
1139.40076,0.15502
1137.91097,0.25988
1136.42118,0.28602
1134.93140,0.30297
1133.44161,0.31996
1131.95182,0.34251
1130.46203,0.32942
1128.97224,0.34712
1127.48245,0.46945
1125.99266,0.47615
1124.50288,0.47427
1123.01309,0.44719
1121.52330,0.42015
1120.03351,0.50697
1118.54372,0.51630
1117.05393,0.46168
1115.56415,0.51907
1114.07436,0.62079
1112.58457,0.60442
1111.09478,0.58808
1109.60499,0.66283
1108.11520,0.66625
1106.62542,0.63402
1105.13563,0.78148
1103.64584,0.88959
1102.15605,0.92637
1100.66626,0.95642
1099.17647,0.98650
1097.68668,0.94094
1096.19690,1.05045
1094.70711,1.01481
1093.21732,1.10963
1091.72753,1.12696
1090.23774,1.14371
1088.74795,1.16050
1087.25817,1.24192
1085.76838,1.27662
1084.27859,1.28674
1082.78880,1.28336
1081.29901,1.38461
1079.80922,1.33577
1078.31943,1.35403
1076.82965,1.37232
1075.33986,1.46510
1073.85007,1.45823
1072.36028,1.47601
1070.87049,1.48768
1069.38070,1.47969
1067.89092,1.50987
1066.40113,1.54010
1064.91134,1.48299
1063.42155,1.43822
1061.93176,1.44886
1060.44197,1.28604
1058.95219,1.18969
1057.46240,1.17275
1055.97261,1.15584
1054.48282,1.03745
1052.99303,0.97446
1051.50324,0.87706
1050.01345,0.79076
1048.52367,0.80540
1047.03388,0.73456
1045.54409,0.66375
1044.05430,0.69695
1042.56451,0.63175
1041.07472,0.53951
1039.58494,0.53220
1038.09515,0.45357
1036.60536,0.44387
1035.11557,0.43421
1033.62578,0.50826
1032.13599,0.45437
1030.64620,0.41775
1029.15642,0.41192
1027.66663,0.42642
1026.17684,0.44097
1024.68705,0.45000
1023.19726,0.56613
1021.70747,0.70444
1020.21769,0.87355
1018.72790,0.99593
1017.23811,1.10173
1015.74832,1.20757
1014.25853,1.41004
1012.76874,1.60393
1011.27896,1.82123
1009.78917,1.97951
1008.29938,2.00000
1006.80959,1.91593
1005.31980,1.83190
1003.83001,1.73191
1002.34022,1.65533
1000.85044,1.51726
999.36065,1.40876
997.87086,1.34213
996.38107,1.27553
994.89128,1.35416
993.40149,1.49682
991.91171,1.43033
990.42192,1.48199
988.93213,1.42172
987.44234,1.41378
985.95255,1.40587
984.46276,1.45275
982.97297,1.38278
981.48319,1.33006
979.99340,1.22939
978.50361,1.28933
977.01382,1.34930
975.52403,1.35456
974.03424,1.24910
972.54446,1.15352
971.05467,1.16872
969.56488,1.11874
968.07509,1.04972
966.58530,0.98074
965.09551,1.07729
963.60573,1.10620
962.11594,1.01455
960.62615,0.94386
959.13636,0.91504
957.64657,0.88625
956.15678,0.87103
954.66699,0.82632
953.17721,0.76195
951.68742,0.75053
950.19763,0.74837
948.70784,0.74624
947.21805,0.77430
945.72826,0.77409
944.23848,0.76038
942.74869,0.80453
941.25890,0.83765
939.76911,0.86034
938.27932,0.88307
936.78953,0.94705
935.29974,0.89048
933.80996,0.83763
932.32017,0.84881
930.83038,0.89509
929.34059,0.94140
927.85080,0.86285
926.36101,0.81510
924.87123,0.89166
923.38144,0.82798
921.89165,0.87262
920.40186,0.91729
918.91207,0.87217
917.42228,0.91322
915.93250,0.93093
914.44271,0.94006
912.95292,0.93691
911.46313,0.93380
909.97334,0.89258
908.48355,1.03843
906.99376,1.12894
905.50398,1.01030
904.01419,0.95076
902.52440,0.89126
901.03461,0.93884
899.54482,1.04675
898.05503,1.05749
896.56525,1.09287
895.07546,1.11044
893.58567,1.12805
892.09588,1.06386
890.60609,1.01693
889.11630,1.02911
887.62651,1.01793
886.13673,1.04679
884.64694,1.07568
883.15715,1.05722
881.66736,1.06711
880.17757,1.01673
878.68778,1.03591
877.19800,1.05513
875.70821,1.04300
874.21842,1.09982
872.72863,1.12098
871.23884,1.12619
869.74905,1.12958
868.25927,1.13301
866.76948,1.03741
865.27969,1.18549
863.78990,1.16749
862.30011,1.22827
860.81032,1.21095
859.32053,1.19366
857.83075,1.20287
856.34096,1.08044
854.85117,1.01220
853.36138,0.89722
851.87159,0.90534
850.38180,0.91348
848.89202,0.70756
847.40223,0.58288
845.91244,0.54437
844.42265,0.52989
842.93286,0.51544
841.44307,0.55825
839.95329,0.51988
838.46350,0.38310
836.97371,0.40140
835.48392,0.40313
833.99413,0.40488
832.50434,0.42575
831.01455,0.40727
829.52477,0.47496
828.03498,0.37288
826.54519,0.32498
825.05540,0.27711
823.56561,0.23542
822.07582,0.28852
820.58604,0.23952
819.09625,0.20040
817.60646,0.16132
816.11667,0.08043
814.62688,0.11155
813.13709,0.10087
811.64730,0.04347
810.15752,0.02916
808.66773,0.01489
807.17794,0.05603
805.68815,0.04429
804.19836,0.01290
802.70857,0.08018
801.21879,0.14749
799.72900,0.15762
798.23921,0.23423
796.74942,0.41054
795.25963,0.43677
793.76984,0.46303
792.28006,0.48194
790.79027,0.62394
789.30048,0.61462
787.81069,0.70501
786.32090,0.68776
784.83111,0.67054
783.34132,0.75857
781.85154,0.72481
780.36175,0.79814
778.87196,0.79399
777.38217,0.78987
775.89238,0.90760
774.40259,0.91462
772.91281,0.91675
771.42302,0.92938
769.93323,0.94204
768.44344,1.01688
766.95365,1.04253
765.46386,1.05345
763.97407,0.89460
762.48429,0.85391
760.99450,0.81325
759.50471,0.74186
758.01492,0.60160
756.52513,0.54998
755.03534,0.49715
753.54556,0.44436
752.05577,0.31654
750.56598,0.27613
749.07619,0.23574
747.58640,0.20586
746.09661,0.17600
744.60683,0.11480
743.11704,0.10286
741.62725,0.11556
740.13746,0.13937
738.64767,0.16322
737.15788,0.09235
735.66809,0.01290
734.17831,0.12546
732.68852,0.10454
731.19873,0.08365
729.70894,0.20000
728.21915,0.12073
726.72936,0.06734
725.23958,0.10997
723.74979,0.09418
722.26000,0.07842
720.77021,0.11499
719.28042,0.05193
717.79063,0.05289
716.30084,0.03788
714.81106,0.02291
713.32127,0.01290
711.83148,0.08112
710.34169,0.03125
708.85190,0.07985
707.36211,0.12849
705.87233,0.10948
704.38254,0.03883
702.89275,0.03589
701.40296,0.05636
699.91317,0.07687
698.42338,0.05681
696.93360,0.15490
695.44381,0.18044
693.95402,0.22631
692.46423,0.27221
690.97444,0.24001
689.48465,0.24846
687.99486,0.27908
686.50508,0.27345
685.01529,0.26784
683.52550,0.25674
682.03571,0.26166
680.54592,0.21617
679.05613,0.23039
677.56635,0.24465
676.07656,0.23740
674.58677,0.15514
673.09698,0.10489
671.60719,0.14390
670.11740,0.18294
668.62761,0.18079
667.13783,0.10853
665.64804,0.11815
664.15825,0.12779
662.66846,0.06671
661.17867,0.12995
659.68888,0.07510
658.19910,0.14579
656.70931,0.21652
655.21952,0.16915
653.72973,0.22641
652.23994,0.16189
650.75015,0.18107
649.26037,0.20029
647.77058,0.16786
646.28079,0.13546
644.79100,0.17570
643.30121,0.19137
641.81142,0.20706
640.32163,0.14897
638.83185,0.06260
637.34206,0.04272
635.85227,0.02779
634.36248,0.01290
632.87269,0.04213
631.38290,0.10461
629.89312,0.07977
628.40333,0.09495
626.91354,0.11016
625.42375,0.15555
623.93396,0.15915
622.44417,0.11233
620.95438,0.06554
619.46460,0.05570
617.97481,0.08650
616.48502,0.04966
614.99523,0.06207
613.50544,0.07452
612.01565,0.14237
610.52587,0.05645
609.03608,0.08869
607.54629,0.09451
606.05650,0.10036
604.56671,0.22622
603.07692,0.13554
601.58714,0.13596
600.09735,0.13641
598.60756,0.04954
597.11777,0.12881
595.62798,0.09122
594.13819,0.07889
592.64840,0.06659
591.15862,0.09432
589.66883,0.05318
588.17904,0.10559
586.68925,0.09097
585.19946,0.07639
583.70967,0.13505
582.21989,0.13346
580.73010,0.13805
579.24031,0.14267
577.75052,0.15349
576.26073,0.08435
574.77094,0.12846
573.28115,0.15660
571.79137,0.18478
570.30158,0.28436
568.81179,0.37536
567.32200,0.36365
565.83221,0.35198
564.34242,0.34587
562.85264,0.47023
561.36285,0.39037
559.87306,0.40406
558.38327,0.41778
556.89348,0.50783
555.40369,0.54500
553.91391,0.52867
552.42412,0.51239
550.93433,0.61611
549.44454,0.70140
547.95475,0.67845
546.46496,0.68753
544.97517,0.69664
543.48539,0.71316
541.99560,0.82324
540.50581,0.79493
539.01602,0.76664
537.52623,0.68856
536.03644,0.78770
534.54666,0.75891
533.05687,0.77445
531.56708,0.79002
530.07729,0.66535
528.58750,0.65146
527.09771,0.65421
525.60792,0.65700
524.11814,0.55093
522.62835,0.55932
521.13856,0.53945
519.64877,0.52946
518.15898,0.51950
516.66919,0.40868
515.17941,0.38279
513.68962,0.35879
512.19983,0.33481
510.71004,0.35087
509.22025,0.35465
507.73046,0.39046
506.24068,0.43308
504.75089,0.47572
503.26110,0.40213
501.77131,0.40362
500.28152,0.42668
498.79173,0.44978
497.30194,0.44523
495.81216,0.44809
494.32237,0.47560
492.83258,0.50314
491.34279,0.39290
489.85300,0.40698
488.36321,0.36202
486.87343,0.35955
485.38364,0.35712
483.89385,0.39102
482.40406,0.23054
480.91427,0.20360
479.42448,0.17670
477.93469,0.13690
476.44491,0.14145
474.95512,0.10357
473.46533,0.06573
471.97554,0.11590
470.48575,0.06029
468.99596,0.08592
467.50618,0.06667
466.01639,0.04746
464.52660,0.01290
463.03681,0.05752
461.54702,0.05480
460.05723,0.05211
458.56745,0.09314
457.07766,0.10345
455.58787,0.07626
454.09808,0.04910
452.60829,0.20839
451.11850,0.17454
449.62871,0.18747
448.13893,0.20044
446.64914,0.37464
445.15935,0.47136
443.66956,0.48074
442.17977,0.51723
440.68998,0.55375
439.20020,0.59892
437.71041,0.69703
436.22062,0.72997
434.73083,0.76294
433.24104,0.99159
431.75125,1.20428
430.26146,1.22628
428.77168,1.24831
427.28189,1.36635
425.79210,1.44752
424.30231,1.41982
422.81252,1.39215
421.32273,1.43774
419.83295,1.44275
418.34316,1.32905
416.85337,1.21539
415.36358,1.01870
413.87379,0.80359
412.38400,0.76079
410.89422,0.71802
409.40443,0.79464
407.91464,0.86145
406.42485,0.67112
404.93506,0.68509
403.44527,0.69909
401.95548,0.55317
400.46570,0.56109
398.97591,0.58196
397.48612,0.60287
395.99633,0.56045
394.50654,0.58450
393.01675,0.55937
391.52697,0.53427
390.03718,0.38985
388.54739,0.40174
387.05760,0.40997
385.56781,0.41823
384.07802,0.50652
382.58824,0.37826
381.09845,0.40078
379.60866,0.42334
378.11887,0.37394
376.62908,0.34673
375.13929,0.31709
373.64950,0.28748
372.15972,0.25053
370.66993,0.18285
369.18014,0.17119
367.69035,0.15956
366.20056,0.06368
364.71077,0.14503
363.22099,0.14766
361.73120,0.15032
360.24141,0.14071
358.75162,0.14467
357.26183,0.15482
355.77204,0.16501
354.28225,0.14323
352.79247,0.07966
351.30268,0.04626
349.81289,0.01290
348.32310,0.03556
346.83331,0.05456
345.34352,0.04961
343.85374,0.04468
342.36395,0.09947
340.87416,0.06201
339.38437,0.09657
337.89458,0.13116
336.40479,0.14302
334.91501,0.14261
333.42522,0.11147
331.93543,0.08037
330.44564,0.04315
328.95585,0.10317
327.46606,0.05802
325.97627,0.01290
324.48649,0.12614
322.99670,0.12005
321.50691,0.15091
320.01712,0.18181
318.52733,0.13030
317.03754,0.13789
315.54776,0.12951
314.05797,0.12117
312.56818,0.01812
311.07839,0.00246
309.58860,0.00960
308.09881,0.01678
306.60902,-0.00000
305.11924,0.10630
303.62945,0.06067
302.13966,0.01508
300.64987,0.01290
299.16008,0.01290
