1778.52000,0.04244
1777.03021,0.04551
1775.54042,0.03889
1774.05063,0.03424
1772.56085,0.04256
1771.07106,0.03279
1769.58127,0.05477
1768.09148,0.01010
1766.60169,0.03278
1765.11190,0.05032
1763.62212,0.01868
1762.13233,0.07058
1760.64254,0.04612
1759.15275,0.05599
1757.66296,0.05295
1756.17317,0.05253
1754.68339,0.02495
1753.19360,0.00905
1751.70381,0.01440
1750.21402,0.02885
1748.72423,0.02067
1747.23444,0.03583
1745.74465,0.02317
1744.25487,0.01508
1742.76508,0.04521
1741.27529,0.06112
1739.78550,0.03693
1738.29571,0.02701
1736.80592,0.02100
1735.31614,0.04026
1733.82635,0.00000
1732.33656,0.04074
1730.84677,0.03295
1729.35698,0.00706
1727.86719,0.00775
1726.37740,0.01687
1724.88762,0.01308
1723.39783,0.02680
1721.90804,0.01595
1720.41825,0.01548
1718.92846,0.03835
1717.43867,0.01010
1715.94889,0.04444
1714.45910,0.04709
1712.96931,0.03683
1711.47952,0.04666
1709.98973,0.09082
1708.49994,0.07352
1707.01016,0.07793
1705.52037,0.08237
1704.03058,0.10076
1702.54079,0.12242
1701.05100,0.13309
1699.56121,0.11531
1698.07142,0.14676
1696.58164,0.16076
1695.09185,0.15278
1693.60206,0.19402
1692.11227,0.19192
1690.62248,0.21704
1689.13269,0.23895
1687.64291,0.24794
1686.15312,0.24078
1684.66333,0.27184
1683.17354,0.26538
1681.68375,0.24082
1680.19396,0.24219
1678.70417,0.21510
1677.21439,0.25277
1675.72460,0.27364
1674.23481,0.25829
1672.74502,0.26886
1671.25523,0.29435
1669.76544,0.28232
1668.27566,0.24184
1666.78587,0.23893
1665.29608,0.20109
1663.80629,0.22413
1662.31650,0.21225
1660.82671,0.22823
1659.33693,0.17885
1657.84714,0.19748
1656.35735,0.18635
1654.86756,0.15065
1653.37777,0.15577
1651.88798,0.17386
1650.39819,0.13566
1648.90841,0.17259
1647.41862,0.16875
1645.92883,0.17660
1644.43904,0.18448
1642.94925,0.15937
1641.45946,0.15241
1639.96968,0.15067
1638.47989,0.13729
1636.99010,0.12783
1635.50031,0.15919
1634.01052,0.11806
1632.52073,0.12617
1631.03094,0.12913
1629.54116,0.17548
1628.05137,0.17202
1626.56158,0.19837
1625.07179,0.21762
1623.58200,0.20324
1622.09221,0.26139
1620.60243,0.23995
1619.11264,0.25025
1617.62285,0.21074
1616.13306,0.20686
1614.64327,0.18941
1613.15348,0.18753
1611.66370,0.20704
1610.17391,0.19615
1608.68412,0.17558
1607.19433,0.15440
1605.70454,0.16755
1604.21475,0.15419
1602.72496,0.14085
1601.23518,0.14373
1599.74539,0.15182
1598.25560,0.14569
1596.76581,0.15124
1595.27602,0.19178
1593.78623,0.12554
1592.29645,0.11952
1590.80666,0.12260
1589.31687,0.11276
1587.82708,0.13273
1586.33729,0.13007
1584.84750,0.11254
1583.35771,0.11253
1581.86793,0.08729
1580.37814,0.07827
1578.88835,0.09259
1577.39856,0.07456
1575.90877,0.08245
1574.41898,0.09038
1572.92920,0.03424
1571.43941,0.01374
1569.94962,0.04538
1568.45983,0.07705
1566.97004,0.07087
1565.48025,0.06731
1563.99047,0.05796
1562.50068,0.06223
1561.01089,0.03739
1559.52110,0.07862
1558.03131,0.11210
1556.54152,0.10224
1555.05173,0.13514
1553.56195,0.14411
1552.07216,0.10197
1550.58237,0.08834
1549.09258,0.05079
1547.60279,0.05340
1546.11300,0.06122
1544.62322,0.09496
1543.13343,0.06270
1541.64364,0.04018
1540.15385,0.03193
1538.66406,0.02371
1537.17427,0.04270
1535.68448,0.05072
1534.19470,0.04194
1532.70491,0.02995
1531.21512,0.03352
1529.72533,0.01382
1528.23554,0.01874
1526.74575,0.01010
1525.25597,0.02954
1523.76618,0.03217
1522.27639,0.01153
1520.78660,0.02267
1519.29681,0.01248
1517.80702,0.03435
1516.31724,0.04006
1514.82745,0.03998
1513.33766,0.03183
1511.84787,0.02371
1510.35808,0.03148
1508.86829,0.05546
1507.37850,0.05228
1505.88872,0.01028
1504.39893,0.02550
1502.90914,0.05369
1501.41935,0.06313
1499.92956,0.01564
1498.43977,0.05233
1496.94999,0.05862
1495.46020,0.09084
1493.97041,0.15028
1492.48062,0.15601
1490.99083,0.17666
1489.50104,0.27956
1488.01125,0.29929
1486.52147,0.31906
1485.03168,0.36507
1483.54189,0.40982
1482.05210,0.44553
1480.56231,0.50716
1479.07252,0.61673
1477.58274,0.74705
1476.09295,0.83401
1474.60316,0.89835
1473.11337,0.98214
1471.62358,0.97986
1470.13379,0.98472
1468.64401,0.90805
1467.15422,0.85471
1465.66443,0.86128
1464.17464,0.86788
1462.68485,0.77578
1461.19506,0.80218
1459.70527,0.79171
1458.21549,0.76508
1456.72570,0.69058
1455.23591,0.65818
1453.74612,0.65430
1452.25633,0.66728
1450.76654,0.63820
1449.27676,0.58262
1447.78697,0.58144
1446.29718,0.56216
1444.80739,0.52640
1443.31760,0.49067
1441.82781,0.41710
1440.33802,0.34162
1438.84824,0.32313
1437.35845,0.25871
1435.86866,0.27912
1434.37887,0.25619
1432.88908,0.30126
1431.39929,0.24731
1429.90951,0.20763
1428.41972,0.24760
1426.92993,0.24941
1425.44014,0.30369
1423.95035,0.30070
1422.46056,0.29774
1420.97078,0.32880
1419.48099,0.30097
1417.99120,0.34697
1416.50141,0.33280
1415.01162,0.29858
1413.52183,0.32460
1412.03204,0.27814
1410.54226,0.31199
1409.05247,0.32061
1407.56268,0.32668
1406.07289,0.34572
1404.58310,0.34084
1403.09331,0.33598
1401.60353,0.38424
1400.11374,0.40534
1398.62395,0.41287
1397.13416,0.48905
1395.64437,0.50700
1394.15458,0.54504
1392.66479,0.58311
1391.17501,0.57460
1389.68522,0.60626
1388.19543,0.55767
1386.70564,0.57093
1385.21585,0.58422
1383.72606,0.59204
1382.23628,0.51896
1380.74649,0.52166
1379.25670,0.51985
1377.76691,0.56080
1376.27712,0.55581
1374.78733,0.66025
1373.29755,0.73301
1371.80776,0.81421
1370.31797,0.99448
1368.82818,1.07833
1367.33839,1.16220
1365.84860,1.32702
1364.35881,1.47310
1362.86903,1.63863
1361.37924,1.77829
1359.88945,1.87396
1358.39966,1.97419
1356.90987,2.00000
1355.42008,1.89442
1353.93030,1.82124
1352.44051,1.77851
1350.95072,1.73582
1349.46093,1.66725
1347.97114,1.48672
1346.48135,1.28162
1344.99156,1.16912
1343.50178,1.06183
1342.01199,0.89177
1340.52220,0.74893
1339.03241,0.74271
1337.54262,0.70156
1336.05283,0.67825
1334.56305,0.65496
1333.07326,0.61326
1331.58347,0.55474
1330.09368,0.51245
1328.60389,0.48571
1327.11410,0.47261
1325.62432,0.46147
1324.13453,0.43935
1322.64474,0.40302
1321.15495,0.39974
1319.66516,0.37188
1318.17537,0.34406
1316.68558,0.35639
1315.19580,0.38106
1313.70601,0.30865
1312.21622,0.31978
1310.72643,0.30957
1309.23664,0.25020
1307.74685,0.27695
1306.25707,0.32962
1304.76728,0.30594
1303.27749,0.28228
1301.78770,0.20880
1300.29791,0.26030
1298.80812,0.26327
1297.31834,0.22743
1295.82855,0.32173
1294.33876,0.28465
1292.84897,0.27673
1291.35918,0.25719
1289.86939,0.23605
1288.37960,0.21494
1286.88982,0.25699
1285.40003,0.30423
1283.91024,0.35086
1282.42045,0.33796
1280.93066,0.33221
1279.44087,0.36404
1277.95109,0.32404
1276.46130,0.34815
1274.97151,0.35805
1273.48172,0.36798
1271.99193,0.39477
1270.50214,0.38728
1269.01235,0.41866
1267.52257,0.41640
1266.03278,0.39216
1264.54299,0.42881
1263.05320,0.51597
1261.56341,0.50800
1260.07362,0.50006
1258.58384,0.49927
1257.09405,0.51664
1255.60426,0.55022
1254.11447,0.48866
1252.62468,0.55143
1251.13489,0.55142
1249.64511,0.52362
1248.15532,0.45052
1246.66553,0.40076
1245.17574,0.35102
1243.68595,0.34016
1242.19616,0.35911
1240.70637,0.30298
1239.21659,0.29091
1237.72680,0.27498
1236.23701,0.24420
1234.74722,0.21538
1233.25743,0.21799
1231.76764,0.22062
1230.27786,0.18542
1228.78807,0.16448
1227.29828,0.15846
1225.80849,0.14600
1224.31870,0.11738
1222.82891,0.11081
1221.33912,0.08872
1219.84934,0.09385
1218.35955,0.09901
1216.86976,0.13398
1215.37997,0.17350
1213.89018,0.20011
1212.40039,0.21121
1210.91061,0.15890
1209.42082,0.15840
1207.93103,0.14499
1206.44124,0.13160
1204.95145,0.08393
1203.46166,0.06607
1201.97188,0.06896
1200.48209,0.07511
1198.99230,0.08258
1197.50251,0.07001
1196.01272,0.08272
1194.52293,0.04658
1193.03314,0.01047
1191.54336,0.02715
1190.05357,0.04321
1188.56378,0.01010
1187.07399,0.04158
1185.58420,0.04461
1184.09441,0.08909
1182.60463,0.07826
1181.11484,0.06745
1179.62505,0.03823
1178.13526,0.04269
1176.64547,0.08667
1175.15568,0.03358
1173.66589,0.04007
1172.17611,0.05824
1170.68632,0.03533
1169.19653,0.01246
1167.70674,0.03913
1166.21695,0.05159
1164.72716,0.08868
1163.23738,0.05653
1161.74759,0.03218
1160.25780,0.05511
1158.76801,0.05282
1157.27822,0.05056
1155.78843,0.01726
1154.29865,0.07786
1152.80886,0.03037
1151.31907,0.01010
1149.82928,0.06336
1148.33949,0.07716
1146.84970,0.05829
1145.35991,0.03946
1143.87013,0.03263
1142.38034,0.04913
1140.89055,0.09933
1139.40076,0.13466
1137.91097,0.15837
1136.42118,0.16463
1134.93140,0.17577
1133.44161,0.18694
1131.95182,0.21401
1130.46203,0.23268
1128.97224,0.22095
1127.48245,0.24228
1125.99266,0.27981
1124.50288,0.27400
1123.01309,0.27630
1121.52330,0.27864
1120.03351,0.33765
1118.54372,0.31124
1117.05393,0.35412
1115.56415,0.36207
1114.07436,0.40631
1112.58457,0.38454
1111.09478,0.36280
1109.60499,0.39676
1108.11520,0.37573
1106.62542,0.37285
1105.13563,0.47164
1103.64584,0.51801
1102.15605,0.59226
1100.66626,0.57363
1099.17647,0.55503
1097.68668,0.57563
1096.19690,0.59690
1094.70711,0.62144
1093.21732,0.63176
1091.72753,0.68743
1090.23774,0.71044
1088.74795,0.73347
1087.25817,0.76721
1085.76838,0.79451
1084.27859,0.84191
1082.78880,0.86862
1081.29901,0.86752
1079.80922,0.84573
1078.31943,0.84080
1076.82965,0.83590
1075.33986,1.02589
1073.85007,1.02688
1072.36028,0.98711
1070.87049,1.03864
1069.38070,1.09539
1067.89092,1.12950
1066.40113,1.16365
1064.91134,1.00749
1063.42155,0.90704
1061.93176,0.89530
1060.44197,0.84475
1058.95219,0.76769
1057.46240,0.76932
1055.97261,0.77097
1054.48282,0.68816
1052.99303,0.63452
1051.50324,0.52912
1050.01345,0.48654
1048.52367,0.51326
1047.03388,0.49501
1045.54409,0.47679
1044.05430,0.47058
1042.56451,0.41390
1041.07472,0.32423
1039.58494,0.26696
1038.09515,0.33984
1036.60536,0.33669
1035.11557,0.33356
1033.62578,0.34308
1032.13599,0.25488
1030.64620,0.20037
1029.15642,0.29220
1027.66663,0.26559
1026.17684,0.23900
1024.68705,0.35551
1023.19726,0.43450
1021.70747,0.56467
1020.21769,0.73500
1018.72790,0.87299
1017.23811,0.95792
1015.74832,1.04288
1014.25853,1.22369
1012.76874,1.44077
1011.27896,1.58926
1009.78917,1.66786
1008.29938,1.81058
1006.80959,1.75232
1005.31980,1.69409
1003.83001,1.49379
1002.34022,1.32006
1000.85044,1.22728
999.36065,1.11187
997.87086,1.08097
996.38107,1.05010
994.89128,1.00146
993.40149,0.98133
991.91171,0.91914
990.42192,0.87317
988.93213,0.90492
987.44234,0.86645
985.95255,0.82801
984.46276,0.81064
982.97297,0.74669
981.48319,0.72808
979.99340,0.61757
978.50361,0.61844
977.01382,0.61934
975.52403,0.63645
974.03424,0.53253
972.54446,0.49403
971.05467,0.50151
969.56488,0.45012
968.07509,0.45669
966.58530,0.46329
965.09551,0.41069
963.60573,0.38854
962.11594,0.40396
960.62615,0.38705
959.13636,0.37113
957.64657,0.35525
956.15678,0.29116
954.66699,0.31256
953.17721,0.31909
951.68742,0.33731
950.19763,0.33516
948.70784,0.33304
947.21805,0.31120
945.72826,0.33795
944.23848,0.29545
942.74869,0.33326
941.25890,0.38146
939.76911,0.40702
938.27932,0.43262
936.78953,0.48931
935.29974,0.48648
933.80996,0.42735
932.32017,0.42328
930.83038,0.44481
929.34059,0.46637
927.85080,0.45785
926.36101,0.46878
924.87123,0.40335
923.38144,0.45836
921.89165,0.45255
920.40186,0.44676
918.91207,0.47208
917.42228,0.43075
915.93250,0.49108
914.44271,0.42132
912.95292,0.42733
911.46313,0.43337
909.97334,0.43361
908.48355,0.46754
906.99376,0.50604
905.50398,0.49277
904.01419,0.46788
902.52440,0.44301
901.03461,0.46349
899.54482,0.51896
898.05503,0.55115
896.56525,0.55618
895.07546,0.58714
893.58567,0.61812
892.09588,0.55979
890.60609,0.56170
889.11630,0.53968
887.62651,0.57984
886.13673,0.59769
884.64694,0.61558
883.15715,0.65194
881.66736,0.68056
880.17757,0.64965
878.68778,0.63139
877.19800,0.61316
875.70821,0.66585
874.21842,0.66160
872.72863,0.71175
871.23884,0.72827
869.74905,0.72961
868.25927,0.73097
866.76948,0.74434
865.27969,0.75191
863.78990,0.80677
862.30011,0.78333
860.81032,0.80328
859.32053,0.82327
857.83075,0.84070
856.34096,0.76104
854.85117,0.68789
853.36138,0.66721
851.87159,0.61256
850.38180,0.55795
848.89202,0.42989
847.40223,0.32192
845.91244,0.29296
844.42265,0.30838
842.93286,0.32382
841.44307,0.33638
839.95329,0.29589
838.46350,0.28390
836.97371,0.27454
835.48392,0.30761
833.99413,0.34070
832.50434,0.29905
831.01455,0.32800
829.52477,0.26698
828.03498,0.24484
826.54519,0.19295
825.05540,0.14109
823.56561,0.15529
822.07582,0.19670
820.58604,0.16823
819.09625,0.13655
817.60646,0.10490
816.11667,0.10111
814.62688,0.07599
813.13709,0.06255
811.64730,0.01224
810.15752,0.01115
808.66773,0.01010
807.17794,0.02388
805.68815,0.04027
804.19836,0.04569
802.70857,0.04111
801.21879,0.03655
799.72900,0.05694
798.23921,0.16929
796.74942,0.19427
795.25963,0.23062
793.76984,0.26698
792.28006,0.29011
790.79027,0.34822
789.30048,0.42967
787.81069,0.41663
786.32090,0.40459
784.83111,0.39258
783.34132,0.51945
781.85154,0.48193
780.36175,0.54542
778.87196,0.55424
777.38217,0.56308
775.89238,0.61501
774.40259,0.60805
772.91281,0.65097
771.42302,0.67741
769.93323,0.70388
768.44344,0.72358
766.95365,0.71417
765.46386,0.72746
763.97407,0.65596
762.48429,0.64502
760.99450,0.63412
759.50471,0.57824
758.01492,0.45443
756.52513,0.38501
755.03534,0.34477
753.54556,0.30454
752.05577,0.20868
750.56598,0.12773
749.07619,0.15363
747.58640,0.15657
746.09661,0.15954
744.60683,0.10590
743.11704,0.09565
741.62725,0.04466
740.13746,0.05486
738.64767,0.06510
737.15788,0.07439
735.66809,0.05588
734.17831,0.06911
732.68852,0.04871
731.19873,0.02834
729.70894,0.10122
728.21915,0.11198
726.72936,0.07098
725.23958,0.10316
723.74979,0.09685
722.26000,0.09056
720.77021,0.09888
719.28042,0.11369
717.79063,0.07804
716.30084,0.06928
714.81106,0.06055
713.32127,0.01010
711.83148,0.09530
710.34169,0.14945
708.85190,0.13468
707.36211,0.11994
705.87233,0.06219
704.38254,0.03359
702.89275,0.09435
701.40296,0.10595
699.91317,0.11757
698.42338,0.14671
696.93360,0.15386
695.44381,0.12025
693.95402,0.13587
692.46423,0.15152
690.97444,0.17562
689.48465,0.22305
687.99486,0.23879
686.50508,0.24775
685.01529,0.25675
683.52550,0.24797
682.03571,0.22822
680.54592,0.17677
679.05613,0.16970
677.56635,0.16265
676.07656,0.14366
674.58677,0.13117
673.09698,0.12065
671.60719,0.12537
670.11740,0.13012
668.62761,0.14623
667.13783,0.09245
665.64804,0.07625
664.15825,0.06007
662.66846,0.07759
661.17867,0.01098
659.68888,0.09912
658.19910,0.11219
656.70931,0.12529
655.21952,0.11964
653.72973,0.14251
652.23994,0.20036
650.75015,0.19901
649.26037,0.19769
647.77058,0.19154
646.28079,0.11938
644.79100,0.07898
643.30121,0.08068
641.81142,0.08242
640.32163,0.03692
638.83185,0.06784
637.34206,0.01010
635.85227,0.02341
634.36248,0.03675
632.87269,0.01418
631.38290,0.08099
629.89312,0.07726
628.40333,0.06837
626.91354,0.05952
625.42375,0.12385
623.93396,0.07880
622.44417,0.07424
620.95438,0.06971
619.46460,0.05711
617.97481,0.05620
616.48502,0.05725
614.99523,0.06805
613.50544,0.07887
612.01565,0.01010
610.52587,0.02779
609.03608,0.04292
607.54629,0.06390
606.05650,0.08492
604.56671,0.18817
603.07692,0.09401
601.58714,0.11317
600.09735,0.13235
598.60756,0.08748
597.11777,0.06270
595.62798,0.06708
594.13819,0.08411
592.64840,0.10117
591.15862,0.06615
589.66883,0.08424
588.17904,0.06351
586.68925,0.04444
585.19946,0.02539
583.70967,0.06496
582.21989,0.12721
580.73010,0.11407
579.24031,0.10097
577.75052,0.04937
576.26073,0.01010
574.77094,0.00947
573.28115,0.02602
571.79137,0.04259
570.30158,0.08024
568.81179,0.15158
567.32200,0.16339
565.83221,0.17523
564.34242,0.15537
562.85264,0.20999
561.36285,0.27824
559.87306,0.28145
558.38327,0.28469
556.89348,0.34784
555.40369,0.34434
553.91391,0.33440
552.42412,0.32448
550.93433,0.35603
549.44454,0.33128
547.95475,0.38618
546.46496,0.40778
544.97517,0.42940
543.48539,0.43520
541.99560,0.49281
540.50581,0.48506
539.01602,0.47734
537.52623,0.43470
536.03644,0.38560
534.54666,0.41941
533.05687,0.42831
531.56708,0.43724
530.07729,0.36755
528.58750,0.37428
527.09771,0.37197
525.60792,0.36968
524.11814,0.36225
522.62835,0.31795
521.13856,0.31316
519.64877,0.30096
518.15898,0.28879
516.66919,0.29769
515.17941,0.22763
513.68962,0.25503
512.19983,0.28246
510.71004,0.23968
509.22025,0.26879
507.73046,0.25520
506.24068,0.27919
504.75089,0.30320
503.26110,0.27739
501.77131,0.26780
500.28152,0.29093
498.79173,0.31409
497.30194,0.30264
495.81216,0.34689
494.32237,0.35524
492.83258,0.36362
491.34279,0.29273
489.85300,0.28531
488.36321,0.21641
486.87343,0.22458
485.38364,0.23279
483.89385,0.24555
482.40406,0.18453
480.91427,0.14945
479.42448,0.11439
477.93469,0.10331
476.44491,0.05665
474.95512,0.06279
473.46533,0.06895
471.97554,0.09100
470.48575,0.07165
468.99596,0.03744
467.50618,0.02430
466.01639,0.01118
464.52660,0.01010
463.03681,0.04695
461.54702,0.04402
460.05723,0.04111
458.56745,0.01719
457.07766,0.06193
455.58787,0.03807
454.09808,0.01424
452.60829,0.09078
451.11850,0.15828
449.62871,0.14004
448.13893,0.12183
446.64914,0.16287
445.15935,0.23891
443.66956,0.28325
442.17977,0.27292
440.68998,0.26262
439.20020,0.32776
437.71041,0.37869
436.22062,0.41671
434.73083,0.45475
433.24104,0.53684
431.75125,0.65586
430.26146,0.67036
428.77168,0.68488
427.28189,0.77615
425.79210,0.85126
424.30231,0.80146
422.81252,0.75168
421.32273,0.73884
419.83295,0.71113
418.34316,0.66145
416.85337,0.61179
415.36358,0.52008
413.87379,0.43810
412.38400,0.39306
410.89422,0.34805
409.40443,0.38398
407.91464,0.32867
406.42485,0.28374
404.93506,0.28189
403.44527,0.28007
401.95548,0.28702
400.46570,0.18718
398.97591,0.19289
397.48612,0.19863
395.99633,0.27819
394.50654,0.26327
393.01675,0.28787
391.52697,0.31250
390.03718,0.20509
388.54739,0.20841
387.05760,0.20140
385.56781,0.19442
384.07802,0.21336
382.58824,0.20385
381.09845,0.19598
379.60866,0.18815
378.11887,0.19684
376.62908,0.13501
375.13929,0.09651
373.64950,0.05803
372.15972,0.13547
370.66993,0.12230
369.18014,0.09718
367.69035,0.07209
366.20056,0.01046
364.71077,0.08166
363.22099,0.07649
361.73120,0.07136
360.24141,0.12193
358.75162,0.10649
357.26183,0.11439
355.77204,0.12232
354.28225,0.07913
352.79247,0.09359
351.30268,0.07733
349.81289,0.06109
348.32310,0.07887
346.83331,0.06431
345.34352,0.08086
343.85374,0.09743
342.36395,0.10950
340.87416,0.08987
339.38437,0.10200
337.89458,0.11415
336.40479,0.09850
334.91501,0.13596
333.42522,0.10839
331.93543,0.08084
330.44564,0.16370
328.95585,0.15143
327.46606,0.10584
325.97627,0.06029
324.48649,0.04162
322.99670,0.14289
321.50691,0.12184
320.01712,0.10081
318.52733,0.16138
317.03754,0.09768
315.54776,0.10263
314.05797,0.10762
312.56818,0.08479
311.07839,0.05811
309.58860,0.07645
308.09881,0.09481
306.60902,0.07534
305.11924,0.07402
303.62945,0.06431
302.13966,0.04172
300.64987,0.01010
299.16008,0.01010
