1778.52000,0.01767
1777.03021,0.02674
1775.54042,0.04808
1774.05063,0.03076
1772.56085,0.01283
1771.07106,0.03103
1769.58127,0.02798
1768.09148,0.02238
1766.60169,0.02068
1765.11190,0.00676
1763.62212,0.00382
1762.13233,0.02413
1760.64254,0.02576
1759.15275,0.02033
1757.66296,0.04395
1756.17317,0.00569
1754.68339,0.02033
1753.19360,0.02404
1751.70381,0.01553
1750.21402,0.00382
1748.72423,0.01782
1747.23444,0.00929
1745.74465,0.00980
1744.25487,0.01293
1742.76508,0.04058
1741.27529,0.03925
1739.78550,0.03601
1738.29571,0.01925
1736.80592,0.01994
1735.31614,0.01614
1733.82635,0.01882
1732.33656,0.02345
1730.84677,0.01265
1729.35698,0.02121
1727.86719,0.03238
1726.37740,0.01521
1724.88762,0.00000
1723.39783,0.01026
1721.90804,0.01540
1720.41825,0.02056
1718.92846,0.00382
1717.43867,0.02980
1715.94889,0.06613
1714.45910,0.02833
1712.96931,0.06858
1711.47952,0.06308
1709.98973,0.06986
1708.49994,0.03218
1707.01016,0.04385
1705.52037,0.05554
1704.03058,0.08178
1702.54079,0.09192
1701.05100,0.11305
1699.56121,0.10906
1698.07142,0.11220
1696.58164,0.13148
1695.09185,0.15208
1693.60206,0.15916
1692.11227,0.19014
1690.62248,0.16375
1689.13269,0.18446
1687.64291,0.19811
1686.15312,0.19309
1684.66333,0.23258
1683.17354,0.22181
1681.68375,0.22203
1680.19396,0.19842
1678.70417,0.18065
1677.21439,0.23575
1675.72460,0.16903
1674.23481,0.20550
1672.74502,0.19557
1671.25523,0.17407
1669.76544,0.21126
1668.27566,0.18014
1666.78587,0.18838
1665.29608,0.16699
1663.80629,0.16303
1662.31650,0.17780
1660.82671,0.16552
1659.33693,0.14102
1657.84714,0.15071
1656.35735,0.11595
1654.86756,0.12183
1653.37777,0.13806
1651.88798,0.14142
1650.39819,0.11258
1648.90841,0.12953
1647.41862,0.10396
1645.92883,0.12356
1644.43904,0.14318
1642.94925,0.14800
1641.45946,0.12770
1639.96968,0.11194
1638.47989,0.13426
1636.99010,0.12887
1635.50031,0.14415
1634.01052,0.10852
1632.52073,0.13868
1631.03094,0.13276
1629.54116,0.12623
1628.05137,0.15970
1626.56158,0.16290
1625.07179,0.15322
1623.58200,0.17775
1622.09221,0.19780
1620.60243,0.19788
1619.11264,0.17736
1617.62285,0.17428
1616.13306,0.21055
1614.64327,0.15723
1613.15348,0.15423
1611.66370,0.15190
1610.17391,0.14509
1608.68412,0.18409
1607.19433,0.15412
1605.70454,0.14868
1604.21475,0.14972
1602.72496,0.15079
1601.23518,0.11384
1599.74539,0.14140
1598.25560,0.14190
1596.76581,0.12245
1595.27602,0.11398
1593.78623,0.12038
1592.29645,0.11261
1590.80666,0.12293
1589.31687,0.12038
1587.82708,0.05983
1586.33729,0.08506
1584.84750,0.07873
1583.35771,0.05631
1581.86793,0.02037
1580.37814,0.05603
1578.88835,0.07753
1577.39856,0.08746
1575.90877,0.04132
1574.41898,0.06549
1572.92920,0.03939
1571.43941,0.03911
1569.94962,0.03919
1568.45983,0.03929
1566.97004,0.05521
1565.48025,0.02345
1563.99047,0.02267
1562.50068,0.04320
1561.01089,0.05794
1559.52110,0.02888
1558.03131,0.07270
1556.54152,0.05207
1555.05173,0.08434
1553.56195,0.06119
1552.07216,0.04838
1550.58237,0.04656
1549.09258,0.03832
1547.60279,0.05591
1546.11300,0.03934
1544.62322,0.04795
1543.13343,0.04499
1541.64364,0.04140
1540.15385,0.02366
1538.66406,0.00595
1537.17427,0.03340
1535.68448,0.01768
1534.19470,0.01166
1532.70491,0.01082
1531.21512,0.01453
1529.72533,0.02535
1528.23554,0.00397
1526.74575,0.02710
1525.25597,0.03157
1523.76618,0.03735
1522.27639,0.00382
1520.78660,0.01652
1519.29681,0.01248
1517.80702,0.05231
1516.31724,0.06961
1514.82745,0.02116
1513.33766,0.02304
1511.84787,0.02494
1510.35808,0.03010
1508.86829,0.03335
1507.37850,0.01470
1505.88872,0.00382
1504.39893,0.02246
1502.90914,0.04694
1501.41935,0.02308
1499.92956,0.05276
1498.43977,0.03928
1496.94999,0.11738
1495.46020,0.12458
1493.97041,0.16405
1492.48062,0.18872
1490.99083,0.24630
1489.50104,0.33485
1488.01125,0.35445
1486.52147,0.37407
1485.03168,0.45948
1483.54189,0.52559
1482.05210,0.58011
1480.56231,0.66432
1479.07252,0.77370
1477.58274,0.84637
1476.09295,0.93260
1474.60316,0.96663
1473.11337,1.07677
1471.62358,1.13085
1470.13379,1.07663
1468.64401,1.07789
1467.15422,0.98698
1465.66443,0.96960
1464.17464,0.95225
1462.68485,0.91365
1461.19506,0.85187
1459.70527,0.83396
1458.21549,0.79351
1456.72570,0.72020
1455.23591,0.69270
1453.74612,0.65943
1452.25633,0.58556
1450.76654,0.57878
1449.27676,0.50691
1447.78697,0.46988
1446.29718,0.43804
1444.80739,0.42008
1443.31760,0.40216
1441.82781,0.33300
1440.33802,0.31481
1438.84824,0.23282
1437.35845,0.25982
1435.86866,0.23462
1434.37887,0.19720
1432.88908,0.24620
1431.39929,0.24817
1429.90951,0.22888
1428.41972,0.23026
1426.92993,0.24907
1425.44014,0.24728
1423.95035,0.24617
1422.46056,0.24508
1420.97078,0.29431
1419.48099,0.29263
1417.99120,0.27744
1416.50141,0.30676
1415.01162,0.30130
1413.52183,0.29522
1412.03204,0.33044
1410.54226,0.33860
1409.05247,0.30810
1407.56268,0.28473
1406.07289,0.31232
1404.58310,0.33252
1403.09331,0.35275
1401.60353,0.40299
1400.11374,0.39846
1398.62395,0.43005
1397.13416,0.42557
1395.64437,0.47851
1394.15458,0.56951
1392.66479,0.53158
1391.17501,0.60394
1389.68522,0.59444
1388.19543,0.61657
1386.70564,0.61067
1385.21585,0.60481
1383.72606,0.58962
1382.23628,0.58735
1380.74649,0.51871
1379.25670,0.59129
1377.76691,0.58589
1376.27712,0.62822
1374.78733,0.68800
1373.29755,0.78777
1371.80776,0.91143
1370.31797,1.02223
1368.82818,1.10242
1367.33839,1.18265
1365.84860,1.42505
1364.35881,1.55401
1362.86903,1.75328
1361.37924,1.82040
1359.88945,1.95073
1358.39966,1.98180
1356.90987,2.00000
1355.42008,1.91636
1353.93030,1.82114
1352.44051,1.77430
1350.95072,1.72750
1349.46093,1.60335
1347.97114,1.48954
1346.48135,1.29066
1344.99156,1.18594
1343.50178,1.05094
1342.01199,0.89534
1340.52220,0.75911
1339.03241,0.66030
1337.54262,0.63051
1336.05283,0.61429
1334.56305,0.59809
1333.07326,0.56194
1331.58347,0.49487
1330.09368,0.47489
1328.60389,0.42528
1327.11410,0.37248
1325.62432,0.40997
1324.13453,0.36754
1322.64474,0.37220
1321.15495,0.35497
1319.66516,0.32810
1318.17537,0.30125
1316.68558,0.28153
1315.19580,0.29536
1313.70601,0.30728
1312.21622,0.25476
1310.72643,0.25900
1309.23664,0.24135
1307.74685,0.28112
1306.25707,0.25450
1304.76728,0.24757
1303.27749,0.24067
1301.78770,0.28635
1300.29791,0.27467
1298.80812,0.19725
1297.31834,0.23721
1295.82855,0.24819
1294.33876,0.27789
1292.84897,0.27795
1291.35918,0.27805
1289.86939,0.26915
1288.37960,0.26027
1286.88982,0.28625
1285.40003,0.30451
1283.91024,0.31119
1282.42045,0.35981
1280.93066,0.31691
1279.44087,0.37784
1277.95109,0.33434
1276.46130,0.33859
1274.97151,0.34093
1273.48172,0.34330
1271.99193,0.37406
1270.50214,0.38680
1269.01235,0.42859
1267.52257,0.42591
1266.03278,0.45614
1264.54299,0.47415
1263.05320,0.47607
1261.56341,0.48254
1260.07362,0.48903
1258.58384,0.49554
1257.09405,0.48726
1255.60426,0.49641
1254.11447,0.54622
1252.62468,0.48450
1251.13489,0.46924
1249.64511,0.45078
1248.15532,0.38980
1246.66553,0.37268
1245.17574,0.35560
1243.68595,0.34048
1242.19616,0.31055
1240.70637,0.29613
1239.21659,0.23338
1237.72680,0.22482
1236.23701,0.19178
1234.74722,0.19682
1233.25743,0.18931
1231.76764,0.18182
1230.27786,0.19855
1228.78807,0.18629
1227.29828,0.14117
1225.80849,0.10446
1224.31870,0.12452
1222.82891,0.12914
1221.33912,0.14087
1219.84934,0.13877
1218.35955,0.13670
1216.86976,0.12724
1215.37997,0.14103
1213.89018,0.13098
1212.40039,0.12741
1210.91061,0.12000
1209.42082,0.10617
1207.93103,0.11461
1206.44124,0.12308
1204.95145,0.06936
1203.46166,0.00406
1201.97188,0.03873
1200.48209,0.01346
1198.99230,0.05205
1197.50251,0.00814
1196.01272,0.01713
1194.52293,0.02808
1193.03314,0.03906
1191.54336,0.03073
1190.05357,0.01597
1188.56378,0.00382
1187.07399,0.03119
1185.58420,0.01602
1184.09441,0.00475
1182.60463,0.01323
1181.11484,0.02173
1179.62505,0.05669
1178.13526,0.06460
1176.64547,0.05320
1175.15568,0.03086
1173.66589,0.04660
1172.17611,0.05913
1170.68632,0.05945
1169.19653,0.05979
1167.70674,0.05565
1166.21695,0.00382
1164.72716,0.05278
1163.23738,0.03021
1161.74759,0.02506
1160.25780,0.04251
1158.76801,0.03453
1157.27822,0.02657
1155.78843,0.02863
1154.29865,0.06554
1152.80886,0.00576
1151.31907,0.04143
1149.82928,0.04876
1148.33949,0.08320
1146.84970,0.05997
1145.35991,0.03676
1143.87013,0.02486
1142.38034,0.09874
1140.89055,0.10818
1139.40076,0.13118
1137.91097,0.15292
1136.42118,0.18372
1134.93140,0.18940
1133.44161,0.19511
1131.95182,0.26854
1130.46203,0.21241
1128.97224,0.27494
1127.48245,0.32074
1125.99266,0.36849
1124.50288,0.38598
1123.01309,0.38447
1121.52330,0.38298
1120.03351,0.42376
1118.54372,0.45038
1117.05393,0.39321
1115.56415,0.39475
1114.07436,0.40533
1112.58457,0.42014
1111.09478,0.43497
1109.60499,0.47917
1108.11520,0.51050
1106.62542,0.48770
1105.13563,0.57325
1103.64584,0.64399
1102.15605,0.71864
1100.66626,0.70304
1099.17647,0.68748
1097.68668,0.73319
1096.19690,0.79698
1094.70711,0.75313
1093.21732,0.82794
1091.72753,0.80800
1090.23774,0.84193
1088.74795,0.87588
1087.25817,0.96435
1085.76838,0.98965
1084.27859,0.99629
1082.78880,1.05582
1081.29901,1.06058
1079.80922,1.07762
1078.31943,1.09629
1076.82965,1.11500
1075.33986,1.22819
1073.85007,1.26790
1072.36028,1.22899
1070.87049,1.26682
1069.38070,1.30275
1067.89092,1.33162
1066.40113,1.36052
1064.91134,1.28435
1063.42155,1.17145
1061.93176,1.09018
1060.44197,1.03085
1058.95219,0.94577
1057.46240,0.92261
1055.97261,0.89947
1054.48282,0.82930
1052.99303,0.77141
1051.50324,0.69678
1050.01345,0.66989
1048.52367,0.63271
1047.03388,0.60394
1045.54409,0.57520
1044.05430,0.51490
1042.56451,0.42174
1041.07472,0.36214
1039.58494,0.37994
1038.09515,0.32490
1036.60536,0.31922
1035.11557,0.31357
1033.62578,0.31342
1032.13599,0.29332
1030.64620,0.26680
1029.15642,0.32089
1027.66663,0.31055
1026.17684,0.30023
1024.68705,0.38665
1023.19726,0.49695
1021.70747,0.65951
1020.21769,0.78793
1018.72790,0.93507
1017.23811,1.00132
1015.74832,1.06760
1014.25853,1.27995
1012.76874,1.39690
1011.27896,1.69247
1009.78917,1.74758
1008.29938,1.86397
1006.80959,1.82952
1005.31980,1.79509
1003.83001,1.64979
1002.34022,1.51549
1000.85044,1.43859
999.36065,1.31401
997.87086,1.28649
996.38107,1.25900
994.89128,1.16804
993.40149,1.20218
991.91171,1.24151
990.42192,1.16868
988.93213,1.15003
987.44234,1.14141
985.95255,1.13282
984.46276,1.10652
982.97297,1.03448
981.48319,0.99470
979.99340,0.94140
978.50361,0.91877
977.01382,0.89616
975.52403,0.89775
974.03424,0.81750
972.54446,0.72501
971.05467,0.68350
969.56488,0.67747
968.07509,0.66244
966.58530,0.64745
965.09551,0.64279
963.60573,0.60335
962.11594,0.63744
960.62615,0.53422
959.13636,0.55547
957.64657,0.57675
956.15678,0.48780
954.66699,0.44466
953.17721,0.46215
951.68742,0.43325
950.19763,0.43178
948.70784,0.43034
947.21805,0.40023
945.72826,0.41142
944.23848,0.45874
942.74869,0.56927
941.25890,0.49544
939.76911,0.54574
938.27932,0.59608
936.78953,0.64161
935.29974,0.62140
933.80996,0.58896
932.32017,0.59525
930.83038,0.59543
929.34059,0.59564
927.85080,0.60781
926.36101,0.57165
924.87123,0.59226
923.38144,0.56002
921.89165,0.56876
920.40186,0.57752
918.91207,0.56149
917.42228,0.56483
915.93250,0.56304
914.44271,0.59867
912.95292,0.59790
911.46313,0.59717
909.97334,0.61483
908.48355,0.61576
906.99376,0.64766
905.50398,0.61770
904.01419,0.59679
902.52440,0.57591
901.03461,0.58472
899.54482,0.57099
898.05503,0.67011
896.56525,0.61904
895.07546,0.64118
893.58567,0.66334
892.09588,0.64266
890.60609,0.66972
889.11630,0.68713
887.62651,0.65751
886.13673,0.66627
884.64694,0.67507
883.15715,0.70742
881.66736,0.72433
880.17757,0.69355
878.68778,0.74082
877.19800,0.78812
875.70821,0.70327
874.21842,0.79382
872.72863,0.85410
871.23884,0.87637
869.74905,0.91961
868.25927,0.96289
866.76948,0.92592
865.27969,0.92766
863.78990,0.96490
862.30011,1.00087
860.81032,1.00882
859.32053,1.01681
857.83075,1.01096
856.34096,0.91164
854.85117,0.86910
853.36138,0.77500
851.87159,0.73057
850.38180,0.68617
848.89202,0.62117
847.40223,0.46336
845.91244,0.39325
844.42265,0.40474
842.93286,0.41626
841.44307,0.40943
839.95329,0.33041
838.46350,0.29978
836.97371,0.34010
835.48392,0.34305
833.99413,0.34603
832.50434,0.30842
831.01455,0.35788
829.52477,0.32935
828.03498,0.28731
826.54519,0.25529
825.05540,0.22330
823.56561,0.19101
822.07582,0.20067
820.58604,0.14200
819.09625,0.13043
817.60646,0.11890
816.11667,0.08030
814.62688,0.10106
813.13709,0.04769
811.64730,0.03820
810.15752,0.02100
808.66773,0.00382
807.17794,0.00349
805.68815,0.03473
804.19836,0.07245
802.70857,0.06957
801.21879,0.06673
799.72900,0.13483
798.23921,0.16299
796.74942,0.25823
795.25963,0.28999
793.76984,0.32178
792.28006,0.37068
790.79027,0.43702
789.30048,0.46277
787.81069,0.51369
786.32090,0.52176
784.83111,0.52987
783.34132,0.48609
781.85154,0.59193
780.36175,0.61140
778.87196,0.60188
777.38217,0.59240
775.89238,0.68867
774.40259,0.71084
772.91281,0.67758
771.42302,0.69560
769.93323,0.71366
768.44344,0.71594
766.95365,0.68989
765.46386,0.74768
763.97407,0.69202
762.48429,0.62478
760.99450,0.55758
759.50471,0.50071
758.01492,0.40132
756.52513,0.35548
755.03534,0.33223
753.54556,0.30900
752.05577,0.17491
750.56598,0.16399
749.07619,0.12280
747.58640,0.10259
746.09661,0.08241
744.60683,0.08773
743.11704,0.06792
741.62725,0.09457
740.13746,0.07644
738.64767,0.05833
737.15788,0.00382
735.66809,0.00615
734.17831,0.05364
732.68852,0.04700
731.19873,0.04038
729.70894,0.05830
728.21915,0.04142
726.72936,0.03618
725.23958,0.04645
723.74979,0.04932
722.26000,0.05222
720.77021,0.04065
719.28042,0.03426
717.79063,0.02081
716.30084,0.03253
714.81106,0.04427
713.32127,0.00382
711.83148,0.03639
710.34169,0.02192
708.85190,0.04423
707.36211,0.06656
705.87233,0.04637
704.38254,0.05264
702.89275,0.04025
701.40296,0.02240
699.91317,0.00458
698.42338,0.07930
696.93360,0.15664
695.44381,0.09861
693.95402,0.10346
692.46423,0.10835
690.97444,0.14582
689.48465,0.17559
687.99486,0.21957
686.50508,0.21909
685.01529,0.21863
683.52550,0.23626
682.03571,0.18944
680.54592,0.22840
679.05613,0.22225
677.56635,0.21614
676.07656,0.17072
674.58677,0.10083
673.09698,0.11607
671.60719,0.12071
670.11740,0.12537
668.62761,0.14844
667.13783,0.11222
665.64804,0.09182
664.15825,0.07145
662.66846,0.08044
661.17867,0.01854
659.68888,0.01470
658.19910,0.03957
656.70931,0.06448
655.21952,0.09038
653.72973,0.15047
652.23994,0.12227
650.75015,0.13987
649.26037,0.15750
647.77058,0.12487
646.28079,0.09742
644.79100,0.09063
643.30121,0.08645
641.81142,0.08230
640.32163,0.06593
638.83185,0.02186
637.34206,0.03971
635.85227,0.03213
634.36248,0.02457
632.87269,0.00382
631.38290,0.00900
629.89312,0.05482
628.40333,0.04264
626.91354,0.03049
625.42375,0.05899
623.93396,0.04109
622.44417,0.04289
620.95438,0.04472
619.46460,0.04173
617.97481,0.05748
616.48502,0.06938
614.99523,0.05681
613.50544,0.04427
612.01565,0.06077
610.52587,0.07988
609.03608,0.08160
607.54629,0.08594
606.05650,0.09030
604.56671,0.11661
603.07692,0.11201
601.58714,0.10582
600.09735,0.09965
598.60756,0.06354
597.11777,0.07903
595.62798,0.05071
594.13819,0.06078
592.64840,0.07087
591.15862,0.04908
589.66883,0.02538
588.17904,0.05201
586.68925,0.03836
585.19946,0.02474
583.70967,0.06370
582.21989,0.09108
580.73010,0.10494
579.24031,0.11884
577.75052,0.08441
576.26073,0.11706
574.77094,0.06205
573.28115,0.07412
571.79137,0.08622
570.30158,0.15058
568.81179,0.19691
567.32200,0.19040
565.83221,0.18392
564.34242,0.24838
562.85264,0.24325
561.36285,0.33872
559.87306,0.33235
558.38327,0.32601
556.89348,0.35064
555.40369,0.33017
553.91391,0.36646
552.42412,0.40279
550.93433,0.41722
549.44454,0.46907
547.95475,0.39974
546.46496,0.43070
544.97517,0.46168
543.48539,0.47625
541.99560,0.51729
540.50581,0.55513
539.01602,0.59299
537.52623,0.52257
536.03644,0.52438
534.54666,0.47013
533.05687,0.45138
531.56708,0.43264
530.07729,0.45843
528.58750,0.40752
527.09771,0.42272
525.60792,0.43795
524.11814,0.37358
522.62835,0.38210
521.13856,0.35389
519.64877,0.34409
518.15898,0.33432
516.66919,0.30877
515.17941,0.23168
513.68962,0.24069
512.19983,0.24972
510.71004,0.23332
509.22025,0.26466
507.73046,0.30505
506.24068,0.33032
504.75089,0.35561
503.26110,0.35482
501.77131,0.35149
500.28152,0.37042
498.79173,0.38938
497.30194,0.29908
495.81216,0.30875
494.32237,0.32199
492.83258,0.33526
491.34279,0.36694
489.85300,0.30451
488.36321,0.26983
486.87343,0.27580
485.38364,0.28179
483.89385,0.26267
482.40406,0.25712
480.91427,0.21839
479.42448,0.17969
477.93469,0.08202
476.44491,0.04628
474.95512,0.04119
473.46533,0.03612
471.97554,0.03722
470.48575,0.03189
468.99596,0.04980
467.50618,0.02680
466.01639,0.00382
464.52660,0.01085
463.03681,0.00888
461.54702,0.02113
460.05723,0.03340
458.56745,0.05988
457.07766,0.03224
455.58787,0.04427
454.09808,0.05633
452.60829,0.12935
451.11850,0.09795
449.62871,0.10623
448.13893,0.11453
446.64914,0.16123
445.15935,0.27759
443.66956,0.34433
442.17977,0.37112
440.68998,0.39794
439.20020,0.41899
437.71041,0.51163
436.22062,0.54370
434.73083,0.57579
433.24104,0.70140
431.75125,0.77481
430.26146,0.82730
428.77168,0.87982
427.28189,1.01457
425.79210,0.98364
424.30231,0.98208
422.81252,0.98055
421.32273,0.96067
419.83295,0.92147
418.34316,0.86909
416.85337,0.81673
415.36358,0.64932
413.87379,0.56962
412.38400,0.53153
410.89422,0.49347
409.40443,0.46801
407.91464,0.44968
406.42485,0.41654
404.93506,0.40857
403.44527,0.40064
401.95548,0.37790
400.46570,0.37647
398.97591,0.33412
397.48612,0.29180
395.99633,0.33172
394.50654,0.37876
393.01675,0.36328
391.52697,0.34783
390.03718,0.34595
388.54739,0.24481
387.05760,0.25684
385.56781,0.26891
384.07802,0.30712
382.58824,0.26347
381.09845,0.25241
379.60866,0.24137
378.11887,0.21070
376.62908,0.17942
375.13929,0.17137
373.64950,0.16335
372.15972,0.13409
370.66993,0.10807
369.18014,0.11206
367.69035,0.11609
366.20056,0.03084
364.71077,0.04878
363.22099,0.05159
361.73120,0.05444
360.24141,0.05377
358.75162,0.09245
357.26183,0.10828
355.77204,0.12413
354.28225,0.09133
352.79247,0.07210
351.30268,0.05096
349.81289,0.02985
348.32310,0.08228
346.83331,0.01932
345.34352,0.01436
343.85374,0.00943
342.36395,0.11253
340.87416,0.07381
339.38437,0.06156
337.89458,0.04933
336.40479,0.08935
334.91501,0.06751
333.42522,0.06374
331.93543,0.06001
330.44564,0.08532
328.95585,0.05972
327.46606,0.06348
325.97627,0.06727
324.48649,0.03918
322.99670,0.06106
321.50691,0.05815
320.01712,0.05527
318.52733,0.07208
317.03754,0.08957
315.54776,0.10257
314.05797,0.11559
312.56818,0.00485
311.07839,0.00660
309.58860,0.00451
308.09881,0.00245
306.60902,0.04795
305.11924,0.03998
303.62945,0.02590
302.13966,0.01185
300.64987,0.04715
299.16008,0.00382
