1778.52000,0.04461
1777.03021,0.03525
1775.54042,0.03613
1774.05063,0.03195
1772.56085,0.08521
1771.07106,0.02628
1769.58127,0.03370
1768.09148,0.00929
1766.60169,0.02318
1765.11190,0.04221
1763.62212,0.05235
1762.13233,0.04213
1760.64254,0.08297
1759.15275,0.06646
1757.66296,0.09845
1756.17317,0.04249
1754.68339,0.08477
1753.19360,0.05057
1751.70381,0.04065
1750.21402,0.04224
1748.72423,0.00944
1747.23444,0.04134
1745.74465,0.07201
1744.25487,0.07211
1742.76508,0.09138
1741.27529,0.07625
1739.78550,0.09561
1738.29571,0.06782
1736.80592,0.07323
1735.31614,0.05062
1733.82635,0.00000
1732.33656,0.03527
1730.84677,0.09609
1729.35698,0.04090
1727.86719,0.05334
1726.37740,0.03521
1724.88762,0.01968
1723.39783,0.00929
1721.90804,0.01970
1720.41825,0.06204
1718.92846,0.09805
1717.43867,0.03334
1715.94889,0.08091
1714.45910,0.08643
1712.96931,0.07159
1711.47952,0.08229
1709.98973,0.08156
1708.49994,0.07450
1707.01016,0.10000
1705.52037,0.12554
1704.03058,0.19130
1702.54079,0.14359
1701.05100,0.15969
1699.56121,0.10314
1698.07142,0.24303
1696.58164,0.15086
1695.09185,0.24874
1693.60206,0.23190
1692.11227,0.23932
1690.62248,0.23148
1689.13269,0.26322
1687.64291,0.25420
1686.15312,0.29240
1684.66333,0.25539
1683.17354,0.31791
1681.68375,0.25931
1680.19396,0.25432
1678.70417,0.22769
1677.21439,0.31460
1675.72460,0.23831
1674.23481,0.24624
1672.74502,0.25421
1671.25523,0.26988
1669.76544,0.28048
1668.27566,0.26817
1666.78587,0.21892
1665.29608,0.28576
1663.80629,0.30291
1662.31650,0.26653
1660.82671,0.21362
1659.33693,0.26023
1657.84714,0.26607
1656.35735,0.22604
1654.86756,0.16947
1653.37777,0.17415
1651.88798,0.13170
1650.39819,0.15177
1648.90841,0.18847
1647.41862,0.18822
1645.92883,0.19503
1644.43904,0.20188
1642.94925,0.23110
1641.45946,0.22974
1639.96968,0.23991
1638.47989,0.18380
1636.99010,0.17875
1635.50031,0.10742
1634.01052,0.18279
1632.52073,0.14598
1631.03094,0.15767
1629.54116,0.13370
1628.05137,0.24877
1626.56158,0.19810
1625.07179,0.23037
1623.58200,0.27415
1622.09221,0.29630
1620.60243,0.24452
1619.11264,0.26292
1617.62285,0.21250
1616.13306,0.26925
1614.64327,0.25462
1613.15348,0.24003
1611.66370,0.16427
1610.17391,0.23521
1608.68412,0.21820
1607.19433,0.23184
1605.70454,0.20216
1604.21475,0.20568
1602.72496,0.20924
1601.23518,0.22942
1599.74539,0.17185
1598.25560,0.16661
1596.76581,0.11550
1595.27602,0.16135
1593.78623,0.15751
1592.29645,0.10780
1590.80666,0.15251
1589.31687,0.14242
1587.82708,0.09156
1586.33729,0.08665
1584.84750,0.13280
1583.35771,0.14711
1581.86793,0.10407
1580.37814,0.14907
1578.88835,0.14310
1577.39856,0.08488
1575.90877,0.08792
1574.41898,0.06422
1572.92920,0.05969
1571.43941,0.00929
1569.94962,0.05233
1568.45983,0.09541
1566.97004,0.10473
1565.48025,0.02355
1563.99047,0.07504
1562.50068,0.07812
1561.01089,0.07231
1559.52110,0.08311
1558.03131,0.12202
1556.54152,0.08573
1555.05173,0.17956
1553.56195,0.12040
1552.07216,0.08168
1550.58237,0.08381
1549.09258,0.13190
1547.60279,0.07672
1546.11300,0.12234
1544.62322,0.17693
1543.13343,0.11423
1541.64364,0.06561
1540.15385,0.04890
1538.66406,0.03224
1537.17427,0.02838
1535.68448,0.02583
1534.19470,0.00929
1532.70491,0.09321
1531.21512,0.09300
1529.72533,0.04310
1528.23554,0.03532
1526.74575,0.02376
1525.25597,0.08110
1523.76618,0.07983
1522.27639,0.07477
1520.78660,0.02512
1519.29681,0.05967
1517.80702,0.04454
1516.31724,0.05750
1514.82745,0.00929
1513.33766,0.04330
1511.84787,0.07736
1510.35808,0.02665
1508.86829,0.09331
1507.37850,0.08222
1505.88872,0.05587
1504.39893,0.05379
1502.90914,0.05558
1501.41935,0.02297
1499.92956,0.01464
1498.43977,0.04461
1496.94999,0.14094
1495.46020,0.16589
1493.97041,0.25975
1492.48062,0.26821
1490.99083,0.32772
1489.50104,0.43319
1488.01125,0.47110
1486.52147,0.50906
1485.03168,0.58149
1483.54189,0.58765
1482.05210,0.67547
1480.56231,0.73782
1479.07252,0.87419
1477.58274,0.95831
1476.09295,1.11899
1474.60316,1.18789
1473.11337,1.34100
1471.62358,1.34112
1470.13379,1.45478
1468.64401,1.30577
1467.15422,1.13002
1465.66443,1.12265
1464.17464,1.11532
1462.68485,1.06468
1461.19506,1.07784
1459.70527,0.99667
1458.21549,0.99844
1456.72570,0.83190
1455.23591,0.86947
1453.74612,0.81907
1452.25633,0.81973
1450.76654,0.77070
1449.27676,0.72808
1447.78697,0.76585
1446.29718,0.66975
1444.80739,0.60941
1443.31760,0.54910
1441.82781,0.55899
1440.33802,0.41970
1438.84824,0.41563
1437.35845,0.31086
1435.86866,0.33749
1434.37887,0.30039
1432.88908,0.30415
1431.39929,0.31687
1429.90951,0.26332
1428.41972,0.25317
1426.92993,0.26220
1425.44014,0.32738
1423.95035,0.38367
1422.46056,0.44001
1420.97078,0.36630
1419.48099,0.45333
1417.99120,0.35420
1416.50141,0.40816
1415.01162,0.35248
1413.52183,0.40651
1412.03204,0.38152
1410.54226,0.37060
1409.05247,0.32274
1407.56268,0.38204
1406.07289,0.39548
1404.58310,0.40513
1403.09331,0.41483
1401.60353,0.36207
1400.11374,0.43817
1398.62395,0.44671
1397.13416,0.43999
1395.64437,0.46137
1394.15458,0.46749
1392.66479,0.45197
1391.17501,0.48878
1389.68522,0.49120
1388.19543,0.40822
1386.70564,0.41263
1385.21585,0.41709
1383.72606,0.38779
1382.23628,0.36874
1380.74649,0.38799
1379.25670,0.37030
1377.76691,0.39473
1376.27712,0.43579
1374.78733,0.47561
1373.29755,0.61240
1371.80776,0.62935
1370.31797,0.66292
1368.82818,0.74946
1367.33839,0.83604
1365.84860,0.93477
1364.35881,1.10242
1362.86903,1.20889
1361.37924,1.27460
1359.88945,1.36075
1358.39966,1.34620
1356.90987,1.48217
1355.42008,1.42816
1353.93030,1.46985
1352.44051,1.38659
1350.95072,1.30337
1349.46093,1.28524
1347.97114,1.27608
1346.48135,1.08587
1344.99156,0.93650
1343.50178,0.85477
1342.01199,0.75013
1340.52220,0.73480
1339.03241,0.62259
1337.54262,0.53338
1336.05283,0.62402
1334.56305,0.71471
1333.07326,0.62435
1331.58347,0.59652
1330.09368,0.44630
1328.60389,0.50017
1327.11410,0.48649
1325.62432,0.54428
1324.13453,0.50263
1322.64474,0.51586
1321.15495,0.44241
1319.66516,0.44807
1318.17537,0.45377
1316.68558,0.34602
1315.19580,0.48954
1313.70601,0.41757
1312.21622,0.34820
1310.72643,0.42553
1309.23664,0.37665
1307.74685,0.29592
1306.25707,0.36955
1304.76728,0.33929
1303.27749,0.30906
1301.78770,0.27314
1300.29791,0.24109
1298.80812,0.31493
1297.31834,0.26766
1295.82855,0.38367
1294.33876,0.33138
1292.84897,0.37223
1291.35918,0.32512
1289.86939,0.35776
1288.37960,0.39045
1286.88982,0.33964
1285.40003,0.40493
1283.91024,0.40650
1282.42045,0.44891
1280.93066,0.45949
1279.44087,0.45991
1277.95109,0.55474
1276.46130,0.47234
1274.97151,0.46013
1273.48172,0.44796
1271.99193,0.54424
1270.50214,0.47476
1269.01235,0.55454
1267.52257,0.60885
1266.03278,0.64791
1264.54299,0.63216
1263.05320,0.70446
1261.56341,0.72068
1260.07362,0.73694
1258.58384,0.78386
1257.09405,0.65482
1255.60426,0.71584
1254.11447,0.73100
1252.62468,0.68243
1251.13489,0.65048
1249.64511,0.70658
1248.15532,0.55611
1246.66553,0.50962
1245.17574,0.46318
1243.68595,0.45312
1242.19616,0.52090
1240.70637,0.43951
1239.21659,0.45636
1237.72680,0.32786
1236.23701,0.30526
1234.74722,0.29163
1233.25743,0.28952
1231.76764,0.28745
1230.27786,0.24589
1228.78807,0.34465
1227.29828,0.30700
1225.80849,0.24898
1224.31870,0.20886
1222.82891,0.19174
1221.33912,0.23204
1219.84934,0.23924
1218.35955,0.24647
1216.86976,0.20911
1215.37997,0.27764
1213.89018,0.29265
1212.40039,0.24394
1210.91061,0.22588
1209.42082,0.27162
1207.93103,0.24153
1206.44124,0.21147
1204.95145,0.26755
1203.46166,0.06095
1201.97188,0.12731
1200.48209,0.14014
1198.99230,0.10711
1197.50251,0.08560
1196.01272,0.00929
1194.52293,0.03182
1193.03314,0.05439
1191.54336,0.05468
1190.05357,0.08180
1188.56378,0.10513
1187.07399,0.01627
1185.58420,0.01929
1184.09441,0.03509
1182.60463,0.06051
1181.11484,0.08596
1179.62505,0.10954
1178.13526,0.09491
1176.64547,0.16321
1175.15568,0.14356
1173.66589,0.07677
1172.17611,0.09418
1170.68632,0.06637
1169.19653,0.03859
1167.70674,0.13265
1166.21695,0.10688
1164.72716,0.07221
1163.23738,0.13452
1161.74759,0.07316
1160.25780,0.00929
1158.76801,0.02953
1157.27822,0.04982
1155.78843,0.07269
1154.29865,0.10964
1152.80886,0.01910
1151.31907,0.18366
1149.82928,0.17227
1148.33949,0.19664
1146.84970,0.15345
1145.35991,0.11030
1143.87013,0.11694
1142.38034,0.12616
1140.89055,0.22087
1139.40076,0.29012
1137.91097,0.27779
1136.42118,0.26041
1134.93140,0.27494
1133.44161,0.28952
1131.95182,0.35643
1130.46203,0.33538
1128.97224,0.38324
1127.48245,0.29086
1125.99266,0.41660
1124.50288,0.53856
1123.01309,0.55152
1121.52330,0.56452
1120.03351,0.54249
1118.54372,0.44781
1117.05393,0.52406
1115.56415,0.52001
1114.07436,0.59252
1112.58457,0.60641
1111.09478,0.62034
1109.60499,0.64579
1108.11520,0.63558
1106.62542,0.68789
1105.13563,0.75300
1103.64584,0.81561
1102.15605,0.92161
1100.66626,0.93392
1099.17647,0.94628
1097.68668,0.93380
1096.19690,1.02977
1094.70711,0.95744
1093.21732,1.04202
1091.72753,1.11261
1090.23774,1.10034
1088.74795,1.08812
1087.25817,1.33738
1085.76838,1.33034
1084.27859,1.30421
1082.78880,1.41969
1081.29901,1.27377
1079.80922,1.15977
1078.31943,1.21862
1076.82965,1.27752
1075.33986,1.46207
1073.85007,1.53061
1072.36028,1.47804
1070.87049,1.42296
1069.38070,1.51458
1067.89092,1.51251
1066.40113,1.51048
1064.91134,1.48235
1063.42155,1.36626
1061.93176,1.26041
1060.44197,1.16354
1058.95219,1.11645
1057.46240,1.12615
1055.97261,1.13589
1054.48282,1.08764
1052.99303,1.03306
1051.50324,0.90073
1050.01345,0.73528
1048.52367,0.65915
1047.03388,0.68253
1045.54409,0.70596
1044.05430,0.70902
1042.56451,0.68917
1041.07472,0.57626
1039.58494,0.49910
1038.09515,0.48065
1036.60536,0.45587
1035.11557,0.43112
1033.62578,0.39494
1032.13599,0.36008
1030.64620,0.38775
1029.15642,0.37465
1027.66663,0.41133
1026.17684,0.44805
1024.68705,0.49502
1023.19726,0.64788
1021.70747,0.77017
1020.21769,0.92567
1018.72790,1.12839
1017.23811,1.17366
1015.74832,1.21896
1014.25853,1.47027
1012.76874,1.63108
1011.27896,1.83529
1009.78917,2.00000
1008.29938,1.95050
1006.80959,1.94313
1005.31980,1.93581
1003.83001,1.74488
1002.34022,1.57184
1000.85044,1.40522
999.36065,1.40189
997.87086,1.39668
996.38107,1.39152
994.89128,1.39341
993.40149,1.50758
991.91171,1.39350
990.42192,1.28201
988.93213,1.25474
987.44234,1.32125
985.95255,1.38780
984.46276,1.37213
982.97297,1.41134
981.48319,1.38172
979.99340,1.25395
978.50361,1.24929
977.01382,1.24467
975.52403,1.19227
974.03424,1.05702
972.54446,1.03531
971.05467,1.06083
969.56488,1.02645
968.07509,1.02973
966.58530,1.03306
965.09551,0.98732
963.60573,0.98755
962.11594,0.97761
960.62615,0.92052
959.13636,0.83479
957.64657,0.74909
956.15678,0.76738
954.66699,0.59440
953.17721,0.71225
951.68742,0.72428
950.19763,0.72998
948.70784,0.73572
947.21805,0.67902
945.72826,0.65678
944.23848,0.70091
942.74869,0.71320
941.25890,0.62605
939.76911,0.71685
938.27932,0.80769
936.78953,0.87116
935.29974,0.89003
933.80996,0.78269
932.32017,0.74170
930.83038,0.82765
929.34059,0.91365
927.85080,0.73250
926.36101,0.77331
924.87123,0.74528
923.38144,0.70583
921.89165,0.74867
920.40186,0.79155
918.91207,0.76114
917.42228,0.80858
915.93250,0.88538
914.44271,0.89974
912.95292,0.87524
911.46313,0.85078
909.97334,0.92903
908.48355,0.96523
906.99376,0.95174
905.50398,0.93957
904.01419,0.86686
902.52440,0.79419
901.03461,0.83188
899.54482,1.00097
898.05503,0.94309
896.56525,1.12119
895.07546,1.11122
893.58567,1.10130
892.09588,1.05124
890.60609,1.10707
889.11630,0.96273
887.62651,1.00207
886.13673,0.98534
884.64694,0.96865
883.15715,0.97368
881.66736,0.99534
880.17757,0.97877
878.68778,1.02474
877.19800,1.07075
875.70821,1.04539
874.21842,1.09786
872.72863,1.14910
871.23884,1.09962
869.74905,1.07251
868.25927,1.04544
866.76948,1.05859
865.27969,1.06157
863.78990,1.18321
862.30011,1.11613
860.81032,1.12626
859.32053,1.13642
857.83075,1.13707
856.34096,1.13393
854.85117,1.10405
853.36138,0.90587
851.87159,0.84865
850.38180,0.79147
848.89202,0.62275
847.40223,0.39286
845.91244,0.40786
844.42265,0.44013
842.93286,0.47244
841.44307,0.43273
839.95329,0.42622
838.46350,0.39043
836.97371,0.38273
835.48392,0.41142
833.99413,0.44015
832.50434,0.36116
831.01455,0.50795
829.52477,0.57443
828.03498,0.34125
826.54519,0.30069
825.05540,0.26017
823.56561,0.25540
822.07582,0.29020
820.58604,0.23323
819.09625,0.20180
817.60646,0.17042
816.11667,0.13397
814.62688,0.16516
813.13709,0.15814
811.64730,0.08866
810.15752,0.05493
808.66773,0.02125
807.17794,0.00929
805.68815,0.06583
804.19836,0.09563
802.70857,0.11973
801.21879,0.14388
799.72900,0.14065
798.23921,0.22291
796.74942,0.39830
795.25963,0.41815
793.76984,0.43804
792.28006,0.45670
790.79027,0.50601
789.30048,0.60127
787.81069,0.65449
786.32090,0.69563
784.83111,0.73681
783.34132,0.80036
781.85154,0.92771
780.36175,0.81280
778.87196,0.74511
777.38217,0.67747
775.89238,0.85855
774.40259,0.86113
772.91281,0.88161
771.42302,0.89129
769.93323,0.90101
768.44344,0.96752
766.95365,0.96904
765.46386,1.01906
763.97407,0.85614
762.48429,0.78509
760.99450,0.71408
759.50471,0.72345
758.01492,0.67038
756.52513,0.57272
755.03534,0.48083
753.54556,0.38898
752.05577,0.27231
750.56598,0.19905
749.07619,0.12582
747.58640,0.12023
746.09661,0.11468
744.60683,0.02627
743.11704,0.05396
741.62725,0.07277
740.13746,0.06739
738.64767,0.06205
737.15788,0.04654
735.66809,0.09613
734.17831,0.00929
732.68852,0.05402
731.19873,0.09879
729.70894,0.11108
728.21915,0.05072
726.72936,0.06054
725.23958,0.10229
723.74979,0.08032
722.26000,0.05839
720.77021,0.09516
719.28042,0.14983
717.79063,0.04513
716.30084,0.07374
714.81106,0.10239
713.32127,0.00929
711.83148,0.04456
710.34169,0.01228
708.85190,0.07059
707.36211,0.12894
705.87233,0.08914
704.38254,0.00984
702.89275,0.03006
701.40296,0.09942
699.91317,0.16882
698.42338,0.14835
696.93360,0.11263
695.44381,0.14198
693.95402,0.19370
692.46423,0.24545
690.97444,0.11297
689.48465,0.23559
687.99486,0.24857
686.50508,0.26734
685.01529,0.28615
683.52550,0.33114
682.03571,0.31879
680.54592,0.26056
679.05613,0.25850
677.56635,0.25647
676.07656,0.14481
674.58677,0.14414
673.09698,0.05680
671.60719,0.09639
670.11740,0.13602
668.62761,0.13934
667.13783,0.08915
665.64804,0.07662
664.15825,0.06413
662.66846,0.10206
661.17867,0.09412
659.68888,0.16528
658.19910,0.17337
656.70931,0.18149
655.21952,0.23111
653.72973,0.22848
652.23994,0.24757
650.75015,0.19592
649.26037,0.14432
647.77058,0.20945
646.28079,0.13433
644.79100,0.05671
643.30121,0.07669
641.81142,0.09671
640.32163,0.08680
638.83185,0.01190
637.34206,0.04840
635.85227,0.02882
634.36248,0.00929
632.87269,0.04730
631.38290,0.09301
629.89312,0.05841
628.40333,0.08252
626.91354,0.10668
625.42375,0.15765
623.93396,0.17934
622.44417,0.20553
620.95438,0.23176
619.46460,0.13497
617.97481,0.09560
616.48502,0.11622
614.99523,0.09416
613.50544,0.07214
612.01565,0.06100
610.52587,0.04736
609.03608,0.06436
607.54629,0.11966
606.05650,0.17501
604.56671,0.26100
603.07692,0.20548
601.58714,0.20739
600.09735,0.20934
598.60756,0.16542
597.11777,0.12792
595.62798,0.11852
594.13819,0.06388
592.64840,0.00929
591.15862,0.06232
589.66883,0.08735
588.17904,0.12516
586.68925,0.13879
585.19946,0.15245
583.70967,0.15341
582.21989,0.18629
580.73010,0.20136
579.24031,0.21647
577.75052,0.23800
576.26073,0.14479
574.77094,0.11284
573.28115,0.17467
571.79137,0.23654
570.30158,0.18558
568.81179,0.26348
567.32200,0.25852
565.83221,0.25360
564.34242,0.40814
562.85264,0.35867
561.36285,0.48523
559.87306,0.46901
558.38327,0.45282
556.89348,0.49662
555.40369,0.61570
553.91391,0.61367
552.42412,0.61167
550.93433,0.60973
549.44454,0.69837
547.95475,0.59575
546.46496,0.63347
544.97517,0.67122
543.48539,0.70391
541.99560,0.81955
540.50581,0.81343
539.01602,0.80735
537.52623,0.80195
536.03644,0.76344
534.54666,0.71094
533.05687,0.71204
531.56708,0.71319
530.07729,0.64296
528.58750,0.55747
527.09771,0.62378
525.60792,0.69014
524.11814,0.58182
522.62835,0.61382
521.13856,0.43417
519.64877,0.50834
518.15898,0.58256
516.66919,0.50760
515.17941,0.48498
513.68962,0.43944
512.19983,0.39395
510.71004,0.44542
509.22025,0.35664
507.73046,0.48472
506.24068,0.51144
504.75089,0.53821
503.26110,0.53250
501.77131,0.50260
500.28152,0.45106
498.79173,0.39957
497.30194,0.38255
495.81216,0.40000
494.32237,0.42388
492.83258,0.44779
491.34279,0.50746
489.85300,0.37970
488.36321,0.42669
486.87343,0.37426
485.38364,0.32186
483.89385,0.42382
482.40406,0.27714
480.91427,0.22678
479.42448,0.17647
477.93469,0.11153
476.44491,0.11040
474.95512,0.13482
473.46533,0.15928
471.97554,0.13660
470.48575,0.15221
468.99596,0.21506
467.50618,0.11215
466.01639,0.00929
464.52660,0.02331
463.03681,0.15215
461.54702,0.14266
460.05723,0.13321
458.56745,0.04282
457.07766,0.09276
455.58787,0.13955
454.09808,0.18639
452.60829,0.12677
451.11850,0.28656
449.62871,0.31821
448.13893,0.34991
446.64914,0.41162
445.15935,0.43256
443.66956,0.55557
442.17977,0.54917
440.68998,0.54282
439.20020,0.69274
437.71041,0.67818
436.22062,0.68598
434.73083,0.69382
433.24104,0.88727
431.75125,1.17258
430.26146,1.19967
428.77168,1.22681
427.28189,1.34008
425.79210,1.58220
424.30231,1.49978
422.81252,1.41742
421.32273,1.50407
419.83295,1.24770
418.34316,1.22603
416.85337,1.20441
415.36358,0.95199
413.87379,0.73278
412.38400,0.77505
410.89422,0.81736
409.40443,0.71815
407.91464,0.62918
406.42485,0.59510
404.93506,0.62354
403.44527,0.65203
401.95548,0.56196
400.46570,0.53697
398.97591,0.54008
397.48612,0.54323
395.99633,0.62294
394.50654,0.62363
393.01675,0.61861
391.52697,0.61364
390.03718,0.46269
388.54739,0.42018
387.05760,0.42490
385.56781,0.42966
384.07802,0.49823
382.58824,0.53241
381.09845,0.50541
379.60866,0.47846
378.11887,0.42604
376.62908,0.38897
375.13929,0.32898
373.64950,0.26903
372.15972,0.22316
370.66993,0.31889
369.18014,0.26799
367.69035,0.21714
366.20056,0.10002
364.71077,0.21632
363.22099,0.25614
361.73120,0.29601
360.24141,0.26067
358.75162,0.30572
357.26183,0.32913
355.77204,0.35258
354.28225,0.31231
352.79247,0.20449
351.30268,0.15283
349.81289,0.10120
348.32310,0.13762
346.83331,0.20086
345.34352,0.11620
343.85374,0.03159
342.36395,0.33183
340.87416,0.26609
339.38437,0.24248
337.89458,0.21891
336.40479,0.27701
334.91501,0.27648
333.42522,0.25941
331.93543,0.24239
330.44564,0.18715
328.95585,0.10772
327.46606,0.08125
325.97627,0.05483
324.48649,0.11351
322.99670,0.20284
321.50691,0.19720
320.01712,0.19160
318.52733,0.32059
317.03754,0.25323
315.54776,0.23691
314.05797,0.22064
312.56818,0.00929
311.07839,0.04177
309.58860,0.05070
308.09881,0.05967
306.60902,0.06039
305.11924,0.05351
303.62945,0.10660
302.13966,0.15974
300.64987,0.01652
299.16008,0.00929
