1778.52000,0.03548
1777.03021,0.06805
1775.54042,0.03950
1774.05063,0.07290
1772.56085,0.05912
1771.07106,0.05621
1769.58127,0.06263
1768.09148,0.02573
1766.60169,0.00589
1765.11190,0.02091
1763.62212,0.00501
1762.13233,0.03558
1760.64254,0.04451
1759.15275,0.03877
1757.66296,0.03229
1756.17317,0.03048
1754.68339,0.04806
1753.19360,0.05561
1751.70381,0.01984
1750.21402,0.01894
1748.72423,0.06142
1747.23444,0.02421
1745.74465,0.03037
1744.25487,0.03812
1742.76508,0.04976
1741.27529,0.03203
1739.78550,0.06542
1738.29571,0.01757
1736.80592,0.02548
1735.31614,0.01407
1733.82635,0.03133
1732.33656,0.01922
1730.84677,0.04351
1729.35698,0.02991
1727.86719,0.03183
1726.37740,0.00823
1724.88762,0.03034
1723.39783,0.00217
1721.90804,0.01366
1720.41825,0.01977
1718.92846,0.00501
1717.43867,0.03499
1715.94889,0.03017
1714.45910,0.01378
1712.96931,0.06553
1711.47952,0.07242
1709.98973,0.06619
1708.49994,0.05457
1707.01016,0.07897
1705.52037,0.10341
1704.03058,0.09731
1702.54079,0.11368
1701.05100,0.11307
1699.56121,0.12951
1698.07142,0.11812
1696.58164,0.12844
1695.09185,0.15349
1693.60206,0.16233
1692.11227,0.17971
1690.62248,0.19944
1689.13269,0.21379
1687.64291,0.22353
1686.15312,0.20389
1684.66333,0.23228
1683.17354,0.22276
1681.68375,0.23573
1680.19396,0.23015
1678.70417,0.19984
1677.21439,0.21136
1675.72460,0.23220
1674.23481,0.19889
1672.74502,0.19812
1671.25523,0.21519
1669.76544,0.23151
1668.27566,0.23626
1666.78587,0.18067
1665.29608,0.19168
1663.80629,0.21588
1662.31650,0.20528
1660.82671,0.19626
1659.33693,0.17643
1657.84714,0.18296
1656.35735,0.16707
1654.86756,0.15045
1653.37777,0.14624
1651.88798,0.13432
1650.39819,0.17662
1648.90841,0.14464
1647.41862,0.13282
1645.92883,0.13342
1644.43904,0.13405
1642.94925,0.10607
1641.45946,0.15244
1639.96968,0.14078
1638.47989,0.14851
1636.99010,0.12376
1635.50031,0.14162
1634.01052,0.14171
1632.52073,0.12557
1631.03094,0.14740
1629.54116,0.12204
1628.05137,0.17180
1626.56158,0.15657
1625.07179,0.20639
1623.58200,0.23303
1622.09221,0.20551
1620.60243,0.22370
1619.11264,0.21173
1617.62285,0.20289
1616.13306,0.19099
1614.64327,0.17602
1613.15348,0.19050
1611.66370,0.16554
1610.17391,0.18164
1608.68412,0.18693
1607.19433,0.17987
1605.70454,0.15658
1604.21475,0.15849
1602.72496,0.16043
1601.23518,0.11093
1599.74539,0.17292
1598.25560,0.11884
1596.76581,0.12671
1595.27602,0.13772
1593.78623,0.11547
1592.29645,0.10487
1590.80666,0.11598
1589.31687,0.07293
1587.82708,0.10035
1586.33729,0.08988
1584.84750,0.07635
1583.35771,0.06517
1581.86793,0.05557
1580.37814,0.06536
1578.88835,0.09453
1577.39856,0.08658
1575.90877,0.07711
1574.41898,0.04600
1572.92920,0.04821
1571.43941,0.03730
1569.94962,0.03261
1568.45983,0.02795
1566.97004,0.05274
1565.48025,0.05047
1563.99047,0.00953
1562.50068,0.05144
1561.01089,0.04540
1559.52110,0.05255
1558.03131,0.05432
1556.54152,0.05147
1555.05173,0.04014
1553.56195,0.10470
1552.07216,0.08493
1550.58237,0.06828
1549.09258,0.05940
1547.60279,0.08075
1546.11300,0.04485
1544.62322,0.06549
1543.13343,0.08074
1541.64364,0.04416
1540.15385,0.04439
1538.66406,0.04465
1537.17427,0.06777
1535.68448,0.00501
1534.19470,0.06191
1532.70491,0.00971
1531.21512,0.04424
1529.72533,0.03700
1528.23554,0.01663
1526.74575,0.02803
1525.25597,0.04643
1523.76618,0.03778
1522.27639,0.03535
1520.78660,0.03295
1519.29681,0.00891
1517.80702,0.04218
1516.31724,0.01975
1514.82745,0.04458
1513.33766,0.04428
1511.84787,0.04401
1510.35808,0.01398
1508.86829,0.00255
1507.37850,0.01318
1505.88872,0.01223
1504.39893,0.04150
1502.90914,0.00501
1501.41935,0.06707
1499.92956,0.06492
1498.43977,0.06590
1496.94999,0.11335
1495.46020,0.15077
1493.97041,0.16114
1492.48062,0.21334
1490.99083,0.29653
1489.50104,0.31086
1488.01125,0.35890
1486.52147,0.40697
1485.03168,0.48952
1483.54189,0.54888
1482.05210,0.58118
1480.56231,0.66150
1479.07252,0.79372
1477.58274,0.88727
1476.09295,0.95608
1474.60316,1.03422
1473.11337,1.09304
1471.62358,1.10002
1470.13379,1.19374
1468.64401,1.11487
1467.15422,1.03914
1465.66443,1.00098
1464.17464,0.96285
1462.68485,0.92824
1461.19506,0.90062
1459.70527,0.86376
1458.21549,0.78822
1456.72570,0.73129
1455.23591,0.72239
1453.74612,0.62760
1452.25633,0.65049
1450.76654,0.60686
1449.27676,0.57796
1447.78697,0.54677
1446.29718,0.49162
1444.80739,0.48024
1443.31760,0.46889
1441.82781,0.38675
1440.33802,0.33637
1438.84824,0.23804
1437.35845,0.27443
1435.86866,0.20171
1434.37887,0.20100
1432.88908,0.21813
1431.39929,0.23994
1429.90951,0.18748
1428.41972,0.18381
1426.92993,0.23823
1425.44014,0.24314
1423.95035,0.26240
1422.46056,0.28170
1420.97078,0.26117
1419.48099,0.30801
1417.99120,0.25503
1416.50141,0.26866
1415.01162,0.27148
1413.52183,0.28285
1412.03204,0.28264
1410.54226,0.27859
1409.05247,0.25909
1407.56268,0.28220
1406.07289,0.26587
1404.58310,0.25576
1403.09331,0.24569
1401.60353,0.31072
1400.11374,0.31542
1398.62395,0.33563
1397.13416,0.35433
1395.64437,0.37615
1394.15458,0.43981
1392.66479,0.46789
1391.17501,0.50143
1389.68522,0.48158
1388.19543,0.48113
1386.70564,0.47141
1385.21585,0.46173
1383.72606,0.42422
1382.23628,0.41073
1380.74649,0.36555
1379.25670,0.38928
1377.76691,0.38286
1376.27712,0.42524
1374.78733,0.50248
1373.29755,0.57511
1371.80776,0.69963
1370.31797,0.74911
1368.82818,0.84003
1367.33839,0.93098
1365.84860,1.07886
1364.35881,1.20819
1362.86903,1.28879
1361.37924,1.35394
1359.88945,1.43229
1358.39966,1.59813
1356.90987,1.66416
1355.42008,1.60869
1353.93030,1.53933
1352.44051,1.50676
1350.95072,1.47423
1349.46093,1.35620
1347.97114,1.21576
1346.48135,1.07457
1344.99156,0.96438
1343.50178,0.84648
1342.01199,0.82924
1340.52220,0.67038
1339.03241,0.62302
1337.54262,0.59736
1336.05283,0.55742
1334.56305,0.51751
1333.07326,0.51362
1331.58347,0.47416
1330.09368,0.46493
1328.60389,0.45495
1327.11410,0.37843
1325.62432,0.38323
1324.13453,0.35477
1322.64474,0.34957
1321.15495,0.34285
1319.66516,0.33539
1318.17537,0.32796
1316.68558,0.32754
1315.19580,0.31011
1313.70601,0.27415
1312.21622,0.30787
1310.72643,0.29210
1309.23664,0.28022
1307.74685,0.29857
1306.25707,0.24187
1304.76728,0.24635
1303.27749,0.25086
1301.78770,0.29953
1300.29791,0.24451
1298.80812,0.25221
1297.31834,0.23441
1295.82855,0.25921
1294.33876,0.25231
1292.84897,0.25706
1291.35918,0.31524
1289.86939,0.28445
1288.37960,0.25368
1286.88982,0.28565
1285.40003,0.33700
1283.91024,0.29550
1282.42045,0.34846
1280.93066,0.29464
1279.44087,0.35386
1277.95109,0.32333
1276.46130,0.37642
1274.97151,0.35989
1273.48172,0.34339
1271.99193,0.44070
1270.50214,0.45677
1269.01235,0.45121
1267.52257,0.45186
1266.03278,0.44249
1264.54299,0.51288
1263.05320,0.46642
1261.56341,0.47998
1260.07362,0.49358
1258.58384,0.57803
1257.09405,0.51467
1255.60426,0.54423
1254.11447,0.57073
1252.62468,0.51212
1251.13489,0.52088
1249.64511,0.54825
1248.15532,0.41078
1246.66553,0.41422
1245.17574,0.41769
1243.68595,0.33993
1242.19616,0.38449
1240.70637,0.34007
1239.21659,0.33981
1237.72680,0.25443
1236.23701,0.21089
1234.74722,0.23858
1233.25743,0.20633
1231.76764,0.17411
1230.27786,0.22667
1228.78807,0.19800
1227.29828,0.21038
1225.80849,0.12914
1224.31870,0.09901
1222.82891,0.11614
1221.33912,0.08453
1219.84934,0.10173
1218.35955,0.11895
1216.86976,0.14550
1215.37997,0.19530
1213.89018,0.20952
1212.40039,0.17889
1210.91061,0.16841
1209.42082,0.13552
1207.93103,0.12279
1206.44124,0.11009
1204.95145,0.13225
1203.46166,0.10878
1201.97188,0.05206
1200.48209,0.05265
1198.99230,0.07572
1197.50251,0.04774
1196.01272,0.03372
1194.52293,0.01935
1193.03314,0.00501
1191.54336,0.00912
1190.05357,0.04035
1188.56378,0.04762
1187.07399,0.03170
1185.58420,0.01426
1184.09441,0.02318
1182.60463,0.05690
1181.11484,0.09065
1179.62505,0.04006
1178.13526,0.02976
1176.64547,0.03419
1175.15568,0.01544
1173.66589,0.04007
1172.17611,0.06550
1170.68632,0.03524
1169.19653,0.00501
1167.70674,0.01376
1166.21695,0.02177
1164.72716,0.04607
1163.23738,0.00616
1161.74759,0.01659
1160.25780,0.03479
1158.76801,0.02981
1157.27822,0.02486
1155.78843,0.07258
1154.29865,0.06150
1152.80886,0.03033
1151.31907,0.00926
1149.82928,0.00912
1148.33949,0.04307
1146.84970,0.07589
1145.35991,0.10874
1143.87013,0.00501
1142.38034,0.06684
1140.89055,0.10858
1139.40076,0.13410
1137.91097,0.14108
1136.42118,0.15660
1134.93140,0.16015
1133.44161,0.16374
1131.95182,0.24284
1130.46203,0.27397
1128.97224,0.25173
1127.48245,0.30847
1125.99266,0.32035
1124.50288,0.36168
1123.01309,0.34267
1121.52330,0.32369
1120.03351,0.35737
1118.54372,0.37484
1117.05393,0.43413
1115.56415,0.41219
1114.07436,0.47465
1112.58457,0.45702
1111.09478,0.43943
1109.60499,0.53295
1108.11520,0.55220
1106.62542,0.52116
1105.13563,0.62871
1103.64584,0.65424
1102.15605,0.77811
1100.66626,0.76849
1099.17647,0.75891
1097.68668,0.81321
1096.19690,0.92483
1094.70711,0.83445
1093.21732,0.86641
1091.72753,0.94484
1090.23774,0.95364
1088.74795,0.96248
1087.25817,1.04178
1085.76838,1.06152
1084.27859,1.04955
1082.78880,1.16533
1081.29901,1.21845
1079.80922,1.16943
1078.31943,1.18043
1076.82965,1.19146
1075.33986,1.33450
1073.85007,1.34444
1072.36028,1.31958
1070.87049,1.36209
1069.38070,1.39844
1067.89092,1.38374
1066.40113,1.36907
1064.91134,1.39624
1063.42155,1.22915
1061.93176,1.18362
1060.44197,1.10716
1058.95219,1.03460
1057.46240,0.98762
1055.97261,0.94068
1054.48282,0.90770
1052.99303,0.83605
1051.50324,0.78920
1050.01345,0.75786
1048.52367,0.62284
1047.03388,0.59002
1045.54409,0.55724
1044.05430,0.56861
1042.56451,0.44842
1041.07472,0.40800
1039.58494,0.39547
1038.09515,0.35743
1036.60536,0.37051
1035.11557,0.38363
1033.62578,0.39213
1032.13599,0.38828
1030.64620,0.31558
1029.15642,0.35437
1027.66663,0.36881
1026.17684,0.38328
1024.68705,0.44926
1023.19726,0.51991
1021.70747,0.71135
1020.21769,0.86644
1018.72790,1.05253
1017.23811,1.13957
1015.74832,1.22665
1014.25853,1.39426
1012.76874,1.68497
1011.27896,1.80311
1009.78917,1.95998
1008.29938,2.00000
1006.80959,1.98471
1005.31980,1.96946
1003.83001,1.79749
1002.34022,1.74631
1000.85044,1.59222
999.36065,1.50240
997.87086,1.47106
996.38107,1.43974
994.89128,1.35699
993.40149,1.39580
991.91171,1.43541
990.42192,1.38294
988.93213,1.37076
987.44234,1.32649
985.95255,1.28225
984.46276,1.34369
982.97297,1.29139
981.48319,1.25770
979.99340,1.14432
978.50361,1.19816
977.01382,1.25203
975.52403,1.15035
974.03424,1.03555
972.54446,1.00128
971.05467,1.01426
969.56488,0.92123
968.07509,0.93389
966.58530,0.94659
965.09551,0.85133
963.60573,0.84900
962.11594,0.82889
960.62615,0.83823
959.13636,0.78220
957.64657,0.72620
956.15678,0.64275
954.66699,0.65842
953.17721,0.69424
951.68742,0.68211
950.19763,0.63788
948.70784,0.59369
947.21805,0.57236
945.72826,0.56268
944.23848,0.55613
942.74869,0.62315
941.25890,0.63756
939.76911,0.67909
938.27932,0.72066
936.78953,0.81180
935.29974,0.83951
933.80996,0.73875
932.32017,0.74640
930.83038,0.74169
929.34059,0.73701
927.85080,0.78346
926.36101,0.79742
924.87123,0.72086
923.38144,0.76973
921.89165,0.77876
920.40186,0.78783
918.91207,0.74391
917.42228,0.73330
915.93250,0.77614
914.44271,0.77644
912.95292,0.77212
911.46313,0.76784
909.97334,0.76901
908.48355,0.85459
906.99376,0.79777
905.50398,0.81452
904.01419,0.80576
902.52440,0.79703
901.03461,0.83633
899.54482,0.82302
898.05503,0.76718
896.56525,0.89017
895.07546,0.92766
893.58567,0.96518
892.09588,0.92650
890.60609,0.91107
889.11630,0.94444
887.62651,0.86870
886.13673,0.89013
884.64694,0.91160
883.15715,0.97683
881.66736,0.92986
880.17757,0.92550
878.68778,0.92542
877.19800,0.92538
875.70821,0.88551
874.21842,0.94785
872.72863,1.00170
871.23884,1.03469
869.74905,1.04178
868.25927,1.04890
866.76948,1.06031
865.27969,1.04235
863.78990,1.13897
862.30011,1.17215
860.81032,1.18060
859.32053,1.18908
857.83075,1.18211
856.34096,1.11790
854.85117,1.00031
853.36138,0.87579
851.87159,0.82522
850.38180,0.77469
848.89202,0.69129
847.40223,0.51968
845.91244,0.42087
844.42265,0.43626
842.93286,0.45168
841.44307,0.43656
839.95329,0.43850
838.46350,0.38707
836.97371,0.38598
835.48392,0.38531
833.99413,0.38468
832.50434,0.36511
831.01455,0.42995
829.52477,0.43599
828.03498,0.41885
826.54519,0.34329
825.05540,0.26777
823.56561,0.24221
822.07582,0.20740
820.58604,0.19274
819.09625,0.15412
817.60646,0.11553
816.11667,0.06768
814.62688,0.09031
813.13709,0.02550
811.64730,0.02884
810.15752,0.03725
808.66773,0.04569
807.17794,0.00501
805.68815,0.02748
804.19836,0.10572
802.70857,0.07950
801.21879,0.05331
799.72900,0.11540
798.23921,0.24718
796.74942,0.40299
795.25963,0.44040
793.76984,0.47785
792.28006,0.51997
790.79027,0.65965
789.30048,0.64534
787.81069,0.76806
786.32090,0.74336
784.83111,0.71869
783.34132,0.78656
781.85154,0.81885
780.36175,0.73352
778.87196,0.75388
777.38217,0.77427
775.89238,0.89726
774.40259,0.97461
772.91281,0.93821
771.42302,0.97963
769.93323,1.02108
768.44344,1.00104
766.95365,0.95316
765.46386,0.98271
763.97407,0.90936
762.48429,0.83526
760.99450,0.76119
759.50471,0.65465
758.01492,0.61548
756.52513,0.52062
755.03534,0.46565
753.54556,0.41071
752.05577,0.26795
750.56598,0.22740
749.07619,0.17372
747.58640,0.12472
746.09661,0.07575
744.60683,0.08410
743.11704,0.00501
741.62725,0.08187
740.13746,0.05620
738.64767,0.03056
737.15788,0.00380
735.66809,0.03280
734.17831,0.06880
732.68852,0.04485
731.19873,0.02092
729.70894,0.02606
728.21915,0.03665
726.72936,0.03256
725.23958,0.04244
723.74979,0.06087
722.26000,0.07933
720.77021,0.08079
719.28042,0.02811
717.79063,0.01183
716.30084,0.02772
714.81106,0.04363
713.32127,0.00501
711.83148,0.05585
710.34169,0.06647
708.85190,0.09029
707.36211,0.11414
705.87233,0.04978
704.38254,0.00867
702.89275,0.03107
701.40296,0.06163
699.91317,0.09222
698.42338,0.06983
696.93360,0.14886
695.44381,0.11415
693.95402,0.12320
692.46423,0.13228
690.97444,0.17042
689.48465,0.25272
687.99486,0.21817
686.50508,0.25447
685.01529,0.29081
683.52550,0.30126
682.03571,0.29470
680.54592,0.24329
679.05613,0.22712
677.56635,0.21099
676.07656,0.22624
674.58677,0.15638
673.09698,0.18176
671.60719,0.17234
670.11740,0.16295
668.62761,0.10174
667.13783,0.07771
665.64804,0.08700
664.15825,0.09632
662.66846,0.04917
661.17867,0.08720
659.68888,0.13454
658.19910,0.12542
656.70931,0.11633
655.21952,0.14907
653.72973,0.17642
652.23994,0.20304
650.75015,0.18131
649.26037,0.15961
647.77058,0.18322
646.28079,0.12095
644.79100,0.09742
643.30121,0.09288
641.81142,0.08838
640.32163,0.11293
638.83185,0.07250
637.34206,0.00501
635.85227,0.02838
634.36248,0.05179
632.87269,0.04311
631.38290,0.07084
629.89312,0.09164
628.40333,0.07222
626.91354,0.05283
625.42375,0.12404
623.93396,0.07918
622.44417,0.08466
620.95438,0.09017
619.46460,0.04076
617.97481,0.06569
616.48502,0.10923
614.99523,0.12649
613.50544,0.14378
612.01565,0.08525
610.52587,0.05848
609.03608,0.07664
607.54629,0.07703
606.05650,0.07746
604.56671,0.15068
603.07692,0.14884
601.58714,0.12112
600.09735,0.09342
598.60756,0.12265
597.11777,0.07451
595.62798,0.10767
594.13819,0.08901
592.64840,0.07038
591.15862,0.09280
589.66883,0.07037
588.17904,0.08744
586.68925,0.07862
585.19946,0.06983
583.70967,0.08933
582.21989,0.14988
580.73010,0.13499
579.24031,0.12014
577.75052,0.10107
576.26073,0.04642
574.77094,0.10481
573.28115,0.08313
571.79137,0.06148
570.30158,0.22369
568.81179,0.27293
567.32200,0.29278
565.83221,0.31267
564.34242,0.31634
562.85264,0.40209
561.36285,0.42208
559.87306,0.44829
558.38327,0.47454
556.89348,0.47992
555.40369,0.53874
553.91391,0.55154
552.42412,0.56437
550.93433,0.61091
549.44454,0.64587
547.95475,0.65609
546.46496,0.64235
544.97517,0.62864
543.48539,0.73262
541.99560,0.76774
540.50581,0.76613
539.01602,0.76455
537.52623,0.78584
536.03644,0.68951
534.54666,0.64352
533.05687,0.65059
531.56708,0.65769
530.07729,0.63115
528.58750,0.62245
527.09771,0.59095
525.60792,0.55948
524.11814,0.57797
522.62835,0.54540
521.13856,0.52526
519.64877,0.47418
518.15898,0.42314
516.66919,0.43173
515.17941,0.33431
513.68962,0.36270
512.19983,0.39113
510.71004,0.37353
509.22025,0.36216
507.73046,0.38256
506.24068,0.40454
504.75089,0.42655
503.26110,0.38977
501.77131,0.40411
500.28152,0.39681
498.79173,0.38954
497.30194,0.32735
495.81216,0.44244
494.32237,0.43333
492.83258,0.42426
491.34279,0.37613
489.85300,0.36519
488.36321,0.31790
486.87343,0.31902
485.38364,0.32017
483.89385,0.38986
482.40406,0.21422
480.91427,0.19883
479.42448,0.18347
477.93469,0.04430
476.44491,0.07468
474.95512,0.09154
473.46533,0.10844
471.97554,0.00501
470.48575,0.08026
468.99596,0.07892
467.50618,0.04548
466.01639,0.01208
464.52660,0.00000
463.03681,0.02992
461.54702,0.06180
460.05723,0.09372
458.56745,0.01228
457.07766,0.02220
455.58787,0.03797
454.09808,0.05376
452.60829,0.14506
451.11850,0.13499
449.62871,0.15978
448.13893,0.18461
446.64914,0.23115
445.15935,0.36750
443.66956,0.49460
442.17977,0.54317
440.68998,0.59177
439.20020,0.64157
437.71041,0.71075
436.22062,0.73274
434.73083,0.75477
433.24104,0.96415
431.75125,1.13718
430.26146,1.21001
428.77168,1.28287
427.28189,1.29577
425.79210,1.36444
424.30231,1.33368
422.81252,1.30295
421.32273,1.26180
419.83295,1.20598
418.34316,1.10801
416.85337,1.01007
415.36358,0.95512
413.87379,0.81351
412.38400,0.77992
410.89422,0.74635
409.40443,0.72172
407.91464,0.71029
406.42485,0.59671
404.93506,0.58534
403.44527,0.57400
401.95548,0.46207
400.46570,0.52278
398.97591,0.52315
397.48612,0.52356
395.99633,0.41795
394.50654,0.53840
393.01675,0.56018
391.52697,0.58201
390.03718,0.41383
388.54739,0.32619
387.05760,0.36359
385.56781,0.40103
384.07802,0.47062
382.58824,0.39549
381.09845,0.37536
379.60866,0.35526
378.11887,0.30500
376.62908,0.36392
375.13929,0.33115
373.64950,0.29841
372.15972,0.26996
370.66993,0.20284
369.18014,0.16903
367.69035,0.13526
366.20056,0.06592
364.71077,0.02602
363.22099,0.07982
361.73120,0.13365
360.24141,0.09927
358.75162,0.10207
357.26183,0.08788
355.77204,0.07373
354.28225,0.02555
352.79247,0.04087
351.30268,0.03958
349.81289,0.03833
348.32310,0.03905
346.83331,0.10094
345.34352,0.05296
343.85374,0.00501
342.36395,0.08543
340.87416,0.07997
339.38437,0.12292
337.89458,0.16590
336.40479,0.18066
334.91501,0.09870
333.42522,0.10385
331.93543,0.10904
330.44564,0.15876
328.95585,0.11022
327.46606,0.08338
325.97627,0.05657
324.48649,0.01819
322.99670,0.05579
321.50691,0.05705
320.01712,0.05834
318.52733,0.07979
317.03754,0.20808
315.54776,0.19399
314.05797,0.17993
312.56818,0.05212
311.07839,0.04510
309.58860,0.02495
308.09881,0.00483
306.60902,0.05280
305.11924,0.08067
303.62945,0.04744
302.13966,0.01423
300.64987,0.07772
299.16008,0.00501
