1778.52000,0.02091
1777.03021,0.03757
1775.54042,0.00376
1774.05063,0.04329
1772.56085,0.04049
1771.07106,0.02388
1769.58127,0.05617
1768.09148,0.02414
1766.60169,0.03368
1765.11190,0.03348
1763.62212,0.01050
1762.13233,0.05191
1760.64254,0.02084
1759.15275,0.05091
1757.66296,0.00361
1756.17317,0.04351
1754.68339,0.00768
1753.19360,0.02809
1751.70381,0.00617
1750.21402,0.00383
1748.72423,0.01130
1747.23444,0.00413
1745.74465,0.00596
1744.25487,0.03062
1742.76508,0.07976
1741.27529,0.10204
1739.78550,0.06000
1738.29571,0.04487
1736.80592,0.03385
1735.31614,0.03589
1733.82635,0.05588
1732.33656,0.05554
1730.84677,0.01205
1729.35698,0.05820
1727.86719,0.04166
1726.37740,0.02922
1724.88762,0.01355
1723.39783,0.00361
1721.90804,0.04601
1720.41825,0.05829
1718.92846,0.06491
1717.43867,0.04793
1715.94889,0.07497
1714.45910,0.06376
1712.96931,0.10308
1711.47952,0.06341
1709.98973,0.06532
1708.49994,0.08437
1707.01016,0.08919
1705.52037,0.09404
1704.03058,0.06919
1702.54079,0.08266
1701.05100,0.10186
1699.56121,0.12516
1698.07142,0.12895
1696.58164,0.10425
1695.09185,0.14964
1693.60206,0.12663
1692.11227,0.18593
1690.62248,0.20779
1689.13269,0.19628
1687.64291,0.21005
1686.15312,0.20104
1684.66333,0.20347
1683.17354,0.21734
1681.68375,0.27766
1680.19396,0.19872
1678.70417,0.19231
1677.21439,0.17046
1675.72460,0.20647
1674.23481,0.17979
1672.74502,0.17350
1671.25523,0.15421
1669.76544,0.23677
1668.27566,0.23628
1666.78587,0.20731
1665.29608,0.19303
1663.80629,0.17226
1662.31650,0.23461
1660.82671,0.21228
1659.33693,0.21441
1657.84714,0.19621
1656.35735,0.17397
1654.86756,0.14524
1653.37777,0.08558
1651.88798,0.09927
1650.39819,0.15861
1648.90841,0.16177
1647.41862,0.18370
1645.92883,0.17023
1644.43904,0.15678
1642.94925,0.14785
1641.45946,0.13731
1639.96968,0.19279
1638.47989,0.17743
1636.99010,0.12789
1635.50031,0.15413
1634.01052,0.11850
1632.52073,0.14155
1631.03094,0.07991
1629.54116,0.14701
1628.05137,0.15304
1626.56158,0.19250
1625.07179,0.17334
1623.58200,0.22590
1622.09221,0.26301
1620.60243,0.21788
1619.11264,0.21921
1617.62285,0.19450
1616.13306,0.19833
1614.64327,0.12481
1613.15348,0.19794
1611.66370,0.15544
1610.17391,0.17731
1608.68412,0.18374
1607.19433,0.17717
1605.70454,0.14212
1604.21475,0.15597
1602.72496,0.16985
1601.23518,0.14711
1599.74539,0.11625
1598.25560,0.15141
1596.76581,0.13772
1595.27602,0.18597
1593.78623,0.18700
1592.29645,0.12127
1590.80666,0.14354
1589.31687,0.09335
1587.82708,0.08961
1586.33729,0.13642
1584.84750,0.04640
1583.35771,0.02158
1581.86793,0.04648
1580.37814,0.10644
1578.88835,0.04913
1577.39856,0.12381
1575.90877,0.09181
1574.41898,0.11523
1572.92920,0.08085
1571.43941,0.02614
1569.94962,0.04395
1568.45983,0.06179
1566.97004,0.07071
1565.48025,0.06336
1563.99047,0.03568
1562.50068,0.03817
1561.01089,0.01218
1559.52110,0.03428
1558.03131,0.05560
1556.54152,0.08672
1555.05173,0.09588
1553.56195,0.11403
1552.07216,0.08170
1550.58237,0.04696
1549.09258,0.04973
1547.60279,0.08429
1546.11300,0.01543
1544.62322,0.10219
1543.13343,0.05701
1541.64364,0.10881
1540.15385,0.09750
1538.66406,0.08622
1537.17427,0.00614
1535.68448,0.05887
1534.19470,0.03750
1532.70491,0.01860
1531.21512,0.07631
1529.72533,0.00209
1528.23554,0.03868
1526.74575,0.00361
1525.25597,0.06070
1523.76618,0.02415
1522.27639,0.04627
1520.78660,0.03258
1519.29681,0.07676
1517.80702,0.04440
1516.31724,0.03814
1514.82745,0.03190
1513.33766,0.04118
1511.84787,0.05048
1510.35808,0.00361
1508.86829,0.05438
1507.37850,0.04652
1505.88872,0.02322
1504.39893,0.01380
1502.90914,0.06794
1501.41935,0.07650
1499.92956,0.06798
1498.43977,0.03669
1496.94999,0.11295
1495.46020,0.15340
1493.97041,0.17514
1492.48062,0.16515
1490.99083,0.26597
1489.50104,0.32202
1488.01125,0.35203
1486.52147,0.38208
1485.03168,0.47976
1483.54189,0.48217
1482.05210,0.56851
1480.56231,0.64918
1479.07252,0.80972
1477.58274,0.84239
1476.09295,0.92722
1474.60316,0.97706
1473.11337,1.09698
1471.62358,1.09475
1470.13379,1.12187
1468.64401,1.01624
1467.15422,0.98803
1465.66443,0.96555
1464.17464,0.94311
1462.68485,0.87670
1461.19506,0.80055
1459.70527,0.81730
1458.21549,0.77216
1456.72570,0.65700
1455.23591,0.63963
1453.74612,0.60110
1452.25633,0.59112
1450.76654,0.50296
1449.27676,0.50444
1447.78697,0.51980
1446.29718,0.38857
1444.80739,0.38159
1443.31760,0.37464
1441.82781,0.33065
1440.33802,0.28018
1438.84824,0.20123
1437.35845,0.18748
1435.86866,0.19494
1434.37887,0.25456
1432.88908,0.23439
1431.39929,0.22809
1429.90951,0.24789
1428.41972,0.16508
1426.92993,0.20367
1425.44014,0.25778
1423.95035,0.21660
1422.46056,0.17546
1420.97078,0.28912
1419.48099,0.24071
1417.99120,0.25831
1416.50141,0.27594
1415.01162,0.30663
1413.52183,0.30559
1412.03204,0.30946
1410.54226,0.26123
1409.05247,0.25458
1407.56268,0.30661
1406.07289,0.25358
1404.58310,0.28815
1403.09331,0.32276
1401.60353,0.36350
1400.11374,0.34400
1398.62395,0.36199
1397.13416,0.51769
1395.64437,0.53412
1394.15458,0.51636
1392.66479,0.58580
1391.17501,0.58684
1389.68522,0.63924
1388.19543,0.56621
1386.70564,0.58771
1385.21585,0.60924
1383.72606,0.62673
1382.23628,0.53835
1380.74649,0.49073
1379.25670,0.43581
1377.76691,0.52918
1376.27712,0.53378
1374.78733,0.62558
1373.29755,0.71986
1371.80776,0.87689
1370.31797,0.97611
1368.82818,1.05377
1367.33839,1.13147
1365.84860,1.33587
1364.35881,1.54925
1362.86903,1.62663
1361.37924,1.83438
1359.88945,1.78719
1358.39966,1.94205
1356.90987,2.00000
1355.42008,1.96919
1353.93030,1.81867
1352.44051,1.74475
1350.95072,1.67086
1349.46093,1.54894
1347.97114,1.40994
1346.48135,1.24246
1344.99156,1.11656
1343.50178,0.95973
1342.01199,0.86729
1340.52220,0.73252
1339.03241,0.66702
1337.54262,0.61295
1336.05283,0.60861
1334.56305,0.60430
1333.07326,0.52833
1331.58347,0.51267
1330.09368,0.52963
1328.60389,0.40814
1327.11410,0.41864
1325.62432,0.38030
1324.13453,0.38190
1322.64474,0.33140
1321.15495,0.38031
1319.66516,0.33475
1318.17537,0.28923
1316.68558,0.29750
1315.19580,0.33432
1313.70601,0.28970
1312.21622,0.24186
1310.72643,0.24536
1309.23664,0.24320
1307.74685,0.23047
1306.25707,0.24955
1304.76728,0.23974
1303.27749,0.22995
1301.78770,0.24179
1300.29791,0.19500
1298.80812,0.18328
1297.31834,0.23105
1295.82855,0.28618
1294.33876,0.29083
1292.84897,0.25398
1291.35918,0.27417
1289.86939,0.26467
1288.37960,0.25519
1286.88982,0.26244
1285.40003,0.33734
1283.91024,0.32184
1282.42045,0.34304
1280.93066,0.29420
1279.44087,0.37818
1277.95109,0.34733
1276.46130,0.33688
1274.97151,0.35008
1273.48172,0.36331
1271.99193,0.39775
1270.50214,0.44933
1269.01235,0.39585
1267.52257,0.49229
1266.03278,0.44947
1264.54299,0.51664
1263.05320,0.49343
1261.56341,0.50080
1260.07362,0.50819
1258.58384,0.49648
1257.09405,0.52226
1255.60426,0.54563
1254.11447,0.52830
1252.62468,0.51834
1251.13489,0.48560
1249.64511,0.51805
1248.15532,0.43079
1246.66553,0.36881
1245.17574,0.30686
1243.68595,0.29382
1242.19616,0.33621
1240.70637,0.36884
1239.21659,0.28584
1237.72680,0.22404
1236.23701,0.19161
1234.74722,0.18608
1233.25743,0.18018
1231.76764,0.17430
1230.27786,0.17457
1228.78807,0.19523
1227.29828,0.17275
1225.80849,0.11528
1224.31870,0.10671
1222.82891,0.15763
1221.33912,0.09129
1219.84934,0.08362
1218.35955,0.07599
1216.86976,0.10748
1215.37997,0.14390
1213.89018,0.19745
1212.40039,0.20867
1210.91061,0.09774
1209.42082,0.13428
1207.93103,0.12889
1206.44124,0.12354
1204.95145,0.16424
1203.46166,0.05916
1201.97188,0.06571
1200.48209,0.09184
1198.99230,0.10008
1197.50251,0.06192
1196.01272,0.04090
1194.52293,0.03334
1193.03314,0.02582
1191.54336,0.00000
1190.05357,0.05814
1188.56378,0.09188
1187.07399,0.05884
1185.58420,0.04051
1184.09441,0.04745
1182.60463,0.05402
1181.11484,0.06061
1179.62505,0.12956
1178.13526,0.00548
1176.64547,0.00361
1175.15568,0.09479
1173.66589,0.13141
1172.17611,0.05810
1170.68632,0.03084
1169.19653,0.00361
1167.70674,0.06183
1166.21695,0.09890
1164.72716,0.04232
1163.23738,0.05745
1161.74759,0.00419
1160.25780,0.04790
1158.76801,0.03543
1157.27822,0.02299
1155.78843,0.02117
1154.29865,0.07396
1152.80886,0.05346
1151.31907,0.04359
1149.82928,0.07855
1148.33949,0.07281
1146.84970,0.07932
1145.35991,0.08586
1143.87013,0.06555
1142.38034,0.13650
1140.89055,0.18060
1139.40076,0.17668
1137.91097,0.20618
1136.42118,0.24712
1134.93140,0.21110
1133.44161,0.17512
1131.95182,0.23896
1130.46203,0.26454
1128.97224,0.23231
1127.48245,0.32720
1125.99266,0.35287
1124.50288,0.36880
1123.01309,0.36154
1121.52330,0.35432
1120.03351,0.42410
1118.54372,0.46622
1117.05393,0.42365
1115.56415,0.39740
1114.07436,0.50803
1112.58457,0.52665
1111.09478,0.54530
1109.60499,0.50777
1108.11520,0.56965
1106.62542,0.53625
1105.13563,0.59738
1103.64584,0.62677
1102.15605,0.71321
1100.66626,0.68890
1099.17647,0.66462
1097.68668,0.80573
1096.19690,0.83771
1094.70711,0.82004
1093.21732,0.85779
1091.72753,0.87113
1090.23774,0.87880
1088.74795,0.88650
1087.25817,0.96592
1085.76838,1.06410
1084.27859,0.98554
1082.78880,1.08623
1081.29901,1.17799
1079.80922,1.08649
1078.31943,1.10255
1076.82965,1.11864
1075.33986,1.20156
1073.85007,1.29347
1072.36028,1.25589
1070.87049,1.19553
1069.38070,1.33641
1067.89092,1.34331
1066.40113,1.35025
1064.91134,1.34703
1063.42155,1.27298
1061.93176,1.13379
1060.44197,1.07446
1058.95219,0.98420
1057.46240,0.97503
1055.97261,0.96589
1054.48282,0.86595
1052.99303,0.77745
1051.50324,0.77613
1050.01345,0.65755
1048.52367,0.59928
1047.03388,0.58706
1045.54409,0.57488
1044.05430,0.56476
1042.56451,0.48054
1041.07472,0.36540
1039.58494,0.43602
1038.09515,0.33234
1036.60536,0.34681
1035.11557,0.36132
1033.62578,0.36444
1032.13599,0.34316
1030.64620,0.32110
1029.15642,0.36179
1027.66663,0.30639
1026.17684,0.25102
1024.68705,0.37734
1023.19726,0.50450
1021.70747,0.66101
1020.21769,0.81104
1018.72790,0.91875
1017.23811,1.03707
1015.74832,1.15542
1014.25853,1.31209
1012.76874,1.47205
1011.27896,1.56117
1009.78917,1.69675
1008.29938,1.77289
1006.80959,1.77454
1005.31980,1.77621
1003.83001,1.62843
1002.34022,1.55074
1000.85044,1.46331
999.36065,1.31644
997.87086,1.30075
996.38107,1.28509
994.89128,1.21733
993.40149,1.22617
991.91171,1.25459
990.42192,1.33762
988.93213,1.16815
987.44234,1.15716
985.95255,1.14619
984.46276,1.08271
982.97297,1.12354
981.48319,1.04057
979.99340,0.99918
978.50361,1.00466
977.01382,1.01017
975.52403,0.96724
974.03424,0.82334
972.54446,0.81224
971.05467,0.76696
969.56488,0.71519
968.07509,0.70093
966.58530,0.68670
965.09551,0.69612
963.60573,0.63144
962.11594,0.64255
960.62615,0.61133
959.13636,0.58870
957.64657,0.56609
956.15678,0.53904
954.66699,0.45011
953.17721,0.43859
951.68742,0.45236
950.19763,0.48164
948.70784,0.51094
947.21805,0.54761
945.72826,0.44094
944.23848,0.44183
942.74869,0.53154
941.25890,0.47058
939.76911,0.51391
938.27932,0.55728
936.78953,0.65363
935.29974,0.70032
933.80996,0.64195
932.32017,0.63738
930.83038,0.63936
929.34059,0.64137
927.85080,0.67436
926.36101,0.66258
924.87123,0.59625
923.38144,0.53973
921.89165,0.58588
920.40186,0.63206
918.91207,0.59925
917.42228,0.60720
915.93250,0.65755
914.44271,0.63542
912.95292,0.62962
911.46313,0.62384
909.97334,0.64254
908.48355,0.71422
906.99376,0.73623
905.50398,0.66867
904.01419,0.63576
902.52440,0.60288
901.03461,0.64620
899.54482,0.71643
898.05503,0.66206
896.56525,0.74945
895.07546,0.75705
893.58567,0.76468
892.09588,0.76989
890.60609,0.73441
889.11630,0.75516
887.62651,0.64072
886.13673,0.70023
884.64694,0.75976
883.15715,0.78308
881.66736,0.81376
880.17757,0.73043
878.68778,0.76158
877.19800,0.79276
875.70821,0.73803
874.21842,0.86254
872.72863,0.86571
871.23884,0.93163
869.74905,0.93934
868.25927,0.94708
866.76948,0.92023
865.27969,0.95532
863.78990,1.05072
862.30011,0.96042
860.81032,0.98949
859.32053,1.01859
857.83075,0.92839
856.34096,0.91886
854.85117,0.79531
853.36138,0.73778
851.87159,0.70228
850.38180,0.66680
848.89202,0.57515
847.40223,0.40858
845.91244,0.34143
844.42265,0.39609
842.93286,0.45078
841.44307,0.41386
839.95329,0.34439
838.46350,0.30427
836.97371,0.27395
835.48392,0.31943
833.99413,0.36494
832.50434,0.38196
831.01455,0.41368
829.52477,0.38922
828.03498,0.29474
826.54519,0.25323
825.05540,0.21176
823.56561,0.18580
822.07582,0.19082
820.58604,0.22845
819.09625,0.20869
817.60646,0.18895
816.11667,0.10286
814.62688,0.11211
813.13709,0.07984
811.64730,0.00361
810.15752,0.04265
808.66773,0.08172
807.17794,0.03448
805.68815,0.04265
804.19836,0.03050
802.70857,0.06684
801.21879,0.10321
799.72900,0.16201
798.23921,0.19967
796.74942,0.31230
795.25963,0.34757
793.76984,0.38287
792.28006,0.37666
790.79027,0.44054
789.30048,0.52399
787.81069,0.55046
786.32090,0.54804
784.83111,0.54564
783.34132,0.59338
781.85154,0.60204
780.36175,0.61889
778.87196,0.63779
777.38217,0.65673
775.89238,0.79586
774.40259,0.73706
772.91281,0.82249
771.42302,0.78901
769.93323,0.75556
768.44344,0.74902
766.95365,0.75066
765.46386,0.79387
763.97407,0.73448
762.48429,0.68571
760.99450,0.63696
759.50471,0.53204
758.01492,0.48336
756.52513,0.43308
755.03534,0.37346
753.54556,0.31387
752.05577,0.22132
750.56598,0.20212
749.07619,0.07623
747.58640,0.07053
746.09661,0.06486
744.60683,0.08406
743.11704,0.02591
741.62725,0.07450
740.13746,0.05470
738.64767,0.03492
737.15788,0.00459
735.66809,0.00361
734.17831,0.03251
732.68852,0.04555
731.19873,0.05862
729.70894,0.07131
728.21915,0.05064
726.72936,0.04059
725.23958,0.01997
723.74979,0.01935
722.26000,0.01875
720.77021,0.03489
719.28042,0.07875
717.79063,0.04852
716.30084,0.04112
714.81106,0.03376
713.32127,0.00361
711.83148,0.04612
710.34169,0.05933
708.85190,0.07624
707.36211,0.09318
705.87233,0.12441
704.38254,0.02370
702.89275,0.02078
701.40296,0.01218
699.91317,0.00361
698.42338,0.05155
696.93360,0.15573
695.44381,0.17685
693.95402,0.16827
692.46423,0.15971
690.97444,0.19233
689.48465,0.19157
687.99486,0.24054
686.50508,0.25166
685.01529,0.26281
683.52550,0.18072
682.03571,0.24529
680.54592,0.21213
679.05613,0.18797
677.56635,0.16384
676.07656,0.16418
674.58677,0.13522
673.09698,0.12503
671.60719,0.13930
670.11740,0.15361
668.62761,0.22089
667.13783,0.12040
665.64804,0.09163
664.15825,0.06288
662.66846,0.07490
661.17867,0.04947
659.68888,0.07947
658.19910,0.08262
656.70931,0.08579
655.21952,0.15824
653.72973,0.14437
652.23994,0.16475
650.75015,0.14280
649.26037,0.12087
647.77058,0.17637
646.28079,0.12355
644.79100,0.05366
643.30121,0.05222
641.81142,0.05082
640.32163,0.15371
638.83185,0.02285
637.34206,0.00361
635.85227,0.00891
634.36248,0.01424
632.87269,0.02694
631.38290,0.09424
629.89312,0.03775
628.40333,0.02651
626.91354,0.01529
625.42375,0.10308
623.93396,0.13143
622.44417,0.09302
620.95438,0.05464
619.46460,0.06027
617.97481,0.08468
616.48502,0.11563
614.99523,0.13480
613.50544,0.15399
612.01565,0.11091
610.52587,0.06948
609.03608,0.04275
607.54629,0.05352
606.05650,0.06431
604.56671,0.19733
603.07692,0.21145
601.58714,0.17021
600.09735,0.12899
598.60756,0.14076
597.11777,0.09716
595.62798,0.04953
594.13819,0.06057
592.64840,0.07164
591.15862,0.13732
589.66883,0.12484
588.17904,0.09038
586.68925,0.05718
585.19946,0.02401
583.70967,0.07519
582.21989,0.14675
580.73010,0.11938
579.24031,0.09203
577.75052,0.12296
576.26073,0.10260
574.77094,0.14011
573.28115,0.11248
571.79137,0.08488
570.30158,0.12492
568.81179,0.18618
567.32200,0.23117
565.83221,0.27619
564.34242,0.28458
562.85264,0.30930
561.36285,0.38293
559.87306,0.40567
558.38327,0.42844
556.89348,0.40848
555.40369,0.49770
553.91391,0.47006
552.42412,0.44245
550.93433,0.43646
549.44454,0.53069
547.95475,0.48240
546.46496,0.48505
544.97517,0.48774
543.48539,0.58861
541.99560,0.56325
540.50581,0.61734
539.01602,0.67147
537.52623,0.64050
536.03644,0.47841
534.54666,0.61856
533.05687,0.61131
531.56708,0.60408
530.07729,0.53091
528.58750,0.52130
527.09771,0.54023
525.60792,0.55920
524.11814,0.46170
522.62835,0.50680
521.13856,0.50712
519.64877,0.46674
518.15898,0.42639
516.66919,0.35349
515.17941,0.35393
513.68962,0.34178
512.19983,0.32965
510.71004,0.31227
509.22025,0.29817
507.73046,0.38511
506.24068,0.38533
504.75089,0.38558
503.26110,0.34065
501.77131,0.43097
500.28152,0.40850
498.79173,0.38606
497.30194,0.37465
495.81216,0.37224
494.32237,0.39917
492.83258,0.42614
491.34279,0.48328
489.85300,0.35472
488.36321,0.28158
486.87343,0.27201
485.38364,0.26248
483.89385,0.26112
482.40406,0.23698
480.91427,0.21043
479.42448,0.18391
477.93469,0.09958
476.44491,0.08452
474.95512,0.13141
473.46533,0.17832
471.97554,0.09412
470.48575,0.05638
468.99596,0.07161
467.50618,0.03760
466.01639,0.00361
464.52660,0.00592
463.03681,0.08321
461.54702,0.08476
460.05723,0.08635
458.56745,0.09937
457.07766,0.06274
455.58787,0.10107
454.09808,0.13944
452.60829,0.14118
451.11850,0.08593
449.62871,0.14149
448.13893,0.19709
446.64914,0.31300
445.15935,0.30756
443.66956,0.43330
442.17977,0.43688
440.68998,0.44050
439.20020,0.47835
437.71041,0.58793
436.22062,0.59489
434.73083,0.60188
433.24104,0.82315
431.75125,0.94669
430.26146,0.95541
428.77168,0.96415
427.28189,1.05276
425.79210,1.09252
424.30231,1.13557
422.81252,1.17865
421.32273,1.08980
419.83295,1.08325
418.34316,0.99364
416.85337,0.90407
415.36358,0.69803
413.87379,0.63377
412.38400,0.60986
410.89422,0.58598
409.40443,0.54299
407.91464,0.50817
406.42485,0.52389
404.93506,0.50299
403.44527,0.48211
401.95548,0.46697
400.46570,0.37040
398.97591,0.35735
397.48612,0.34434
395.99633,0.45069
394.50654,0.49761
393.01675,0.48713
391.52697,0.47668
390.03718,0.32982
388.54739,0.25712
387.05760,0.32252
385.56781,0.38795
384.07802,0.39761
382.58824,0.36902
381.09845,0.33312
379.60866,0.29726
378.11887,0.31763
376.62908,0.25739
375.13929,0.21917
373.64950,0.18099
372.15972,0.23651
370.66993,0.20164
369.18014,0.16640
367.69035,0.13119
366.20056,0.10863
364.71077,0.04864
363.22099,0.07298
361.73120,0.09736
360.24141,0.10017
358.75162,0.08918
357.26183,0.12057
355.77204,0.15199
354.28225,0.12886
352.79247,0.11310
351.30268,0.08596
349.81289,0.05885
348.32310,0.06436
346.83331,0.08619
345.34352,0.05876
343.85374,0.03137
342.36395,0.15438
340.87416,0.13161
339.38437,0.12678
337.89458,0.12199
336.40479,0.12049
334.91501,0.09376
333.42522,0.12938
331.93543,0.16504
330.44564,0.12700
328.95585,0.09062
327.46606,0.07505
325.97627,0.05950
324.48649,0.05173
322.99670,0.08771
321.50691,0.09684
320.01712,0.10600
318.52733,0.09890
317.03754,0.20913
315.54776,0.19639
314.05797,0.18367
312.56818,0.13189
311.07839,0.02638
309.58860,0.01498
308.09881,0.00361
306.60902,0.01823
305.11924,0.08990
303.62945,0.05815
302.13966,0.02642
300.64987,0.03374
299.16008,0.00361
