1778.52000,0.07544
1777.03021,0.03292
1775.54042,0.06012
1774.05063,0.04837
1772.56085,0.06651
1771.07106,0.03822
1769.58127,0.00000
1768.09148,0.01325
1766.60169,0.03151
1765.11190,0.06308
1763.62212,0.03328
1762.13233,0.04334
1760.64254,0.06256
1759.15275,0.04032
1757.66296,0.03719
1756.17317,0.02497
1754.68339,0.02771
1753.19360,0.06865
1751.70381,0.00674
1750.21402,0.00958
1748.72423,0.00000
1747.23444,0.02590
1745.74465,0.03939
1744.25487,0.05209
1742.76508,0.05983
1741.27529,0.02197
1739.78550,0.07458
1738.29571,0.06250
1736.80592,0.04299
1735.31614,0.02434
1733.82635,0.08122
1732.33656,0.05682
1730.84677,0.05070
1729.35698,0.06619
1727.86719,0.02944
1726.37740,0.07071
1724.88762,0.00000
1723.39783,0.03041
1721.90804,0.00776
1720.41825,0.03076
1718.92846,0.04799
1717.43867,0.05778
1715.94889,0.06512
1714.45910,0.06667
1712.96931,0.05665
1711.47952,0.06739
1709.98973,0.08480
1708.49994,0.06242
1707.01016,0.08529
1705.52037,0.10819
1704.03058,0.09502
1702.54079,0.12835
1701.05100,0.13682
1699.56121,0.12624
1698.07142,0.13062
1696.58164,0.14831
1695.09185,0.15773
1693.60206,0.16553
1692.11227,0.18330
1690.62248,0.19863
1689.13269,0.22393
1687.64291,0.16880
1686.15312,0.20661
1684.66333,0.18804
1683.17354,0.24499
1681.68375,0.21736
1680.19396,0.20303
1678.70417,0.19204
1677.21439,0.18773
1675.72460,0.22907
1674.23481,0.22233
1672.74502,0.20069
1671.25523,0.18820
1669.76544,0.22967
1668.27566,0.19318
1666.78587,0.18742
1665.29608,0.16925
1663.80629,0.19258
1662.31650,0.18443
1660.82671,0.18958
1659.33693,0.21633
1657.84714,0.15765
1656.35735,0.16040
1654.86756,0.09598
1653.37777,0.16185
1651.88798,0.08670
1650.39819,0.12857
1648.90841,0.16881
1647.41862,0.11035
1645.92883,0.13281
1644.43904,0.15530
1642.94925,0.14920
1641.45946,0.19042
1639.96968,0.11138
1638.47989,0.14519
1636.99010,0.15332
1635.50031,0.13825
1634.01052,0.12569
1632.52073,0.11898
1631.03094,0.12225
1629.54116,0.14878
1628.05137,0.17120
1626.56158,0.19032
1625.07179,0.22441
1623.58200,0.24111
1622.09221,0.22051
1620.60243,0.20740
1619.11264,0.18934
1617.62285,0.20534
1616.13306,0.22219
1614.64327,0.17934
1613.15348,0.20869
1611.66370,0.15014
1610.17391,0.21025
1608.68412,0.18827
1607.19433,0.19452
1605.70454,0.17591
1604.21475,0.17434
1602.72496,0.17280
1601.23518,0.18083
1599.74539,0.18557
1598.25560,0.15384
1596.76581,0.15118
1595.27602,0.16431
1593.78623,0.09783
1592.29645,0.09526
1590.80666,0.11097
1589.31687,0.07279
1587.82708,0.10681
1586.33729,0.09524
1584.84750,0.07789
1583.35771,0.07467
1581.86793,0.03083
1580.37814,0.08741
1578.88835,0.05608
1577.39856,0.07954
1575.90877,0.05490
1574.41898,0.05021
1572.92920,0.05053
1571.43941,0.02018
1569.94962,0.03051
1568.45983,0.04088
1566.97004,0.02140
1565.48025,0.04179
1563.99047,0.03482
1562.50068,0.00216
1561.01089,0.04587
1559.52110,0.00000
1558.03131,0.08057
1556.54152,0.05830
1555.05173,0.08998
1553.56195,0.06528
1552.07216,0.04808
1550.58237,0.04750
1549.09258,0.01625
1547.60279,0.03648
1546.11300,0.07332
1544.62322,0.12264
1543.13343,0.09816
1541.64364,0.05794
1540.15385,0.04056
1538.66406,0.02322
1537.17427,0.01462
1535.68448,0.03177
1534.19470,0.00000
1532.70491,0.04823
1531.21512,0.03509
1529.72533,0.02945
1528.23554,0.03795
1526.74575,0.01412
1525.25597,0.00941
1523.76618,0.02297
1522.27639,0.01832
1520.78660,0.01784
1519.29681,0.01159
1517.80702,0.03689
1516.31724,0.02904
1514.82745,0.03201
1513.33766,0.03085
1511.84787,0.02973
1510.35808,0.05851
1508.86829,0.00103
1507.37850,0.00000
1505.88872,0.02631
1504.39893,0.02279
1502.90914,0.05331
1501.41935,0.03658
1499.92956,0.07878
1498.43977,0.06542
1496.94999,0.12344
1495.46020,0.14748
1493.97041,0.17155
1492.48062,0.21639
1490.99083,0.30192
1489.50104,0.37254
1488.01125,0.40876
1486.52147,0.44501
1485.03168,0.54476
1483.54189,0.56821
1482.05210,0.67134
1480.56231,0.75459
1479.07252,0.88599
1477.58274,1.03153
1476.09295,1.13561
1474.60316,1.14597
1473.11337,1.29906
1471.62358,1.36342
1470.13379,1.35479
1468.64401,1.23585
1467.15422,1.14432
1465.66443,1.13122
1464.17464,1.11816
1462.68485,1.04746
1461.19506,1.03487
1459.70527,0.98331
1458.21549,0.94838
1456.72570,0.83633
1455.23591,0.76081
1453.74612,0.74754
1452.25633,0.71605
1450.76654,0.64394
1449.27676,0.62827
1447.78697,0.59273
1446.29718,0.57298
1444.80739,0.53791
1443.31760,0.50287
1441.82781,0.39360
1440.33802,0.33249
1438.84824,0.31372
1437.35845,0.29333
1435.86866,0.24807
1434.37887,0.22690
1432.88908,0.21738
1431.39929,0.22946
1429.90951,0.25153
1428.41972,0.24791
1426.92993,0.23602
1425.44014,0.26980
1423.95035,0.27498
1422.46056,0.28019
1420.97078,0.38789
1419.48099,0.35625
1417.99120,0.31882
1416.50141,0.31379
1415.01162,0.34031
1413.52183,0.31128
1412.03204,0.34947
1410.54226,0.35203
1409.05247,0.33470
1407.56268,0.32985
1406.07289,0.36402
1404.58310,0.33019
1403.09331,0.29639
1401.60353,0.38956
1400.11374,0.41971
1398.62395,0.47975
1397.13416,0.47428
1395.64437,0.52194
1394.15458,0.56051
1392.66479,0.55181
1391.17501,0.59625
1389.68522,0.66809
1388.19543,0.60473
1386.70564,0.61524
1385.21585,0.62578
1383.72606,0.61312
1382.23628,0.57394
1380.74649,0.54807
1379.25670,0.52057
1377.76691,0.60344
1376.27712,0.60338
1374.78733,0.66475
1373.29755,0.78172
1371.80776,0.87136
1370.31797,1.01909
1368.82818,1.05362
1367.33839,1.08817
1365.84860,1.32145
1364.35881,1.44608
1362.86903,1.58236
1361.37924,1.68133
1359.88945,1.81518
1358.39966,1.86692
1356.90987,2.00000
1355.42008,1.80623
1353.93030,1.74358
1352.44051,1.70418
1350.95072,1.66482
1349.46093,1.54169
1347.97114,1.43187
1346.48135,1.25156
1344.99156,1.15341
1343.50178,1.02211
1342.01199,0.91905
1340.52220,0.72559
1339.03241,0.71053
1337.54262,0.63079
1336.05283,0.63529
1334.56305,0.63981
1333.07326,0.59916
1331.58347,0.59421
1330.09368,0.52955
1328.60389,0.49895
1327.11410,0.44182
1325.62432,0.45856
1324.13453,0.41228
1322.64474,0.44817
1321.15495,0.39863
1319.66516,0.38231
1318.17537,0.36602
1316.68558,0.36387
1315.19580,0.39990
1313.70601,0.35052
1312.21622,0.30698
1310.72643,0.36219
1309.23664,0.32036
1307.74685,0.33996
1306.25707,0.28824
1304.76728,0.28923
1303.27749,0.29026
1301.78770,0.34980
1300.29791,0.29489
1298.80812,0.23834
1297.31834,0.24986
1295.82855,0.32612
1294.33876,0.34599
1292.84897,0.35428
1291.35918,0.35846
1289.86939,0.34358
1288.37960,0.32873
1286.88982,0.38194
1285.40003,0.42191
1283.91024,0.37729
1282.42045,0.40985
1280.93066,0.41507
1279.44087,0.42363
1277.95109,0.42476
1276.46130,0.41265
1274.97151,0.43043
1273.48172,0.44825
1271.99193,0.44701
1270.50214,0.48314
1269.01235,0.44546
1267.52257,0.43767
1266.03278,0.54441
1264.54299,0.60721
1263.05320,0.57795
1261.56341,0.59103
1260.07362,0.60414
1258.58384,0.62890
1257.09405,0.57985
1255.60426,0.58144
1254.11447,0.66353
1252.62468,0.65522
1251.13489,0.62206
1249.64511,0.55159
1248.15532,0.50853
1246.66553,0.46094
1245.17574,0.41338
1243.68595,0.39613
1242.19616,0.36232
1240.70637,0.41151
1239.21659,0.32715
1237.72680,0.27850
1236.23701,0.23734
1234.74722,0.28997
1233.25743,0.26629
1231.76764,0.24265
1230.27786,0.23066
1228.78807,0.22699
1227.29828,0.20095
1225.80849,0.17660
1224.31870,0.15975
1222.82891,0.13464
1221.33912,0.16016
1219.84934,0.18073
1218.35955,0.20134
1216.86976,0.14814
1215.37997,0.24513
1213.89018,0.21190
1212.40039,0.17871
1210.91061,0.14886
1209.42082,0.15056
1207.93103,0.14732
1206.44124,0.14411
1204.95145,0.13513
1203.46166,0.04238
1201.97188,0.07992
1200.48209,0.09425
1198.99230,0.09203
1197.50251,0.07158
1196.01272,0.02959
1194.52293,0.02580
1193.03314,0.02203
1191.54336,0.03987
1190.05357,0.01875
1188.56378,0.04245
1187.07399,0.02969
1185.58420,0.05926
1184.09441,0.02913
1182.60463,0.05255
1181.11484,0.07599
1179.62505,0.07582
1178.13526,0.09560
1176.64547,0.06728
1175.15568,0.07467
1173.66589,0.09288
1172.17611,0.10365
1170.68632,0.05181
1169.19653,0.00000
1167.70674,0.10091
1166.21695,0.10395
1164.72716,0.08545
1163.23738,0.11593
1161.74759,0.02697
1160.25780,0.10315
1158.76801,0.10095
1157.27822,0.09878
1155.78843,0.06304
1154.29865,0.07462
1152.80886,0.11693
1151.31907,0.07133
1149.82928,0.11868
1148.33949,0.13868
1146.84970,0.09774
1145.35991,0.05682
1143.87013,0.08687
1142.38034,0.10616
1140.89055,0.16863
1139.40076,0.21453
1137.91097,0.27706
1136.42118,0.27325
1134.93140,0.26366
1133.44161,0.25410
1131.95182,0.34163
1130.46203,0.33380
1128.97224,0.39485
1127.48245,0.41943
1125.99266,0.41666
1124.50288,0.49190
1123.01309,0.51367
1121.52330,0.53547
1120.03351,0.52286
1118.54372,0.55592
1117.05393,0.49526
1115.56415,0.56488
1114.07436,0.54245
1112.58457,0.55904
1111.09478,0.57565
1109.60499,0.68439
1108.11520,0.63470
1106.62542,0.62320
1105.13563,0.70963
1103.64584,0.80937
1102.15605,0.84276
1100.66626,0.87578
1099.17647,0.90882
1097.68668,0.93152
1096.19690,1.00901
1094.70711,0.95212
1093.21732,1.02801
1091.72753,1.06079
1090.23774,1.04631
1088.74795,1.03186
1087.25817,1.15434
1085.76838,1.19968
1084.27859,1.23096
1082.78880,1.25728
1081.29901,1.35167
1079.80922,1.25444
1078.31943,1.25348
1076.82965,1.25255
1075.33986,1.33130
1073.85007,1.48308
1072.36028,1.43661
1070.87049,1.47812
1069.38070,1.52048
1067.89092,1.54628
1066.40113,1.57212
1064.91134,1.48266
1063.42155,1.37083
1061.93176,1.36523
1060.44197,1.17465
1058.95219,1.20396
1057.46240,1.13954
1055.97261,1.07516
1054.48282,0.99919
1052.99303,0.95561
1051.50324,0.86726
1050.01345,0.78972
1048.52367,0.71802
1047.03388,0.73513
1045.54409,0.75226
1044.05430,0.70306
1042.56451,0.62070
1041.07472,0.51182
1039.58494,0.48511
1038.09515,0.43271
1036.60536,0.40937
1035.11557,0.38607
1033.62578,0.38188
1032.13599,0.39929
1030.64620,0.33543
1029.15642,0.38194
1027.66663,0.39197
1026.17684,0.40204
1024.68705,0.41214
1023.19726,0.52182
1021.70747,0.64398
1020.21769,0.75953
1018.72790,0.95227
1017.23811,1.06167
1015.74832,1.17109
1014.25853,1.34650
1012.76874,1.43400
1011.27896,1.68248
1009.78917,1.82231
1008.29938,1.94474
1006.80959,1.87141
1005.31980,1.79811
1003.83001,1.67839
1002.34022,1.52633
1000.85044,1.45893
999.36065,1.34593
997.87086,1.33957
996.38107,1.33325
994.89128,1.24937
993.40149,1.30492
991.91171,1.32232
990.42192,1.24186
988.93213,1.25435
987.44234,1.26190
985.95255,1.26947
984.46276,1.18748
982.97297,1.15612
981.48319,1.16710
979.99340,1.04704
978.50361,1.02365
977.01382,1.00030
975.52403,1.01058
974.03424,0.85745
972.54446,0.88355
971.05467,0.83667
969.56488,0.78236
968.07509,0.78366
966.58530,0.78500
965.09551,0.78222
963.60573,0.77863
962.11594,0.70539
960.62615,0.77322
959.13636,0.69341
957.64657,0.61362
956.15678,0.55792
954.66699,0.56199
953.17721,0.59513
951.68742,0.59262
950.19763,0.57107
948.70784,0.54954
947.21805,0.55127
945.72826,0.56797
944.23848,0.55317
942.74869,0.64211
941.25890,0.63484
939.76911,0.66783
938.27932,0.70086
936.78953,0.77582
935.29974,0.80849
933.80996,0.70514
932.32017,0.77355
930.83038,0.76483
929.34059,0.75615
927.85080,0.77653
926.36101,0.74800
924.87123,0.76595
923.38144,0.74577
921.89165,0.75840
920.40186,0.77105
918.91207,0.76839
917.42228,0.74170
915.93250,0.80630
914.44271,0.74067
912.95292,0.74809
911.46313,0.75553
909.97334,0.77462
908.48355,0.78130
906.99376,0.84027
905.50398,0.75077
904.01419,0.75837
902.52440,0.76600
901.03461,0.70480
899.54482,0.75895
898.05503,0.77580
896.56525,0.85324
895.07546,0.90914
893.58567,0.96507
892.09588,0.86341
890.60609,0.80574
889.11630,0.76386
887.62651,0.79752
886.13673,0.82622
884.64694,0.85496
883.15715,0.85967
881.66736,0.79555
880.17757,0.81028
878.68778,0.84121
877.19800,0.87217
875.70821,0.87206
874.21842,0.85953
872.72863,0.91091
871.23884,1.00795
869.74905,1.01460
868.25927,1.02127
866.76948,0.91929
865.27969,1.00982
863.78990,1.09872
862.30011,1.06404
860.81032,1.07169
859.32053,1.07938
857.83075,1.05308
856.34096,0.94966
854.85117,0.97569
853.36138,0.84827
851.87159,0.80674
850.38180,0.76525
848.89202,0.63128
847.40223,0.46084
845.91244,0.40243
844.42265,0.43075
842.93286,0.45910
841.44307,0.38751
839.95329,0.39809
838.46350,0.32324
836.97371,0.33719
835.48392,0.32214
833.99413,0.30712
832.50434,0.35933
831.01455,0.38419
829.52477,0.38917
828.03498,0.33610
826.54519,0.29884
825.05540,0.26160
823.56561,0.23434
822.07582,0.23782
820.58604,0.20233
819.09625,0.16604
817.60646,0.12979
816.11667,0.07863
814.62688,0.07396
813.13709,0.06351
811.64730,0.00000
810.15752,0.05410
808.66773,0.10822
807.17794,0.01180
805.68815,0.05313
804.19836,0.04222
802.70857,0.05956
801.21879,0.07692
799.72900,0.11256
798.23921,0.14907
796.74942,0.34987
795.25963,0.36486
793.76984,0.37989
792.28006,0.40988
790.79027,0.47806
789.30048,0.53881
787.81069,0.49505
786.32090,0.55503
784.83111,0.61504
783.34132,0.54483
781.85154,0.63477
780.36175,0.61771
778.87196,0.64549
777.38217,0.67330
775.89238,0.75091
774.40259,0.79040
772.91281,0.72206
771.42302,0.72634
769.93323,0.73066
768.44344,0.78022
766.95365,0.78584
765.46386,0.80559
763.97407,0.75818
762.48429,0.70291
760.99450,0.64768
759.50471,0.49333
758.01492,0.52900
756.52513,0.37721
755.03534,0.36026
753.54556,0.34334
752.05577,0.21901
750.56598,0.19261
749.07619,0.09821
747.58640,0.06980
746.09661,0.04142
744.60683,0.05746
743.11704,0.04946
741.62725,0.06058
740.13746,0.05514
738.64767,0.04973
737.15788,0.01199
735.66809,0.00000
734.17831,0.01378
732.68852,0.02427
731.19873,0.03479
729.70894,0.04368
728.21915,0.08496
726.72936,0.03501
725.23958,0.05312
723.74979,0.03227
722.26000,0.01145
720.77021,0.02219
719.28042,0.04872
717.79063,0.04873
716.30084,0.03052
714.81106,0.01234
713.32127,0.00000
711.83148,0.00144
710.34169,0.00790
708.85190,0.02724
707.36211,0.04661
705.87233,0.06643
704.38254,0.00000
702.89275,0.09495
701.40296,0.07585
699.91317,0.05679
698.42338,0.05061
696.93360,0.16062
695.44381,0.11800
693.95402,0.12768
692.46423,0.13739
690.97444,0.15294
689.48465,0.18511
687.99486,0.23142
686.50508,0.22964
685.01529,0.22789
683.52550,0.26018
682.03571,0.21203
680.54592,0.21618
679.05613,0.20293
677.56635,0.18972
676.07656,0.15497
674.58677,0.14016
673.09698,0.09468
671.60719,0.11685
670.11740,0.13905
668.62761,0.11274
667.13783,0.07568
665.64804,0.03783
664.15825,0.00000
662.66846,0.03104
661.17867,0.03638
659.68888,0.09154
658.19910,0.11064
656.70931,0.12977
655.21952,0.12445
653.72973,0.11502
652.23994,0.10976
650.75015,0.11533
649.26037,0.12092
647.77058,0.13733
646.28079,0.09154
644.79100,0.03998
643.30121,0.03450
641.81142,0.02904
640.32163,0.06717
638.83185,0.02984
637.34206,0.00000
635.85227,0.00797
634.36248,0.01596
632.87269,0.00449
631.38290,0.06440
629.89312,0.02147
628.40333,0.02378
626.91354,0.02612
625.42375,0.01646
623.93396,0.08317
622.44417,0.06693
620.95438,0.05073
619.46460,0.04285
617.97481,0.03335
616.48502,0.08610
614.99523,0.09864
613.50544,0.11121
612.01565,0.08026
610.52587,0.02445
609.03608,0.06242
607.54629,0.08217
606.05650,0.10195
604.56671,0.11761
603.07692,0.13828
601.58714,0.14155
600.09735,0.14486
598.60756,0.10008
597.11777,0.08022
595.62798,0.10519
594.13819,0.08912
592.64840,0.07309
591.15862,0.08487
589.66883,0.06517
588.17904,0.12845
586.68925,0.10798
585.19946,0.08753
583.70967,0.10611
582.21989,0.12223
580.73010,0.12262
579.24031,0.12303
577.75052,0.15667
576.26073,0.16047
574.77094,0.08631
573.28115,0.12211
571.79137,0.15794
570.30158,0.23321
568.81179,0.23965
567.32200,0.27266
565.83221,0.30571
564.34242,0.30063
562.85264,0.33374
561.36285,0.38182
559.87306,0.40088
558.38327,0.41998
556.89348,0.46981
555.40369,0.52547
553.91391,0.51853
552.42412,0.51161
550.93433,0.62047
549.44454,0.62647
547.95475,0.60016
546.46496,0.59793
544.97517,0.59573
543.48539,0.66657
541.99560,0.73496
540.50581,0.72414
539.01602,0.71336
537.52623,0.69306
536.03644,0.66450
534.54666,0.62933
533.05687,0.64107
531.56708,0.65284
530.07729,0.55968
528.58750,0.54787
527.09771,0.54189
525.60792,0.53594
524.11814,0.54081
522.62835,0.52248
521.13856,0.50916
519.64877,0.47430
518.15898,0.43947
516.66919,0.39886
515.17941,0.40142
513.68962,0.39116
512.19983,0.38092
510.71004,0.33712
509.22025,0.33151
507.73046,0.39147
506.24068,0.40707
504.75089,0.42271
503.26110,0.36330
501.77131,0.45491
500.28152,0.45072
498.79173,0.44657
497.30194,0.35327
495.81216,0.32387
494.32237,0.36627
492.83258,0.40870
491.34279,0.43333
489.85300,0.37999
488.36321,0.34577
486.87343,0.32071
485.38364,0.29568
483.89385,0.24496
482.40406,0.27723
480.91427,0.21828
479.42448,0.15935
477.93469,0.06893
476.44491,0.13368
474.95512,0.11882
473.46533,0.10399
471.97554,0.07011
470.48575,0.04372
468.99596,0.12190
467.50618,0.06239
466.01639,0.00291
464.52660,0.00000
463.03681,0.07744
461.54702,0.06988
460.05723,0.06234
458.56745,0.06936
457.07766,0.04736
455.58787,0.05236
454.09808,0.05740
452.60829,0.14252
451.11850,0.18370
449.62871,0.21994
448.13893,0.25620
446.64914,0.31905
445.15935,0.35620
443.66956,0.47304
442.17977,0.47997
440.68998,0.48694
439.20020,0.54081
437.71041,0.59057
436.22062,0.65114
434.73083,0.71174
433.24104,0.84704
431.75125,1.02717
430.26146,1.05385
428.77168,1.08055
427.28189,1.19938
425.79210,1.25519
424.30231,1.24300
422.81252,1.23083
421.32273,1.27927
419.83295,1.11700
418.34316,1.07506
416.85337,1.03315
415.36358,0.87762
413.87379,0.65491
412.38400,0.63093
410.89422,0.60698
409.40443,0.63492
407.91464,0.57743
406.42485,0.59879
404.93506,0.57829
403.44527,0.55781
401.95548,0.52036
400.46570,0.41490
398.97591,0.42273
397.48612,0.43058
395.99633,0.43390
394.50654,0.49367
393.01675,0.49705
391.52697,0.50047
390.03718,0.36121
388.54739,0.31325
387.05760,0.32879
385.56781,0.34435
384.07802,0.39272
382.58824,0.38636
381.09845,0.36220
379.60866,0.33806
378.11887,0.32101
376.62908,0.28076
375.13929,0.24178
373.64950,0.20284
372.15972,0.24979
370.66993,0.22294
369.18014,0.19362
367.69035,0.16434
366.20056,0.08448
364.71077,0.01710
363.22099,0.05884
361.73120,0.10062
360.24141,0.17519
358.75162,0.10876
357.26183,0.10043
355.77204,0.09214
354.28225,0.06894
352.79247,0.08808
351.30268,0.06370
349.81289,0.03935
348.32310,0.10338
346.83331,0.01479
345.34352,0.02828
343.85374,0.04180
342.36395,0.13500
340.87416,0.13696
339.38437,0.15597
337.89458,0.17500
336.40479,0.07667
334.91501,0.08042
333.42522,0.10991
331.93543,0.13944
330.44564,0.13747
328.95585,0.07331
327.46606,0.08717
325.97627,0.10105
324.48649,0.02786
322.99670,0.12481
321.50691,0.14463
320.01712,0.16448
318.52733,0.20759
317.03754,0.09476
315.54776,0.11470
314.05797,0.13468
312.56818,0.01281
311.07839,0.00547
309.58860,0.00272
308.09881,0.00000
306.60902,0.05219
305.11924,0.04053
303.62945,0.03263
302.13966,0.02477
300.64987,0.01237
299.16008,0.00000
