1778.52000,0.04610
1777.03021,0.06700
1775.54042,0.00697
1774.05063,0.03013
1772.56085,0.05004
1771.07106,0.08202
1769.58127,0.02212
1768.09148,0.05308
1766.60169,0.05343
1765.11190,0.03959
1763.62212,0.05095
1762.13233,0.11596
1760.64254,0.03219
1759.15275,0.03819
1757.66296,0.11533
1756.17317,0.02401
1754.68339,0.06183
1753.19360,0.04389
1751.70381,0.07303
1750.21402,0.02451
1748.72423,0.00776
1747.23444,0.05232
1745.74465,0.05971
1744.25487,0.05838
1742.76508,0.08334
1741.27529,0.07989
1739.78550,0.08414
1738.29571,0.09498
1736.80592,0.06865
1735.31614,0.07081
1733.82635,0.06753
1732.33656,0.07850
1730.84677,0.06325
1729.35698,0.03928
1727.86719,0.05255
1726.37740,0.02099
1724.88762,0.00697
1723.39783,0.03479
1721.90804,0.08891
1720.41825,0.04896
1718.92846,0.02656
1717.43867,0.07312
1715.94889,0.06828
1714.45910,0.08099
1712.96931,0.09921
1711.47952,0.10432
1709.98973,0.09525
1708.49994,0.11357
1707.01016,0.13137
1705.52037,0.14920
1704.03058,0.19498
1702.54079,0.17951
1701.05100,0.17173
1699.56121,0.17164
1698.07142,0.17707
1696.58164,0.22301
1695.09185,0.19786
1693.60206,0.21104
1692.11227,0.24505
1690.62248,0.24079
1689.13269,0.30003
1687.64291,0.27943
1686.15312,0.32232
1684.66333,0.26896
1683.17354,0.24737
1681.68375,0.26629
1680.19396,0.26118
1678.70417,0.28673
1677.21439,0.31014
1675.72460,0.24713
1674.23481,0.31984
1672.74502,0.27441
1671.25523,0.28810
1669.76544,0.33355
1668.27566,0.28385
1666.78587,0.25715
1665.29608,0.24034
1663.80629,0.24873
1662.31650,0.24621
1660.82671,0.31703
1659.33693,0.25878
1657.84714,0.23447
1656.35735,0.19817
1654.86756,0.17722
1653.37777,0.17709
1651.88798,0.14636
1650.39819,0.21414
1648.90841,0.18019
1647.41862,0.19880
1645.92883,0.21525
1644.43904,0.23174
1642.94925,0.20996
1641.45946,0.21776
1639.96968,0.18511
1638.47989,0.20502
1636.99010,0.14836
1635.50031,0.18147
1634.01052,0.15223
1632.52073,0.13945
1631.03094,0.18469
1629.54116,0.20152
1628.05137,0.21509
1626.56158,0.24840
1625.07179,0.27627
1623.58200,0.25603
1622.09221,0.27849
1620.60243,0.29224
1619.11264,0.25131
1617.62285,0.22573
1616.13306,0.24505
1614.64327,0.21516
1613.15348,0.23127
1611.66370,0.24412
1610.17391,0.19902
1608.68412,0.21632
1607.19433,0.20411
1605.70454,0.21272
1604.21475,0.21590
1602.72496,0.21911
1601.23518,0.18953
1599.74539,0.15670
1598.25560,0.19174
1596.76581,0.16554
1595.27602,0.20831
1593.78623,0.13623
1592.29645,0.14186
1590.80666,0.14097
1589.31687,0.16418
1587.82708,0.10098
1586.33729,0.15161
1584.84750,0.13006
1583.35771,0.11183
1581.86793,0.12755
1580.37814,0.04373
1578.88835,0.13721
1577.39856,0.15303
1575.90877,0.11746
1574.41898,0.08739
1572.92920,0.09237
1571.43941,0.04705
1569.94962,0.03952
1568.45983,0.03202
1566.97004,0.05792
1565.48025,0.06526
1563.99047,0.07373
1562.50068,0.08332
1561.01089,0.13563
1559.52110,0.11684
1558.03131,0.11669
1556.54152,0.13079
1555.05173,0.17557
1553.56195,0.11425
1552.07216,0.11642
1550.58237,0.08142
1549.09258,0.08038
1547.60279,0.06405
1546.11300,0.15171
1544.62322,0.07527
1543.13343,0.08749
1541.64364,0.09209
1540.15385,0.10712
1538.66406,0.12218
1537.17427,0.08748
1535.68448,0.04407
1534.19470,0.07072
1532.70491,0.06458
1531.21512,0.05629
1529.72533,0.05459
1528.23554,0.00697
1526.74575,0.11161
1525.25597,0.09702
1523.76618,0.05729
1522.27639,0.04714
1520.78660,0.06329
1519.29681,0.06962
1517.80702,0.06614
1516.31724,0.05504
1514.82745,0.01223
1513.33766,0.04722
1511.84787,0.08225
1510.35808,0.02375
1508.86829,0.04735
1507.37850,0.04473
1505.88872,0.05308
1504.39893,0.02536
1502.90914,0.03378
1501.41935,0.01050
1499.92956,0.03978
1498.43977,0.06033
1496.94999,0.11266
1495.46020,0.18471
1493.97041,0.15613
1492.48062,0.22934
1490.99083,0.27086
1489.50104,0.34633
1488.01125,0.38244
1486.52147,0.41859
1485.03168,0.40772
1483.54189,0.51397
1482.05210,0.59289
1480.56231,0.73093
1479.07252,0.81977
1477.58274,0.94803
1476.09295,0.97895
1474.60316,1.06023
1473.11337,1.13716
1471.62358,1.13426
1470.13379,1.16312
1468.64401,1.10776
1467.15422,1.09073
1465.66443,1.06881
1464.17464,1.04692
1462.68485,0.96215
1461.19506,0.92775
1459.70527,0.90214
1458.21549,0.86671
1456.72570,0.80834
1455.23591,0.69310
1453.74612,0.69170
1452.25633,0.66953
1450.76654,0.62443
1449.27676,0.62531
1447.78697,0.59450
1446.29718,0.59654
1444.80739,0.55759
1443.31760,0.51867
1441.82781,0.43219
1440.33802,0.36981
1438.84824,0.26808
1437.35845,0.24406
1435.86866,0.24963
1434.37887,0.26398
1432.88908,0.26524
1431.39929,0.29170
1429.90951,0.30177
1428.41972,0.27687
1426.92993,0.23997
1425.44014,0.25780
1423.95035,0.24504
1422.46056,0.23231
1420.97078,0.29620
1419.48099,0.26494
1417.99120,0.26872
1416.50141,0.31959
1415.01162,0.31578
1413.52183,0.31310
1412.03204,0.26340
1410.54226,0.33410
1409.05247,0.28885
1407.56268,0.36071
1406.07289,0.30786
1404.58310,0.30867
1403.09331,0.30951
1401.60353,0.35524
1400.11374,0.30035
1398.62395,0.38882
1397.13416,0.37448
1395.64437,0.37658
1394.15458,0.45969
1392.66479,0.42575
1391.17501,0.44108
1389.68522,0.40174
1388.19543,0.34164
1386.70564,0.34668
1385.21585,0.35176
1383.72606,0.39899
1382.23628,0.32918
1380.74649,0.32506
1379.25670,0.32534
1377.76691,0.35302
1376.27712,0.37526
1374.78733,0.41504
1373.29755,0.47783
1371.80776,0.56910
1370.31797,0.67682
1368.82818,0.68227
1367.33839,0.68775
1365.84860,0.94439
1364.35881,0.96799
1362.86903,1.11527
1361.37924,1.18490
1359.88945,1.29395
1358.39966,1.39757
1356.90987,1.38085
1355.42008,1.31056
1353.93030,1.29391
1352.44051,1.28113
1350.95072,1.26838
1349.46093,1.22339
1347.97114,1.14341
1346.48135,0.97156
1344.99156,0.94198
1343.50178,0.77020
1342.01199,0.66410
1340.52220,0.54599
1339.03241,0.59972
1337.54262,0.54514
1336.05283,0.54805
1334.56305,0.55100
1333.07326,0.51185
1331.58347,0.49680
1330.09368,0.48179
1328.60389,0.40554
1327.11410,0.39497
1325.62432,0.31660
1324.13453,0.35096
1322.64474,0.33503
1321.15495,0.38478
1319.66516,0.31803
1318.17537,0.25132
1316.68558,0.33071
1315.19580,0.35653
1313.70601,0.34627
1312.21622,0.30759
1310.72643,0.28755
1309.23664,0.28505
1307.74685,0.27602
1306.25707,0.29328
1304.76728,0.25860
1303.27749,0.22396
1301.78770,0.27086
1300.29791,0.25981
1298.80812,0.24004
1297.31834,0.33410
1295.82855,0.29580
1294.33876,0.34835
1292.84897,0.29260
1291.35918,0.28175
1289.86939,0.24906
1288.37960,0.21639
1286.88982,0.27677
1285.40003,0.35578
1283.91024,0.41623
1282.42045,0.37276
1280.93066,0.37746
1279.44087,0.40628
1277.95109,0.43950
1276.46130,0.38413
1274.97151,0.42946
1273.48172,0.47482
1271.99193,0.44034
1270.50214,0.42778
1269.01235,0.42838
1267.52257,0.56579
1266.03278,0.47674
1264.54299,0.55513
1263.05320,0.65325
1261.56341,0.60588
1260.07362,0.55854
1258.58384,0.61190
1257.09405,0.53289
1255.60426,0.59726
1254.11447,0.62446
1252.62468,0.62106
1251.13489,0.63192
1249.64511,0.54761
1248.15532,0.49835
1246.66553,0.43490
1245.17574,0.37149
1243.68595,0.32780
1242.19616,0.42968
1240.70637,0.35761
1239.21659,0.33591
1237.72680,0.22233
1236.23701,0.19961
1234.74722,0.20646
1233.25743,0.19529
1231.76764,0.18415
1230.27786,0.19767
1228.78807,0.27140
1227.29828,0.22590
1225.80849,0.19028
1224.31870,0.14704
1222.82891,0.14759
1221.33912,0.15584
1219.84934,0.15318
1218.35955,0.15056
1216.86976,0.21253
1215.37997,0.16839
1213.89018,0.24027
1212.40039,0.20496
1210.91061,0.18828
1209.42082,0.19461
1207.93103,0.18292
1206.44124,0.17127
1204.95145,0.17113
1203.46166,0.05286
1201.97188,0.03420
1200.48209,0.13046
1198.99230,0.15563
1197.50251,0.06485
1196.01272,0.02443
1194.52293,0.03767
1193.03314,0.05094
1191.54336,0.07299
1190.05357,0.03490
1188.56378,0.07125
1187.07399,0.00697
1185.58420,0.06122
1184.09441,0.12863
1182.60463,0.07626
1181.11484,0.02392
1179.62505,0.10237
1178.13526,0.02220
1176.64547,0.02741
1175.15568,0.06548
1173.66589,0.13313
1172.17611,0.10890
1170.68632,0.09674
1169.19653,0.08461
1167.70674,0.08017
1166.21695,0.11298
1164.72716,0.10314
1163.23738,0.09114
1161.74759,0.00697
1160.25780,0.10185
1158.76801,0.08187
1157.27822,0.06192
1155.78843,0.07921
1154.29865,0.08997
1152.80886,0.10951
1151.31907,0.12362
1149.82928,0.11697
1148.33949,0.24276
1146.84970,0.19843
1145.35991,0.15413
1143.87013,0.08744
1142.38034,0.11926
1140.89055,0.18832
1139.40076,0.13704
1137.91097,0.13504
1136.42118,0.21733
1134.93140,0.22197
1133.44161,0.22663
1131.95182,0.30793
1130.46203,0.36519
1128.97224,0.42138
1127.48245,0.39992
1125.99266,0.39382
1124.50288,0.47528
1123.01309,0.42438
1121.52330,0.37351
1120.03351,0.41897
1118.54372,0.48635
1117.05393,0.47935
1115.56415,0.50302
1114.07436,0.50813
1112.58457,0.52586
1111.09478,0.54361
1109.60499,0.60900
1108.11520,0.65801
1106.62542,0.55606
1105.13563,0.69486
1103.64584,0.80634
1102.15605,0.86315
1100.66626,0.88169
1099.17647,0.90027
1097.68668,0.91888
1096.19690,1.01630
1094.70711,0.99778
1093.21732,1.00117
1091.72753,1.07244
1090.23774,1.07644
1088.74795,1.08048
1087.25817,1.22845
1085.76838,1.22216
1084.27859,1.20169
1082.78880,1.26550
1081.29901,1.32825
1079.80922,1.30349
1078.31943,1.30887
1076.82965,1.31427
1075.33986,1.39138
1073.85007,1.43570
1072.36028,1.36516
1070.87049,1.37234
1069.38070,1.44083
1067.89092,1.44863
1066.40113,1.45646
1064.91134,1.39594
1063.42155,1.24354
1061.93176,1.30126
1060.44197,1.18284
1058.95219,1.14324
1057.46240,1.09219
1055.97261,1.04117
1054.48282,0.96666
1052.99303,0.89328
1051.50324,0.97531
1050.01345,0.85932
1048.52367,0.80573
1047.03388,0.74725
1045.54409,0.68881
1044.05430,0.57186
1042.56451,0.45714
1041.07472,0.43327
1039.58494,0.46851
1038.09515,0.48301
1036.60536,0.47893
1035.11557,0.47489
1033.62578,0.47416
1032.13599,0.48004
1030.64620,0.38090
1029.15642,0.45578
1027.66663,0.46011
1026.17684,0.46448
1024.68705,0.50335
1023.19726,0.59696
1021.70747,0.71140
1020.21769,0.93529
1018.72790,1.06074
1017.23811,1.14519
1015.74832,1.22967
1014.25853,1.44604
1012.76874,1.53661
1011.27896,1.84933
1009.78917,1.92137
1008.29938,2.00000
1006.80959,1.95721
1005.31980,1.91445
1003.83001,1.74590
1002.34022,1.72290
1000.85044,1.56317
999.36065,1.43739
997.87086,1.35596
996.38107,1.27456
994.89128,1.36772
993.40149,1.47295
991.91171,1.40862
990.42192,1.43951
988.93213,1.41245
987.44234,1.41550
985.95255,1.41860
984.46276,1.40695
982.97297,1.37565
981.48319,1.40674
979.99340,1.24092
978.50361,1.20916
977.01382,1.17745
975.52403,1.28090
974.03424,1.21806
972.54446,1.10711
971.05467,1.07061
969.56488,1.04617
968.07509,1.04310
966.58530,1.04007
965.09551,1.03762
963.60573,1.03630
962.11594,0.94309
960.62615,0.92324
959.13636,0.87168
957.64657,0.82016
956.15678,0.82557
954.66699,0.78397
953.17721,0.80476
951.68742,0.83654
950.19763,0.82731
948.70784,0.81812
947.21805,0.68586
945.72826,0.67401
944.23848,0.75738
942.74869,0.66242
941.25890,0.79073
939.76911,0.81347
938.27932,0.83625
936.78953,0.92635
935.29974,0.91364
933.80996,0.71165
932.32017,0.83906
930.83038,0.84998
929.34059,0.86092
927.85080,0.87463
926.36101,0.88400
924.87123,0.84198
923.38144,0.80109
921.89165,0.84995
920.40186,0.89885
918.91207,0.87994
917.42228,0.80635
915.93250,0.92428
914.44271,0.86609
912.95292,0.89163
911.46313,0.91720
909.97334,0.95430
908.48355,1.01332
906.99376,1.01984
905.50398,0.99358
904.01419,0.93397
902.52440,0.87440
901.03461,0.93031
899.54482,0.98953
898.05503,1.04440
896.56525,1.03475
895.07546,1.05414
893.58567,1.07355
892.09588,1.05197
890.60609,1.09060
889.11630,1.08222
887.62651,1.01806
886.13673,0.97856
884.64694,0.93909
883.15715,1.01509
881.66736,0.92372
880.17757,0.94180
878.68778,0.95772
877.19800,0.97368
875.70821,1.04220
874.21842,1.03524
872.72863,1.00316
871.23884,1.06411
869.74905,1.09939
868.25927,1.13470
866.76948,1.08415
865.27969,1.08615
863.78990,1.18010
862.30011,1.20516
860.81032,1.24720
859.32053,1.28928
857.83075,1.04635
856.34096,0.97853
854.85117,0.95341
853.36138,0.83751
851.87159,0.81575
850.38180,0.79402
848.89202,0.69245
847.40223,0.53620
845.91244,0.55834
844.42265,0.55480
842.93286,0.55129
841.44307,0.48381
839.95329,0.38791
838.46350,0.35441
836.97371,0.38989
835.48392,0.42539
833.99413,0.46093
832.50434,0.37177
831.01455,0.32969
829.52477,0.44849
828.03498,0.31785
826.54519,0.27751
825.05540,0.23721
823.56561,0.25439
822.07582,0.22236
820.58604,0.17176
819.09625,0.12831
817.60646,0.08489
816.11667,0.03768
814.62688,0.04849
813.13709,0.05387
811.64730,0.06038
810.15752,0.06910
808.66773,0.07787
807.17794,0.02976
805.68815,0.01890
804.19836,0.00697
802.70857,0.04063
801.21879,0.07432
799.72900,0.11243
798.23921,0.26327
796.74942,0.33536
795.25963,0.37466
793.76984,0.41400
792.28006,0.46212
790.79027,0.54966
789.30048,0.67445
787.81069,0.69313
786.32090,0.70309
784.83111,0.71308
783.34132,0.73624
781.85154,0.71347
780.36175,0.67105
778.87196,0.73862
777.38217,0.80623
775.89238,0.77375
774.40259,0.93608
772.91281,0.87303
771.42302,0.88770
769.93323,0.90241
768.44344,0.99813
766.95365,0.95053
765.46386,0.95112
763.97407,0.95830
762.48429,0.91574
760.99450,0.87320
759.50471,0.71089
758.01492,0.57268
756.52513,0.52860
755.03534,0.41617
753.54556,0.30378
752.05577,0.25762
750.56598,0.18195
749.07619,0.07458
747.58640,0.08651
746.09661,0.09848
744.60683,0.06234
743.11704,0.06124
741.62725,0.07112
740.13746,0.08432
738.64767,0.09755
737.15788,0.05829
735.66809,0.05408
734.17831,0.05647
732.68852,0.11689
731.19873,0.17734
729.70894,0.08792
728.21915,0.11342
726.72936,0.05361
725.23958,0.00697
723.74979,0.05091
722.26000,0.09488
720.77021,0.08308
719.28042,0.11071
717.79063,0.05084
716.30084,0.03640
714.81106,0.02201
713.32127,0.01475
711.83148,0.07866
710.34169,0.01458
708.85190,0.07363
707.36211,0.13271
705.87233,0.10484
704.38254,0.00697
702.89275,0.06120
701.40296,0.09632
699.91317,0.13148
698.42338,0.19675
696.93360,0.22486
695.44381,0.21033
693.95402,0.21389
692.46423,0.21748
690.97444,0.20415
689.48465,0.24665
687.99486,0.29794
686.50508,0.27814
685.01529,0.25837
683.52550,0.30648
682.03571,0.31742
680.54592,0.25071
679.05613,0.21576
677.56635,0.18085
676.07656,0.18973
674.58677,0.24789
673.09698,0.16931
671.60719,0.18487
670.11740,0.20045
668.62761,0.17121
667.13783,0.12012
665.64804,0.13034
664.15825,0.14059
662.66846,0.09398
661.17867,0.02223
659.68888,0.12778
658.19910,0.13981
656.70931,0.15187
655.21952,0.16014
653.72973,0.23300
652.23994,0.14504
650.75015,0.19718
649.26037,0.24935
647.77058,0.22386
646.28079,0.15027
644.79100,0.11282
643.30121,0.10877
641.81142,0.10476
640.32163,0.15823
638.83185,0.08808
637.34206,0.05517
635.85227,0.03105
634.36248,0.00697
632.87269,0.07396
631.38290,0.13880
629.89312,0.08659
628.40333,0.07983
626.91354,0.07310
625.42375,0.13151
623.93396,0.14180
622.44417,0.18551
620.95438,0.22925
619.46460,0.15430
617.97481,0.07720
616.48502,0.21459
614.99523,0.17585
613.50544,0.13715
612.01565,0.16194
610.52587,0.04124
609.03608,0.11315
607.54629,0.12546
606.05650,0.13781
604.56671,0.09712
603.07692,0.08928
601.58714,0.11213
600.09735,0.13500
598.60756,0.13056
597.11777,0.09003
595.62798,0.12177
594.13819,0.09007
592.64840,0.05840
591.15862,0.06616
589.66883,0.11553
588.17904,0.10257
586.68925,0.07049
585.19946,0.03845
583.70967,0.18315
582.21989,0.15172
580.73010,0.15534
579.24031,0.15900
577.75052,0.13861
576.26073,0.11498
574.77094,0.05964
573.28115,0.09188
571.79137,0.12415
570.30158,0.28229
568.81179,0.29932
567.32200,0.31145
565.83221,0.32361
564.34242,0.24663
562.85264,0.37649
561.36285,0.46809
559.87306,0.48148
558.38327,0.49491
556.89348,0.46734
555.40369,0.56892
553.91391,0.55728
552.42412,0.54568
550.93433,0.58389
549.44454,0.53242
547.95475,0.66590
546.46496,0.63802
544.97517,0.61017
543.48539,0.73062
541.99560,0.79092
540.50581,0.77248
539.01602,0.75407
537.52623,0.72256
536.03644,0.50616
534.54666,0.62354
533.05687,0.62714
531.56708,0.63079
530.07729,0.64650
528.58750,0.62176
527.09771,0.62113
525.60792,0.62053
524.11814,0.51492
522.62835,0.58113
521.13856,0.57516
519.64877,0.52382
518.15898,0.47251
516.66919,0.42725
515.17941,0.34701
513.68962,0.36254
512.19983,0.37812
510.71004,0.31877
509.22025,0.31416
507.73046,0.35993
506.24068,0.38275
504.75089,0.40560
503.26110,0.33219
501.77131,0.39341
500.28152,0.46287
498.79173,0.53236
497.30194,0.36499
495.81216,0.37820
494.32237,0.42153
492.83258,0.46490
491.34279,0.44429
489.85300,0.35368
488.36321,0.29046
486.87343,0.35639
485.38364,0.42236
483.89385,0.29140
482.40406,0.25677
480.91427,0.21014
479.42448,0.16353
477.93469,0.08086
476.44491,0.00697
474.95512,0.04597
473.46533,0.08500
471.97554,0.04583
470.48575,0.06906
468.99596,0.01573
467.50618,0.00785
466.01639,-0.00000
464.52660,0.00334
463.03681,0.13145
461.54702,0.08452
460.05723,0.03762
458.56745,0.07173
457.07766,0.06648
455.58787,0.06455
454.09808,0.06265
452.60829,0.13848
451.11850,0.17604
449.62871,0.17917
448.13893,0.18233
446.64914,0.31081
445.15935,0.32772
443.66956,0.46283
442.17977,0.50771
440.68998,0.55262
439.20020,0.59264
437.71041,0.65239
436.22062,0.66348
434.73083,0.67461
433.24104,0.90953
431.75125,1.01319
430.26146,1.05615
428.77168,1.09914
427.28189,1.22916
425.79210,1.20820
424.30231,1.19002
422.81252,1.17188
421.32273,1.04489
419.83295,1.02298
418.34316,1.01259
416.85337,1.00224
415.36358,0.72658
413.87379,0.74091
412.38400,0.67923
410.89422,0.61759
409.40443,0.58935
407.91464,0.68807
406.42485,0.52422
404.93506,0.50265
403.44527,0.48111
401.95548,0.47274
400.46570,0.41954
398.97591,0.41780
397.48612,0.41609
395.99633,0.43521
394.50654,0.54190
393.01675,0.54084
391.52697,0.53982
390.03718,0.32710
388.54739,0.27854
387.05760,0.31264
385.56781,0.34676
384.07802,0.44822
382.58824,0.40308
381.09845,0.40339
379.60866,0.40373
378.11887,0.29523
376.62908,0.40451
375.13929,0.33766
373.64950,0.27085
372.15972,0.21938
370.66993,0.15044
369.18014,0.16306
367.69035,0.17571
366.20056,0.06310
364.71077,0.06980
363.22099,0.12851
361.73120,0.18725
360.24141,0.17544
358.75162,0.23261
357.26183,0.22361
355.77204,0.21465
354.28225,0.15483
352.79247,0.08302
351.30268,0.06978
349.81289,0.05657
348.32310,0.14024
346.83331,0.05980
345.34352,0.09193
343.85374,0.12408
342.36395,0.11524
340.87416,0.09439
339.38437,0.14634
337.89458,0.19833
336.40479,0.11850
334.91501,0.00697
333.42522,0.02386
331.93543,0.04078
330.44564,0.07087
328.95585,0.17650
327.46606,0.12951
325.97627,0.08256
324.48649,0.08415
322.99670,0.11969
321.50691,0.13612
320.01712,0.15258
318.52733,0.19151
317.03754,0.18233
315.54776,0.18248
314.05797,0.18266
312.56818,0.09042
311.07839,0.00697
309.58860,0.03699
308.09881,0.06705
306.60902,0.07526
305.11924,0.14806
303.62945,0.09123
302.13966,0.03444
300.64987,0.00697
299.16008,0.00697
