1778.52000,0.06335
1777.03021,0.05977
1775.54042,0.04423
1774.05063,0.07787
1772.56085,0.04083
1771.07106,0.03618
1769.58127,0.05434
1768.09148,0.04017
1766.60169,0.06559
1765.11190,0.04070
1763.62212,0.03862
1762.13233,0.04256
1760.64254,0.05973
1759.15275,0.00860
1757.66296,0.00186
1756.17317,0.09944
1754.68339,0.02683
1753.19360,0.07414
1751.70381,0.03756
1750.21402,0.05377
1748.72423,0.03284
1747.23444,0.02514
1745.74465,0.02227
1744.25487,0.03740
1742.76508,0.10652
1741.27529,0.00186
1739.78550,0.06112
1738.29571,0.06768
1736.80592,0.06348
1735.31614,0.03175
1733.82635,0.04680
1732.33656,0.05589
1730.84677,0.07341
1729.35698,0.05140
1727.86719,0.00186
1726.37740,0.03355
1724.88762,0.03891
1723.39783,0.02153
1721.90804,0.05932
1720.41825,0.06958
1718.92846,0.04870
1717.43867,0.05782
1715.94889,0.06938
1714.45910,0.08816
1712.96931,0.05783
1711.47952,0.09586
1709.98973,0.10276
1708.49994,0.11927
1707.01016,0.09927
1705.52037,0.07930
1704.03058,0.15825
1702.54079,0.19648
1701.05100,0.08131
1699.56121,0.13160
1698.07142,0.22387
1696.58164,0.17713
1695.09185,0.11844
1693.60206,0.16406
1692.11227,0.20852
1690.62248,0.21346
1689.13269,0.27117
1687.64291,0.20906
1686.15312,0.21170
1684.66333,0.20359
1683.17354,0.27462
1681.68375,0.31572
1680.19396,0.23939
1678.70417,0.25419
1677.21439,0.23186
1675.72460,0.28988
1674.23481,0.28800
1672.74502,0.22382
1671.25523,0.28673
1669.76544,0.25618
1668.27566,0.27482
1666.78587,0.20358
1665.29608,0.28940
1663.80629,0.23622
1662.31650,0.23940
1660.82671,0.21505
1659.33693,0.19553
1657.84714,0.20720
1656.35735,0.18775
1654.86756,0.19350
1653.37777,0.17291
1651.88798,0.16195
1650.39819,0.18578
1648.90841,0.18207
1647.41862,0.17960
1645.92883,0.17896
1644.43904,0.17836
1642.94925,0.17359
1641.45946,0.16646
1639.96968,0.11861
1638.47989,0.17747
1636.99010,0.16205
1635.50031,0.17783
1634.01052,0.11933
1632.52073,0.16634
1631.03094,0.17742
1629.54116,0.17776
1628.05137,0.23566
1626.56158,0.19890
1625.07179,0.19933
1623.58200,0.21898
1622.09221,0.19431
1620.60243,0.24159
1619.11264,0.20860
1617.62285,0.26074
1616.13306,0.17747
1614.64327,0.19732
1613.15348,0.20881
1611.66370,0.19996
1610.17391,0.16837
1608.68412,0.12722
1607.19433,0.16881
1605.70454,0.15770
1604.21475,0.17239
1602.72496,0.18712
1601.23518,0.23125
1599.74539,0.17831
1598.25560,0.17696
1596.76581,0.16964
1595.27602,0.12760
1593.78623,0.10717
1592.29645,0.08317
1590.80666,0.14552
1589.31687,0.10241
1587.82708,0.06773
1586.33729,0.13018
1584.84750,0.04642
1583.35771,0.09934
1581.86793,0.07678
1580.37814,0.07104
1578.88835,0.05574
1577.39856,0.08722
1575.90877,0.08877
1574.41898,0.03761
1572.92920,0.04762
1571.43941,0.07444
1569.94962,0.07733
1568.45983,0.08025
1566.97004,0.05683
1565.48025,0.05741
1563.99047,0.04245
1562.50068,0.01194
1561.01089,0.08455
1559.52110,0.05651
1558.03131,0.06565
1556.54152,0.11080
1555.05173,0.11761
1553.56195,0.05734
1552.07216,0.06423
1550.58237,0.06755
1549.09258,0.03255
1547.60279,0.11625
1546.11300,0.12207
1544.62322,0.11594
1543.13343,0.10865
1541.64364,0.04984
1540.15385,0.02583
1538.66406,0.00186
1537.17427,0.03407
1535.68448,0.01597
1534.19470,0.02307
1532.70491,0.03381
1531.21512,0.05177
1529.72533,0.02661
1528.23554,0.03026
1526.74575,0.01595
1525.25597,0.01128
1523.76618,0.03540
1522.27639,0.04278
1520.78660,0.02861
1519.29681,0.04924
1517.80702,0.00517
1516.31724,0.08820
1514.82745,0.01903
1513.33766,0.01043
1511.84787,0.00186
1510.35808,0.07881
1508.86829,0.10666
1507.37850,0.06501
1505.88872,0.02940
1504.39893,0.00939
1502.90914,0.03857
1501.41935,0.00186
1499.92956,0.02823
1498.43977,0.12177
1496.94999,0.11105
1495.46020,0.13993
1493.97041,0.24435
1492.48062,0.29727
1490.99083,0.26990
1489.50104,0.39721
1488.01125,0.42325
1486.52147,0.44933
1485.03168,0.53718
1483.54189,0.58191
1482.05210,0.60629
1480.56231,0.68585
1479.07252,0.84335
1477.58274,1.02846
1476.09295,1.09973
1474.60316,1.15664
1473.11337,1.24596
1471.62358,1.24900
1470.13379,1.34678
1468.64401,1.11854
1467.15422,1.06296
1465.66443,1.08352
1464.17464,1.10411
1462.68485,1.04383
1461.19506,1.03273
1459.70527,0.95213
1458.21549,0.83202
1456.72570,0.78026
1455.23591,0.81724
1453.74612,0.70202
1452.25633,0.72708
1450.76654,0.72701
1449.27676,0.72816
1447.78697,0.65263
1446.29718,0.62389
1444.80739,0.56581
1443.31760,0.50777
1441.82781,0.43717
1440.33802,0.36421
1438.84824,0.35122
1437.35845,0.28672
1435.86866,0.35290
1434.37887,0.33162
1432.88908,0.27441
1431.39929,0.28556
1429.90951,0.26918
1428.41972,0.22406
1426.92993,0.29404
1425.44014,0.34368
1423.95035,0.36519
1422.46056,0.38673
1420.97078,0.30822
1419.48099,0.39276
1417.99120,0.26757
1416.50141,0.37375
1415.01162,0.32893
1413.52183,0.31652
1412.03204,0.35567
1410.54226,0.36250
1409.05247,0.36577
1407.56268,0.37027
1406.07289,0.37480
1404.58310,0.33562
1403.09331,0.29647
1401.60353,0.32867
1400.11374,0.38128
1398.62395,0.36081
1397.13416,0.39552
1395.64437,0.36553
1394.15458,0.42547
1392.66479,0.50342
1391.17501,0.44836
1389.68522,0.50601
1388.19543,0.39587
1386.70564,0.40564
1385.21585,0.41544
1383.72606,0.44326
1382.23628,0.36922
1380.74649,0.39950
1379.25670,0.40584
1377.76691,0.37625
1376.27712,0.48095
1374.78733,0.50657
1373.29755,0.46990
1371.80776,0.60347
1370.31797,0.63039
1368.82818,0.69510
1367.33839,0.75985
1365.84860,0.87198
1364.35881,0.97335
1362.86903,1.24497
1361.37924,1.24572
1359.88945,1.37117
1358.39966,1.40316
1356.90987,1.43278
1355.42008,1.46603
1353.93030,1.38065
1352.44051,1.40438
1350.95072,1.42815
1349.46093,1.35365
1347.97114,1.30796
1346.48135,1.04175
1344.99156,0.82591
1343.50178,0.74436
1342.01199,0.71080
1340.52220,0.69045
1339.03241,0.60900
1337.54262,0.68221
1336.05283,0.68474
1334.56305,0.68730
1333.07326,0.54845
1331.58347,0.54988
1330.09368,0.43267
1328.60389,0.44256
1327.11410,0.48485
1325.62432,0.40011
1324.13453,0.33818
1322.64474,0.41652
1321.15495,0.40501
1319.66516,0.39712
1318.17537,0.38926
1316.68558,0.44857
1315.19580,0.41920
1313.70601,0.38148
1312.21622,0.38335
1310.72643,0.29295
1309.23664,0.28410
1307.74685,0.27768
1306.25707,0.36360
1304.76728,0.32428
1303.27749,0.28500
1301.78770,0.30269
1300.29791,0.21493
1298.80812,0.27224
1297.31834,0.32719
1295.82855,0.33542
1294.33876,0.34369
1292.84897,0.27168
1291.35918,0.22608
1289.86939,0.24584
1288.37960,0.26563
1286.88982,0.37475
1285.40003,0.36285
1283.91024,0.45646
1282.42045,0.39068
1280.93066,0.35370
1279.44087,0.42344
1277.95109,0.42849
1276.46130,0.42637
1274.97151,0.46085
1273.48172,0.49537
1271.99193,0.43222
1270.50214,0.56689
1269.01235,0.58533
1267.52257,0.55824
1266.03278,0.55157
1264.54299,0.55932
1263.05320,0.65460
1261.56341,0.65223
1260.07362,0.64989
1258.58384,0.65297
1257.09405,0.62373
1255.60426,0.61250
1254.11447,0.63487
1252.62468,0.58894
1251.13489,0.57422
1249.64511,0.54515
1248.15532,0.46097
1246.66553,0.39900
1245.17574,0.33706
1243.68595,0.33210
1242.19616,0.46141
1240.70637,0.40737
1239.21659,0.38693
1237.72680,0.28980
1236.23701,0.26223
1234.74722,0.24668
1233.25743,0.18141
1231.76764,0.11619
1230.27786,0.16187
1228.78807,0.26992
1227.29828,0.23895
1225.80849,0.18525
1224.31870,0.11719
1222.82891,0.08633
1221.33912,0.16818
1219.84934,0.16195
1218.35955,0.15577
1216.86976,0.18497
1215.37997,0.26456
1213.89018,0.20872
1212.40039,0.21406
1210.91061,0.15230
1209.42082,0.22123
1207.93103,0.18172
1206.44124,0.14224
1204.95145,0.05424
1203.46166,0.04899
1201.97188,0.10850
1200.48209,0.12010
1198.99230,0.07060
1197.50251,0.03312
1196.01272,0.05561
1194.52293,0.02779
1193.03314,-0.00000
1191.54336,0.04297
1190.05357,0.09076
1188.56378,0.03910
1187.07399,0.00186
1185.58420,0.06189
1184.09441,0.04044
1182.60463,0.05259
1181.11484,0.06478
1179.62505,0.01227
1178.13526,0.02932
1176.64547,0.05719
1175.15568,0.06591
1173.66589,0.03272
1172.17611,0.03671
1170.68632,0.04314
1169.19653,0.04961
1167.70674,0.04411
1166.21695,0.02907
1164.72716,0.07998
1163.23738,0.05781
1161.74759,0.03328
1160.25780,0.08549
1158.76801,0.09279
1157.27822,0.10012
1155.78843,0.01939
1154.29865,0.10770
1152.80886,0.00186
1151.31907,0.09975
1149.82928,0.16411
1148.33949,0.13142
1146.84970,0.13891
1145.35991,0.14644
1143.87013,0.09826
1142.38034,0.15560
1140.89055,0.22856
1139.40076,0.27159
1137.91097,0.15522
1136.42118,0.30979
1134.93140,0.31036
1133.44161,0.31097
1131.95182,0.36015
1130.46203,0.40458
1128.97224,0.46223
1127.48245,0.36647
1125.99266,0.39662
1124.50288,0.42559
1123.01309,0.43303
1121.52330,0.44050
1120.03351,0.43961
1118.54372,0.49150
1117.05393,0.51466
1115.56415,0.56901
1114.07436,0.59822
1112.58457,0.56754
1111.09478,0.53689
1109.60499,0.60217
1108.11520,0.53922
1106.62542,0.60216
1105.13563,0.71909
1103.64584,0.84203
1102.15605,0.83796
1100.66626,0.85369
1099.17647,0.86946
1097.68668,0.87028
1096.19690,0.94185
1094.70711,0.87681
1093.21732,1.00479
1091.72753,1.01054
1090.23774,1.03311
1088.74795,1.05570
1087.25817,1.17903
1085.76838,1.14775
1084.27859,1.18963
1082.78880,1.19438
1081.29901,1.16800
1079.80922,1.19800
1078.31943,1.20765
1076.82965,1.21733
1075.33986,1.31335
1073.85007,1.35307
1072.36028,1.42638
1070.87049,1.40983
1069.38070,1.39451
1067.89092,1.43976
1066.40113,1.48504
1064.91134,1.37992
1063.42155,1.26525
1061.93176,1.24530
1060.44197,1.20022
1058.95219,1.08085
1057.46240,1.05381
1055.97261,1.02681
1054.48282,1.02981
1052.99303,0.82427
1051.50324,0.74943
1050.01345,0.79568
1048.52367,0.68494
1047.03388,0.68511
1045.54409,0.68531
1044.05430,0.66817
1042.56451,0.50842
1041.07472,0.48176
1039.58494,0.43115
1038.09515,0.53521
1036.60536,0.49187
1035.11557,0.44856
1033.62578,0.38131
1032.13599,0.34886
1030.64620,0.35000
1029.15642,0.44227
1027.66663,0.40932
1026.17684,0.37640
1024.68705,0.47238
1023.19726,0.56838
1021.70747,0.71237
1020.21769,0.81324
1018.72790,0.90935
1017.23811,1.00369
1015.74832,1.09807
1014.25853,1.39206
1012.76874,1.59739
1011.27896,1.85788
1009.78917,1.89905
1008.29938,1.98941
1006.80959,1.99469
1005.31980,2.00000
1003.83001,1.71527
1002.34022,1.56962
1000.85044,1.53068
999.36065,1.37191
997.87086,1.37859
996.38107,1.38531
994.89128,1.32253
993.40149,1.33291
991.91171,1.30736
990.42192,1.38614
988.93213,1.41579
987.44234,1.36338
985.95255,1.31100
984.46276,1.27723
982.97297,1.27346
981.48319,1.33445
979.99340,1.22647
978.50361,1.23119
977.01382,1.23595
975.52403,1.19040
974.03424,1.09213
972.54446,1.06223
971.05467,1.17740
969.56488,1.12479
968.07509,1.06802
966.58530,1.01128
965.09551,0.95398
963.60573,0.93267
962.11594,0.93058
960.62615,0.91653
959.13636,0.81501
957.64657,0.71352
956.15678,0.71995
954.66699,0.72162
953.17721,0.70894
951.68742,0.79818
950.19763,0.77658
948.70784,0.75501
947.21805,0.74366
945.72826,0.67361
944.23848,0.67072
942.74869,0.70023
941.25890,0.70460
939.76911,0.72819
938.27932,0.75180
936.78953,0.88094
935.29974,0.81233
933.80996,0.84563
932.32017,0.86579
930.83038,0.86800
929.34059,0.87024
927.85080,0.73467
926.36101,0.73459
924.87123,0.84122
923.38144,0.69616
921.89165,0.72315
920.40186,0.75017
918.91207,0.79820
917.42228,0.85106
915.93250,0.82364
914.44271,0.75790
912.95292,0.77490
911.46313,0.79193
909.97334,0.73948
908.48355,0.86206
906.99376,0.86002
905.50398,0.72735
904.01419,0.72837
902.52440,0.72943
901.03461,0.78626
899.54482,0.89825
898.05503,0.81490
896.56525,0.91858
895.07546,0.95637
893.58567,0.99418
892.09588,0.93135
890.60609,0.93926
889.11630,0.75782
887.62651,0.83174
886.13673,0.86733
884.64694,0.90295
883.15715,0.87867
881.66736,0.79450
880.17757,0.81943
878.68778,0.94269
877.19800,1.06599
875.70821,0.91842
874.21842,0.91233
872.72863,1.05131
871.23884,0.97695
869.74905,0.99434
868.25927,1.01175
866.76948,1.05258
865.27969,1.10302
863.78990,1.16909
862.30011,1.13449
860.81032,1.11972
859.32053,1.10497
857.83075,1.10045
856.34096,1.08996
854.85117,1.07112
853.36138,0.95882
851.87159,0.83756
850.38180,0.71634
848.89202,0.64849
847.40223,0.45961
845.91244,0.46375
844.42265,0.47871
842.93286,0.49370
841.44307,0.43441
839.95329,0.42909
838.46350,0.31473
836.97371,0.41976
835.48392,0.40196
833.99413,0.38420
832.50434,0.45576
831.01455,0.45065
829.52477,0.37365
828.03498,0.35063
826.54519,0.32044
825.05540,0.29029
823.56561,0.31891
822.07582,0.32239
820.58604,0.22042
819.09625,0.19700
817.60646,0.17362
816.11667,0.12928
814.62688,0.11256
813.13709,0.06949
811.64730,0.03246
810.15752,0.04280
808.66773,0.05318
807.17794,0.00186
805.68815,0.05817
804.19836,0.10133
802.70857,0.15771
801.21879,0.21413
799.72900,0.10156
798.23921,0.27192
796.74942,0.33562
795.25963,0.34303
793.76984,0.35046
792.28006,0.39030
790.79027,0.52966
789.30048,0.59593
787.81069,0.57833
786.32090,0.60752
784.83111,0.63673
783.34132,0.74869
781.85154,0.75280
780.36175,0.77853
778.87196,0.73476
777.38217,0.69102
775.89238,0.79716
774.40259,0.76668
772.91281,0.79377
771.42302,0.80591
769.93323,0.81808
768.44344,0.91120
766.95365,0.91205
765.46386,0.98966
763.97407,0.91386
762.48429,0.83271
760.99450,0.75159
759.50471,0.65552
758.01492,0.55110
756.52513,0.48027
755.03534,0.40527
753.54556,0.33032
752.05577,0.23921
750.56598,0.16852
749.07619,0.17218
747.58640,0.15609
746.09661,0.14004
744.60683,0.09705
743.11704,0.07687
741.62725,0.08189
740.13746,0.08216
738.64767,0.08245
737.15788,0.07080
735.66809,0.08555
734.17831,0.04040
732.68852,0.06121
731.19873,0.08205
729.70894,0.07656
728.21915,0.01117
726.72936,0.10298
725.23958,0.12411
723.74979,0.13508
722.26000,0.14609
720.77021,0.10259
719.28042,0.13583
717.79063,0.07682
716.30084,0.04900
714.81106,0.02122
713.32127,0.00186
711.83148,0.00536
710.34169,0.09399
708.85190,0.09456
707.36211,0.09516
705.87233,0.09160
704.38254,0.08448
702.89275,0.14212
701.40296,0.15964
699.91317,0.17719
698.42338,0.15942
696.93360,0.11771
695.44381,0.22346
693.95402,0.23995
692.46423,0.25648
690.97444,0.27723
689.48465,0.29921
687.99486,0.22054
686.50508,0.25039
685.01529,0.28026
683.52550,0.28081
682.03571,0.18190
680.54592,0.17652
679.05613,0.20653
677.56635,0.23657
676.07656,0.22650
674.58677,0.12536
673.09698,0.21005
671.60719,0.17370
670.11740,0.13739
668.62761,0.14547
667.13783,0.13200
665.64804,0.07122
664.15825,0.01047
662.66846,0.13022
661.17867,0.12174
659.68888,0.13247
658.19910,0.15403
656.70931,0.17562
655.21952,0.16728
653.72973,0.10862
652.23994,0.23100
650.75015,0.20119
649.26037,0.17140
647.77058,0.18361
646.28079,0.10355
644.79100,0.04510
643.30121,0.02863
641.81142,0.01221
640.32163,0.15164
638.83185,0.01181
637.34206,0.01946
635.85227,0.02594
634.36248,0.03246
632.87269,0.08216
631.38290,0.00483
629.89312,0.00186
628.40333,0.01885
626.91354,0.03587
625.42375,0.12125
623.93396,0.12156
622.44417,0.13030
620.95438,0.13907
619.46460,0.04598
617.97481,0.03684
616.48502,0.12122
614.99523,0.08158
613.50544,0.04197
612.01565,0.03656
610.52587,0.04676
609.03608,0.00186
607.54629,0.07191
606.05650,0.14199
604.56671,0.18094
603.07692,0.06650
601.58714,0.08094
600.09735,0.09543
598.60756,0.04221
597.11777,0.08733
595.62798,0.04977
594.13819,0.08176
592.64840,0.11380
591.15862,0.05356
589.66883,0.01614
588.17904,0.06625
586.68925,0.07983
585.19946,0.09345
583.70967,0.13767
582.21989,0.10042
580.73010,0.09496
579.24031,0.08954
577.75052,0.12550
576.26073,0.02006
574.77094,0.12801
573.28115,0.17307
571.79137,0.21816
570.30158,0.29744
568.81179,0.24850
567.32200,0.25294
565.83221,0.25741
564.34242,0.25652
562.85264,0.35276
561.36285,0.46581
559.87306,0.42966
558.38327,0.39354
556.89348,0.50910
555.40369,0.49882
553.91391,0.49817
552.42412,0.49755
550.93433,0.54970
549.44454,0.56234
547.95475,0.56182
546.46496,0.60569
544.97517,0.64959
543.48539,0.61441
541.99560,0.77944
540.50581,0.75272
539.01602,0.72604
537.52623,0.56034
536.03644,0.56369
534.54666,0.61981
533.05687,0.64001
531.56708,0.66024
530.07729,0.54026
528.58750,0.58094
527.09771,0.56831
525.60792,0.55571
524.11814,0.47902
522.62835,0.45391
521.13856,0.37848
519.64877,0.36602
518.15898,0.35359
516.66919,0.43769
515.17941,0.47388
513.68962,0.40222
512.19983,0.33059
510.71004,0.30335
509.22025,0.32529
507.73046,0.35325
506.24068,0.40942
504.75089,0.46562
503.26110,0.35464
501.77131,0.36237
500.28152,0.37012
498.79173,0.37791
497.30194,0.26228
495.81216,0.40798
494.32237,0.45543
492.83258,0.50291
491.34279,0.43655
489.85300,0.39540
488.36321,0.31593
486.87343,0.32519
485.38364,0.33448
483.89385,0.27069
482.40406,0.24529
480.91427,0.16838
479.42448,0.09150
477.93469,0.09138
476.44491,0.09488
474.95512,0.11400
473.46533,0.13315
471.97554,0.06484
470.48575,0.06967
468.99596,0.08653
467.50618,0.07825
466.01639,0.07000
464.52660,0.00186
463.03681,0.04842
461.54702,0.06446
460.05723,0.08052
458.56745,0.08763
457.07766,0.04683
455.58787,0.08638
454.09808,0.12595
452.60829,0.10803
451.11850,0.13209
449.62871,0.17057
448.13893,0.20908
446.64914,0.26800
445.15935,0.35573
443.66956,0.39794
442.17977,0.45517
440.68998,0.51243
439.20020,0.54156
437.71041,0.69658
436.22062,0.71019
434.73083,0.72384
433.24104,0.91013
431.75125,1.16357
430.26146,1.18631
428.77168,1.20908
427.28189,1.21091
425.79210,1.30986
424.30231,1.30157
422.81252,1.29331
421.32273,1.29048
419.83295,1.25891
418.34316,1.19562
416.85337,1.13235
415.36358,0.88273
413.87379,0.69307
412.38400,0.68325
410.89422,0.67347
409.40443,0.66012
407.91464,0.54132
406.42485,0.50167
404.93506,0.51659
403.44527,0.53154
401.95548,0.45963
400.46570,0.40693
398.97591,0.44236
397.48612,0.47783
395.99633,0.41923
394.50654,0.42780
393.01675,0.42261
391.52697,0.41746
390.03718,0.36739
388.54739,0.32695
387.05760,0.38962
385.56781,0.45233
384.07802,0.42278
382.58824,0.35610
381.09845,0.32841
379.60866,0.30075
378.11887,0.32048
376.62908,0.18201
375.13929,0.15506
373.64950,0.12814
372.15972,0.13002
370.66993,0.18467
369.18014,0.13747
367.69035,0.09031
366.20056,0.03599
364.71077,0.11116
363.22099,0.10545
361.73120,0.09978
360.24141,0.05758
358.75162,0.11850
357.26183,0.10873
355.77204,0.09900
354.28225,0.20437
352.79247,0.09042
351.30268,0.07419
349.81289,0.05800
348.32310,0.04964
346.83331,0.00654
345.34352,0.02613
343.85374,0.04575
342.36395,0.18587
340.87416,0.14503
339.38437,0.13119
337.89458,0.11738
336.40479,0.02989
334.91501,0.08148
333.42522,0.10314
331.93543,0.12483
330.44564,0.08302
328.95585,0.05323
327.46606,0.06723
325.97627,0.08127
324.48649,0.02761
322.99670,0.07252
321.50691,0.09888
320.01712,0.12528
318.52733,0.15591
317.03754,0.10266
315.54776,0.07222
314.05797,0.04182
312.56818,0.00186
311.07839,0.13722
309.58860,0.12217
308.09881,0.10716
306.60902,0.16231
305.11924,0.19232
303.62945,0.10789
302.13966,0.02349
300.64987,0.00186
299.16008,0.00186
