1778.52000,0.03446
1777.03021,0.07109
1775.54042,0.02169
1774.05063,0.03834
1772.56085,0.02319
1771.07106,0.03991
1769.58127,0.05902
1768.09148,0.02746
1766.60169,0.01481
1765.11190,0.03284
1763.62212,0.03557
1762.13233,0.02301
1760.64254,0.07769
1759.15275,0.00152
1757.66296,0.05745
1756.17317,0.01672
1754.68339,0.04441
1753.19360,0.03676
1751.70381,0.07513
1750.21402,0.00152
1748.72423,0.06445
1747.23444,0.04958
1745.74465,0.05362
1744.25487,0.04589
1742.76508,0.03466
1741.27529,0.05059
1739.78550,0.04178
1738.29571,0.10729
1736.80592,0.09030
1735.31614,0.02500
1733.82635,0.03283
1732.33656,0.05485
1730.84677,0.07218
1729.35698,0.02823
1727.86719,0.01379
1726.37740,0.02887
1724.88762,0.00152
1723.39783,0.03902
1721.90804,0.02821
1720.41825,0.02687
1718.92846,0.06800
1717.43867,0.05847
1715.94889,0.05015
1714.45910,0.08313
1712.96931,0.09373
1711.47952,0.05368
1709.98973,0.04667
1708.49994,0.10572
1707.01016,0.12117
1705.52037,0.13666
1704.03058,0.10384
1702.54079,0.11232
1701.05100,0.09490
1699.56121,0.09401
1698.07142,0.16390
1696.58164,0.14658
1695.09185,0.18352
1693.60206,0.22756
1692.11227,0.22802
1690.62248,0.26860
1689.13269,0.25969
1687.64291,0.24727
1686.15312,0.24079
1684.66333,0.24730
1683.17354,0.22320
1681.68375,0.19912
1680.19396,0.25408
1678.70417,0.31142
1677.21439,0.27094
1675.72460,0.26704
1674.23481,0.21838
1672.74502,0.26170
1671.25523,0.23432
1669.76544,0.27418
1668.27566,0.25394
1666.78587,0.26674
1665.29608,0.24185
1663.80629,0.25236
1662.31650,0.22282
1660.82671,0.25934
1659.33693,0.24519
1657.84714,0.24993
1656.35735,0.16983
1654.86756,0.16992
1653.37777,0.19128
1651.88798,0.13484
1650.39819,0.20342
1648.90841,0.16003
1647.41862,0.11077
1645.92883,0.14113
1644.43904,0.17152
1642.94925,0.17895
1641.45946,0.18996
1639.96968,0.17623
1638.47989,0.13896
1636.99010,0.12884
1635.50031,0.17535
1634.01052,0.10163
1632.52073,0.18828
1631.03094,0.14292
1629.54116,0.17777
1628.05137,0.14662
1626.56158,0.17800
1625.07179,0.25892
1623.58200,0.26443
1622.09221,0.25463
1620.60243,0.19653
1619.11264,0.20449
1617.62285,0.21838
1616.13306,0.18160
1614.64327,0.14131
1613.15348,0.22486
1611.66370,0.16814
1610.17391,0.20695
1608.68412,0.24225
1607.19433,0.18445
1605.70454,0.14554
1604.21475,0.18094
1602.72496,0.21638
1601.23518,0.11862
1599.74539,0.18241
1598.25560,0.14957
1596.76581,0.15566
1595.27602,0.19833
1593.78623,0.10545
1592.29645,0.09278
1590.80666,0.12730
1589.31687,0.14416
1587.82708,0.11390
1586.33729,0.09546
1584.84750,0.11714
1583.35771,0.08108
1581.86793,0.04270
1580.37814,0.11990
1578.88835,0.09101
1577.39856,0.10224
1575.90877,0.06163
1574.41898,0.06350
1572.92920,0.03474
1571.43941,0.04965
1569.94962,0.03452
1568.45983,0.01942
1566.97004,0.03206
1565.48025,0.02233
1563.99047,0.06923
1562.50068,0.01713
1561.01089,0.06056
1559.52110,0.07808
1558.03131,0.10389
1556.54152,0.09318
1555.05173,0.06482
1553.56195,0.10959
1552.07216,0.07304
1550.58237,0.08604
1549.09258,0.09082
1547.60279,0.05673
1546.11300,0.08516
1544.62322,0.10537
1543.13343,0.07963
1541.64364,0.06689
1540.15385,0.05536
1538.66406,0.04387
1537.17427,0.05952
1535.68448,0.02805
1534.19470,0.07207
1532.70491,0.03005
1531.21512,0.03051
1529.72533,0.00152
1528.23554,0.05540
1526.74575,0.01145
1525.25597,0.04300
1523.76618,0.06632
1522.27639,0.03072
1520.78660,0.02228
1519.29681,0.03626
1517.80702,0.05500
1516.31724,0.06670
1514.82745,0.01358
1513.33766,0.03123
1511.84787,0.04892
1510.35808,0.06075
1508.86829,0.06671
1507.37850,0.01140
1505.88872,0.05280
1504.39893,0.05768
1502.90914,0.07321
1501.41935,0.00152
1499.92956,0.10316
1498.43977,0.13763
1496.94999,0.14618
1495.46020,0.18543
1493.97041,0.26479
1492.48062,0.26638
1490.99083,0.30572
1489.50104,0.30030
1488.01125,0.36623
1486.52147,0.43220
1485.03168,0.50587
1483.54189,0.48879
1482.05210,0.65212
1480.56231,0.80724
1479.07252,0.85510
1477.58274,0.99142
1476.09295,0.99690
1474.60316,1.09320
1473.11337,1.22255
1471.62358,1.27882
1470.13379,1.23845
1468.64401,1.16392
1467.15422,1.11772
1465.66443,1.11400
1464.17464,1.11031
1462.68485,1.11726
1461.19506,1.04407
1459.70527,1.00747
1458.21549,0.93435
1456.72570,0.88248
1455.23591,0.82711
1453.74612,0.85902
1452.25633,0.82022
1450.76654,0.69303
1449.27676,0.71207
1447.78697,0.66158
1446.29718,0.63706
1444.80739,0.58133
1443.31760,0.52563
1441.82781,0.41278
1440.33802,0.39075
1438.84824,0.32631
1437.35845,0.35858
1435.86866,0.32486
1434.37887,0.33715
1432.88908,0.35537
1431.39929,0.29345
1429.90951,0.31174
1428.41972,0.26757
1426.92993,0.34605
1425.44014,0.36443
1423.95035,0.36576
1422.46056,0.36711
1420.97078,0.40328
1419.48099,0.34987
1417.99120,0.36135
1416.50141,0.36224
1415.01162,0.37025
1413.52183,0.41483
1412.03204,0.39578
1410.54226,0.39681
1409.05247,0.40141
1407.56268,0.38010
1406.07289,0.37651
1404.58310,0.35939
1403.09331,0.34231
1401.60353,0.38480
1400.11374,0.35540
1398.62395,0.39206
1397.13416,0.39220
1395.64437,0.40417
1394.15458,0.49634
1392.66479,0.49422
1391.17501,0.50039
1389.68522,0.41463
1388.19543,0.46095
1386.70564,0.45602
1385.21585,0.45112
1383.72606,0.40557
1382.23628,0.36832
1380.74649,0.40301
1379.25670,0.36936
1377.76691,0.46307
1376.27712,0.48843
1374.78733,0.54094
1373.29755,0.64065
1371.80776,0.53759
1370.31797,0.75998
1368.82818,0.76841
1367.33839,0.77688
1365.84860,0.95692
1364.35881,1.02263
1362.86903,1.20156
1361.37924,1.25083
1359.88945,1.39917
1358.39966,1.50156
1356.90987,1.49670
1355.42008,1.43527
1353.93030,1.42929
1352.44051,1.42511
1350.95072,1.42096
1349.46093,1.38560
1347.97114,1.25478
1346.48135,1.11927
1344.99156,0.91069
1343.50178,0.87193
1342.01199,0.78721
1340.52220,0.75205
1339.03241,0.70631
1337.54262,0.67711
1336.05283,0.64558
1334.56305,0.61409
1333.07326,0.53547
1331.58347,0.57242
1330.09368,0.49269
1328.60389,0.45779
1327.11410,0.54318
1325.62432,0.45529
1324.13453,0.39338
1322.64474,0.45293
1321.15495,0.39697
1319.66516,0.40295
1318.17537,0.40895
1316.68558,0.40969
1315.19580,0.39866
1313.70601,0.38531
1312.21622,0.29890
1310.72643,0.40116
1309.23664,0.31835
1307.74685,0.32045
1306.25707,0.32613
1304.76728,0.30296
1303.27749,0.27982
1301.78770,0.30446
1300.29791,0.26783
1298.80812,0.29135
1297.31834,0.33850
1295.82855,0.36445
1294.33876,0.38572
1292.84897,0.34807
1291.35918,0.37884
1289.86939,0.36012
1288.37960,0.34143
1286.88982,0.42771
1285.40003,0.41734
1283.91024,0.42705
1282.42045,0.42028
1280.93066,0.47250
1279.44087,0.51178
1277.95109,0.48979
1276.46130,0.43010
1274.97151,0.45651
1273.48172,0.48295
1271.99193,0.52947
1270.50214,0.55245
1269.01235,0.56248
1267.52257,0.58906
1266.03278,0.66401
1264.54299,0.57628
1263.05320,0.59116
1261.56341,0.60549
1260.07362,0.61985
1258.58384,0.64426
1257.09405,0.60150
1255.60426,0.62952
1254.11447,0.67643
1252.62468,0.72574
1251.13489,0.65364
1249.64511,0.61340
1248.15532,0.51896
1246.66553,0.52654
1245.17574,0.53415
1243.68595,0.47283
1242.19616,0.42450
1240.70637,0.43398
1239.21659,0.34445
1237.72680,0.27854
1236.23701,0.26925
1234.74722,0.26943
1233.25743,0.26552
1231.76764,0.26163
1230.27786,0.21829
1228.78807,0.28816
1227.29828,0.28614
1225.80849,0.17569
1224.31870,0.17610
1222.82891,0.15414
1221.33912,0.12631
1219.84934,0.16101
1218.35955,0.19574
1216.86976,0.24348
1215.37997,0.23701
1213.89018,0.27537
1212.40039,0.29726
1210.91061,0.22133
1209.42082,0.25626
1207.93103,0.22224
1206.44124,0.18827
1204.95145,0.15726
1203.46166,0.06970
1201.97188,0.10244
1200.48209,0.17647
1198.99230,0.12202
1197.50251,0.12302
1196.01272,0.08160
1194.52293,0.07206
1193.03314,0.06254
1191.54336,0.06603
1190.05357,0.05422
1188.56378,0.00000
1187.07399,0.03313
1185.58420,0.05451
1184.09441,0.06295
1182.60463,0.06788
1181.11484,0.07285
1179.62505,0.02833
1178.13526,0.00152
1176.64547,0.07203
1175.15568,0.06829
1173.66589,0.13060
1172.17611,0.12457
1170.68632,0.09322
1169.19653,0.06190
1167.70674,0.06775
1166.21695,0.05006
1164.72716,0.02296
1163.23738,0.04424
1161.74759,0.05848
1160.25780,0.03148
1158.76801,0.04520
1157.27822,0.05894
1155.78843,0.06034
1154.29865,0.06649
1152.80886,0.00547
1151.31907,0.05413
1149.82928,0.08042
1148.33949,0.09024
1146.84970,0.08653
1145.35991,0.08285
1143.87013,0.05857
1142.38034,0.10507
1140.89055,0.11977
1139.40076,0.16397
1137.91097,0.16105
1136.42118,0.15226
1134.93140,0.21838
1133.44161,0.28453
1131.95182,0.23104
1130.46203,0.35443
1128.97224,0.35878
1127.48245,0.45159
1125.99266,0.39351
1124.50288,0.41682
1123.01309,0.37237
1121.52330,0.32796
1120.03351,0.46691
1118.54372,0.43494
1117.05393,0.51618
1115.56415,0.49135
1114.07436,0.51017
1112.58457,0.51724
1111.09478,0.52434
1109.60499,0.55034
1108.11520,0.54925
1106.62542,0.59299
1105.13563,0.67097
1103.64584,0.89871
1102.15605,0.82937
1100.66626,0.84318
1099.17647,0.85703
1097.68668,0.88211
1096.19690,0.98857
1094.70711,0.86987
1093.21732,0.94221
1091.72753,1.04760
1090.23774,1.01448
1088.74795,0.98139
1087.25817,1.16469
1085.76838,1.06624
1084.27859,1.12580
1082.78880,1.21134
1081.29901,1.30870
1079.80922,1.16439
1078.31943,1.21761
1076.82965,1.27085
1075.33986,1.34005
1073.85007,1.35740
1072.36028,1.30404
1070.87049,1.41814
1069.38070,1.36720
1067.89092,1.43597
1066.40113,1.50477
1064.91134,1.45158
1063.42155,1.35715
1061.93176,1.19319
1060.44197,1.21437
1058.95219,1.06463
1057.46240,1.03223
1055.97261,0.99987
1054.48282,0.96930
1052.99303,0.92463
1051.50324,0.86229
1050.01345,0.77052
1048.52367,0.77192
1047.03388,0.73268
1045.54409,0.69347
1044.05430,0.62776
1042.56451,0.48192
1041.07472,0.47641
1039.58494,0.45089
1038.09515,0.43719
1036.60536,0.45536
1035.11557,0.47357
1033.62578,0.45407
1032.13599,0.40985
1030.64620,0.34444
1029.15642,0.41819
1027.66663,0.40531
1026.17684,0.39247
1024.68705,0.46631
1023.19726,0.58028
1021.70747,0.72965
1020.21769,0.84133
1018.72790,0.99901
1017.23811,1.09366
1015.74832,1.18833
1014.25853,1.36617
1012.76874,1.60770
1011.27896,1.84337
1009.78917,1.97531
1008.29938,2.00000
1006.80959,1.97402
1005.31980,1.94808
1003.83001,1.78894
1002.34022,1.66755
1000.85044,1.52616
999.36065,1.44611
997.87086,1.44981
996.38107,1.45354
994.89128,1.38066
993.40149,1.49292
991.91171,1.39417
990.42192,1.46642
988.93213,1.40664
987.44234,1.41174
985.95255,1.41688
984.46276,1.35484
982.97297,1.36594
981.48319,1.44427
979.99340,1.20902
978.50361,1.26561
977.01382,1.32223
975.52403,1.28043
974.03424,1.19622
972.54446,1.01301
971.05467,1.16821
969.56488,1.11122
968.07509,1.05072
966.58530,0.99026
965.09551,1.02651
963.60573,0.98144
962.11594,1.01304
960.62615,0.93266
959.13636,0.90007
957.64657,0.86751
956.15678,0.83086
954.66699,0.72703
953.17721,0.80127
951.68742,0.86140
950.19763,0.85494
948.70784,0.84851
947.21805,0.79437
945.72826,0.68839
944.23848,0.71802
942.74869,0.79131
941.25890,0.72315
939.76911,0.80181
938.27932,0.88051
936.78953,0.95629
935.29974,0.85289
933.80996,0.81437
932.32017,0.78178
930.83038,0.83411
929.34059,0.88647
927.85080,0.82804
926.36101,0.78733
924.87123,0.72424
923.38144,0.81683
921.89165,0.81394
920.40186,0.81108
918.91207,0.81770
917.42228,0.85853
915.93250,0.89940
914.44271,0.83655
912.95292,0.82914
911.46313,0.82177
909.97334,0.89460
908.48355,0.87904
906.99376,0.91067
905.50398,0.87749
904.01419,0.85495
902.52440,0.83245
901.03461,0.85714
899.54482,0.95260
898.05503,0.90072
896.56525,0.95616
895.07546,0.99572
893.58567,1.03531
892.09588,0.97649
890.60609,1.00613
889.11630,0.91907
887.62651,0.89807
886.13673,0.88418
884.64694,0.87032
883.15715,0.96615
881.66736,0.92288
880.17757,0.96925
878.68778,0.99149
877.19800,1.01375
875.70821,1.00245
874.21842,1.03716
872.72863,1.06012
871.23884,1.00411
869.74905,1.03302
868.25927,1.06197
866.76948,1.08388
865.27969,1.09403
863.78990,1.25984
862.30011,1.21346
860.81032,1.24198
859.32053,1.27054
857.83075,1.11343
856.34096,1.07190
854.85117,1.00800
853.36138,0.97950
851.87159,0.91331
850.38180,0.84715
848.89202,0.68198
847.40223,0.62532
845.91244,0.55808
844.42265,0.57045
842.93286,0.58286
841.44307,0.47092
839.95329,0.49459
838.46350,0.36621
836.97371,0.46894
835.48392,0.48328
833.99413,0.49766
832.50434,0.45547
831.01455,0.44987
829.52477,0.49264
828.03498,0.36802
826.54519,0.31948
825.05540,0.27097
823.56561,0.26081
822.07582,0.24244
820.58604,0.20287
819.09625,0.18574
817.60646,0.16864
816.11667,0.12328
814.62688,0.10978
813.13709,0.09160
811.64730,0.06638
810.15752,0.07008
808.66773,0.07381
807.17794,0.00152
805.68815,0.07341
804.19836,0.04983
802.70857,0.08995
801.21879,0.13010
799.72900,0.14081
798.23921,0.29775
796.74942,0.35451
795.25963,0.39597
793.76984,0.43747
792.28006,0.46485
790.79027,0.55357
789.30048,0.62817
787.81069,0.69220
786.32090,0.72561
784.83111,0.75905
783.34132,0.82553
781.85154,0.72816
780.36175,0.74048
778.87196,0.76285
777.38217,0.78525
775.89238,0.83303
774.40259,0.83015
772.91281,0.83673
771.42302,0.84158
769.93323,0.84646
768.44344,0.95454
766.95365,0.95536
765.46386,0.99629
763.97407,0.96063
762.48429,0.86427
760.99450,0.76795
759.50471,0.64750
758.01492,0.60843
756.52513,0.51633
755.03534,0.40481
753.54556,0.29333
752.05577,0.23788
750.56598,0.20133
749.07619,0.10233
747.58640,0.13010
746.09661,0.15791
744.60683,0.06607
743.11704,0.06978
741.62725,0.15133
740.13746,0.10970
738.64767,0.06811
737.15788,0.03303
735.66809,0.00152
734.17831,0.06536
732.68852,0.05730
731.19873,0.04928
729.70894,0.08373
728.21915,0.01210
726.72936,0.05723
725.23958,0.08943
723.74979,0.09807
722.26000,0.10675
720.77021,0.10014
719.28042,0.06644
717.79063,0.01744
716.30084,0.04217
714.81106,0.06693
713.32127,0.00152
711.83148,0.08234
710.34169,0.05589
708.85190,0.08253
707.36211,0.10921
705.87233,0.07579
704.38254,0.01056
702.89275,0.07860
701.40296,0.08713
699.91317,0.09570
698.42338,0.14733
696.93360,0.18602
695.44381,0.21178
693.95402,0.24995
692.46423,0.28816
690.97444,0.15720
689.48465,0.18427
687.99486,0.25500
686.50508,0.25560
685.01529,0.25624
683.52550,0.30584
682.03571,0.16801
680.54592,0.27663
679.05613,0.24026
677.56635,0.20392
676.07656,0.27373
674.58677,0.22096
673.09698,0.25900
671.60719,0.23222
670.11740,0.20548
668.62761,0.13869
667.13783,0.17686
665.64804,0.13666
664.15825,0.09649
662.66846,0.06873
661.17867,0.04101
659.68888,0.18664
658.19910,0.17607
656.70931,0.16555
655.21952,0.13206
653.72973,0.22830
652.23994,0.20549
650.75015,0.19686
649.26037,0.18826
647.77058,0.20210
646.28079,0.16527
644.79100,0.17682
643.30121,0.15479
641.81142,0.13280
640.32163,0.12794
638.83185,0.06180
637.34206,0.05229
635.85227,0.02689
634.36248,0.00152
632.87269,0.05602
631.38290,0.09876
629.89312,0.06843
628.40333,0.09296
626.91354,0.11752
625.42375,0.20519
623.93396,0.09010
622.44417,0.11181
620.95438,0.13356
619.46460,0.14237
617.97481,0.08164
616.48502,0.11056
614.99523,0.09471
613.50544,0.07889
612.01565,0.05131
610.52587,0.07446
609.03608,0.09647
607.54629,0.12617
606.05650,0.15591
604.56671,0.20159
603.07692,0.14592
601.58714,0.15689
600.09735,0.16789
598.60756,0.16772
597.11777,0.10038
595.62798,0.15452
594.13819,0.10140
592.64840,0.04831
591.15862,0.10726
589.66883,0.05541
588.17904,0.09674
586.68925,0.07974
585.19946,0.06278
583.70967,0.17141
582.21989,0.11501
580.73010,0.14236
579.24031,0.16973
577.75052,0.12522
576.26073,0.12791
574.77094,0.09879
573.28115,0.14752
571.79137,0.19629
570.30158,0.29461
568.81179,0.32693
567.32200,0.28972
565.83221,0.25255
564.34242,0.28497
562.85264,0.40468
561.36285,0.47018
559.87306,0.47086
558.38327,0.47158
556.89348,0.54072
555.40369,0.62404
553.91391,0.61424
552.42412,0.60448
550.93433,0.62187
549.44454,0.61925
547.95475,0.63789
546.46496,0.65125
544.97517,0.66464
543.48539,0.74704
541.99560,0.72572
540.50581,0.73627
539.01602,0.74684
537.52623,0.61243
536.03644,0.71858
534.54666,0.68327
533.05687,0.64034
531.56708,0.59743
530.07729,0.63532
528.58750,0.54709
527.09771,0.51903
525.60792,0.49099
524.11814,0.50072
522.62835,0.51283
521.13856,0.47782
519.64877,0.45169
518.15898,0.42558
516.66919,0.38124
515.17941,0.35933
513.68962,0.37282
512.19983,0.38635
510.71004,0.31973
509.22025,0.31328
507.73046,0.39411
506.24068,0.41838
504.75089,0.44268
503.26110,0.41042
501.77131,0.36522
500.28152,0.36192
498.79173,0.35864
497.30194,0.33594
495.81216,0.40053
494.32237,0.48460
492.83258,0.56871
491.34279,0.42234
489.85300,0.41514
488.36321,0.31954
486.87343,0.33893
485.38364,0.35835
483.89385,0.33830
482.40406,0.29236
480.91427,0.18631
479.42448,0.08029
477.93469,0.12759
476.44491,0.07941
474.95512,0.09729
473.46533,0.11521
471.97554,0.02233
470.48575,0.03862
468.99596,0.02782
467.50618,0.02531
466.01639,0.02283
464.52660,0.00152
463.03681,0.04734
461.54702,0.03836
460.05723,0.02941
458.56745,0.04645
457.07766,0.08946
455.58787,0.11717
454.09808,0.14492
452.60829,0.20217
451.11850,0.24767
449.62871,0.24899
448.13893,0.25034
446.64914,0.39733
445.15935,0.35217
443.66956,0.47211
442.17977,0.46416
440.68998,0.45624
439.20020,0.56921
437.71041,0.72701
436.22062,0.78344
434.73083,0.83991
433.24104,1.02729
431.75125,1.12862
430.26146,1.15277
428.77168,1.17695
427.28189,1.23122
425.79210,1.23601
424.30231,1.21312
422.81252,1.19027
421.32273,1.24939
419.83295,1.31562
418.34316,1.22979
416.85337,1.14399
415.36358,0.95211
413.87379,0.80742
412.38400,0.80661
410.89422,0.80583
409.40443,0.73906
407.91464,0.59332
406.42485,0.65985
404.93506,0.61381
403.44527,0.56780
401.95548,0.58373
400.46570,0.50536
398.97591,0.51428
397.48612,0.52322
395.99633,0.59116
394.50654,0.52589
393.01675,0.52610
391.52697,0.52633
390.03718,0.36684
388.54739,0.33236
387.05760,0.37161
385.56781,0.41088
384.07802,0.45432
382.58824,0.37752
381.09845,0.40688
379.60866,0.43626
378.11887,0.35721
376.62908,0.25932
375.13929,0.22160
373.64950,0.18392
372.15972,0.20993
370.66993,0.21829
369.18014,0.18305
367.69035,0.14785
366.20056,0.15513
364.71077,0.16952
363.22099,0.15210
361.73120,0.13472
360.24141,0.29305
358.75162,0.25215
357.26183,0.22248
355.77204,0.19285
354.28225,0.14852
352.79247,0.06177
351.30268,0.10969
349.81289,0.15765
348.32310,0.13313
346.83331,0.18528
345.34352,0.17203
343.85374,0.15881
342.36395,0.23346
340.87416,0.17491
339.38437,0.18065
337.89458,0.18642
336.40479,0.14920
334.91501,0.07899
333.42522,0.14146
331.93543,0.20396
330.44564,0.14328
328.95585,0.16871
327.46606,0.13050
325.97627,0.09232
324.48649,0.18716
322.99670,0.24431
321.50691,0.23960
320.01712,0.23491
318.52733,0.20491
317.03754,0.22918
315.54776,0.19099
314.05797,0.15283
312.56818,0.00152
311.07839,0.10223
309.58860,0.12161
308.09881,0.14102
306.60902,0.07558
305.11924,0.18939
303.62945,0.10750
302.13966,0.02565
300.64987,0.08196
299.16008,0.00152
