1778.52000,0.02556
1777.03021,0.01762
1775.54042,0.04404
1774.05063,0.02071
1772.56085,0.02487
1771.07106,0.00160
1769.58127,0.05990
1768.09148,0.01351
1766.60169,0.03325
1765.11190,0.03156
1763.62212,0.03075
1762.13233,0.01109
1760.64254,0.06270
1759.15275,0.04224
1757.66296,0.03126
1756.17317,0.01687
1754.68339,0.02568
1753.19360,0.03452
1751.70381,0.04168
1750.21402,0.01453
1748.72423,0.03205
1747.23444,0.02900
1745.74465,0.00537
1744.25487,0.00835
1742.76508,0.03796
1741.27529,0.02125
1739.78550,0.07667
1738.29571,0.02826
1736.80592,0.01679
1735.31614,0.06029
1733.82635,0.07291
1732.33656,0.03836
1730.84677,0.01070
1729.35698,0.03800
1727.86719,0.05075
1726.37740,0.00000
1724.88762,0.02568
1723.39783,0.00160
1721.90804,0.02155
1720.41825,0.01064
1718.92846,0.03151
1717.43867,0.04211
1715.94889,0.01325
1714.45910,0.03421
1712.96931,0.04061
1711.47952,0.05648
1709.98973,0.03977
1708.49994,0.07115
1707.01016,0.06479
1705.52037,0.05846
1704.03058,0.09679
1702.54079,0.09310
1701.05100,0.11090
1699.56121,0.08065
1698.07142,0.10537
1696.58164,0.11382
1695.09185,0.11971
1693.60206,0.13508
1692.11227,0.16851
1690.62248,0.18050
1689.13269,0.15819
1687.64291,0.18312
1686.15312,0.19177
1684.66333,0.17213
1683.17354,0.20144
1681.68375,0.17155
1680.19396,0.17088
1678.70417,0.15736
1677.21439,0.18508
1675.72460,0.20080
1674.23481,0.17364
1672.74502,0.13363
1671.25523,0.16748
1669.76544,0.17560
1668.27566,0.20091
1666.78587,0.15931
1665.29608,0.11430
1663.80629,0.18262
1662.31650,0.15398
1660.82671,0.16915
1659.33693,0.18520
1657.84714,0.15322
1656.35735,0.10066
1654.86756,0.10135
1653.37777,0.10551
1651.88798,0.12858
1650.39819,0.16198
1648.90841,0.16623
1647.41862,0.12758
1645.92883,0.11944
1644.43904,0.11133
1642.94925,0.10539
1641.45946,0.10549
1639.96968,0.12108
1638.47989,0.12210
1636.99010,0.15577
1635.50031,0.10706
1634.01052,0.12362
1632.52073,0.12733
1631.03094,0.14739
1629.54116,0.14687
1628.05137,0.14638
1626.56158,0.12446
1625.07179,0.18412
1623.58200,0.16226
1622.09221,0.20396
1620.60243,0.18130
1619.11264,0.18700
1617.62285,0.17470
1616.13306,0.19677
1614.64327,0.12616
1613.15348,0.16202
1611.66370,0.12839
1610.17391,0.13770
1608.68412,0.14876
1607.19433,0.12465
1605.70454,0.11860
1604.21475,0.11687
1602.72496,0.11517
1601.23518,0.13668
1599.74539,0.12989
1598.25560,0.07249
1596.76581,0.09065
1595.27602,0.11743
1593.78623,0.09016
1592.29645,0.09983
1590.80666,0.11553
1589.31687,0.07376
1587.82708,0.07923
1586.33729,0.10876
1584.84750,0.08081
1583.35771,0.04773
1581.86793,0.02414
1580.37814,0.02975
1578.88835,0.08518
1577.39856,0.11060
1575.90877,0.04334
1574.41898,0.05938
1572.92920,0.07458
1571.43941,0.02802
1569.94962,0.04629
1568.45983,0.06459
1566.97004,0.04815
1565.48025,0.03003
1563.99047,0.02996
1562.50068,0.00160
1561.01089,0.01968
1559.52110,0.04638
1558.03131,0.05937
1556.54152,0.03377
1555.05173,0.05626
1553.56195,0.03586
1552.07216,0.07730
1550.58237,0.06812
1549.09258,0.06670
1547.60279,0.02926
1546.11300,0.10257
1544.62322,0.05489
1543.13343,0.04672
1541.64364,0.04545
1540.15385,0.04120
1538.66406,0.03698
1537.17427,0.03494
1535.68448,0.01147
1534.19470,0.02923
1532.70491,0.01097
1531.21512,0.04080
1529.72533,0.02174
1528.23554,0.00786
1526.74575,0.01805
1525.25597,0.02397
1523.76618,0.03765
1522.27639,0.01788
1520.78660,0.02646
1519.29681,0.00160
1517.80702,0.02837
1516.31724,0.01911
1514.82745,0.00645
1513.33766,0.02815
1511.84787,0.04989
1510.35808,0.02959
1508.86829,0.00160
1507.37850,0.02932
1505.88872,0.01931
1504.39893,0.03164
1502.90914,0.02598
1501.41935,0.03151
1499.92956,0.00616
1498.43977,0.04093
1496.94999,0.09633
1495.46020,0.14146
1493.97041,0.16001
1492.48062,0.21121
1490.99083,0.22810
1489.50104,0.28536
1488.01125,0.31820
1486.52147,0.35106
1485.03168,0.44446
1483.54189,0.52417
1482.05210,0.54811
1480.56231,0.66649
1479.07252,0.74543
1477.58274,0.81237
1476.09295,0.90939
1474.60316,0.94721
1473.11337,1.06146
1471.62358,1.08217
1470.13379,1.10978
1468.64401,0.98120
1467.15422,0.92132
1465.66443,0.91768
1464.17464,0.91408
1462.68485,0.86459
1461.19506,0.83143
1459.70527,0.76569
1458.21549,0.77465
1456.72570,0.69266
1455.23591,0.63816
1453.74612,0.60773
1452.25633,0.63999
1450.76654,0.60361
1449.27676,0.50203
1447.78697,0.45798
1446.29718,0.42512
1444.80739,0.40731
1443.31760,0.38954
1441.82781,0.35591
1440.33802,0.31287
1438.84824,0.25699
1437.35845,0.21315
1435.86866,0.21569
1434.37887,0.21998
1432.88908,0.21143
1431.39929,0.20119
1429.90951,0.22102
1428.41972,0.19453
1426.92993,0.22901
1425.44014,0.23004
1423.95035,0.25514
1422.46056,0.28027
1420.97078,0.23419
1419.48099,0.31517
1417.99120,0.27086
1416.50141,0.34074
1415.01162,0.29306
1413.52183,0.28404
1412.03204,0.26045
1410.54226,0.26350
1409.05247,0.23482
1407.56268,0.32376
1406.07289,0.31660
1404.58310,0.31591
1403.09331,0.31525
1401.60353,0.35023
1400.11374,0.36036
1398.62395,0.41000
1397.13416,0.39787
1395.64437,0.46559
1394.15458,0.44150
1392.66479,0.50500
1391.17501,0.57109
1389.68522,0.52478
1388.19543,0.54029
1386.70564,0.55283
1385.21585,0.56540
1383.72606,0.56898
1382.23628,0.51595
1380.74649,0.47153
1379.25670,0.51726
1377.76691,0.57504
1376.27712,0.55904
1374.78733,0.61344
1373.29755,0.72883
1371.80776,0.85368
1370.31797,0.93221
1368.82818,1.03610
1367.33839,1.14001
1365.84860,1.28215
1364.35881,1.45694
1362.86903,1.60086
1361.37924,1.71219
1359.88945,1.78492
1358.39966,1.90489
1356.90987,2.00000
1355.42008,1.82561
1353.93030,1.76112
1352.44051,1.68808
1350.95072,1.61507
1349.46093,1.55325
1347.97114,1.35583
1346.48135,1.23742
1344.99156,1.10615
1343.50178,1.07020
1342.01199,0.90209
1340.52220,0.72542
1339.03241,0.68527
1337.54262,0.66059
1336.05283,0.63123
1334.56305,0.60189
1333.07326,0.52666
1331.58347,0.54416
1330.09368,0.49818
1328.60389,0.43763
1327.11410,0.38999
1325.62432,0.36641
1324.13453,0.33771
1322.64474,0.33479
1321.15495,0.37740
1319.66516,0.34149
1318.17537,0.30562
1316.68558,0.30711
1315.19580,0.32151
1313.70601,0.30246
1312.21622,0.27743
1310.72643,0.27733
1309.23664,0.29613
1307.74685,0.27892
1306.25707,0.25487
1304.76728,0.26605
1303.27749,0.27725
1301.78770,0.27045
1300.29791,0.29030
1298.80812,0.21919
1297.31834,0.21935
1295.82855,0.25731
1294.33876,0.26955
1292.84897,0.29985
1291.35918,0.27352
1289.86939,0.27898
1288.37960,0.28448
1286.88982,0.30459
1285.40003,0.36851
1283.91024,0.31315
1282.42045,0.39515
1280.93066,0.31238
1279.44087,0.37814
1277.95109,0.31775
1276.46130,0.36382
1274.97151,0.37387
1273.48172,0.38395
1271.99193,0.37690
1270.50214,0.43425
1269.01235,0.47876
1267.52257,0.45290
1266.03278,0.46829
1264.54299,0.47769
1263.05320,0.54806
1261.56341,0.55237
1260.07362,0.55672
1258.58384,0.50358
1257.09405,0.52772
1255.60426,0.56992
1254.11447,0.57610
1252.62468,0.50505
1251.13489,0.48897
1249.64511,0.52184
1248.15532,0.47235
1246.66553,0.42974
1245.17574,0.38717
1243.68595,0.37382
1242.19616,0.34933
1240.70637,0.35320
1239.21659,0.32534
1237.72680,0.24601
1236.23701,0.22679
1234.74722,0.21619
1233.25743,0.21291
1231.76764,0.20966
1230.27786,0.18112
1228.78807,0.18352
1227.29828,0.18508
1225.80849,0.14289
1224.31870,0.12992
1222.82891,0.13415
1221.33912,0.11352
1219.84934,0.12338
1218.35955,0.13328
1216.86976,0.16853
1215.37997,0.19608
1213.89018,0.21765
1212.40039,0.15256
1210.91061,0.19479
1209.42082,0.13319
1207.93103,0.13343
1206.44124,0.13369
1204.95145,0.14428
1203.46166,0.08452
1201.97188,0.08058
1200.48209,0.09985
1198.99230,0.07451
1197.50251,0.05521
1196.01272,0.00160
1194.52293,0.02092
1193.03314,0.04028
1191.54336,0.08541
1190.05357,0.05418
1188.56378,0.03500
1187.07399,0.06820
1185.58420,0.00358
1184.09441,0.02916
1182.60463,0.04533
1181.11484,0.06152
1179.62505,0.05286
1178.13526,0.04679
1176.64547,0.05020
1175.15568,0.08969
1173.66589,0.06827
1172.17611,0.05632
1170.68632,0.02894
1169.19653,0.00160
1167.70674,0.05900
1166.21695,0.03832
1164.72716,0.08119
1163.23738,0.03910
1161.74759,0.07087
1160.25780,0.04773
1158.76801,0.06583
1157.27822,0.08395
1155.78843,0.09695
1154.29865,0.04733
1152.80886,0.03635
1151.31907,0.04859
1149.82928,0.10377
1148.33949,0.10920
1146.84970,0.10092
1145.35991,0.09267
1143.87013,0.04583
1142.38034,0.13635
1140.89055,0.12991
1139.40076,0.13981
1137.91097,0.18750
1136.42118,0.22063
1134.93140,0.21689
1133.44161,0.21317
1131.95182,0.23695
1130.46203,0.27707
1128.97224,0.27515
1127.48245,0.36769
1125.99266,0.31691
1124.50288,0.35629
1123.01309,0.38154
1121.52330,0.40681
1120.03351,0.44371
1118.54372,0.42999
1117.05393,0.42488
1115.56415,0.43869
1114.07436,0.50317
1112.58457,0.50416
1111.09478,0.50518
1109.60499,0.47619
1108.11520,0.55280
1106.62542,0.48954
1105.13563,0.63059
1103.64584,0.65837
1102.15605,0.77116
1100.66626,0.77496
1099.17647,0.77879
1097.68668,0.84446
1096.19690,0.84063
1094.70711,0.86344
1093.21732,0.90172
1091.72753,0.92545
1090.23774,0.93075
1088.74795,0.93608
1087.25817,1.04745
1085.76838,1.03438
1084.27859,1.06255
1082.78880,1.10362
1081.29901,1.08206
1079.80922,1.18843
1078.31943,1.22616
1076.82965,1.26391
1075.33986,1.35921
1073.85007,1.27342
1072.36028,1.32414
1070.87049,1.33369
1069.38070,1.44456
1067.89092,1.45417
1066.40113,1.46381
1064.91134,1.35674
1063.42155,1.25228
1061.93176,1.17102
1060.44197,1.10438
1058.95219,1.00516
1057.46240,0.95747
1055.97261,0.90980
1054.48282,0.85616
1052.99303,0.84719
1051.50324,0.80991
1050.01345,0.69456
1048.52367,0.68567
1047.03388,0.63432
1045.54409,0.58301
1044.05430,0.59824
1042.56451,0.48218
1041.07472,0.45799
1039.58494,0.34885
1038.09515,0.33588
1036.60536,0.35642
1035.11557,0.37698
1033.62578,0.31002
1032.13599,0.31949
1030.64620,0.28006
1029.15642,0.35654
1027.66663,0.33219
1026.17684,0.30787
1024.68705,0.42564
1023.19726,0.48507
1021.70747,0.66641
1020.21769,0.77140
1018.72790,0.92019
1017.23811,1.00763
1015.74832,1.09511
1014.25853,1.34871
1012.76874,1.59204
1011.27896,1.75214
1009.78917,1.85132
1008.29938,1.88787
1006.80959,1.84033
1005.31980,1.79282
1003.83001,1.73504
1002.34022,1.61463
1000.85044,1.56292
999.36065,1.37219
997.87086,1.32354
996.38107,1.27492
994.89128,1.31603
993.40149,1.32541
991.91171,1.23697
990.42192,1.27817
988.93213,1.23357
987.44234,1.24478
985.95255,1.25603
984.46276,1.18662
982.97297,1.15501
981.48319,1.15691
979.99340,1.03265
978.50361,1.06250
977.01382,1.09238
975.52403,1.04719
974.03424,0.87498
972.54446,0.87963
971.05467,0.81821
969.56488,0.79460
968.07509,0.81049
966.58530,0.82642
965.09551,0.77800
963.60573,0.76480
962.11594,0.71901
960.62615,0.68613
959.13636,0.66616
957.64657,0.64621
956.15678,0.55505
954.66699,0.55319
953.17721,0.55136
951.68742,0.53496
950.19763,0.56109
948.70784,0.58724
947.21805,0.56236
945.72826,0.46539
944.23848,0.50065
942.74869,0.55482
941.25890,0.60817
939.76911,0.63493
938.27932,0.66172
936.78953,0.71601
935.29974,0.69737
933.80996,0.68648
932.32017,0.70481
930.83038,0.69957
929.34059,0.69435
927.85080,0.65611
926.36101,0.61705
924.87123,0.59261
923.38144,0.66605
921.89165,0.66656
920.40186,0.66710
918.91207,0.70287
917.42228,0.70776
915.93250,0.72641
914.44271,0.70132
912.95292,0.70072
911.46313,0.70016
909.97334,0.74983
908.48355,0.70769
906.99376,0.71451
905.50398,0.68359
904.01419,0.69175
902.52440,0.69995
901.03461,0.66397
899.54482,0.68724
898.05503,0.65990
896.56525,0.80169
895.07546,0.82849
893.58567,0.85532
892.09588,0.81780
890.60609,0.79404
889.11630,0.78920
887.62651,0.73718
886.13673,0.76372
884.64694,0.79030
883.15715,0.80875
881.66736,0.84612
880.17757,0.83974
878.68778,0.84541
877.19800,0.85110
875.70821,0.88945
874.21842,0.88318
872.72863,0.91644
871.23884,0.98320
869.74905,0.98475
868.25927,0.98633
866.76948,1.00769
865.27969,0.96384
863.78990,1.05135
862.30011,1.07880
860.81032,1.09469
859.32053,1.11062
857.83075,1.05747
856.34096,1.00865
854.85117,1.00278
853.36138,0.82183
851.87159,0.79026
850.38180,0.75872
848.89202,0.68430
847.40223,0.51634
845.91244,0.48146
844.42265,0.44532
842.93286,0.40922
841.44307,0.40704
839.95329,0.41005
838.46350,0.29721
836.97371,0.31401
835.48392,0.32483
833.99413,0.33568
832.50434,0.35772
831.01455,0.38580
829.52477,0.41477
828.03498,0.36479
826.54519,0.31657
825.05540,0.26837
823.56561,0.23995
822.07582,0.24760
820.58604,0.18490
819.09625,0.17373
817.60646,0.16260
816.11667,0.12659
814.62688,0.11809
813.13709,0.04524
811.64730,0.00160
810.15752,0.01783
808.66773,0.03408
807.17794,0.01003
805.68815,0.05038
804.19836,0.01093
802.70857,0.05434
801.21879,0.09779
799.72900,0.09276
798.23921,0.15558
796.74942,0.29654
795.25963,0.33323
793.76984,0.36996
792.28006,0.41143
790.79027,0.50788
789.30048,0.54254
787.81069,0.54892
786.32090,0.57807
784.83111,0.60725
783.34132,0.63431
781.85154,0.63050
780.36175,0.61814
778.87196,0.61954
777.38217,0.62097
775.89238,0.71170
774.40259,0.74667
772.91281,0.78681
771.42302,0.77034
769.93323,0.75389
768.44344,0.82503
766.95365,0.79920
765.46386,0.78113
763.97407,0.80085
762.48429,0.71717
760.99450,0.63352
759.50471,0.53746
758.01492,0.47318
756.52513,0.35658
755.03534,0.32669
753.54556,0.29684
752.05577,0.22238
750.56598,0.16770
749.07619,0.10360
747.58640,0.10262
746.09661,0.10168
744.60683,0.04453
743.11704,0.06468
741.62725,0.04965
740.13746,0.02994
738.64767,0.01026
737.15788,0.00563
735.66809,0.02763
734.17831,0.00160
732.68852,0.02033
731.19873,0.03910
729.70894,0.03385
728.21915,0.00804
726.72936,0.03204
725.23958,0.02603
723.74979,0.02048
722.26000,0.01496
720.77021,0.01934
719.28042,0.03233
717.79063,0.03848
716.30084,0.02622
714.81106,0.01398
713.32127,0.00477
711.83148,0.00160
710.34169,0.03667
708.85190,0.02155
707.36211,0.00646
705.87233,0.05020
704.38254,0.04332
702.89275,0.01502
701.40296,0.02665
699.91317,0.03832
698.42338,0.11483
696.93360,0.12870
695.44381,0.17179
693.95402,0.16298
692.46423,0.15419
690.97444,0.14330
689.48465,0.21311
687.99486,0.14047
686.50508,0.17988
685.01529,0.21931
683.52550,0.24890
682.03571,0.25277
680.54592,0.20861
679.05613,0.17692
677.56635,0.14525
676.07656,0.18787
674.58677,0.10777
673.09698,0.11611
671.60719,0.11376
670.11740,0.11143
668.62761,0.09840
667.13783,0.09141
665.64804,0.07844
664.15825,0.06550
662.66846,0.05517
661.17867,0.09036
659.68888,0.09382
658.19910,0.09431
656.70931,0.09482
655.21952,0.11125
653.72973,0.12942
652.23994,0.14848
650.75015,0.13881
649.26037,0.12917
647.77058,0.19811
646.28079,0.04819
644.79100,0.07341
643.30121,0.07548
641.81142,0.07758
640.32163,0.08572
638.83185,0.03809
637.34206,0.02655
635.85227,0.01546
634.36248,0.00441
632.87269,0.00160
631.38290,0.01986
629.89312,0.04673
628.40333,0.04531
626.91354,0.04392
625.42375,0.06659
623.93396,0.02491
622.44417,0.04807
620.95438,0.07126
619.46460,0.05371
617.97481,0.08683
616.48502,0.06934
614.99523,0.06003
613.50544,0.05075
612.01565,0.06596
610.52587,0.05889
609.03608,0.01665
607.54629,0.03410
606.05650,0.05158
604.56671,0.13733
603.07692,0.13727
601.58714,0.12780
600.09735,0.11836
598.60756,0.12612
597.11777,0.10901
595.62798,0.07649
594.13819,0.07274
592.64840,0.06903
591.15862,0.03659
589.66883,0.10290
588.17904,0.09627
586.68925,0.08710
585.19946,0.07796
583.70967,0.08258
582.21989,0.10268
580.73010,0.11551
579.24031,0.12838
577.75052,0.13054
576.26073,0.07695
574.77094,0.08003
573.28115,0.09945
571.79137,0.11890
570.30158,0.18559
568.81179,0.25832
567.32200,0.27615
565.83221,0.29400
564.34242,0.31360
562.85264,0.28173
561.36285,0.36577
559.87306,0.37044
558.38327,0.37513
556.89348,0.43866
555.40369,0.48505
553.91391,0.49584
552.42412,0.50667
550.93433,0.49135
549.44454,0.54215
547.95475,0.53461
546.46496,0.54126
544.97517,0.54794
543.48539,0.60573
541.99560,0.58543
540.50581,0.63083
539.01602,0.67626
537.52623,0.61485
536.03644,0.59639
534.54666,0.59255
533.05687,0.55055
531.56708,0.50857
530.07729,0.52456
528.58750,0.51741
527.09771,0.49870
525.60792,0.48002
524.11814,0.44291
522.62835,0.47107
521.13856,0.46063
519.64877,0.40259
518.15898,0.34457
516.66919,0.32993
515.17941,0.27154
513.68962,0.27156
512.19983,0.27160
510.71004,0.29914
509.22025,0.31812
507.73046,0.33886
506.24068,0.36563
504.75089,0.39243
503.26110,0.39436
501.77131,0.35770
500.28152,0.37901
498.79173,0.40035
497.30194,0.38267
495.81216,0.34784
494.32237,0.36584
492.83258,0.38387
491.34279,0.37145
489.85300,0.32301
488.36321,0.35529
486.87343,0.31850
485.38364,0.28174
483.89385,0.27634
482.40406,0.22118
480.91427,0.21112
479.42448,0.20108
477.93469,0.17692
476.44491,0.11673
474.95512,0.08748
473.46533,0.05825
471.97554,0.07540
470.48575,0.00160
468.99596,0.06764
467.50618,0.04659
466.01639,0.02557
464.52660,0.03075
463.03681,0.02481
461.54702,0.03134
460.05723,0.03791
458.56745,0.06553
457.07766,0.07430
455.58787,0.06765
454.09808,0.06102
452.60829,0.09477
451.11850,0.09079
449.62871,0.10056
448.13893,0.11037
446.64914,0.23523
445.15935,0.34380
443.66956,0.44125
442.17977,0.46749
440.68998,0.49375
439.20020,0.48571
437.71041,0.56096
436.22062,0.61049
434.73083,0.66005
433.24104,0.83324
431.75125,0.86741
430.26146,0.95096
428.77168,1.03454
427.28189,1.13060
425.79210,1.12455
424.30231,1.10908
422.81252,1.09364
421.32273,1.09712
419.83295,0.94440
418.34316,0.90759
416.85337,0.87081
415.36358,0.80573
413.87379,0.67803
412.38400,0.63833
410.89422,0.59867
409.40443,0.56633
407.91464,0.58467
406.42485,0.49316
404.93506,0.46692
403.44527,0.44071
401.95548,0.44114
400.46570,0.39524
398.97591,0.41848
397.48612,0.44174
395.99633,0.42856
394.50654,0.48407
393.01675,0.44777
391.52697,0.41149
390.03718,0.33491
388.54739,0.27638
387.05760,0.30543
385.56781,0.33451
384.07802,0.27865
382.58824,0.35328
381.09845,0.32451
379.60866,0.29578
378.11887,0.24260
376.62908,0.24697
375.13929,0.19515
373.64950,0.14335
372.15972,0.21476
370.66993,0.15573
369.18014,0.14265
367.69035,0.12960
366.20056,0.06980
364.71077,0.04866
363.22099,0.05887
361.73120,0.06912
360.24141,0.10386
358.75162,0.08798
357.26183,0.08029
355.77204,0.07263
354.28225,0.08774
352.79247,0.00160
351.30268,0.02951
349.81289,0.05745
348.32310,0.07769
346.83331,0.00783
345.34352,0.01354
343.85374,0.01928
342.36395,0.13922
340.87416,0.03515
339.38437,0.06029
337.89458,0.08546
336.40479,0.10079
334.91501,0.08010
333.42522,0.05000
331.93543,0.01992
330.44564,0.13838
328.95585,0.06030
327.46606,0.07023
325.97627,0.08018
324.48649,0.02022
322.99670,0.10125
321.50691,0.11450
320.01712,0.12778
318.52733,0.10246
317.03754,0.10378
315.54776,0.09612
314.05797,0.08848
312.56818,0.04354
311.07839,0.04327
309.58860,0.02242
308.09881,0.00160
306.60902,0.04791
305.11924,0.02558
303.62945,0.03246
302.13966,0.01616
300.64987,0.00160
299.16008,0.00160
