1778.52000,0.03564
1777.03021,0.00820
1775.54042,0.01973
1774.05063,0.03129
1772.56085,0.01758
1771.07106,0.00000
1769.58127,0.01458
1768.09148,0.01849
1766.60169,0.02243
1765.11190,0.03906
1763.62212,0.00218
1762.13233,0.03543
1760.64254,0.04437
1759.15275,0.05627
1757.66296,0.06333
1756.17317,0.02954
1754.68339,0.04640
1753.19360,0.00585
1751.70381,0.01207
1750.21402,0.04461
1748.72423,0.04311
1747.23444,0.04359
1745.74465,0.01100
1744.25487,0.02810
1742.76508,0.03647
1741.27529,0.06044
1739.78550,0.04162
1738.29571,0.06177
1736.80592,0.03327
1735.31614,0.00675
1733.82635,0.04647
1732.33656,0.02879
1730.84677,0.02281
1729.35698,0.04024
1727.86719,0.06744
1726.37740,0.00121
1724.88762,0.00218
1723.39783,0.05896
1721.90804,0.03691
1720.41825,0.04508
1718.92846,0.02310
1717.43867,0.04302
1715.94889,0.06102
1714.45910,0.06153
1712.96931,0.09323
1711.47952,0.06654
1709.98973,0.09247
1708.49994,0.04540
1707.01016,0.08697
1705.52037,0.12857
1704.03058,0.17604
1702.54079,0.14956
1701.05100,0.13479
1699.56121,0.17263
1698.07142,0.20758
1696.58164,0.14131
1695.09185,0.18996
1693.60206,0.24156
1692.11227,0.24452
1690.62248,0.22609
1689.13269,0.27584
1687.64291,0.29739
1686.15312,0.33748
1684.66333,0.29679
1683.17354,0.29800
1681.68375,0.33137
1680.19396,0.26741
1678.70417,0.25898
1677.21439,0.32068
1675.72460,0.31038
1674.23481,0.28452
1672.74502,0.30641
1671.25523,0.32054
1669.76544,0.29478
1668.27566,0.29438
1666.78587,0.23753
1665.29608,0.25374
1663.80629,0.30796
1662.31650,0.24635
1660.82671,0.25195
1659.33693,0.27900
1657.84714,0.27980
1656.35735,0.20177
1654.86756,0.23184
1653.37777,0.18503
1651.88798,0.17331
1650.39819,0.21127
1648.90841,0.22200
1647.41862,0.23471
1645.92883,0.22166
1644.43904,0.20864
1642.94925,0.18738
1641.45946,0.20315
1639.96968,0.21895
1638.47989,0.19389
1636.99010,0.19321
1635.50031,0.19256
1634.01052,0.18512
1632.52073,0.21861
1631.03094,0.22196
1629.54116,0.17568
1628.05137,0.22971
1626.56158,0.23705
1625.07179,0.24540
1623.58200,0.26351
1622.09221,0.32157
1620.60243,0.26478
1619.11264,0.23140
1617.62285,0.21167
1616.13306,0.20074
1614.64327,0.23269
1613.15348,0.24908
1611.66370,0.25480
1610.17391,0.20701
1608.68412,0.23033
1607.19433,0.22836
1605.70454,0.21864
1604.21475,0.22890
1602.72496,0.23921
1601.23518,0.22861
1599.74539,0.20928
1598.25560,0.19194
1596.76581,0.18144
1595.27602,0.18461
1593.78623,0.16347
1592.29645,0.12386
1590.80666,0.16218
1589.31687,0.12361
1587.82708,0.16978
1586.33729,0.11960
1584.84750,0.13857
1583.35771,0.10404
1581.86793,0.08121
1580.37814,0.10224
1578.88835,0.16029
1577.39856,0.09278
1575.90877,0.11001
1574.41898,0.08151
1572.92920,0.07544
1571.43941,0.07622
1569.94962,0.07265
1568.45983,0.06911
1566.97004,0.11379
1565.48025,0.07479
1563.99047,0.08741
1562.50068,0.11273
1561.01089,0.11081
1559.52110,0.08849
1558.03131,0.12461
1556.54152,0.11891
1555.05173,0.15997
1553.56195,0.13096
1552.07216,0.13606
1550.58237,0.11978
1549.09258,0.07529
1547.60279,0.07855
1546.11300,0.13246
1544.62322,0.08418
1543.13343,0.08170
1541.64364,0.07924
1540.15385,0.08558
1538.66406,0.09196
1537.17427,0.07890
1535.68448,0.05905
1534.19470,0.06942
1532.70491,0.08177
1531.21512,0.06494
1529.72533,0.11533
1528.23554,0.00218
1526.74575,0.09145
1525.25597,0.07073
1523.76618,0.05687
1522.27639,0.05472
1520.78660,0.05065
1519.29681,0.07388
1517.80702,0.00660
1516.31724,0.03009
1514.82745,0.07210
1513.33766,0.08202
1511.84787,0.09198
1510.35808,0.05037
1508.86829,0.03313
1507.37850,0.03734
1505.88872,0.05814
1504.39893,0.04490
1502.90914,0.07745
1501.41935,0.01559
1499.92956,0.03555
1498.43977,0.06430
1496.94999,0.08821
1495.46020,0.12774
1493.97041,0.21598
1492.48062,0.24292
1490.99083,0.30007
1489.50104,0.36602
1488.01125,0.37261
1486.52147,0.37924
1485.03168,0.52998
1483.54189,0.58633
1482.05210,0.70501
1480.56231,0.78479
1479.07252,0.93567
1477.58274,1.07393
1476.09295,1.18690
1474.60316,1.20353
1473.11337,1.29126
1471.62358,1.30601
1470.13379,1.34513
1468.64401,1.24798
1467.15422,1.16644
1465.66443,1.14627
1464.17464,1.12613
1462.68485,1.11771
1461.19506,1.08206
1459.70527,1.04937
1458.21549,0.99042
1456.72570,0.94319
1455.23591,0.84050
1453.74612,0.88583
1452.25633,0.84746
1450.76654,0.72539
1449.27676,0.75135
1447.78697,0.70140
1446.29718,0.65732
1444.80739,0.62885
1443.31760,0.60042
1441.82781,0.45227
1440.33802,0.46187
1438.84824,0.35857
1437.35845,0.35460
1435.86866,0.35652
1434.37887,0.38864
1432.88908,0.33902
1431.39929,0.32741
1429.90951,0.27298
1428.41972,0.27409
1426.92993,0.31028
1425.44014,0.34747
1423.95035,0.35111
1422.46056,0.35478
1420.97078,0.41641
1419.48099,0.35054
1417.99120,0.29346
1416.50141,0.35325
1415.01162,0.34492
1413.52183,0.37751
1412.03204,0.38287
1410.54226,0.37172
1409.05247,0.35573
1407.56268,0.41182
1406.07289,0.38129
1404.58310,0.36054
1403.09331,0.33981
1401.60353,0.30452
1400.11374,0.36759
1398.62395,0.37910
1397.13416,0.37506
1395.64437,0.41389
1394.15458,0.46930
1392.66479,0.46926
1391.17501,0.44491
1389.68522,0.44201
1388.19543,0.42551
1386.70564,0.43679
1385.21585,0.44811
1383.72606,0.44534
1382.23628,0.35207
1380.74649,0.38636
1379.25670,0.39732
1377.76691,0.37911
1376.27712,0.41253
1374.78733,0.47325
1373.29755,0.51063
1371.80776,0.69018
1370.31797,0.71303
1368.82818,0.75197
1367.33839,0.79095
1365.84860,0.87717
1364.35881,1.02769
1362.86903,1.11203
1361.37924,1.18376
1359.88945,1.32171
1358.39966,1.37500
1356.90987,1.36018
1355.42008,1.41646
1353.93030,1.32089
1352.44051,1.30811
1350.95072,1.29536
1349.46093,1.28752
1347.97114,1.08986
1346.48135,1.00322
1344.99156,0.92538
1343.50178,0.89722
1342.01199,0.82042
1340.52220,0.65700
1339.03241,0.61337
1337.54262,0.63402
1336.05283,0.64010
1334.56305,0.64622
1333.07326,0.63971
1331.58347,0.58164
1330.09368,0.54502
1328.60389,0.48020
1327.11410,0.45533
1325.62432,0.42660
1324.13453,0.45242
1322.64474,0.45004
1321.15495,0.46911
1319.66516,0.46679
1318.17537,0.46451
1316.68558,0.40191
1315.19580,0.40553
1313.70601,0.42185
1312.21622,0.39147
1310.72643,0.33289
1309.23664,0.34444
1307.74685,0.32389
1306.25707,0.38613
1304.76728,0.36857
1303.27749,0.35105
1301.78770,0.34621
1300.29791,0.34044
1298.80812,0.36098
1297.31834,0.42829
1295.82855,0.36030
1294.33876,0.34979
1292.84897,0.35976
1291.35918,0.34347
1289.86939,0.35010
1288.37960,0.35676
1286.88982,0.38243
1285.40003,0.40814
1283.91024,0.47380
1282.42045,0.50250
1280.93066,0.44653
1279.44087,0.51034
1277.95109,0.46320
1276.46130,0.53195
1274.97151,0.52965
1273.48172,0.52740
1271.99193,0.57288
1270.50214,0.55705
1269.01235,0.56658
1267.52257,0.54596
1266.03278,0.60423
1264.54299,0.59632
1263.05320,0.65661
1261.56341,0.67506
1260.07362,0.69355
1258.58384,0.69649
1257.09405,0.66831
1255.60426,0.71902
1254.11447,0.75030
1252.62468,0.75629
1251.13489,0.79932
1249.64511,0.70218
1248.15532,0.54082
1246.66553,0.52796
1245.17574,0.51514
1243.68595,0.41716
1242.19616,0.43020
1240.70637,0.43062
1239.21659,0.39116
1237.72680,0.34199
1236.23701,0.33180
1234.74722,0.30802
1233.25743,0.28767
1231.76764,0.26736
1230.27786,0.26801
1228.78807,0.30082
1227.29828,0.22949
1225.80849,0.26627
1224.31870,0.14730
1222.82891,0.24256
1221.33912,0.20349
1219.84934,0.21557
1218.35955,0.22768
1216.86976,0.21208
1215.37997,0.29193
1213.89018,0.26666
1212.40039,0.31054
1210.91061,0.24640
1209.42082,0.18910
1207.93103,0.20388
1206.44124,0.21869
1204.95145,0.19849
1203.46166,0.11114
1201.97188,0.09880
1200.48209,0.09914
1198.99230,0.16961
1197.50251,0.13886
1196.01272,0.11302
1194.52293,0.11447
1193.03314,0.11595
1191.54336,0.07755
1190.05357,0.00218
1188.56378,0.10592
1187.07399,0.04515
1185.58420,0.07399
1184.09441,0.09604
1182.60463,0.09136
1181.11484,0.08670
1179.62505,0.09133
1178.13526,0.09113
1176.64547,0.09388
1175.15568,0.08206
1173.66589,0.12576
1172.17611,0.12374
1170.68632,0.10569
1169.19653,0.08768
1167.70674,0.08381
1166.21695,0.09166
1164.72716,0.00218
1163.23738,0.02443
1161.74759,0.04767
1160.25780,0.12061
1158.76801,0.09476
1157.27822,0.06894
1155.78843,0.06604
1154.29865,0.08167
1152.80886,0.01749
1151.31907,0.03027
1149.82928,0.05768
1148.33949,0.13380
1146.84970,0.11065
1145.35991,0.08753
1143.87013,0.05958
1142.38034,0.07060
1140.89055,0.10600
1139.40076,0.15506
1137.91097,0.16521
1136.42118,0.20850
1134.93140,0.24500
1133.44161,0.28154
1131.95182,0.34732
1130.46203,0.38879
1128.97224,0.36798
1127.48245,0.45820
1125.99266,0.40631
1124.50288,0.48491
1123.01309,0.44135
1121.52330,0.39784
1120.03351,0.50672
1118.54372,0.48225
1117.05393,0.54057
1115.56415,0.53272
1114.07436,0.54340
1112.58457,0.55558
1111.09478,0.56779
1109.60499,0.55034
1108.11520,0.60301
1106.62542,0.57979
1105.13563,0.70555
1103.64584,0.82161
1102.15605,0.91044
1100.66626,0.87907
1099.17647,0.84774
1097.68668,0.88410
1096.19690,0.96430
1094.70711,1.00072
1093.21732,0.97585
1091.72753,1.03571
1090.23774,1.05471
1088.74795,1.07374
1087.25817,1.09378
1085.76838,1.13236
1084.27859,1.17096
1082.78880,1.29236
1081.29901,1.33979
1079.80922,1.23051
1078.31943,1.30771
1076.82965,1.38493
1075.33986,1.36630
1073.85007,1.46842
1072.36028,1.28531
1070.87049,1.36122
1069.38070,1.48583
1067.89092,1.47028
1066.40113,1.45476
1064.91134,1.41202
1063.42155,1.33037
1061.93176,1.28866
1060.44197,1.21486
1058.95219,1.11092
1057.46240,1.08830
1055.97261,1.06572
1054.48282,0.98816
1052.99303,0.93010
1051.50324,0.90810
1050.01345,0.77515
1048.52367,0.79021
1047.03388,0.71136
1045.54409,0.63254
1044.05430,0.66620
1042.56451,0.48960
1041.07472,0.53501
1039.58494,0.48115
1038.09515,0.51981
1036.60536,0.48743
1035.11557,0.45509
1033.62578,0.45588
1032.13599,0.34864
1030.64620,0.35339
1029.15642,0.41464
1027.66663,0.39561
1026.17684,0.37661
1024.68705,0.42822
1023.19726,0.57042
1021.70747,0.72238
1020.21769,0.85685
1018.72790,0.97577
1017.23811,1.08694
1015.74832,1.19814
1014.25853,1.41355
1012.76874,1.59882
1011.27896,1.80455
1009.78917,1.92076
1008.29938,2.00000
1006.80959,1.95125
1005.31980,1.90253
1003.83001,1.76963
1002.34022,1.60270
1000.85044,1.59740
999.36065,1.46655
997.87086,1.39269
996.38107,1.31886
994.89128,1.39255
993.40149,1.48576
991.91171,1.39986
990.42192,1.45905
988.93213,1.37711
987.44234,1.38818
985.95255,1.39928
984.46276,1.52676
982.97297,1.35052
981.48319,1.30866
979.99340,1.31162
978.50361,1.32970
977.01382,1.34782
975.52403,1.34212
974.03424,1.25661
972.54446,1.13317
971.05467,1.10907
969.56488,1.18626
968.07509,1.13886
966.58530,1.09149
965.09551,0.99840
963.60573,1.01341
962.11594,1.00703
960.62615,0.88093
959.13636,0.89848
957.64657,0.91605
956.15678,0.86113
954.66699,0.81500
953.17721,0.78059
951.68742,0.81922
950.19763,0.80484
948.70784,0.79048
947.21805,0.71726
945.72826,0.65770
944.23848,0.73350
942.74869,0.77234
941.25890,0.74696
939.76911,0.81945
938.27932,0.89198
936.78953,0.96307
935.29974,0.83073
933.80996,0.80454
932.32017,0.85626
930.83038,0.82430
929.34059,0.79236
927.85080,0.87145
926.36101,0.87366
924.87123,0.86908
923.38144,0.79445
921.89165,0.78799
920.40186,0.78157
918.91207,0.90174
917.42228,0.87202
915.93250,0.94067
914.44271,0.86623
912.95292,0.87360
911.46313,0.88101
909.97334,0.86800
908.48355,0.92416
906.99376,0.96769
905.50398,0.85450
904.01419,0.82313
902.52440,0.79180
901.03461,0.79749
899.54482,0.93659
898.05503,1.01342
896.56525,0.98417
895.07546,0.98561
893.58567,0.98709
892.09588,1.02024
890.60609,0.98528
889.11630,1.06036
887.62651,1.03812
886.13673,0.95798
884.64694,0.87788
883.15715,1.06992
881.66736,0.99718
880.17757,1.00334
878.68778,1.02949
877.19800,1.05567
875.70821,1.00449
874.21842,0.99228
872.72863,1.13101
871.23884,1.14029
869.74905,1.10384
868.25927,1.06742
866.76948,1.14885
865.27969,1.15728
863.78990,1.24558
862.30011,1.22488
860.81032,1.28404
859.32053,1.34324
857.83075,1.16783
856.34096,1.02849
854.85117,1.01476
853.36138,1.03612
851.87159,0.95967
850.38180,0.88325
848.89202,0.72362
847.40223,0.56111
845.91244,0.57192
844.42265,0.54626
842.93286,0.52063
841.44307,0.51500
839.95329,0.48116
838.46350,0.45904
836.97371,0.43014
835.48392,0.45384
833.99413,0.47758
832.50434,0.44099
831.01455,0.49497
829.52477,0.46234
828.03498,0.36159
826.54519,0.32027
825.05540,0.27897
823.56561,0.30392
822.07582,0.28119
820.58604,0.28673
819.09625,0.22561
817.60646,0.16452
816.11667,0.09325
814.62688,0.09892
813.13709,0.07639
811.64730,0.05000
810.15752,0.02607
808.66773,0.00218
807.17794,0.01244
805.68815,0.03052
804.19836,0.04571
802.70857,0.04779
801.21879,0.04991
799.72900,0.14308
798.23921,0.28205
796.74942,0.35874
795.25963,0.38874
793.76984,0.41876
792.28006,0.45856
790.79027,0.58893
789.30048,0.62782
787.81069,0.63851
786.32090,0.65556
784.83111,0.67264
783.34132,0.71653
781.85154,0.75267
780.36175,0.67882
778.87196,0.71356
777.38217,0.74833
775.89238,0.83230
774.40259,0.90463
772.91281,0.88255
771.42302,0.89603
769.93323,0.90955
768.44344,0.96546
766.95365,0.97564
765.46386,0.91673
763.97407,0.91626
762.48429,0.85888
760.99450,0.80153
759.50471,0.69505
758.01492,0.63046
756.52513,0.49484
755.03534,0.43762
753.54556,0.38043
752.05577,0.28774
750.56598,0.18341
749.07619,0.15602
747.58640,0.13304
746.09661,0.11010
744.60683,0.07015
743.11704,0.09546
741.62725,0.07310
740.13746,0.06344
738.64767,0.05380
737.15788,0.06075
735.66809,0.02100
734.17831,0.02899
732.68852,0.06427
731.19873,0.09959
729.70894,0.06095
728.21915,0.05544
726.72936,0.04510
725.23958,0.06983
723.74979,0.10093
722.26000,0.13207
720.77021,0.11504
719.28042,0.10292
717.79063,0.05481
716.30084,0.04129
714.81106,0.02780
713.32127,0.00218
711.83148,0.11800
710.34169,0.09853
708.85190,0.11998
707.36211,0.14146
705.87233,0.08022
704.38254,0.07353
702.89275,0.06883
701.40296,0.11770
699.91317,0.16661
698.42338,0.15032
696.93360,0.14867
695.44381,0.12953
693.95402,0.17078
692.46423,0.21206
690.97444,0.22223
689.48465,0.23437
687.99486,0.23779
686.50508,0.24805
685.01529,0.25835
683.52550,0.29204
682.03571,0.31506
680.54592,0.29820
679.05613,0.27796
677.56635,0.25776
676.07656,0.22444
674.58677,0.19603
673.09698,0.17057
671.60719,0.16656
670.11740,0.16259
668.62761,0.14307
667.13783,0.12553
665.64804,0.10413
664.15825,0.08276
662.66846,0.09161
661.17867,0.07518
659.68888,0.14738
658.19910,0.15632
656.70931,0.16530
655.21952,0.18989
653.72973,0.19212
652.23994,0.24015
650.75015,0.26143
649.26037,0.28275
647.77058,0.14686
646.28079,0.13271
644.79100,0.13611
643.30121,0.12836
641.81142,0.12063
640.32163,0.09395
638.83185,0.09068
637.34206,0.03194
635.85227,0.01704
634.36248,0.00218
632.87269,0.09825
631.38290,0.10575
629.89312,0.08699
628.40333,0.09748
626.91354,0.10800
625.42375,0.14290
623.93396,0.15154
622.44417,0.15778
620.95438,0.16405
619.46460,0.07446
617.97481,0.03456
616.48502,0.12417
614.99523,0.15102
613.50544,0.17790
612.01565,0.11379
610.52587,0.05361
609.03608,0.13949
607.54629,0.11929
606.05650,0.09912
604.56671,0.22502
603.07692,0.15916
601.58714,0.16782
600.09735,0.17650
598.60756,0.15552
597.11777,0.03333
595.62798,0.05623
594.13819,0.05288
592.64840,0.04956
591.15862,0.09787
589.66883,0.07905
588.17904,0.06317
586.68925,0.08140
585.19946,0.09967
583.70967,0.17249
582.21989,0.17524
580.73010,0.18679
579.24031,0.19838
577.75052,0.14866
576.26073,0.14181
574.77094,0.07463
573.28115,0.14574
571.79137,0.21688
570.30158,0.33575
568.81179,0.30570
567.32200,0.31561
565.83221,0.32554
564.34242,0.36472
562.85264,0.40782
561.36285,0.49282
559.87306,0.48634
558.38327,0.47989
556.89348,0.52702
555.40369,0.62383
553.91391,0.64474
552.42412,0.66568
550.93433,0.63896
549.44454,0.62297
547.95475,0.66835
546.46496,0.66704
544.97517,0.66575
543.48539,0.77646
541.99560,0.75091
540.50581,0.77504
539.01602,0.79920
537.52623,0.71533
536.03644,0.69185
534.54666,0.63142
533.05687,0.66155
531.56708,0.69172
530.07729,0.64501
528.58750,0.57497
527.09771,0.61157
525.60792,0.64820
524.11814,0.55587
522.62835,0.52393
521.13856,0.53778
519.64877,0.49374
518.15898,0.44973
516.66919,0.40039
515.17941,0.39004
513.68962,0.37436
512.19983,0.35872
510.71004,0.29394
509.22025,0.47357
507.73046,0.43807
506.24068,0.47854
504.75089,0.51904
503.26110,0.40770
501.77131,0.47358
500.28152,0.45723
498.79173,0.44091
497.30194,0.42414
495.81216,0.42785
494.32237,0.45982
492.83258,0.49183
491.34279,0.50732
489.85300,0.44787
488.36321,0.40891
486.87343,0.39237
485.38364,0.37586
483.89385,0.39055
482.40406,0.24657
480.91427,0.20290
479.42448,0.15927
477.93469,0.12443
476.44491,0.14999
474.95512,0.12738
473.46533,0.10482
471.97554,0.09542
470.48575,0.00623
468.99596,0.04825
467.50618,0.02848
466.01639,0.00874
464.52660,0.00218
463.03681,0.09955
461.54702,0.08012
460.05723,0.06073
458.56745,0.04721
457.07766,0.06488
455.58787,0.11373
454.09808,0.16262
452.60829,0.21836
451.11850,0.24979
449.62871,0.27444
448.13893,0.29912
446.64914,0.40854
445.15935,0.44399
443.66956,0.47072
442.17977,0.50138
440.68998,0.53207
439.20020,0.65723
437.71041,0.73958
436.22062,0.80055
434.73083,0.86155
433.24104,1.10854
431.75125,1.27184
430.26146,1.26235
428.77168,1.25291
427.28189,1.29850
425.79210,1.46095
424.30231,1.39465
422.81252,1.32838
421.32273,1.28648
419.83295,1.20470
418.34316,1.11030
416.85337,1.01593
415.36358,0.87486
413.87379,0.84871
412.38400,0.84449
410.89422,0.84031
409.40443,0.71398
407.91464,0.71327
406.42485,0.60258
404.93506,0.58490
403.44527,0.56725
401.95548,0.61049
400.46570,0.56711
398.97591,0.50575
397.48612,0.44443
395.99633,0.56958
394.50654,0.53704
393.01675,0.54737
391.52697,0.55774
390.03718,0.43281
388.54739,0.38872
387.05760,0.36706
385.56781,0.34543
384.07802,0.48253
382.58824,0.43370
381.09845,0.40828
379.60866,0.38289
378.11887,0.36435
376.62908,0.24459
375.13929,0.27674
373.64950,0.30892
372.15972,0.22820
370.66993,0.20788
369.18014,0.19781
367.69035,0.18778
366.20056,0.10719
364.71077,0.11815
363.22099,0.12282
361.73120,0.12752
360.24141,0.18727
358.75162,0.13411
357.26183,0.10532
355.77204,0.07657
354.28225,0.14520
352.79247,0.01916
351.30268,0.06064
349.81289,0.10215
348.32310,0.14711
346.83331,0.02464
345.34352,0.04143
343.85374,0.05825
342.36395,0.11599
340.87416,0.08323
339.38437,0.12449
337.89458,0.16578
336.40479,0.15161
334.91501,0.09269
333.42522,0.08735
331.93543,0.08204
330.44564,0.08359
328.95585,0.11242
327.46606,0.10040
325.97627,0.08841
324.48649,0.04628
322.99670,0.11707
321.50691,0.15967
320.01712,0.20230
318.52733,0.04831
317.03754,0.15429
315.54776,0.14152
314.05797,0.12879
312.56818,0.03724
311.07839,0.00218
309.58860,0.00757
308.09881,0.01299
306.60902,0.00773
305.11924,0.05703
303.62945,0.04600
302.13966,0.00218
300.64987,0.03283
299.16008,0.00218
