1778.52000,0.04876
1777.03021,0.05870
1775.54042,0.04903
1774.05063,0.03659
1772.56085,0.01296
1771.07106,0.03987
1769.58127,0.00649
1768.09148,0.04048
1766.60169,0.02260
1765.11190,0.02579
1763.62212,0.07251
1762.13233,0.07858
1760.64254,0.02295
1759.15275,0.06837
1757.66296,0.10821
1756.17317,0.08214
1754.68339,0.00000
1753.19360,0.08342
1751.70381,0.05886
1750.21402,0.03013
1748.72423,0.06175
1747.23444,0.05132
1745.74465,0.04934
1744.25487,0.11473
1742.76508,0.11702
1741.27529,0.07867
1739.78550,0.08524
1738.29571,0.09605
1736.80592,0.09568
1735.31614,0.00836
1733.82635,0.06602
1732.33656,0.01709
1730.84677,0.04395
1729.35698,0.06804
1727.86719,0.05008
1726.37740,0.03074
1724.88762,0.03249
1723.39783,0.03988
1721.90804,0.03187
1720.41825,0.06318
1718.92846,0.02016
1717.43867,0.04172
1715.94889,0.05489
1714.45910,0.03021
1712.96931,0.09676
1711.47952,0.03848
1709.98973,0.08826
1708.49994,0.13106
1707.01016,0.13672
1705.52037,0.14241
1704.03058,0.18391
1702.54079,0.15950
1701.05100,0.12251
1699.56121,0.16270
1698.07142,0.16786
1696.58164,0.12115
1695.09185,0.22317
1693.60206,0.24947
1692.11227,0.22811
1690.62248,0.29236
1689.13269,0.22477
1687.64291,0.24279
1686.15312,0.29732
1684.66333,0.28594
1683.17354,0.24655
1681.68375,0.23945
1680.19396,0.30113
1678.70417,0.24079
1677.21439,0.23940
1675.72460,0.31381
1674.23481,0.31530
1672.74502,0.24948
1671.25523,0.28050
1669.76544,0.24421
1668.27566,0.20796
1666.78587,0.32045
1665.29608,0.22534
1663.80629,0.27055
1662.31650,0.24285
1660.82671,0.26990
1659.33693,0.28014
1657.84714,0.24272
1656.35735,0.23480
1654.86756,0.22270
1653.37777,0.22045
1651.88798,0.16773
1650.39819,0.20904
1648.90841,0.25319
1647.41862,0.15568
1645.92883,0.19078
1644.43904,0.22591
1642.94925,0.21829
1641.45946,0.23876
1639.96968,0.20175
1638.47989,0.15915
1636.99010,0.18253
1635.50031,0.18770
1634.01052,0.15503
1632.52073,0.15606
1631.03094,0.16695
1629.54116,0.19470
1628.05137,0.21267
1626.56158,0.21524
1625.07179,0.21925
1623.58200,0.27238
1622.09221,0.30732
1620.60243,0.27916
1619.11264,0.21456
1617.62285,0.27485
1616.13306,0.21874
1614.64327,0.17809
1613.15348,0.22866
1611.66370,0.26944
1610.17391,0.24713
1608.68412,0.23889
1607.19433,0.21243
1605.70454,0.20425
1604.21475,0.20803
1602.72496,0.21184
1601.23518,0.21498
1599.74539,0.19151
1598.25560,0.23119
1596.76581,0.21059
1595.27602,0.18861
1593.78623,0.20315
1592.29645,0.13635
1590.80666,0.13412
1589.31687,0.11228
1587.82708,0.13817
1586.33729,0.18655
1584.84750,0.12974
1583.35771,0.15714
1581.86793,0.07935
1580.37814,0.09559
1578.88835,0.14834
1577.39856,0.13940
1575.90877,0.07017
1574.41898,0.09496
1572.92920,0.08752
1571.43941,0.06329
1569.94962,0.03487
1568.45983,0.00649
1566.97004,0.02013
1565.48025,0.13060
1563.99047,0.10642
1562.50068,0.08509
1561.01089,0.14235
1559.52110,0.08321
1558.03131,0.09003
1556.54152,0.14038
1555.05173,0.14307
1553.56195,0.15841
1552.07216,0.12609
1550.58237,0.04330
1549.09258,0.06295
1547.60279,0.10789
1546.11300,0.04344
1544.62322,0.08845
1543.13343,0.12647
1541.64364,0.06914
1540.15385,0.06795
1538.66406,0.06680
1537.17427,0.04884
1535.68448,0.00988
1534.19470,0.05091
1532.70491,0.01903
1531.21512,0.08258
1529.72533,0.04516
1528.23554,0.04564
1526.74575,0.05458
1525.25597,0.04952
1523.76618,0.04309
1522.27639,0.01145
1520.78660,0.00649
1519.29681,0.06840
1517.80702,0.01390
1516.31724,0.01555
1514.82745,0.01864
1513.33766,0.03369
1511.84787,0.04877
1510.35808,0.06879
1508.86829,0.03554
1507.37850,0.02758
1505.88872,0.05191
1504.39893,0.07067
1502.90914,0.05859
1501.41935,0.10407
1499.92956,0.00649
1498.43977,0.07626
1496.94999,0.13905
1495.46020,0.15979
1493.97041,0.21282
1492.48062,0.26729
1490.99083,0.25446
1489.50104,0.35670
1488.01125,0.41899
1486.52147,0.48131
1485.03168,0.55700
1483.54189,0.54433
1482.05210,0.74634
1480.56231,0.80529
1479.07252,0.92601
1477.58274,0.93312
1476.09295,1.15350
1474.60316,1.17892
1473.11337,1.36710
1471.62358,1.34489
1470.13379,1.30868
1468.64401,1.27531
1467.15422,1.15781
1465.66443,1.11679
1464.17464,1.07581
1462.68485,1.01873
1461.19506,1.08373
1459.70527,1.02812
1458.21549,0.93606
1456.72570,0.92681
1455.23591,0.89515
1453.74612,0.79899
1452.25633,0.84175
1450.76654,0.74846
1449.27676,0.77025
1447.78697,0.68545
1446.29718,0.63715
1444.80739,0.58889
1443.31760,0.54067
1441.82781,0.50089
1440.33802,0.39942
1438.84824,0.41443
1437.35845,0.29900
1435.86866,0.32530
1434.37887,0.31796
1432.88908,0.34432
1431.39929,0.36370
1429.90951,0.35646
1428.41972,0.21458
1426.92993,0.29158
1425.44014,0.35739
1423.95035,0.34468
1422.46056,0.33200
1420.97078,0.42737
1419.48099,0.39231
1417.99120,0.28153
1416.50141,0.28722
1415.01162,0.28874
1413.52183,0.39410
1412.03204,0.31151
1410.54226,0.30190
1409.05247,0.27409
1407.56268,0.37117
1406.07289,0.27609
1404.58310,0.27714
1403.09331,0.27823
1401.60353,0.38106
1400.11374,0.33241
1398.62395,0.31185
1397.13416,0.38531
1395.64437,0.35220
1394.15458,0.47624
1392.66479,0.53577
1391.17501,0.43262
1389.68522,0.47819
1388.19543,0.36669
1386.70564,0.37796
1385.21585,0.38927
1383.72606,0.36905
1382.23628,0.38534
1380.74649,0.37781
1379.25670,0.39697
1377.76691,0.38530
1376.27712,0.39050
1374.78733,0.44483
1373.29755,0.47956
1371.80776,0.57184
1370.31797,0.61365
1368.82818,0.67583
1367.33839,0.73805
1365.84860,0.92165
1364.35881,0.99446
1362.86903,1.12622
1361.37924,1.10510
1359.88945,1.34635
1358.39966,1.37721
1356.90987,1.31130
1355.42008,1.32539
1353.93030,1.44894
1352.44051,1.38103
1350.95072,1.31315
1349.46093,1.36104
1347.97114,1.15505
1346.48135,1.08096
1344.99156,0.90029
1343.50178,0.86976
1342.01199,0.77753
1340.52220,0.64886
1339.03241,0.60020
1337.54262,0.63433
1336.05283,0.61589
1334.56305,0.59749
1333.07326,0.56719
1331.58347,0.56358
1330.09368,0.48565
1328.60389,0.49755
1327.11410,0.48282
1325.62432,0.43726
1324.13453,0.45626
1322.64474,0.40516
1321.15495,0.44949
1319.66516,0.43212
1318.17537,0.41479
1316.68558,0.42134
1315.19580,0.41950
1313.70601,0.37000
1312.21622,0.33176
1310.72643,0.33845
1309.23664,0.37182
1307.74685,0.35753
1306.25707,0.30680
1304.76728,0.31572
1303.27749,0.32468
1301.78770,0.30491
1300.29791,0.33288
1298.80812,0.28652
1297.31834,0.38189
1295.82855,0.30334
1294.33876,0.38896
1292.84897,0.34414
1291.35918,0.33303
1289.86939,0.27916
1288.37960,0.22532
1286.88982,0.37424
1285.40003,0.39973
1283.91024,0.43789
1282.42045,0.48309
1280.93066,0.46801
1279.44087,0.47540
1277.95109,0.46599
1276.46130,0.43417
1274.97151,0.45149
1273.48172,0.46884
1271.99193,0.59705
1270.50214,0.53450
1269.01235,0.58842
1267.52257,0.53857
1266.03278,0.60519
1264.54299,0.56943
1263.05320,0.67119
1261.56341,0.62287
1260.07362,0.57459
1258.58384,0.68346
1257.09405,0.62122
1255.60426,0.69368
1254.11447,0.75917
1252.62468,0.78120
1251.13489,0.79344
1249.64511,0.62194
1248.15532,0.53605
1246.66553,0.51192
1245.17574,0.48783
1243.68595,0.38801
1242.19616,0.36117
1240.70637,0.44801
1239.21659,0.36512
1237.72680,0.29069
1236.23701,0.27802
1234.74722,0.27521
1233.25743,0.26892
1231.76764,0.26266
1230.27786,0.27397
1228.78807,0.19974
1227.29828,0.25742
1225.80849,0.21412
1224.31870,0.13438
1222.82891,0.07572
1221.33912,0.16019
1219.84934,0.16402
1218.35955,0.16789
1216.86976,0.16548
1215.37997,0.25008
1213.89018,0.29403
1212.40039,0.11916
1210.91061,0.18563
1209.42082,0.19882
1207.93103,0.19941
1206.44124,0.20004
1204.95145,0.13477
1203.46166,0.09198
1201.97188,0.08710
1200.48209,0.11031
1198.99230,0.12514
1197.50251,0.05162
1196.01272,0.06512
1194.52293,0.04567
1193.03314,0.02627
1191.54336,0.07493
1190.05357,0.01421
1188.56378,0.04190
1187.07399,0.00649
1185.58420,0.03027
1184.09441,0.08776
1182.60463,0.08004
1181.11484,0.07236
1179.62505,0.06261
1178.13526,0.04869
1176.64547,0.03199
1175.15568,0.05741
1173.66589,0.12214
1172.17611,0.10274
1170.68632,0.08688
1169.19653,0.07105
1167.70674,0.05596
1166.21695,0.04511
1164.72716,0.03990
1163.23738,0.03614
1161.74759,0.16848
1160.25780,0.09043
1158.76801,0.09237
1157.27822,0.09435
1155.78843,0.08794
1154.29865,0.09139
1152.80886,0.00649
1151.31907,0.14046
1149.82928,0.11312
1148.33949,0.12791
1146.84970,0.14834
1145.35991,0.16881
1143.87013,0.03219
1142.38034,0.13549
1140.89055,0.23322
1139.40076,0.25101
1137.91097,0.20712
1136.42118,0.30915
1134.93140,0.29127
1133.44161,0.27343
1131.95182,0.33489
1130.46203,0.40339
1128.97224,0.36530
1127.48245,0.49700
1125.99266,0.50388
1124.50288,0.47572
1123.01309,0.47004
1121.52330,0.46439
1120.03351,0.39564
1118.54372,0.49949
1117.05393,0.54865
1115.56415,0.55857
1114.07436,0.61482
1112.58457,0.61779
1111.09478,0.62080
1109.60499,0.59999
1108.11520,0.59885
1106.62542,0.58793
1105.13563,0.86182
1103.64584,0.85798
1102.15605,0.92993
1100.66626,0.92405
1099.17647,0.91821
1097.68668,0.97202
1096.19690,0.98799
1094.70711,1.03346
1093.21732,1.02985
1091.72753,1.11606
1090.23774,1.11604
1088.74795,1.11604
1087.25817,1.15466
1085.76838,1.13158
1084.27859,1.28530
1082.78880,1.19636
1081.29901,1.41749
1079.80922,1.29915
1078.31943,1.29799
1076.82965,1.29686
1075.33986,1.49988
1073.85007,1.41956
1072.36028,1.29999
1070.87049,1.34740
1069.38070,1.51127
1067.89092,1.49281
1066.40113,1.47438
1064.91134,1.32272
1063.42155,1.42641
1061.93176,1.27060
1060.44197,1.24950
1058.95219,1.14847
1057.46240,1.11271
1055.97261,1.07699
1054.48282,0.99851
1052.99303,1.02387
1051.50324,0.85427
1050.01345,0.79834
1048.52367,0.75226
1047.03388,0.75461
1045.54409,0.75700
1044.05430,0.60580
1042.56451,0.58791
1041.07472,0.49290
1039.58494,0.48771
1038.09515,0.48395
1036.60536,0.45708
1035.11557,0.43024
1033.62578,0.51076
1032.13599,0.40332
1030.64620,0.41517
1029.15642,0.49718
1027.66663,0.45228
1026.17684,0.40741
1024.68705,0.47971
1023.19726,0.58852
1021.70747,0.75909
1020.21769,0.90444
1018.72790,1.04842
1017.23811,1.10756
1015.74832,1.16674
1014.25853,1.41744
1012.76874,1.60084
1011.27896,1.95822
1009.78917,2.00000
1008.29938,1.90433
1006.80959,1.93214
1005.31980,1.95999
1003.83001,1.86302
1002.34022,1.73521
1000.85044,1.67759
999.36065,1.47270
997.87086,1.44039
996.38107,1.40812
994.89128,1.38009
993.40149,1.39277
991.91171,1.47423
990.42192,1.44911
988.93213,1.36650
987.44234,1.38704
985.95255,1.40761
984.46276,1.46399
982.97297,1.32961
981.48319,1.41832
979.99340,1.27139
978.50361,1.30195
977.01382,1.33254
975.52403,1.33721
974.03424,1.21847
972.54446,1.14185
971.05467,1.17468
969.56488,1.17949
968.07509,1.11629
966.58530,1.05313
965.09551,1.01596
963.60573,1.00266
962.11594,1.11426
960.62615,1.01686
959.13636,0.94545
957.64657,0.87407
956.15678,0.78099
954.66699,0.79736
953.17721,0.81236
951.68742,0.78811
950.19763,0.80599
948.70784,0.82389
947.21805,0.70155
945.72826,0.68024
944.23848,0.68843
942.74869,0.80047
941.25890,0.80452
939.76911,0.77563
938.27932,0.74678
936.78953,0.96416
935.29974,0.90522
933.80996,0.74670
932.32017,0.84775
930.83038,0.81486
929.34059,0.78200
927.85080,0.78916
926.36101,0.83142
924.87123,0.81900
923.38144,0.86695
921.89165,0.89178
920.40186,0.91664
918.91207,0.89173
917.42228,0.77146
915.93250,0.92760
914.44271,0.80459
912.95292,0.83243
911.46313,0.86030
909.97334,0.80754
908.48355,0.95963
906.99376,0.96866
905.50398,0.83604
904.01419,0.80165
902.52440,0.76730
901.03461,0.85222
899.54482,0.87264
898.05503,0.95062
896.56525,0.97953
895.07546,0.99023
893.58567,1.00097
892.09588,0.87427
890.60609,0.92997
889.11630,0.97307
887.62651,0.92362
886.13673,0.94014
884.64694,0.95670
883.15715,0.99012
881.66736,0.94081
880.17757,0.95886
878.68778,0.97836
877.19800,0.99789
875.70821,0.88277
874.21842,1.09596
872.72863,1.06649
871.23884,1.08756
869.74905,1.09673
868.25927,1.10594
866.76948,1.07520
865.27969,1.17216
863.78990,1.22706
862.30011,1.16416
860.81032,1.17705
859.32053,1.18997
857.83075,1.17486
856.34096,1.08684
854.85117,1.03112
853.36138,1.01050
851.87159,0.93451
850.38180,0.85855
848.89202,0.75527
847.40223,0.61414
845.91244,0.51092
844.42265,0.52418
842.93286,0.53747
841.44307,0.54659
839.95329,0.53329
838.46350,0.39377
836.97371,0.35108
835.48392,0.42907
833.99413,0.50709
832.50434,0.33965
831.01455,0.40091
829.52477,0.44396
828.03498,0.45619
826.54519,0.35832
825.05540,0.26049
823.56561,0.29947
822.07582,0.32446
820.58604,0.22322
819.09625,0.21530
817.60646,0.20742
816.11667,0.10628
814.62688,0.07392
813.13709,0.05562
811.64730,0.00649
810.15752,0.01237
808.66773,0.01829
807.17794,0.06984
805.68815,0.07933
804.19836,0.08605
802.70857,0.12647
801.21879,0.16693
799.72900,0.15832
798.23921,0.28442
796.74942,0.36005
795.25963,0.38521
793.76984,0.41040
792.28006,0.44264
790.79027,0.58013
789.30048,0.58859
787.81069,0.72054
786.32090,0.73468
784.83111,0.74885
783.34132,0.74763
781.85154,0.70435
780.36175,0.60500
778.87196,0.62772
777.38217,0.65048
775.89238,0.74201
774.40259,0.83078
772.91281,0.79752
771.42302,0.84006
769.93323,0.88263
768.44344,0.96451
766.95365,0.87527
765.46386,0.86043
763.97407,0.78809
762.48429,0.72491
760.99450,0.66177
759.50471,0.70317
758.01492,0.59450
756.52513,0.42975
755.03534,0.43197
753.54556,0.43423
752.05577,0.22889
750.56598,0.23542
749.07619,0.09188
747.58640,0.07534
746.09661,0.05882
744.60683,0.05287
743.11704,0.10446
741.62725,0.06630
740.13746,0.06676
738.64767,0.06725
737.15788,0.03901
735.66809,0.05290
734.17831,0.00649
732.68852,0.05878
731.19873,0.11110
729.70894,0.05894
728.21915,0.04750
726.72936,0.05994
725.23958,0.03875
723.74979,0.09054
722.26000,0.14236
720.77021,0.09181
719.28042,0.05672
717.79063,0.01746
716.30084,0.02172
714.81106,0.02601
713.32127,0.00649
711.83148,0.03489
710.34169,0.06612
708.85190,0.05180
707.36211,0.03751
705.87233,0.08147
704.38254,0.09040
702.89275,0.08533
701.40296,0.08450
699.91317,0.08371
698.42338,0.08014
696.93360,0.20988
695.44381,0.13904
693.95402,0.17907
692.46423,0.21913
690.97444,0.23677
689.48465,0.22639
687.99486,0.23288
686.50508,0.26256
685.01529,0.29226
683.52550,0.32972
682.03571,0.29285
680.54592,0.29110
679.05613,0.31041
677.56635,0.32977
676.07656,0.26358
674.58677,0.20303
673.09698,0.13271
671.60719,0.12905
670.11740,0.12542
668.62761,0.17444
667.13783,0.08039
665.64804,0.09931
664.15825,0.11827
662.66846,0.04537
661.17867,0.07491
659.68888,0.09748
658.19910,0.10675
656.70931,0.11605
655.21952,0.15555
653.72973,0.20069
652.23994,0.21080
650.75015,0.23988
649.26037,0.26899
647.77058,0.28902
646.28079,0.07059
644.79100,0.11594
643.30121,0.11292
641.81142,0.10994
640.32163,0.05999
638.83185,0.09144
637.34206,0.00649
635.85227,0.02787
634.36248,0.04927
632.87269,0.07633
631.38290,0.13708
629.89312,0.09967
628.40333,0.11911
626.91354,0.13858
625.42375,0.20508
623.93396,0.17061
622.44417,0.13057
620.95438,0.09055
619.46460,0.06460
617.97481,0.20001
616.48502,0.14607
614.99523,0.14196
613.50544,0.13789
612.01565,0.13876
610.52587,0.02743
609.03608,0.08028
607.54629,0.08125
606.05650,0.08226
604.56671,0.20956
603.07692,0.15031
601.58714,0.15703
600.09735,0.16378
598.60756,0.19582
597.11777,0.08059
595.62798,0.12392
594.13819,0.11537
592.64840,0.10686
591.15862,0.13907
589.66883,0.13063
588.17904,0.16711
586.68925,0.17557
585.19946,0.18406
583.70967,0.16313
582.21989,0.23201
580.73010,0.22728
579.24031,0.22258
577.75052,0.19477
576.26073,0.22030
574.77094,0.18834
573.28115,0.20202
571.79137,0.21572
570.30158,0.31855
568.81179,0.41018
567.32200,0.40505
565.83221,0.39995
564.34242,0.40892
562.85264,0.44317
561.36285,0.60932
559.87306,0.59103
558.38327,0.57278
556.89348,0.59454
555.40369,0.55741
553.91391,0.61431
552.42412,0.67125
550.93433,0.59775
549.44454,0.59302
547.95475,0.67952
546.46496,0.67275
544.97517,0.66602
543.48539,0.83118
541.99560,0.76069
540.50581,0.79334
539.01602,0.82603
537.52623,0.75564
536.03644,0.69230
534.54666,0.63881
533.05687,0.68005
531.56708,0.72132
530.07729,0.71142
528.58750,0.64825
527.09771,0.66086
525.60792,0.67351
524.11814,0.53188
522.62835,0.60913
521.13856,0.54192
519.64877,0.52664
518.15898,0.51140
516.66919,0.52987
515.17941,0.39405
513.68962,0.39224
512.19983,0.39046
510.71004,0.34453
509.22025,0.42068
507.73046,0.41970
506.24068,0.48890
504.75089,0.55814
503.26110,0.39173
501.77131,0.46524
500.28152,0.49881
498.79173,0.53240
497.30194,0.46012
495.81216,0.58567
494.32237,0.60394
492.83258,0.62224
491.34279,0.54168
489.85300,0.43729
488.36321,0.49708
486.87343,0.47203
485.38364,0.44701
483.89385,0.36100
482.40406,0.35639
480.91427,0.30272
479.42448,0.24907
477.93469,0.24737
476.44491,0.22045
474.95512,0.21040
473.46533,0.20038
471.97554,0.17497
470.48575,0.00649
468.99596,0.08288
467.50618,0.08916
466.01639,0.09548
464.52660,0.06254
463.03681,0.18536
461.54702,0.15530
460.05723,0.12528
458.56745,0.20331
457.07766,0.11302
455.58787,0.14132
454.09808,0.16965
452.60829,0.25202
451.11850,0.30356
449.62871,0.33340
448.13893,0.36326
446.64914,0.39106
445.15935,0.58583
443.66956,0.49585
442.17977,0.59179
440.68998,0.68776
439.20020,0.59227
437.71041,0.73250
436.22062,0.80542
434.73083,0.87838
433.24104,1.06080
431.75125,1.24044
430.26146,1.23704
428.77168,1.23368
427.28189,1.36993
425.79210,1.44730
424.30231,1.37460
422.81252,1.30193
421.32273,1.29102
419.83295,1.16230
418.34316,1.17250
416.85337,1.18273
415.36358,0.90401
413.87379,0.89747
412.38400,0.84468
410.89422,0.79192
409.40443,0.75462
407.91464,0.70895
406.42485,0.60438
404.93506,0.60717
403.44527,0.60999
401.95548,0.60092
400.46570,0.63538
398.97591,0.60954
397.48612,0.58374
395.99633,0.52991
394.50654,0.63324
393.01675,0.57247
391.52697,0.51173
390.03718,0.43419
388.54739,0.30197
387.05760,0.35777
385.56781,0.41361
384.07802,0.51156
382.58824,0.41736
381.09845,0.38912
379.60866,0.36092
378.11887,0.40850
376.62908,0.30742
375.13929,0.30106
373.64950,0.29474
372.15972,0.25688
370.66993,0.19662
369.18014,0.18829
367.69035,0.18000
366.20056,0.10300
364.71077,0.14808
363.22099,0.12025
361.73120,0.09246
360.24141,0.13343
358.75162,0.19829
357.26183,0.19795
355.77204,0.19764
354.28225,0.14897
352.79247,0.07228
351.30268,0.07768
349.81289,0.08312
348.32310,0.15804
346.83331,0.20774
345.34352,0.15436
343.85374,0.10101
342.36395,0.17326
340.87416,0.19363
339.38437,0.19299
337.89458,0.19239
336.40479,0.21567
334.91501,0.11693
333.42522,0.11923
331.93543,0.12157
330.44564,0.14499
328.95585,0.14599
327.46606,0.13791
325.97627,0.12986
324.48649,0.14815
322.99670,0.15385
321.50691,0.21851
320.01712,0.28319
318.52733,0.17957
317.03754,0.28641
315.54776,0.21793
314.05797,0.14948
312.56818,0.11614
311.07839,0.02110
309.58860,0.01378
308.09881,0.00649
306.60902,0.11653
305.11924,0.12700
303.62945,0.09332
302.13966,0.05967
300.64987,0.01693
299.16008,0.00649
