1778.52000,0.04257
1777.03021,0.04192
1775.54042,0.01711
1774.05063,0.01999
1772.56085,0.03673
1771.07106,0.05005
1769.58127,0.03231
1768.09148,0.04340
1766.60169,0.01881
1765.11190,0.04957
1763.62212,0.00778
1762.13233,0.08585
1760.64254,0.07294
1759.15275,0.05200
1757.66296,0.05529
1756.17317,0.05747
1754.68339,0.02857
1753.19360,0.05617
1751.70381,0.01813
1750.21402,0.00318
1748.72423,0.00900
1747.23444,0.02984
1745.74465,0.04726
1744.25487,0.05089
1742.76508,0.09258
1741.27529,0.08476
1739.78550,0.10118
1738.29571,0.02661
1736.80592,0.02005
1735.31614,0.00778
1733.82635,0.04602
1732.33656,0.06240
1730.84677,0.05002
1729.35698,0.01117
1727.86719,0.06339
1726.37740,0.02808
1724.88762,0.00778
1723.39783,0.01708
1721.90804,0.04141
1720.41825,0.02199
1718.92846,0.06828
1717.43867,0.04893
1715.94889,0.02962
1714.45910,0.04376
1712.96931,0.05103
1711.47952,0.06294
1709.98973,0.08527
1708.49994,0.08112
1707.01016,0.10179
1705.52037,0.12250
1704.03058,0.12653
1702.54079,0.12830
1701.05100,0.17274
1699.56121,0.05705
1698.07142,0.12230
1696.58164,0.13114
1695.09185,0.14807
1693.60206,0.19961
1692.11227,0.14288
1690.62248,0.20832
1689.13269,0.21849
1687.64291,0.21027
1686.15312,0.27582
1684.66333,0.21812
1683.17354,0.20194
1681.68375,0.25839
1680.19396,0.21348
1678.70417,0.22046
1677.21439,0.22862
1675.72460,0.24144
1674.23481,0.22894
1672.74502,0.21072
1671.25523,0.21097
1669.76544,0.24007
1668.27566,0.22080
1666.78587,0.16701
1665.29608,0.15474
1663.80629,0.19896
1662.31650,0.19944
1660.82671,0.22992
1659.33693,0.20742
1657.84714,0.17229
1656.35735,0.16716
1654.86756,0.12173
1653.37777,0.09708
1651.88798,0.12087
1650.39819,0.12510
1648.90841,0.16740
1647.41862,0.09796
1645.92883,0.13169
1644.43904,0.16546
1642.94925,0.12149
1641.45946,0.13171
1639.96968,0.16847
1638.47989,0.15802
1636.99010,0.17066
1635.50031,0.16720
1634.01052,0.19951
1632.52073,0.11546
1631.03094,0.09714
1629.54116,0.15145
1628.05137,0.15048
1626.56158,0.22100
1625.07179,0.23624
1623.58200,0.23424
1622.09221,0.22881
1620.60243,0.24878
1619.11264,0.24804
1617.62285,0.21047
1616.13306,0.19367
1614.64327,0.18152
1613.15348,0.19591
1611.66370,0.14005
1610.17391,0.20061
1608.68412,0.18631
1607.19433,0.16397
1605.70454,0.12555
1604.21475,0.15745
1602.72496,0.18939
1601.23518,0.26284
1599.74539,0.17963
1598.25560,0.15406
1596.76581,0.15043
1595.27602,0.14108
1593.78623,0.15019
1592.29645,0.10980
1590.80666,0.15126
1589.31687,0.10748
1587.82708,0.12597
1586.33729,0.14564
1584.84750,0.08354
1583.35771,0.13556
1581.86793,0.10465
1580.37814,0.08990
1578.88835,0.14088
1577.39856,0.09280
1575.90877,0.07471
1574.41898,0.07855
1572.92920,0.04902
1571.43941,0.08751
1569.94962,0.09146
1568.45983,0.09546
1566.97004,0.11216
1565.48025,0.05055
1563.99047,0.04544
1562.50068,0.05765
1561.01089,0.04340
1559.52110,0.07527
1558.03131,0.11525
1556.54152,0.13683
1555.05173,0.14231
1553.56195,0.09368
1552.07216,0.19603
1550.58237,0.16821
1549.09258,0.08742
1547.60279,0.06083
1546.11300,0.11955
1544.62322,0.12529
1543.13343,0.08729
1541.64364,0.07237
1540.15385,0.09724
1538.66406,0.12215
1537.17427,0.12463
1535.68448,0.09949
1534.19470,0.10896
1532.70491,0.11501
1531.21512,0.10957
1529.72533,0.09034
1528.23554,0.00778
1526.74575,0.05596
1525.25597,0.11224
1523.76618,0.11094
1522.27639,0.07166
1520.78660,0.09118
1519.29681,0.07387
1517.80702,0.07619
1516.31724,0.08891
1514.82745,0.08669
1513.33766,0.08047
1511.84787,0.07429
1510.35808,0.11136
1508.86829,0.10814
1507.37850,0.04964
1505.88872,0.06263
1504.39893,0.08487
1502.90914,0.07834
1501.41935,0.06032
1499.92956,0.00778
1498.43977,0.06445
1496.94999,0.20873
1495.46020,0.24819
1493.97041,0.19896
1492.48062,0.28689
1490.99083,0.28614
1489.50104,0.34073
1488.01125,0.43511
1486.52147,0.52953
1485.03168,0.50703
1483.54189,0.53988
1482.05210,0.62923
1480.56231,0.73705
1479.07252,0.84721
1477.58274,0.95626
1476.09295,1.10452
1474.60316,1.14220
1473.11337,1.16609
1471.62358,1.24188
1470.13379,1.32115
1468.64401,1.09396
1467.15422,1.02697
1465.66443,1.01188
1464.17464,0.99682
1462.68485,1.07513
1461.19506,1.01636
1459.70527,0.91730
1458.21549,0.90123
1456.72570,0.84719
1455.23591,0.77819
1453.74612,0.76340
1452.25633,0.74749
1450.76654,0.74774
1449.27676,0.75841
1447.78697,0.65965
1446.29718,0.70150
1444.80739,0.62355
1443.31760,0.54564
1441.82781,0.41477
1440.33802,0.39570
1438.84824,0.39165
1437.35845,0.18599
1435.86866,0.28917
1434.37887,0.31404
1432.88908,0.34010
1431.39929,0.36850
1429.90951,0.32550
1428.41972,0.31019
1426.92993,0.31565
1425.44014,0.35803
1423.95035,0.38143
1422.46056,0.40487
1420.97078,0.43815
1419.48099,0.37121
1417.99120,0.35386
1416.50141,0.34346
1415.01162,0.36535
1413.52183,0.42301
1412.03204,0.38392
1410.54226,0.40132
1409.05247,0.41530
1407.56268,0.40397
1406.07289,0.42956
1404.58310,0.42694
1403.09331,0.42437
1401.60353,0.43739
1400.11374,0.44584
1398.62395,0.52692
1397.13416,0.54927
1395.64437,0.53939
1394.15458,0.67243
1392.66479,0.64765
1391.17501,0.61945
1389.68522,0.71919
1388.19543,0.62654
1386.70564,0.60882
1385.21585,0.59115
1383.72606,0.55507
1382.23628,0.46833
1380.74649,0.54755
1379.25670,0.58533
1377.76691,0.58743
1376.27712,0.62759
1374.78733,0.71733
1373.29755,0.75411
1371.80776,0.78747
1370.31797,1.00177
1368.82818,1.06344
1367.33839,1.12514
1365.84860,1.32342
1364.35881,1.56323
1362.86903,1.64405
1361.37924,1.73414
1359.88945,1.83808
1358.39966,1.92824
1356.90987,2.00000
1355.42008,1.98422
1353.93030,1.99499
1352.44051,1.88250
1350.95072,1.77004
1349.46093,1.71293
1347.97114,1.49915
1346.48135,1.23932
1344.99156,1.10167
1343.50178,1.06430
1342.01199,0.99931
1340.52220,0.79955
1339.03241,0.81069
1337.54262,0.77923
1336.05283,0.77950
1334.56305,0.77980
1333.07326,0.70352
1331.58347,0.71254
1330.09368,0.68588
1328.60389,0.53942
1327.11410,0.51629
1325.62432,0.47937
1324.13453,0.44249
1322.64474,0.44713
1321.15495,0.53362
1319.66516,0.46747
1318.17537,0.40135
1316.68558,0.38655
1315.19580,0.42710
1313.70601,0.36398
1312.21622,0.36312
1310.72643,0.28394
1309.23664,0.26933
1307.74685,0.34694
1306.25707,0.33701
1304.76728,0.31905
1303.27749,0.30113
1301.78770,0.24984
1300.29791,0.33224
1298.80812,0.28793
1297.31834,0.33354
1295.82855,0.34346
1294.33876,0.42025
1292.84897,0.38646
1291.35918,0.27666
1289.86939,0.27637
1288.37960,0.27611
1286.88982,0.36691
1285.40003,0.33792
1283.91024,0.34930
1282.42045,0.39643
1280.93066,0.48278
1279.44087,0.48159
1277.95109,0.51501
1276.46130,0.42979
1274.97151,0.40106
1273.48172,0.37237
1271.99193,0.49120
1270.50214,0.47296
1269.01235,0.51006
1267.52257,0.54374
1266.03278,0.52791
1264.54299,0.54899
1263.05320,0.58279
1261.56341,0.62181
1260.07362,0.66086
1258.58384,0.63370
1257.09405,0.62731
1255.60426,0.59216
1254.11447,0.72873
1252.62468,0.65678
1251.13489,0.66322
1249.64511,0.60056
1248.15532,0.50568
1246.66553,0.44367
1245.17574,0.38170
1243.68595,0.36989
1242.19616,0.38347
1240.70637,0.37980
1239.21659,0.37156
1237.72680,0.28616
1236.23701,0.26071
1234.74722,0.20419
1233.25743,0.22145
1231.76764,0.23875
1230.27786,0.29757
1228.78807,0.25733
1227.29828,0.31622
1225.80849,0.19079
1224.31870,0.10803
1222.82891,0.13131
1221.33912,0.11776
1219.84934,0.11059
1218.35955,0.10345
1216.86976,0.18795
1215.37997,0.27480
1213.89018,0.38358
1212.40039,0.24927
1210.91061,0.20372
1209.42082,0.19853
1207.93103,0.19857
1206.44124,0.19865
1204.95145,0.17745
1203.46166,0.03990
1201.97188,0.04067
1200.48209,0.17744
1198.99230,0.05959
1197.50251,0.09850
1196.01272,0.03373
1194.52293,0.02316
1193.03314,0.01263
1191.54336,0.07588
1190.05357,0.04238
1188.56378,0.10225
1187.07399,0.06767
1185.58420,0.00778
1184.09441,0.04944
1182.60463,0.04678
1181.11484,0.04416
1179.62505,0.06404
1178.13526,0.05170
1176.64547,0.07511
1175.15568,0.11815
1173.66589,0.16354
1172.17611,0.11101
1170.68632,0.08906
1169.19653,0.06715
1167.70674,0.02857
1166.21695,0.10640
1164.72716,0.13358
1163.23738,0.12967
1161.74759,0.06244
1160.25780,0.08396
1158.76801,0.05367
1157.27822,0.02341
1155.78843,0.09575
1154.29865,0.15545
1152.80886,0.00778
1151.31907,0.00886
1149.82928,0.09294
1148.33949,0.16093
1146.84970,0.15809
1145.35991,0.15528
1143.87013,0.02634
1142.38034,0.07950
1140.89055,0.15690
1139.40076,0.22626
1137.91097,0.25994
1136.42118,0.11736
1134.93140,0.15746
1133.44161,0.19759
1131.95182,0.38237
1130.46203,0.32982
1128.97224,0.39023
1127.48245,0.37462
1125.99266,0.45470
1124.50288,0.43571
1123.01309,0.42368
1121.52330,0.41168
1120.03351,0.50573
1118.54372,0.42352
1117.05393,0.47501
1115.56415,0.43206
1114.07436,0.56313
1112.58457,0.54617
1111.09478,0.52926
1109.60499,0.46801
1108.11520,0.51397
1106.62542,0.52885
1105.13563,0.62097
1103.64584,0.70045
1102.15605,0.81685
1100.66626,0.77081
1099.17647,0.72481
1097.68668,0.85399
1096.19690,0.90024
1094.70711,0.93271
1093.21732,0.89377
1091.72753,0.97701
1090.23774,0.98885
1088.74795,1.00073
1087.25817,1.04029
1085.76838,1.13521
1084.27859,1.18637
1082.78880,1.26292
1081.29901,1.19202
1079.80922,1.12231
1078.31943,1.17132
1076.82965,1.22037
1075.33986,1.35818
1073.85007,1.32665
1072.36028,1.28362
1070.87049,1.27751
1069.38070,1.36247
1067.89092,1.39388
1066.40113,1.42533
1064.91134,1.32950
1063.42155,1.20489
1061.93176,1.22666
1060.44197,1.11250
1058.95219,1.03409
1057.46240,1.03408
1055.97261,1.03411
1054.48282,0.86479
1052.99303,0.79690
1051.50324,0.81202
1050.01345,0.66471
1048.52367,0.65801
1047.03388,0.64385
1045.54409,0.62974
1044.05430,0.62661
1042.56451,0.56014
1041.07472,0.49371
1039.58494,0.43538
1038.09515,0.38977
1036.60536,0.41102
1035.11557,0.43232
1033.62578,0.36147
1032.13599,0.26184
1030.64620,0.32012
1029.15642,0.33811
1027.66663,0.37514
1026.17684,0.41222
1024.68705,0.38883
1023.19726,0.44845
1021.70747,0.59568
1020.21769,0.78212
1018.72790,0.80843
1017.23811,0.91717
1015.74832,1.02595
1014.25853,1.24250
1012.76874,1.41646
1011.27896,1.51095
1009.78917,1.67691
1008.29938,1.67468
1006.80959,1.68804
1005.31980,1.70144
1003.83001,1.52188
1002.34022,1.36309
1000.85044,1.27924
999.36065,1.17583
997.87086,1.13123
996.38107,1.08667
994.89128,1.09399
993.40149,1.10712
991.91171,1.04538
990.42192,1.00673
988.93213,0.98310
987.44234,0.97794
985.95255,0.97281
984.46276,0.99538
982.97297,0.79790
981.48319,0.83092
979.99340,0.77064
978.50361,0.78759
977.01382,0.80459
975.52403,0.79051
974.03424,0.70848
972.54446,0.64263
971.05467,0.63327
969.56488,0.59975
968.07509,0.60372
966.58530,0.60773
965.09551,0.56972
963.60573,0.61701
962.11594,0.59981
960.62615,0.56537
959.13636,0.49236
957.64657,0.41939
956.15678,0.38967
954.66699,0.40261
953.17721,0.52507
951.68742,0.45858
950.19763,0.48029
948.70784,0.50203
947.21805,0.38381
945.72826,0.34167
944.23848,0.45974
942.74869,0.48221
941.25890,0.51163
939.76911,0.59697
938.27932,0.68235
936.78953,0.74645
935.29974,0.68499
933.80996,0.55443
932.32017,0.60596
930.83038,0.59589
929.34059,0.58586
927.85080,0.67668
926.36101,0.61084
924.87123,0.58767
923.38144,0.51383
921.89165,0.58752
920.40186,0.66125
918.91207,0.68432
917.42228,0.74084
915.93250,0.70753
914.44271,0.65927
912.95292,0.68825
911.46313,0.71726
909.97334,0.72903
908.48355,0.83763
906.99376,0.89211
905.50398,0.71618
904.01419,0.71888
902.52440,0.72162
901.03461,0.68983
899.54482,0.88507
898.05503,0.83838
896.56525,0.94843
895.07546,0.99399
893.58567,1.03959
892.09588,0.95732
890.60609,0.92004
889.11630,0.73760
887.62651,0.87207
886.13673,0.89539
884.64694,0.91875
883.15715,0.89893
881.66736,0.92409
880.17757,0.90665
878.68778,0.93764
877.19800,0.96868
875.70821,0.92831
874.21842,0.94098
872.72863,0.98595
871.23884,1.01944
869.74905,0.99074
868.25927,0.96208
866.76948,0.92539
865.27969,1.02356
863.78990,1.08950
862.30011,1.10362
860.81032,1.10280
859.32053,1.10202
857.83075,0.97568
856.34096,0.90814
854.85117,0.84871
853.36138,0.81812
851.87159,0.75243
850.38180,0.68677
848.89202,0.55835
847.40223,0.34124
845.91244,0.39726
844.42265,0.41644
842.93286,0.43566
841.44307,0.46184
839.95329,0.39702
838.46350,0.32647
836.97371,0.26979
835.48392,0.28863
833.99413,0.30750
832.50434,0.36040
831.01455,0.38568
829.52477,0.36837
828.03498,0.28426
826.54519,0.26529
825.05540,0.24636
823.56561,0.16467
822.07582,0.21323
820.58604,0.23186
819.09625,0.18888
817.60646,0.14594
816.11667,0.01835
814.62688,0.07976
813.13709,0.14122
811.64730,0.02641
810.15752,0.01708
808.66773,0.00778
807.17794,0.05465
805.68815,0.04740
804.19836,0.07706
802.70857,0.08487
801.21879,0.09271
799.72900,0.12364
798.23921,0.26061
796.74942,0.39993
795.25963,0.39236
793.76984,0.38484
792.28006,0.41480
790.79027,0.50702
789.30048,0.49328
787.81069,0.64895
786.32090,0.59667
784.83111,0.54444
783.34132,0.64952
781.85154,0.63020
780.36175,0.64433
778.87196,0.63488
777.38217,0.62546
775.89238,0.81715
774.40259,0.84296
772.91281,0.74435
771.42302,0.77830
769.93323,0.81228
768.44344,0.84630
766.95365,0.80546
765.46386,0.84301
763.97407,0.82644
762.48429,0.77477
760.99450,0.72313
759.50471,0.74124
758.01492,0.61305
756.52513,0.55865
755.03534,0.47087
753.54556,0.38312
752.05577,0.22512
750.56598,0.13861
749.07619,0.11896
747.58640,0.11778
746.09661,0.11664
744.60683,0.09135
743.11704,0.09604
741.62725,0.05239
740.13746,0.06119
738.64767,0.07004
737.15788,0.06912
735.66809,0.07286
734.17831,0.10083
732.68852,0.09945
731.19873,0.09811
729.70894,0.01097
728.21915,0.08057
726.72936,0.13062
725.23958,0.09544
723.74979,0.10005
722.26000,0.10470
720.77021,0.11803
719.28042,0.17287
717.79063,0.03417
716.30084,0.04012
714.81106,0.04611
713.32127,0.00778
711.83148,0.08878
710.34169,0.14218
708.85190,0.13165
707.36211,0.12117
705.87233,0.12397
704.38254,0.08764
702.89275,0.02830
701.40296,0.06636
699.91317,0.10446
698.42338,0.19387
696.93360,0.25566
695.44381,0.12622
693.95402,0.17772
692.46423,0.22926
690.97444,0.28314
689.48465,0.25755
687.99486,0.31611
686.50508,0.28829
685.01529,0.26051
683.52550,0.29729
682.03571,0.32950
680.54592,0.25113
679.05613,0.26441
677.56635,0.27772
676.07656,0.21905
674.58677,0.18808
673.09698,0.21475
671.60719,0.24147
670.11740,0.26822
668.62761,0.14406
667.13783,0.12364
665.64804,0.13149
664.15825,0.13938
662.66846,0.11907
661.17867,0.00778
659.68888,0.12640
658.19910,0.19149
656.70931,0.25661
655.21952,0.25321
653.72973,0.25561
652.23994,0.21656
650.75015,0.25245
649.26037,0.28838
647.77058,0.28171
646.28079,0.16907
644.79100,0.00000
643.30121,0.02801
641.81142,0.05606
640.32163,0.11410
638.83185,0.07194
637.34206,0.00907
635.85227,0.04073
634.36248,0.07242
632.87269,0.03156
631.38290,0.10941
629.89312,0.10780
628.40333,0.07800
626.91354,0.04823
625.42375,0.20575
623.93396,0.13861
622.44417,0.15217
620.95438,0.16576
619.46460,0.18055
617.97481,0.17117
616.48502,0.17796
614.99523,0.18018
613.50544,0.18244
612.01565,0.10639
610.52587,0.11103
609.03608,0.15718
607.54629,0.18149
606.05650,0.20583
604.56671,0.28551
603.07692,0.20738
601.58714,0.22492
600.09735,0.24249
598.60756,0.17253
597.11777,0.09109
595.62798,0.17216
594.13819,0.15474
592.64840,0.13736
591.15862,0.12174
589.66883,0.17069
588.17904,0.12174
586.68925,0.12871
585.19946,0.13571
583.70967,0.32078
582.21989,0.30655
580.73010,0.30041
579.24031,0.29432
577.75052,0.22258
576.26073,0.12783
574.77094,0.00778
573.28115,0.09705
571.79137,0.18636
570.30158,0.26649
568.81179,0.32246
567.32200,0.32028
565.83221,0.31814
564.34242,0.38690
562.85264,0.44071
561.36285,0.44732
559.87306,0.47126
558.38327,0.49523
556.89348,0.65520
555.40369,0.57900
553.91391,0.57946
552.42412,0.57996
550.93433,0.59951
549.44454,0.59720
547.95475,0.61337
546.46496,0.62208
544.97517,0.63083
543.48539,0.72201
541.99560,0.81553
540.50581,0.77715
539.01602,0.73881
537.52623,0.68841
536.03644,0.64496
534.54666,0.73175
533.05687,0.69644
531.56708,0.66117
530.07729,0.60058
528.58750,0.62876
527.09771,0.68636
525.60792,0.74399
524.11814,0.56833
522.62835,0.56670
521.13856,0.64231
519.64877,0.55721
518.15898,0.47215
516.66919,0.49026
515.17941,0.42775
513.68962,0.47935
512.19983,0.53098
510.71004,0.45130
509.22025,0.48918
507.73046,0.44299
506.24068,0.41987
504.75089,0.39680
503.26110,0.54084
501.77131,0.43834
500.28152,0.45167
498.79173,0.46504
497.30194,0.33500
495.81216,0.44120
494.32237,0.57913
492.83258,0.71710
491.34279,0.63560
489.85300,0.52302
488.36321,0.41048
486.87343,0.42070
485.38364,0.43095
483.89385,0.38075
482.40406,0.34556
480.91427,0.29428
479.42448,0.24304
477.93469,0.11348
476.44491,0.01046
474.95512,0.12123
473.46533,0.23203
471.97554,0.11990
470.48575,0.09539
468.99596,0.16194
467.50618,0.13462
466.01639,0.10733
464.52660,0.01614
463.03681,0.00794
461.54702,0.06950
460.05723,0.13109
458.56745,0.00778
457.07766,0.06134
455.58787,0.06539
454.09808,0.06947
452.60829,0.30751
451.11850,0.21488
449.62871,0.24904
448.13893,0.28324
446.64914,0.34052
445.15935,0.43586
443.66956,0.44482
442.17977,0.44690
440.68998,0.44902
439.20020,0.39587
437.71041,0.54210
436.22062,0.59215
434.73083,0.64224
433.24104,0.90151
431.75125,1.03406
430.26146,1.07620
428.77168,1.11837
427.28189,1.17153
425.79210,1.26851
424.30231,1.17771
422.81252,1.08695
421.32273,1.04231
419.83295,0.98965
418.34316,0.91513
416.85337,0.84065
415.36358,0.72473
413.87379,0.66069
412.38400,0.63702
410.89422,0.61339
409.40443,0.56906
407.91464,0.53167
406.42485,0.50124
404.93506,0.48756
403.44527,0.47391
401.95548,0.50811
400.46570,0.46631
398.97591,0.47179
397.48612,0.47730
395.99633,0.52318
394.50654,0.61980
393.01675,0.54765
391.52697,0.47553
390.03718,0.26461
388.54739,0.21273
387.05760,0.30493
385.56781,0.39716
384.07802,0.41223
382.58824,0.51030
381.09845,0.42290
379.60866,0.33553
378.11887,0.39684
376.62908,0.37637
375.13929,0.35076
373.64950,0.32519
372.15972,0.39126
370.66993,0.36058
369.18014,0.31265
367.69035,0.26476
366.20056,0.17081
364.71077,0.18406
363.22099,0.25785
361.73120,0.33167
360.24141,0.28973
358.75162,0.42066
357.26183,0.42028
355.77204,0.41993
354.28225,0.32628
352.79247,0.24304
351.30268,0.15466
349.81289,0.06631
348.32310,0.21595
346.83331,0.06257
345.34352,0.11805
343.85374,0.17357
342.36395,0.29998
340.87416,0.27434
339.38437,0.26140
337.89458,0.24851
336.40479,0.23220
334.91501,0.17905
333.42522,0.16511
331.93543,0.15122
330.44564,0.14312
328.95585,0.17308
327.46606,0.16160
325.97627,0.15016
324.48649,0.09497
322.99670,0.14348
321.50691,0.14421
320.01712,0.14497
318.52733,0.19820
317.03754,0.26645
315.54776,0.28058
314.05797,0.29474
312.56818,0.14878
311.07839,0.08812
309.58860,0.06726
308.09881,0.04643
306.60902,0.00778
305.11924,0.10628
303.62945,0.07866
302.13966,0.03427
300.64987,0.00778
299.16008,0.00778
