1778.52000,0.02138
1777.03021,0.00040
1775.54042,0.04406
1774.05063,0.02388
1772.56085,0.00596
1771.07106,0.02149
1769.58127,0.02070
1768.09148,0.02292
1766.60169,0.01180
1765.11190,0.01927
1763.62212,0.01490
1762.13233,0.05436
1760.64254,0.02182
1759.15275,0.03461
1757.66296,0.03258
1756.17317,0.05063
1754.68339,0.02935
1753.19360,0.04374
1751.70381,0.01732
1750.21402,0.02732
1748.72423,0.02918
1747.23444,0.00730
1745.74465,0.05828
1744.25487,0.03503
1742.76508,0.05636
1741.27529,0.08441
1739.78550,0.05233
1738.29571,0.02549
1736.80592,0.04323
1735.31614,0.03278
1733.82635,0.02013
1732.33656,0.04019
1730.84677,0.02760
1729.35698,0.02543
1727.86719,0.03073
1726.37740,0.00040
1724.88762,0.02019
1723.39783,0.02367
1721.90804,0.00713
1720.41825,0.01736
1718.92846,0.01202
1717.43867,0.02155
1715.94889,0.01256
1714.45910,0.02736
1712.96931,0.02510
1711.47952,0.03699
1709.98973,0.03925
1708.49994,0.04525
1707.01016,0.05685
1705.52037,0.06848
1704.03058,0.09017
1702.54079,0.09035
1701.05100,0.07571
1699.56121,0.09896
1698.07142,0.10294
1696.58164,0.10621
1695.09185,0.10505
1693.60206,0.12917
1692.11227,0.13327
1690.62248,0.16710
1689.13269,0.15641
1687.64291,0.17248
1686.15312,0.19080
1684.66333,0.18317
1683.17354,0.18596
1681.68375,0.21551
1680.19396,0.15747
1678.70417,0.15218
1677.21439,0.16029
1675.72460,0.13872
1674.23481,0.15802
1672.74502,0.16176
1671.25523,0.17741
1669.76544,0.16933
1668.27566,0.16053
1666.78587,0.16365
1665.29608,0.15713
1663.80629,0.14100
1662.31650,0.14569
1660.82671,0.13184
1659.33693,0.13362
1657.84714,0.12651
1656.35735,0.13726
1654.86756,0.09234
1653.37777,0.10018
1651.88798,0.11844
1650.39819,0.10034
1648.90841,0.09564
1647.41862,0.09542
1645.92883,0.09004
1644.43904,0.08468
1642.94925,0.10460
1641.45946,0.13495
1639.96968,0.14751
1638.47989,0.12593
1636.99010,0.14003
1635.50031,0.11629
1634.01052,0.10743
1632.52073,0.12830
1631.03094,0.11875
1629.54116,0.12483
1628.05137,0.11905
1626.56158,0.16529
1625.07179,0.13878
1623.58200,0.17468
1622.09221,0.19278
1620.60243,0.19681
1619.11264,0.16596
1617.62285,0.13070
1616.13306,0.15560
1614.64327,0.13524
1613.15348,0.16169
1611.66370,0.13471
1610.17391,0.13151
1608.68412,0.13355
1607.19433,0.14898
1605.70454,0.09092
1604.21475,0.10010
1602.72496,0.10931
1601.23518,0.11817
1599.74539,0.11667
1598.25560,0.13599
1596.76581,0.10410
1595.27602,0.11902
1593.78623,0.10724
1592.29645,0.09698
1590.80666,0.08154
1589.31687,0.06837
1587.82708,0.05893
1586.33729,0.08888
1584.84750,0.09064
1583.35771,0.05679
1581.86793,0.06307
1580.37814,0.07309
1578.88835,0.08388
1577.39856,0.06351
1575.90877,0.03798
1574.41898,0.02287
1572.92920,0.02486
1571.43941,0.02912
1569.94962,0.03080
1568.45983,0.03252
1566.97004,0.04057
1565.48025,0.02490
1563.99047,0.03153
1562.50068,0.02631
1561.01089,0.06047
1559.52110,0.02709
1558.03131,0.04423
1556.54152,0.05992
1555.05173,0.05262
1553.56195,0.04015
1552.07216,0.07523
1550.58237,0.05465
1549.09258,0.03039
1547.60279,0.03363
1546.11300,0.08739
1544.62322,0.08252
1543.13343,0.09773
1541.64364,0.03872
1540.15385,0.02205
1538.66406,0.00542
1537.17427,0.03189
1535.68448,0.03462
1534.19470,0.02476
1532.70491,0.05429
1531.21512,0.03335
1529.72533,0.02877
1528.23554,0.01309
1526.74575,0.00040
1525.25597,0.04358
1523.76618,0.07491
1522.27639,0.04166
1520.78660,0.01661
1519.29681,0.05099
1517.80702,0.01041
1516.31724,0.02183
1514.82745,0.02661
1513.33766,0.02843
1511.84787,0.03029
1510.35808,0.01585
1508.86829,0.02370
1507.37850,0.00040
1505.88872,0.01546
1504.39893,0.03871
1502.90914,0.03451
1501.41935,0.02515
1499.92956,0.01582
1498.43977,0.02953
1496.94999,0.07075
1495.46020,0.10606
1493.97041,0.12432
1492.48062,0.24508
1490.99083,0.24632
1489.50104,0.34189
1488.01125,0.37177
1486.52147,0.40169
1485.03168,0.50774
1483.54189,0.50764
1482.05210,0.55881
1480.56231,0.67461
1479.07252,0.73994
1477.58274,0.83575
1476.09295,0.89446
1474.60316,0.97770
1473.11337,1.09216
1471.62358,1.12125
1470.13379,1.11177
1468.64401,1.05553
1467.15422,1.00749
1465.66443,0.95428
1464.17464,0.90110
1462.68485,0.90438
1461.19506,0.81785
1459.70527,0.81451
1458.21549,0.68199
1456.72570,0.67648
1455.23591,0.60937
1453.74612,0.62100
1452.25633,0.53984
1450.76654,0.48098
1449.27676,0.46003
1447.78697,0.42870
1446.29718,0.42340
1444.80739,0.39214
1443.31760,0.36090
1441.82781,0.31113
1440.33802,0.27922
1438.84824,0.20872
1437.35845,0.22215
1435.86866,0.15542
1434.37887,0.17709
1432.88908,0.21363
1431.39929,0.21753
1429.90951,0.21107
1428.41972,0.20018
1426.92993,0.19377
1425.44014,0.19482
1423.95035,0.21223
1422.46056,0.22968
1420.97078,0.25235
1419.48099,0.29732
1417.99120,0.28367
1416.50141,0.25890
1415.01162,0.26833
1413.52183,0.26961
1412.03204,0.26201
1410.54226,0.27078
1409.05247,0.24171
1407.56268,0.26539
1406.07289,0.27499
1404.58310,0.29056
1403.09331,0.30615
1401.60353,0.37599
1400.11374,0.35452
1398.62395,0.40065
1397.13416,0.42825
1395.64437,0.44102
1394.15458,0.49986
1392.66479,0.52978
1391.17501,0.56120
1389.68522,0.58301
1388.19543,0.61301
1386.70564,0.57807
1385.21585,0.54315
1383.72606,0.50790
1382.23628,0.48901
1380.74649,0.51322
1379.25670,0.52483
1377.76691,0.54910
1376.27712,0.57711
1374.78733,0.66678
1373.29755,0.73123
1371.80776,0.84769
1370.31797,1.00947
1368.82818,1.10706
1367.33839,1.20467
1365.84860,1.36209
1364.35881,1.54255
1362.86903,1.60498
1361.37924,1.76769
1359.88945,1.84651
1358.39966,1.92017
1356.90987,1.99311
1355.42008,2.00000
1353.93030,1.81163
1352.44051,1.74655
1350.95072,1.68149
1349.46093,1.52662
1347.97114,1.35842
1346.48135,1.16574
1344.99156,1.08150
1343.50178,0.96610
1342.01199,0.84331
1340.52220,0.77326
1339.03241,0.58147
1337.54262,0.58945
1336.05283,0.58967
1334.56305,0.58991
1333.07326,0.52596
1331.58347,0.50139
1330.09368,0.44566
1328.60389,0.36917
1327.11410,0.38330
1325.62432,0.33657
1324.13453,0.31585
1322.64474,0.31225
1321.15495,0.29160
1319.66516,0.28620
1318.17537,0.28082
1316.68558,0.30333
1315.19580,0.30136
1313.70601,0.25932
1312.21622,0.28116
1310.72643,0.25552
1309.23664,0.23436
1307.74685,0.25927
1306.25707,0.24188
1304.76728,0.23603
1303.27749,0.23021
1301.78770,0.25449
1300.29791,0.18153
1298.80812,0.18062
1297.31834,0.21688
1295.82855,0.22420
1294.33876,0.27090
1292.84897,0.23225
1291.35918,0.23520
1289.86939,0.23744
1288.37960,0.23971
1286.88982,0.24276
1285.40003,0.33048
1283.91024,0.32021
1282.42045,0.35008
1280.93066,0.31685
1279.44087,0.31410
1277.95109,0.30544
1276.46130,0.28121
1274.97151,0.30491
1273.48172,0.32864
1271.99193,0.32678
1270.50214,0.38732
1269.01235,0.40928
1267.52257,0.38746
1266.03278,0.42433
1264.54299,0.42559
1263.05320,0.45212
1261.56341,0.48759
1260.07362,0.52309
1258.58384,0.52150
1257.09405,0.51399
1255.60426,0.44414
1254.11447,0.45822
1252.62468,0.45675
1251.13489,0.46792
1249.64511,0.48135
1248.15532,0.37304
1246.66553,0.35534
1245.17574,0.33767
1243.68595,0.29999
1242.19616,0.31728
1240.70637,0.26034
1239.21659,0.23388
1237.72680,0.22305
1236.23701,0.18922
1234.74722,0.17250
1233.25743,0.15730
1231.76764,0.14212
1230.27786,0.14777
1228.78807,0.13117
1227.29828,0.13539
1225.80849,0.13667
1224.31870,0.10011
1222.82891,0.08065
1221.33912,0.05752
1219.84934,0.08565
1218.35955,0.11380
1216.86976,0.07368
1215.37997,0.11155
1213.89018,0.15464
1212.40039,0.12649
1210.91061,0.11024
1209.42082,0.11704
1207.93103,0.09825
1206.44124,0.07949
1204.95145,0.10123
1203.46166,0.02647
1201.97188,0.04827
1200.48209,0.05599
1198.99230,0.06077
1197.50251,0.02696
1196.01272,0.00581
1194.52293,0.00660
1193.03314,0.00741
1191.54336,0.00343
1190.05357,0.01061
1188.56378,0.00000
1187.07399,0.01615
1185.58420,0.00040
1184.09441,0.01970
1182.60463,0.01601
1181.11484,0.01235
1179.62505,0.03545
1178.13526,0.03110
1176.64547,0.06020
1175.15568,0.02770
1173.66589,0.05686
1172.17611,0.00436
1170.68632,0.01242
1169.19653,0.02050
1167.70674,0.01784
1166.21695,0.03750
1164.72716,0.03193
1163.23738,0.00040
1161.74759,0.01329
1160.25780,0.03065
1158.76801,0.01983
1157.27822,0.00904
1155.78843,0.06288
1154.29865,0.05288
1152.80886,0.03475
1151.31907,0.01220
1149.82928,0.02903
1148.33949,0.10603
1146.84970,0.09730
1145.35991,0.08860
1143.87013,0.04020
1142.38034,0.06980
1140.89055,0.09126
1139.40076,0.15062
1137.91097,0.18031
1136.42118,0.17661
1134.93140,0.16923
1133.44161,0.16188
1131.95182,0.25480
1130.46203,0.27127
1128.97224,0.30931
1127.48245,0.25975
1125.99266,0.31863
1124.50288,0.33373
1123.01309,0.35889
1121.52330,0.38407
1120.03351,0.45347
1118.54372,0.37661
1117.05393,0.41785
1115.56415,0.39080
1114.07436,0.46477
1112.58457,0.48048
1111.09478,0.49621
1109.60499,0.54205
1108.11520,0.52926
1106.62542,0.55957
1105.13563,0.54461
1103.64584,0.70715
1102.15605,0.73680
1100.66626,0.76499
1099.17647,0.79322
1097.68668,0.77915
1096.19690,0.79035
1094.70711,0.84391
1093.21732,0.85518
1091.72753,0.91399
1090.23774,0.91084
1088.74795,0.90771
1087.25817,0.97775
1085.76838,0.99956
1084.27859,1.02214
1082.78880,1.16058
1081.29901,1.16392
1079.80922,1.11975
1078.31943,1.14134
1076.82965,1.16295
1075.33986,1.24956
1073.85007,1.28274
1072.36028,1.31001
1070.87049,1.32395
1069.38070,1.44558
1067.89092,1.41390
1066.40113,1.38226
1064.91134,1.31983
1063.42155,1.24258
1061.93176,1.22104
1060.44197,1.07851
1058.95219,0.99763
1057.46240,0.97173
1055.97261,0.94586
1054.48282,0.86136
1052.99303,0.86005
1051.50324,0.74813
1050.01345,0.65555
1048.52367,0.58676
1047.03388,0.55736
1045.54409,0.52798
1044.05430,0.53724
1042.56451,0.50793
1041.07472,0.42740
1039.58494,0.34542
1038.09515,0.34441
1036.60536,0.33118
1035.11557,0.31797
1033.62578,0.33561
1032.13599,0.30650
1030.64620,0.30118
1029.15642,0.31668
1027.66663,0.32144
1026.17684,0.32623
1024.68705,0.40122
1023.19726,0.47030
1021.70747,0.63297
1020.21769,0.75261
1018.72790,0.89826
1017.23811,1.01683
1015.74832,1.13544
1014.25853,1.35321
1012.76874,1.56283
1011.27896,1.63661
1009.78917,1.77872
1008.29938,1.85329
1006.80959,1.85550
1005.31980,1.85773
1003.83001,1.68438
1002.34022,1.63507
1000.85044,1.49371
999.36065,1.37391
997.87086,1.31392
996.38107,1.25395
994.89128,1.28350
993.40149,1.29450
991.91171,1.32411
990.42192,1.25943
988.93213,1.27870
987.44234,1.25715
985.95255,1.23563
984.46276,1.20004
982.97297,1.12512
981.48319,1.13339
979.99340,0.99467
978.50361,1.01637
977.01382,1.03810
975.52403,1.01679
974.03424,0.89600
972.54446,0.79159
971.05467,0.83274
969.56488,0.77293
968.07509,0.74657
966.58530,0.72024
965.09551,0.68948
963.60573,0.73004
962.11594,0.70528
960.62615,0.64565
959.13636,0.61167
957.64657,0.57772
956.15678,0.53451
954.66699,0.49579
953.17721,0.53730
951.68742,0.53725
950.19763,0.53834
948.70784,0.53947
947.21805,0.50906
945.72826,0.44676
944.23848,0.54710
942.74869,0.56505
941.25890,0.50061
939.76911,0.53978
938.27932,0.57898
936.78953,0.68986
935.29974,0.66043
933.80996,0.60282
932.32017,0.68112
930.83038,0.68928
929.34059,0.69747
927.85080,0.68676
926.36101,0.65528
924.87123,0.60007
923.38144,0.59612
921.89165,0.59592
920.40186,0.59575
918.91207,0.60749
917.42228,0.66083
915.93250,0.68971
914.44271,0.64956
912.95292,0.63616
911.46313,0.62280
909.97334,0.67927
908.48355,0.75804
906.99376,0.69873
905.50398,0.69885
904.01419,0.70086
902.52440,0.70289
901.03461,0.68305
899.54482,0.71968
898.05503,0.65534
896.56525,0.73287
895.07546,0.77626
893.58567,0.81968
892.09588,0.78443
890.60609,0.70019
889.11630,0.72737
887.62651,0.74492
886.13673,0.76585
884.64694,0.78680
883.15715,0.77919
881.66736,0.76494
880.17757,0.82348
878.68778,0.82673
877.19800,0.83000
875.70821,0.83665
874.21842,0.93986
872.72863,1.03122
871.23884,1.02757
869.74905,1.01726
868.25927,1.00697
866.76948,1.00712
865.27969,1.01323
863.78990,0.97334
862.30011,1.03223
860.81032,1.02469
859.32053,1.01719
857.83075,1.00043
856.34096,0.97182
854.85117,0.95586
853.36138,0.82781
851.87159,0.77887
850.38180,0.72996
848.89202,0.62353
847.40223,0.48075
845.91244,0.41967
844.42265,0.38498
842.93286,0.35033
841.44307,0.38216
839.95329,0.37541
838.46350,0.27364
836.97371,0.26843
835.48392,0.28924
833.99413,0.31008
832.50434,0.35174
831.01455,0.34368
829.52477,0.36312
828.03498,0.33210
826.54519,0.26733
825.05540,0.20258
823.56561,0.22214
822.07582,0.24618
820.58604,0.17744
819.09625,0.14734
817.60646,0.11727
816.11667,0.04935
814.62688,0.06686
813.13709,0.05990
811.64730,0.05074
810.15752,0.03603
808.66773,0.02136
807.17794,0.00040
805.68815,0.01575
804.19836,0.02295
802.70857,0.05060
801.21879,0.07828
799.72900,0.08632
798.23921,0.18572
796.74942,0.38093
795.25963,0.40353
793.76984,0.42616
792.28006,0.45291
790.79027,0.55616
789.30048,0.54584
787.81069,0.56970
786.32090,0.57021
784.83111,0.57074
783.34132,0.64815
781.85154,0.68550
780.36175,0.69763
778.87196,0.69791
777.38217,0.69821
775.89238,0.83666
774.40259,0.82812
772.91281,0.78248
771.42302,0.80221
769.93323,0.82197
768.44344,0.84993
766.95365,0.80663
765.46386,0.87697
763.97407,0.76839
762.48429,0.71553
760.99450,0.66270
759.50471,0.54901
758.01492,0.49846
756.52513,0.39151
755.03534,0.37370
753.54556,0.35591
752.05577,0.23346
750.56598,0.18826
749.07619,0.15868
747.58640,0.13544
746.09661,0.11223
744.60683,0.02631
743.11704,0.04957
741.62725,0.07063
740.13746,0.06537
738.64767,0.06013
737.15788,0.03301
735.66809,0.06607
734.17831,0.00040
732.68852,0.03921
731.19873,0.07804
729.70894,0.03671
728.21915,0.04664
726.72936,0.06774
725.23958,0.07104
723.74979,0.07215
722.26000,0.07329
720.77021,0.05367
719.28042,0.07046
717.79063,0.02491
716.30084,0.02096
714.81106,0.01705
713.32127,0.02950
711.83148,0.00040
710.34169,0.02659
708.85190,0.04205
707.36211,0.05753
705.87233,0.07489
704.38254,0.03734
702.89275,0.04808
701.40296,0.04326
699.91317,0.03847
698.42338,0.05747
696.93360,0.09061
695.44381,0.14308
693.95402,0.14212
692.46423,0.14119
690.97444,0.12172
689.48465,0.15426
687.99486,0.21876
686.50508,0.22389
685.01529,0.22904
683.52550,0.28027
682.03571,0.29959
680.54592,0.24469
679.05613,0.23845
677.56635,0.23225
676.07656,0.18114
674.58677,0.15458
673.09698,0.14734
671.60719,0.12566
670.11740,0.10401
668.62761,0.04786
667.13783,0.05931
665.64804,0.07450
664.15825,0.08972
662.66846,0.07675
661.17867,0.07347
659.68888,0.09249
658.19910,0.10040
656.70931,0.10834
655.21952,0.13414
653.72973,0.15699
652.23994,0.13161
650.75015,0.11590
649.26037,0.10023
647.77058,0.11206
646.28079,0.09348
644.79100,0.01998
643.30121,0.02224
641.81142,0.02454
640.32163,0.00979
638.83185,0.01066
637.34206,0.00562
635.85227,0.00469
634.36248,0.00379
632.87269,0.01726
631.38290,0.06046
629.89312,0.05840
628.40333,0.03000
626.91354,0.00164
625.42375,0.00040
623.93396,0.09810
622.44417,0.08518
620.95438,0.07229
619.46460,0.05572
617.97481,0.06072
616.48502,0.07762
614.99523,0.08638
613.50544,0.09518
612.01565,0.08692
610.52587,0.08241
609.03608,0.06901
607.54629,0.06456
606.05650,0.06013
604.56671,0.12554
603.07692,0.15087
601.58714,0.13168
600.09735,0.11252
598.60756,0.09488
597.11777,0.05796
595.62798,0.07453
594.13819,0.06663
592.64840,0.05876
591.15862,0.07245
589.66883,0.06241
588.17904,0.07393
586.68925,0.06394
585.19946,0.05399
583.70967,0.08862
582.21989,0.11511
580.73010,0.14200
579.24031,0.16892
577.75052,0.17248
576.26073,0.18721
574.77094,0.11657
573.28115,0.13952
571.79137,0.16251
570.30158,0.20557
568.81179,0.17960
567.32200,0.23163
565.83221,0.28369
564.34242,0.23257
562.85264,0.33147
561.36285,0.37842
559.87306,0.40090
558.38327,0.42340
556.89348,0.41475
555.40369,0.51825
553.91391,0.52488
552.42412,0.53154
550.93433,0.60246
549.44454,0.54717
547.95475,0.54464
546.46496,0.55735
544.97517,0.57010
543.48539,0.60478
541.99560,0.69592
540.50581,0.71915
539.01602,0.74241
537.52623,0.66434
536.03644,0.63754
534.54666,0.66274
533.05687,0.64602
531.56708,0.62933
530.07729,0.60785
528.58750,0.57451
527.09771,0.56904
525.60792,0.56361
524.11814,0.52813
522.62835,0.49639
521.13856,0.44761
519.64877,0.43523
518.15898,0.42289
516.66919,0.39647
515.17941,0.35746
513.68962,0.36377
512.19983,0.37011
510.71004,0.31707
509.22025,0.28411
507.73046,0.34029
506.24068,0.38128
504.75089,0.42229
503.26110,0.47559
501.77131,0.43016
500.28152,0.43487
498.79173,0.43962
497.30194,0.42843
495.81216,0.38535
494.32237,0.41803
492.83258,0.45074
491.34279,0.49685
489.85300,0.44274
488.36321,0.35153
486.87343,0.31864
485.38364,0.28579
483.89385,0.31942
482.40406,0.24318
480.91427,0.19185
479.42448,0.14054
477.93469,0.14088
476.44491,0.07218
474.95512,0.08371
473.46533,0.09527
471.97554,0.06751
470.48575,0.07913
468.99596,0.09671
467.50618,0.06978
466.01639,0.04287
464.52660,0.00040
463.03681,0.00807
461.54702,0.02913
460.05723,0.05023
458.56745,0.09362
457.07766,0.07542
455.58787,0.10588
454.09808,0.13637
452.60829,0.15761
451.11850,0.18185
449.62871,0.19387
448.13893,0.20591
446.64914,0.24064
445.15935,0.39271
443.66956,0.49581
442.17977,0.49535
440.68998,0.49492
439.20020,0.54390
437.71041,0.58845
436.22062,0.60704
434.73083,0.62566
433.24104,0.82698
431.75125,1.00160
430.26146,1.04258
428.77168,1.08360
427.28189,1.19816
425.79210,1.31349
424.30231,1.31041
422.81252,1.30736
421.32273,1.27130
419.83295,1.15582
418.34316,1.06375
416.85337,0.97172
415.36358,0.82068
413.87379,0.72907
412.38400,0.68762
410.89422,0.64619
409.40443,0.61631
407.91464,0.65774
406.42485,0.56702
404.93506,0.55170
403.44527,0.53642
401.95548,0.42351
400.46570,0.43390
398.97591,0.44952
397.48612,0.46516
395.99633,0.51425
394.50654,0.51956
393.01675,0.52935
391.52697,0.53918
390.03718,0.43022
388.54739,0.35100
387.05760,0.35274
385.56781,0.35451
384.07802,0.40161
382.58824,0.33067
381.09845,0.34070
379.60866,0.35076
378.11887,0.31184
376.62908,0.27814
375.13929,0.24374
373.64950,0.20936
372.15972,0.22031
370.66993,0.13772
369.18014,0.16469
367.69035,0.19169
366.20056,0.08618
364.71077,0.10619
363.22099,0.10914
361.73120,0.11213
360.24141,0.09361
358.75162,0.11522
357.26183,0.12831
355.77204,0.14144
354.28225,0.11859
352.79247,0.09427
351.30268,0.08039
349.81289,0.06653
348.32310,0.07943
346.83331,0.02925
345.34352,0.03961
343.85374,0.05001
342.36395,0.09496
340.87416,0.10355
339.38437,0.13631
337.89458,0.16910
336.40479,0.19040
334.91501,0.16422
333.42522,0.13100
331.93543,0.09782
330.44564,0.14598
328.95585,0.13476
327.46606,0.12097
325.97627,0.10722
324.48649,0.04114
322.99670,0.10438
321.50691,0.11679
320.01712,0.12923
318.52733,0.15544
317.03754,0.16756
315.54776,0.18603
314.05797,0.20453
312.56818,0.09125
311.07839,0.10424
309.58860,0.05302
308.09881,0.00184
306.60902,0.00040
305.11924,0.04482
303.62945,0.03691
302.13966,0.02018
300.64987,0.00088
299.16008,0.00040
