1778.52000,0.00000
1777.03021,0.03926
1775.54042,0.04535
1774.05063,0.03087
1772.56085,0.01871
1771.07106,0.04551
1769.58127,0.04372
1768.09148,0.04425
1766.60169,0.03452
1765.11190,0.05802
1763.62212,0.01057
1762.13233,0.10053
1760.64254,0.04514
1759.15275,0.03786
1757.66296,0.04893
1756.17317,0.04172
1754.68339,0.07690
1753.19360,0.05831
1751.70381,0.03173
1750.21402,0.06129
1748.72423,0.01074
1747.23444,0.04723
1745.74465,0.01163
1744.25487,0.05277
1742.76508,0.08707
1741.27529,0.12255
1739.78550,0.04015
1738.29571,0.06769
1736.80592,0.04259
1735.31614,0.07019
1733.82635,0.04516
1732.33656,0.05680
1730.84677,0.05703
1729.35698,0.04355
1727.86719,0.02667
1726.37740,0.04187
1724.88762,0.04567
1723.39783,0.01057
1721.90804,0.07416
1720.41825,0.03132
1718.92846,0.05491
1717.43867,0.05908
1715.94889,0.08960
1714.45910,0.12016
1712.96931,0.07176
1711.47952,0.09896
1709.98973,0.10443
1708.49994,0.10994
1707.01016,0.11319
1705.52037,0.11648
1704.03058,0.11636
1702.54079,0.13803
1701.05100,0.18034
1699.56121,0.21353
1698.07142,0.16546
1696.58164,0.15063
1695.09185,0.22169
1693.60206,0.23784
1692.11227,0.28035
1690.62248,0.25192
1689.13269,0.26129
1687.64291,0.23636
1686.15312,0.25725
1684.66333,0.23353
1683.17354,0.27509
1681.68375,0.21366
1680.19396,0.22896
1678.70417,0.25918
1677.21439,0.25623
1675.72460,0.22011
1674.23481,0.23898
1672.74502,0.22812
1671.25523,0.23332
1669.76544,0.22252
1668.27566,0.31365
1666.78587,0.28117
1665.29608,0.20522
1663.80629,0.22203
1662.31650,0.22399
1660.82671,0.23630
1659.33693,0.22802
1657.84714,0.17743
1656.35735,0.21387
1654.86756,0.21028
1653.37777,0.20786
1651.88798,0.17800
1650.39819,0.20428
1648.90841,0.19509
1647.41862,0.13901
1645.92883,0.16595
1644.43904,0.19293
1642.94925,0.19075
1641.45946,0.18402
1639.96968,0.19107
1638.47989,0.19242
1636.99010,0.20411
1635.50031,0.18035
1634.01052,0.15089
1632.52073,0.14322
1631.03094,0.15275
1629.54116,0.15431
1628.05137,0.22688
1626.56158,0.18156
1625.07179,0.21527
1623.58200,0.19406
1622.09221,0.27936
1620.60243,0.33377
1619.11264,0.24970
1617.62285,0.23549
1616.13306,0.17324
1614.64327,0.14421
1613.15348,0.19422
1611.66370,0.20877
1610.17391,0.20847
1608.68412,0.14409
1607.19433,0.23430
1605.70454,0.17685
1604.21475,0.18871
1602.72496,0.20059
1601.23518,0.14898
1599.74539,0.17181
1598.25560,0.20268
1596.76581,0.14086
1595.27602,0.14891
1593.78623,0.16271
1592.29645,0.13877
1590.80666,0.09311
1589.31687,0.09786
1587.82708,0.10378
1586.33729,0.11432
1584.84750,0.09512
1583.35771,0.14007
1581.86793,0.10263
1580.37814,0.06979
1578.88835,0.13545
1577.39856,0.08551
1575.90877,0.05736
1574.41898,0.03496
1572.92920,0.06526
1571.43941,0.11162
1569.94962,0.06528
1568.45983,0.01898
1566.97004,0.09521
1565.48025,0.09018
1563.99047,0.06802
1562.50068,0.05162
1561.01089,0.06387
1559.52110,0.06012
1558.03131,0.12281
1556.54152,0.16951
1555.05173,0.10976
1553.56195,0.15080
1552.07216,0.08426
1550.58237,0.07957
1549.09258,0.12300
1547.60279,0.08403
1546.11300,0.13439
1544.62322,0.08977
1543.13343,0.11959
1541.64364,0.03382
1540.15385,0.02936
1538.66406,0.02494
1537.17427,0.06635
1535.68448,0.06428
1534.19470,0.07713
1532.70491,0.04079
1531.21512,0.05714
1529.72533,0.04262
1528.23554,0.04644
1526.74575,0.05946
1525.25597,0.09655
1523.76618,0.11765
1522.27639,0.04491
1520.78660,0.03287
1519.29681,0.01057
1517.80702,0.04206
1516.31724,0.05984
1514.82745,0.08682
1513.33766,0.05601
1511.84787,0.02524
1510.35808,0.07292
1508.86829,0.08515
1507.37850,0.06535
1505.88872,0.08108
1504.39893,0.03388
1502.90914,0.05425
1501.41935,0.04031
1499.92956,0.01381
1498.43977,0.07321
1496.94999,0.14524
1495.46020,0.20814
1493.97041,0.14170
1492.48062,0.19895
1490.99083,0.22875
1489.50104,0.30437
1488.01125,0.33367
1486.52147,0.36300
1485.03168,0.48223
1483.54189,0.50304
1482.05210,0.53304
1480.56231,0.63748
1479.07252,0.70533
1477.58274,0.86938
1476.09295,0.87662
1474.60316,0.91823
1473.11337,1.04918
1471.62358,1.11376
1470.13379,1.06274
1468.64401,1.01405
1467.15422,0.86235
1465.66443,0.90188
1464.17464,0.94144
1462.68485,0.91349
1461.19506,0.92449
1459.70527,0.87142
1458.21549,0.81724
1456.72570,0.72302
1455.23591,0.67577
1453.74612,0.68465
1452.25633,0.58023
1450.76654,0.65329
1449.27676,0.66227
1447.78697,0.63695
1446.29718,0.62310
1444.80739,0.58295
1443.31760,0.54284
1441.82781,0.43064
1440.33802,0.37113
1438.84824,0.31624
1437.35845,0.24764
1435.86866,0.20884
1434.37887,0.22846
1432.88908,0.26071
1431.39929,0.24834
1429.90951,0.19479
1428.41972,0.23515
1426.92993,0.26067
1425.44014,0.29652
1423.95035,0.32667
1422.46056,0.35687
1420.97078,0.34473
1419.48099,0.33149
1417.99120,0.31140
1416.50141,0.33486
1415.01162,0.33087
1413.52183,0.44713
1412.03204,0.31728
1410.54226,0.36147
1409.05247,0.35533
1407.56268,0.39273
1406.07289,0.38894
1404.58310,0.39377
1403.09331,0.39864
1401.60353,0.38809
1400.11374,0.42450
1398.62395,0.48500
1397.13416,0.45508
1395.64437,0.43321
1394.15458,0.49609
1392.66479,0.54527
1391.17501,0.57044
1389.68522,0.61052
1388.19543,0.58767
1386.70564,0.54712
1385.21585,0.50659
1383.72606,0.56284
1382.23628,0.49891
1380.74649,0.56438
1379.25670,0.51769
1377.76691,0.60613
1376.27712,0.54806
1374.78733,0.70296
1373.29755,0.77890
1371.80776,0.86518
1370.31797,0.95264
1368.82818,1.02639
1367.33839,1.10018
1365.84860,1.25528
1364.35881,1.47568
1362.86903,1.64573
1361.37924,1.80780
1359.88945,1.79017
1358.39966,1.97521
1356.90987,2.00000
1355.42008,1.89546
1353.93030,1.87910
1352.44051,1.83073
1350.95072,1.78238
1349.46093,1.68942
1347.97114,1.52895
1346.48135,1.26433
1344.99156,1.17949
1343.50178,1.13360
1342.01199,0.95495
1340.52220,0.78090
1339.03241,0.76832
1337.54262,0.85651
1336.05283,0.79533
1334.56305,0.73419
1333.07326,0.68281
1331.58347,0.59713
1330.09368,0.52635
1328.60389,0.46477
1327.11410,0.47993
1325.62432,0.47680
1324.13453,0.44967
1322.64474,0.43287
1321.15495,0.44472
1319.66516,0.40796
1318.17537,0.37122
1316.68558,0.37860
1315.19580,0.41692
1313.70601,0.41521
1312.21622,0.42841
1310.72643,0.36723
1309.23664,0.26258
1307.74685,0.25871
1306.25707,0.31211
1304.76728,0.31460
1303.27749,0.31713
1301.78770,0.24127
1300.29791,0.30511
1298.80812,0.27053
1297.31834,0.25888
1295.82855,0.34342
1294.33876,0.28948
1292.84897,0.36036
1291.35918,0.29389
1289.86939,0.30530
1288.37960,0.31675
1286.88982,0.28129
1285.40003,0.35233
1283.91024,0.37647
1282.42045,0.37660
1280.93066,0.39852
1279.44087,0.44795
1277.95109,0.42414
1276.46130,0.41982
1274.97151,0.39951
1273.48172,0.37924
1271.99193,0.45173
1270.50214,0.44526
1269.01235,0.42852
1267.52257,0.42211
1266.03278,0.54969
1264.54299,0.52732
1263.05320,0.54621
1261.56341,0.56169
1260.07362,0.57720
1258.58384,0.66373
1257.09405,0.55796
1255.60426,0.51977
1254.11447,0.55145
1252.62468,0.55453
1251.13489,0.54277
1249.64511,0.57913
1248.15532,0.49875
1246.66553,0.46304
1245.17574,0.42738
1243.68595,0.31962
1242.19616,0.40537
1240.70637,0.38583
1239.21659,0.38120
1237.72680,0.29876
1236.23701,0.29192
1234.74722,0.21183
1233.25743,0.23424
1231.76764,0.25669
1230.27786,0.21220
1228.78807,0.26963
1227.29828,0.27329
1225.80849,0.17852
1224.31870,0.09981
1222.82891,0.16539
1221.33912,0.14972
1219.84934,0.14782
1218.35955,0.14595
1216.86976,0.11321
1215.37997,0.24307
1213.89018,0.31343
1212.40039,0.27506
1210.91061,0.19093
1209.42082,0.19613
1207.93103,0.17733
1206.44124,0.15855
1204.95145,0.18217
1203.46166,0.12340
1201.97188,0.15052
1200.48209,0.14676
1198.99230,0.15449
1197.50251,0.09241
1196.01272,0.05098
1194.52293,0.03076
1193.03314,0.01057
1191.54336,0.10257
1190.05357,0.09729
1188.56378,0.07259
1187.07399,0.05593
1185.58420,0.06792
1184.09441,0.06164
1182.60463,0.09373
1181.11484,0.12586
1179.62505,0.10823
1178.13526,0.07345
1176.64547,0.07878
1175.15568,0.09902
1173.66589,0.13647
1172.17611,0.07435
1170.68632,0.07638
1169.19653,0.07844
1167.70674,0.06336
1166.21695,0.08495
1164.72716,0.08367
1163.23738,0.04351
1161.74759,0.08580
1160.25780,0.11897
1158.76801,0.09665
1157.27822,0.07437
1155.78843,0.09161
1154.29865,0.09858
1152.80886,0.01057
1151.31907,0.04920
1149.82928,0.11992
1148.33949,0.16663
1146.84970,0.13782
1145.35991,0.10904
1143.87013,0.08373
1142.38034,0.12943
1140.89055,0.20264
1139.40076,0.11446
1137.91097,0.12935
1136.42118,0.20610
1134.93140,0.19987
1133.44161,0.19368
1131.95182,0.27625
1130.46203,0.38977
1128.97224,0.31785
1127.48245,0.39251
1125.99266,0.34584
1124.50288,0.41255
1123.01309,0.43465
1121.52330,0.45677
1120.03351,0.44573
1118.54372,0.36031
1117.05393,0.40429
1115.56415,0.40137
1114.07436,0.48892
1112.58457,0.49350
1111.09478,0.49812
1109.60499,0.44610
1108.11520,0.50859
1106.62542,0.43031
1105.13563,0.62224
1103.64584,0.64362
1102.15605,0.72571
1100.66626,0.74831
1099.17647,0.77094
1097.68668,0.71804
1096.19690,0.84263
1094.70711,0.81040
1093.21732,0.94421
1091.72753,0.90748
1090.23774,0.93546
1088.74795,0.96347
1087.25817,0.98522
1085.76838,1.02876
1084.27859,1.12613
1082.78880,1.22469
1081.29901,1.21566
1079.80922,1.19179
1078.31943,1.19027
1076.82965,1.18878
1075.33986,1.22683
1073.85007,1.27865
1072.36028,1.30073
1070.87049,1.40528
1069.38070,1.41140
1067.89092,1.45992
1066.40113,1.50847
1064.91134,1.42081
1063.42155,1.23703
1061.93176,1.17921
1060.44197,1.09738
1058.95219,0.93201
1057.46240,0.92523
1055.97261,0.91849
1054.48282,0.85741
1052.99303,0.90740
1051.50324,0.77540
1050.01345,0.62511
1048.52367,0.59049
1047.03388,0.59483
1045.54409,0.59919
1044.05430,0.69289
1042.56451,0.59658
1041.07472,0.51748
1039.58494,0.50023
1038.09515,0.37425
1036.60536,0.36966
1035.11557,0.36511
1033.62578,0.40638
1032.13599,0.34235
1030.64620,0.40086
1029.15642,0.39530
1027.66663,0.37602
1026.17684,0.35679
1024.68705,0.47839
1023.19726,0.52104
1021.70747,0.65760
1020.21769,0.74611
1018.72790,1.01554
1017.23811,1.04745
1015.74832,1.07939
1014.25853,1.37983
1012.76874,1.64023
1011.27896,1.73123
1009.78917,1.90927
1008.29938,1.92020
1006.80959,1.86419
1005.31980,1.80821
1003.83001,1.67957
1002.34022,1.55554
1000.85044,1.43154
999.36065,1.31216
997.87086,1.28554
996.38107,1.25895
994.89128,1.22553
993.40149,1.21390
991.91171,1.17139
990.42192,1.06022
988.93213,1.08417
987.44234,1.03146
985.95255,0.97877
984.46276,1.01084
982.97297,0.93647
981.48319,0.98006
979.99340,0.86683
978.50361,0.81718
977.01382,0.76756
975.52403,0.85707
974.03424,0.79664
972.54446,0.71221
971.05467,0.67589
969.56488,0.72088
968.07509,0.66059
966.58530,0.60033
965.09551,0.55612
963.60573,0.55088
962.11594,0.57887
960.62615,0.60117
959.13636,0.53993
957.64657,0.47873
956.15678,0.45991
954.66699,0.41366
953.17721,0.56549
951.68742,0.56395
950.19763,0.56588
948.70784,0.56784
947.21805,0.52404
945.72826,0.47684
944.23848,0.41479
942.74869,0.53594
941.25890,0.47510
939.76911,0.54309
938.27932,0.61112
936.78953,0.69463
935.29974,0.66254
933.80996,0.65568
932.32017,0.69808
930.83038,0.70731
929.34059,0.71657
927.85080,0.64916
926.36101,0.55088
924.87123,0.61176
923.38144,0.61200
921.89165,0.61513
920.40186,0.61830
918.91207,0.52705
917.42228,0.67854
915.93250,0.72016
914.44271,0.68282
912.95292,0.69360
911.46313,0.70441
909.97334,0.70151
908.48355,0.84404
906.99376,0.75764
905.50398,0.74683
904.01419,0.74865
902.52440,0.75050
901.03461,0.78788
899.54482,0.79437
898.05503,0.81922
896.56525,0.92768
895.07546,0.95374
893.58567,0.97983
892.09588,0.94299
890.60609,1.00693
889.11630,0.88887
887.62651,0.90594
886.13673,0.89900
884.64694,0.89209
883.15715,0.80851
881.66736,0.84861
880.17757,0.96888
878.68778,0.97127
877.19800,0.97369
875.70821,0.89257
874.21842,0.84697
872.72863,0.93306
871.23884,1.06613
869.74905,1.04238
868.25927,1.01867
866.76948,0.94576
865.27969,0.90380
863.78990,0.91110
862.30011,1.00200
860.81032,1.01853
859.32053,1.03509
857.83075,1.01275
856.34096,1.05342
854.85117,1.00940
853.36138,0.83605
851.87159,0.83617
850.38180,0.83633
848.89202,0.58065
847.40223,0.44750
845.91244,0.40368
844.42265,0.43088
842.93286,0.45811
841.44307,0.40409
839.95329,0.49549
838.46350,0.37285
836.97371,0.36815
835.48392,0.37494
833.99413,0.38177
832.50434,0.37717
831.01455,0.44817
829.52477,0.43105
828.03498,0.38191
826.54519,0.35856
825.05540,0.33525
823.56561,0.20721
822.07582,0.20858
820.58604,0.22257
819.09625,0.19538
817.60646,0.16822
816.11667,0.11363
814.62688,0.15523
813.13709,0.08352
811.64730,0.04505
810.15752,0.04440
808.66773,0.04377
807.17794,0.11187
805.68815,0.01057
804.19836,0.03765
802.70857,0.12201
801.21879,0.20641
799.72900,0.14315
798.23921,0.24593
796.74942,0.37278
795.25963,0.37545
793.76984,0.37816
792.28006,0.43299
790.79027,0.40657
789.30048,0.55534
787.81069,0.61027
786.32090,0.65951
784.83111,0.70878
783.34132,0.62642
781.85154,0.74331
780.36175,0.77322
778.87196,0.73390
777.38217,0.69461
775.89238,0.77156
774.40259,0.80504
772.91281,0.77902
771.42302,0.81256
769.93323,0.84614
768.44344,0.87402
766.95365,0.84699
765.46386,0.84861
763.97407,0.82050
762.48429,0.75293
760.99450,0.68539
759.50471,0.64250
758.01492,0.60078
756.52513,0.58085
755.03534,0.47738
753.54556,0.37395
752.05577,0.26368
750.56598,0.22327
749.07619,0.14627
747.58640,0.14142
746.09661,0.13661
744.60683,0.10894
743.11704,0.08015
741.62725,0.05941
740.13746,0.05587
738.64767,0.05237
737.15788,0.07180
735.66809,0.07982
734.17831,0.04894
732.68852,0.08335
731.19873,0.11780
729.70894,0.14999
728.21915,0.08948
726.72936,0.10342
725.23958,0.09793
723.74979,0.07015
722.26000,0.04240
720.77021,0.15379
719.28042,0.10836
717.79063,0.07785
716.30084,0.07371
714.81106,0.06960
713.32127,0.01057
711.83148,0.10341
710.34169,0.01883
708.85190,0.05335
707.36211,0.08790
705.87233,0.09845
704.38254,0.11017
702.89275,0.10018
701.40296,0.12170
699.91317,0.14325
698.42338,0.12420
696.93360,0.13609
695.44381,0.13084
693.95402,0.12448
692.46423,0.11815
690.97444,0.18055
689.48465,0.18230
687.99486,0.17722
686.50508,0.24487
685.01529,0.31255
683.52550,0.29269
682.03571,0.26599
680.54592,0.23588
679.05613,0.21784
677.56635,0.19982
676.07656,0.25797
674.58677,0.15474
673.09698,0.12595
671.60719,0.11952
670.11740,0.11312
668.62761,0.11763
667.13783,0.10729
665.64804,0.10614
664.15825,0.10503
662.66846,0.12456
661.17867,0.08573
659.68888,0.12364
658.19910,0.14442
656.70931,0.16522
655.21952,0.22842
653.72973,0.19091
652.23994,0.23929
650.75015,0.22703
649.26037,0.21480
647.77058,0.17284
646.28079,0.16068
644.79100,0.05239
643.30121,0.04144
641.81142,0.03052
640.32163,0.07803
638.83185,0.03169
637.34206,0.01057
635.85227,0.04436
634.36248,0.07819
632.87269,0.04108
631.38290,0.09673
629.89312,0.11806
628.40333,0.08162
626.91354,0.04521
625.42375,0.06779
623.93396,0.14879
622.44417,0.07928
620.95438,0.00980
619.46460,0.01649
617.97481,0.04267
616.48502,0.10438
614.99523,0.10544
613.50544,0.10654
612.01565,0.19468
610.52587,0.06991
609.03608,0.10202
607.54629,0.12615
606.05650,0.15031
604.56671,0.21571
603.07692,0.14263
601.58714,0.13770
600.09735,0.13280
598.60756,0.12278
597.11777,0.16546
595.62798,0.13147
594.13819,0.07805
592.64840,0.02466
591.15862,0.08350
589.66883,0.06910
588.17904,0.10053
586.68925,0.05587
585.19946,0.01123
583.70967,0.04849
582.21989,0.15447
580.73010,0.16546
579.24031,0.17648
577.75052,0.16350
576.26073,0.13681
574.77094,0.05406
573.28115,0.08696
571.79137,0.11991
570.30158,0.10709
568.81179,0.22367
567.32200,0.22409
565.83221,0.22454
564.34242,0.24734
562.85264,0.27133
561.36285,0.34915
559.87306,0.36290
558.38327,0.37668
556.89348,0.38363
555.40369,0.37000
553.91391,0.42510
552.42412,0.48023
550.93433,0.48616
549.44454,0.44290
547.95475,0.47867
546.46496,0.52191
544.97517,0.56519
543.48539,0.59533
541.99560,0.66214
540.50581,0.65572
539.01602,0.64932
537.52623,0.63037
536.03644,0.55879
534.54666,0.60173
533.05687,0.61665
531.56708,0.63160
530.07729,0.63228
528.58750,0.50477
527.09771,0.49006
525.60792,0.47538
524.11814,0.47505
522.62835,0.51139
521.13856,0.52028
519.64877,0.44048
518.15898,0.36071
516.66919,0.31933
515.17941,0.40850
513.68962,0.40897
512.19983,0.40948
510.71004,0.43005
509.22025,0.30412
507.73046,0.42551
506.24068,0.42271
504.75089,0.41995
503.26110,0.47504
501.77131,0.40651
500.28152,0.39870
498.79173,0.39092
497.30194,0.38661
495.81216,0.33654
494.32237,0.38553
492.83258,0.43455
491.34279,0.47846
489.85300,0.38731
488.36321,0.35916
486.87343,0.31787
485.38364,0.27662
483.89385,0.38022
482.40406,0.28695
480.91427,0.24522
479.42448,0.20353
477.93469,0.11150
476.44491,0.13743
474.95512,0.15022
473.46533,0.16304
471.97554,0.06542
470.48575,0.12239
468.99596,0.20457
467.50618,0.17116
466.01639,0.13779
464.52660,0.01057
463.03681,0.07305
461.54702,0.09035
460.05723,0.10768
458.56745,0.08097
457.07766,0.07833
455.58787,0.07916
454.09808,0.08002
452.60829,0.21486
451.11850,0.14710
449.62871,0.13318
448.13893,0.11930
446.64914,0.18902
445.15935,0.31029
443.66956,0.43274
442.17977,0.40754
440.68998,0.38237
439.20020,0.48775
437.71041,0.54737
436.22062,0.55607
434.73083,0.56481
433.24104,0.70009
431.75125,0.94874
430.26146,0.92094
428.77168,0.89318
427.28189,1.03775
425.79210,1.19151
424.30231,1.15927
422.81252,1.12706
421.32273,0.96953
419.83295,0.92422
418.34316,0.87151
416.85337,0.81882
415.36358,0.67516
413.87379,0.55214
412.38400,0.53848
410.89422,0.52486
409.40443,0.56336
407.91464,0.50000
406.42485,0.39088
404.93506,0.36480
403.44527,0.33875
401.95548,0.39573
400.46570,0.38063
398.97591,0.36441
397.48612,0.34822
395.99633,0.38245
394.50654,0.41899
393.01675,0.43954
391.52697,0.46012
390.03718,0.27353
388.54739,0.17740
387.05760,0.19923
385.56781,0.22109
384.07802,0.31626
382.58824,0.38971
381.09845,0.34527
379.60866,0.30086
378.11887,0.31488
376.62908,0.42967
375.13929,0.33728
373.64950,0.24493
372.15972,0.25793
370.66993,0.20342
369.18014,0.21077
367.69035,0.21815
366.20056,0.14772
364.71077,0.08762
363.22099,0.14948
361.73120,0.21137
360.24141,0.29562
358.75162,0.16124
357.26183,0.18889
355.77204,0.21657
354.28225,0.19563
352.79247,0.08199
351.30268,0.10748
349.81289,0.13301
348.32310,0.13167
346.83331,0.12234
345.34352,0.08214
343.85374,0.04197
342.36395,0.23124
340.87416,0.19501
339.38437,0.18285
337.89458,0.17073
336.40479,0.21131
334.91501,0.21871
333.42522,0.22444
331.93543,0.23019
330.44564,0.17130
328.95585,0.21204
327.46606,0.18183
325.97627,0.15166
324.48649,0.06428
322.99670,0.15502
321.50691,0.18856
320.01712,0.22213
318.52733,0.25573
317.03754,0.30768
315.54776,0.27209
314.05797,0.23653
312.56818,0.17524
311.07839,0.16436
309.58860,0.12604
308.09881,0.08775
306.60902,0.01057
305.11924,0.08255
303.62945,0.10820
302.13966,0.13388
300.64987,0.02622
299.16008,0.01057
