1778.52000,0.01016
1777.03021,0.05666
1775.54042,0.00922
1774.05063,0.04615
1772.56085,0.00480
1771.07106,0.03095
1769.58127,0.03544
1768.09148,0.03395
1766.60169,0.07225
1765.11190,0.03949
1763.62212,0.02003
1762.13233,0.06806
1760.64254,0.05107
1759.15275,0.07386
1757.66296,0.04127
1756.17317,0.00751
1754.68339,0.03884
1753.19360,0.04370
1751.70381,0.05943
1750.21402,0.01255
1748.72423,0.06513
1747.23444,0.06835
1745.74465,0.03907
1744.25487,0.08814
1742.76508,0.05772
1741.27529,0.08034
1739.78550,0.09216
1738.29571,0.04859
1736.80592,0.05204
1735.31614,0.06033
1733.82635,0.04939
1732.33656,0.03486
1730.84677,0.04326
1729.35698,0.06013
1727.86719,0.02401
1726.37740,0.00480
1724.88762,0.05514
1723.39783,0.05612
1721.90804,0.08605
1720.41825,0.07505
1718.92846,0.03035
1717.43867,0.05194
1715.94889,0.09164
1714.45910,0.07233
1712.96931,0.05909
1711.47952,0.07961
1709.98973,0.09895
1708.49994,0.09544
1707.01016,0.08715
1705.52037,0.07888
1704.03058,0.13571
1702.54079,0.11305
1701.05100,0.13621
1699.56121,0.19073
1698.07142,0.19468
1696.58164,0.15890
1695.09185,0.26050
1693.60206,0.21274
1692.11227,0.24332
1690.62248,0.26671
1689.13269,0.27447
1687.64291,0.30756
1686.15312,0.28647
1684.66333,0.30396
1683.17354,0.28173
1681.68375,0.27760
1680.19396,0.24339
1678.70417,0.28391
1677.21439,0.28831
1675.72460,0.26504
1674.23481,0.25144
1672.74502,0.22221
1671.25523,0.29301
1669.76544,0.31686
1668.27566,0.27929
1666.78587,0.28995
1665.29608,0.28618
1663.80629,0.29691
1662.31650,0.27273
1660.82671,0.26665
1659.33693,0.24012
1657.84714,0.22929
1656.35735,0.20283
1654.86756,0.16556
1653.37777,0.18495
1651.88798,0.22846
1650.39819,0.18165
1648.90841,0.20596
1647.41862,0.19897
1645.92883,0.22153
1644.43904,0.24413
1642.94925,0.23362
1641.45946,0.22195
1639.96968,0.16573
1638.47989,0.23484
1636.99010,0.18471
1635.50031,0.21533
1634.01052,0.18454
1632.52073,0.17186
1631.03094,0.20378
1629.54116,0.23092
1628.05137,0.20870
1626.56158,0.20458
1625.07179,0.23543
1623.58200,0.23620
1622.09221,0.30928
1620.60243,0.28963
1619.11264,0.24351
1617.62285,0.26007
1616.13306,0.25497
1614.64327,0.25714
1613.15348,0.22922
1611.66370,0.24229
1610.17391,0.24576
1608.68412,0.23722
1607.19433,0.25762
1605.70454,0.24312
1604.21475,0.23467
1602.72496,0.22625
1601.23518,0.18896
1599.74539,0.20350
1598.25560,0.19639
1596.76581,0.17364
1595.27602,0.14612
1593.78623,0.17645
1592.29645,0.16465
1590.80666,0.10590
1589.31687,0.10621
1587.82708,0.19330
1586.33729,0.14790
1584.84750,0.13506
1583.35771,0.14876
1581.86793,0.03237
1580.37814,0.12203
1578.88835,0.12258
1577.39856,0.12315
1575.90877,0.11171
1574.41898,0.05934
1572.92920,0.08652
1571.43941,0.06795
1569.94962,0.03736
1568.45983,0.00681
1566.97004,0.06677
1565.48025,0.09906
1563.99047,0.11089
1562.50068,0.11433
1561.01089,0.04068
1559.52110,0.12250
1558.03131,0.10675
1556.54152,0.09706
1555.05173,0.17175
1553.56195,0.13441
1552.07216,0.12964
1550.58237,0.10442
1549.09258,0.04309
1547.60279,0.12396
1546.11300,0.10245
1544.62322,0.15086
1543.13343,0.09086
1541.64364,0.05861
1540.15385,0.04085
1538.66406,0.02312
1537.17427,0.06567
1535.68448,0.02270
1534.19470,0.06049
1532.70491,0.03326
1531.21512,0.01931
1529.72533,0.08009
1528.23554,0.05656
1526.74575,0.06922
1525.25597,0.00480
1523.76618,0.05551
1522.27639,0.05083
1520.78660,0.05101
1519.29681,0.06688
1517.80702,0.06230
1516.31724,0.05414
1514.82745,0.05203
1513.33766,0.03069
1511.84787,0.00937
1510.35808,0.04473
1508.86829,0.04758
1507.37850,0.05770
1505.88872,0.06665
1504.39893,0.06358
1502.90914,0.00754
1501.41935,0.01507
1499.92956,0.02866
1498.43977,0.09530
1496.94999,0.14269
1495.46020,0.13951
1493.97041,0.24238
1492.48062,0.23927
1490.99083,0.24944
1489.50104,0.35483
1488.01125,0.41627
1486.52147,0.47775
1485.03168,0.46636
1483.54189,0.56827
1482.05210,0.70875
1480.56231,0.84686
1479.07252,0.90911
1477.58274,1.00391
1476.09295,1.09152
1474.60316,1.20928
1473.11337,1.31502
1471.62358,1.35092
1470.13379,1.30734
1468.64401,1.23246
1467.15422,1.20099
1465.66443,1.19003
1464.17464,1.17911
1462.68485,1.21279
1461.19506,1.13928
1459.70527,1.06581
1458.21549,1.00080
1456.72570,0.96353
1455.23591,0.81907
1453.74612,0.84090
1452.25633,0.82542
1450.76654,0.76058
1449.27676,0.79215
1447.78697,0.71773
1446.29718,0.71322
1444.80739,0.67260
1443.31760,0.63202
1441.82781,0.53122
1440.33802,0.41721
1438.84824,0.37672
1437.35845,0.35795
1435.86866,0.39584
1434.37887,0.28076
1432.88908,0.25606
1431.39929,0.32296
1429.90951,0.23087
1428.41972,0.32916
1426.92993,0.37929
1425.44014,0.38127
1423.95035,0.41279
1422.46056,0.44435
1420.97078,0.44522
1419.48099,0.47263
1417.99120,0.34465
1416.50141,0.36851
1415.01162,0.35866
1413.52183,0.47777
1412.03204,0.40775
1410.54226,0.38113
1409.05247,0.33528
1407.56268,0.38945
1406.07289,0.38824
1404.58310,0.38344
1403.09331,0.37868
1401.60353,0.45226
1400.11374,0.44515
1398.62395,0.44531
1397.13416,0.41899
1395.64437,0.44451
1394.15458,0.50982
1392.66479,0.53662
1391.17501,0.59477
1389.68522,0.59030
1388.19543,0.50394
1386.70564,0.49592
1385.21585,0.48793
1383.72606,0.46793
1382.23628,0.51303
1380.74649,0.45093
1379.25670,0.48885
1377.76691,0.49549
1376.27712,0.53951
1374.78733,0.57995
1373.29755,0.58066
1371.80776,0.65008
1370.31797,0.80386
1368.82818,0.83720
1367.33839,0.87058
1365.84860,1.04374
1364.35881,1.18320
1362.86903,1.33233
1361.37924,1.44655
1359.88945,1.51383
1358.39966,1.54137
1356.90987,1.67015
1355.42008,1.60379
1353.93030,1.59528
1352.44051,1.53862
1350.95072,1.48200
1349.46093,1.58443
1347.97114,1.39414
1346.48135,1.18460
1344.99156,1.08352
1343.50178,0.96682
1342.01199,0.85858
1340.52220,0.80941
1339.03241,0.69039
1337.54262,0.78466
1336.05283,0.73439
1334.56305,0.68414
1333.07326,0.63032
1331.58347,0.68978
1330.09368,0.57818
1328.60389,0.51723
1327.11410,0.49847
1325.62432,0.44361
1324.13453,0.44901
1322.64474,0.52192
1321.15495,0.50209
1319.66516,0.51362
1318.17537,0.52518
1316.68558,0.48376
1315.19580,0.54479
1313.70601,0.42151
1312.21622,0.39224
1310.72643,0.34854
1309.23664,0.30729
1307.74685,0.41185
1306.25707,0.37187
1304.76728,0.34035
1303.27749,0.30887
1301.78770,0.37621
1300.29791,0.31587
1298.80812,0.27485
1297.31834,0.40253
1295.82855,0.37362
1294.33876,0.43872
1292.84897,0.37614
1291.35918,0.33287
1289.86939,0.34565
1288.37960,0.35847
1286.88982,0.35024
1285.40003,0.47336
1283.91024,0.53025
1282.42045,0.48357
1280.93066,0.44293
1279.44087,0.44932
1277.95109,0.46900
1276.46130,0.54774
1274.97151,0.49399
1273.48172,0.44027
1271.99193,0.57935
1270.50214,0.62328
1269.01235,0.56604
1267.52257,0.56667
1266.03278,0.64444
1264.54299,0.55718
1263.05320,0.69887
1261.56341,0.68456
1260.07362,0.67029
1258.58384,0.65064
1257.09405,0.63824
1255.60426,0.71503
1254.11447,0.66294
1252.62468,0.72172
1251.13489,0.65283
1249.64511,0.58397
1248.15532,0.58262
1246.66553,0.54876
1245.17574,0.51494
1243.68595,0.48356
1242.19616,0.38354
1240.70637,0.44861
1239.21659,0.41131
1237.72680,0.31379
1236.23701,0.32836
1234.74722,0.33453
1233.25743,0.28410
1231.76764,0.23371
1230.27786,0.28816
1228.78807,0.29085
1227.29828,0.23453
1225.80849,0.18426
1224.31870,0.17138
1222.82891,0.11275
1221.33912,0.18186
1219.84934,0.21667
1218.35955,0.25151
1216.86976,0.20867
1215.37997,0.23574
1213.89018,0.26285
1212.40039,0.29481
1210.91061,0.22921
1209.42082,0.21906
1207.93103,0.18245
1206.44124,0.14586
1204.95145,0.16955
1203.46166,0.07279
1201.97188,0.16040
1200.48209,0.08901
1198.99230,0.07789
1197.50251,0.06680
1196.01272,0.06538
1194.52293,0.03267
1193.03314,0.00000
1191.54336,0.06500
1190.05357,0.08907
1188.56378,0.05776
1187.07399,0.04696
1185.58420,0.07113
1184.09441,0.07847
1182.60463,0.05933
1181.11484,0.04023
1179.62505,0.07176
1178.13526,0.08525
1176.64547,0.00480
1175.15568,0.12073
1173.66589,0.10657
1172.17611,0.04185
1170.68632,0.04342
1169.19653,0.04503
1167.70674,0.02739
1166.21695,0.06762
1164.72716,0.05005
1163.23738,0.00480
1161.74759,0.03045
1160.25780,0.07421
1158.76801,0.06378
1157.27822,0.05339
1155.78843,0.00568
1154.29865,0.01222
1152.80886,0.03928
1151.31907,0.03263
1149.82928,0.07662
1148.33949,0.11582
1146.84970,0.11048
1145.35991,0.10517
1143.87013,0.03122
1142.38034,0.07778
1140.89055,0.15088
1139.40076,0.12160
1137.91097,0.16224
1136.42118,0.18363
1134.93140,0.21951
1133.44161,0.25542
1131.95182,0.33475
1130.46203,0.32374
1128.97224,0.36939
1127.48245,0.38254
1125.99266,0.40778
1124.50288,0.39690
1123.01309,0.40413
1121.52330,0.41139
1120.03351,0.52350
1118.54372,0.53926
1117.05393,0.55867
1115.56415,0.49618
1114.07436,0.50602
1112.58457,0.55866
1111.09478,0.61133
1109.60499,0.56463
1108.11520,0.55653
1106.62542,0.57134
1105.13563,0.67776
1103.64584,0.79867
1102.15605,0.85214
1100.66626,0.87853
1099.17647,0.90496
1097.68668,0.89106
1096.19690,0.87959
1094.70711,0.96335
1093.21732,1.01822
1091.72753,1.01650
1090.23774,1.10818
1088.74795,1.19990
1087.25817,1.20068
1085.76838,1.19909
1084.27859,1.18428
1082.78880,1.23215
1081.29901,1.30174
1079.80922,1.22799
1078.31943,1.28138
1076.82965,1.33480
1075.33986,1.34429
1073.85007,1.53452
1072.36028,1.43563
1070.87049,1.50304
1069.38070,1.56567
1067.89092,1.53074
1066.40113,1.49583
1064.91134,1.40314
1063.42155,1.30445
1061.93176,1.25398
1060.44197,1.24210
1058.95219,1.10255
1057.46240,1.13893
1055.97261,1.17534
1054.48282,0.98287
1052.99303,0.87598
1051.50324,0.91370
1050.01345,0.85747
1048.52367,0.73260
1047.03388,0.68789
1045.54409,0.64320
1044.05430,0.72927
1042.56451,0.58526
1041.07472,0.60272
1039.58494,0.47323
1038.09515,0.53293
1036.60536,0.55109
1035.11557,0.56929
1033.62578,0.44354
1032.13599,0.39614
1030.64620,0.38131
1029.15642,0.41469
1027.66663,0.44028
1026.17684,0.46591
1024.68705,0.50180
1023.19726,0.64496
1021.70747,0.75079
1020.21769,0.83137
1018.72790,0.93968
1017.23811,1.05827
1015.74832,1.17689
1014.25853,1.35880
1012.76874,1.59013
1011.27896,1.71548
1009.78917,1.95290
1008.29938,2.00000
1006.80959,1.93147
1005.31980,1.86297
1003.83001,1.79089
1002.34022,1.55379
1000.85044,1.42876
999.36065,1.38811
997.87086,1.38423
996.38107,1.38039
994.89128,1.27477
993.40149,1.29810
991.91171,1.22990
990.42192,1.29908
988.93213,1.26588
987.44234,1.26585
985.95255,1.26585
984.46276,1.30263
982.97297,1.17679
981.48319,1.22207
979.99340,1.12401
978.50361,1.11333
977.01382,1.10268
975.52403,1.13845
974.03424,1.08028
972.54446,0.95588
971.05467,1.06886
969.56488,0.98307
968.07509,0.94130
966.58530,0.89956
965.09551,0.89700
963.60573,0.86798
962.11594,0.83416
960.62615,0.78833
959.13636,0.72688
957.64657,0.66545
956.15678,0.68719
954.66699,0.77041
953.17721,0.71751
951.68742,0.69357
950.19763,0.65219
948.70784,0.61084
947.21805,0.64121
945.72826,0.66438
944.23848,0.65867
942.74869,0.69998
941.25890,0.68470
939.76911,0.73692
938.27932,0.78917
936.78953,0.86555
935.29974,0.85763
933.80996,0.80275
932.32017,0.78284
930.83038,0.82743
929.34059,0.87205
927.85080,0.83417
926.36101,0.81560
924.87123,0.72116
923.38144,0.71591
921.89165,0.73599
920.40186,0.75610
918.91207,0.89312
917.42228,0.79523
915.93250,0.80580
914.44271,0.89954
912.95292,0.89332
911.46313,0.88712
909.97334,0.91229
908.48355,0.95555
906.99376,0.91934
905.50398,0.98436
904.01419,0.92170
902.52440,0.85908
901.03461,0.85673
899.54482,1.02429
898.05503,1.04730
896.56525,1.00047
895.07546,1.05127
893.58567,1.10209
892.09588,1.03367
890.60609,1.03517
889.11630,1.03549
887.62651,0.99729
886.13673,0.99767
884.64694,0.99809
883.15715,1.04794
881.66736,1.03276
880.17757,1.03931
878.68778,1.07118
877.19800,1.10309
875.70821,1.07599
874.21842,1.03809
872.72863,1.08817
871.23884,1.09250
869.74905,1.09264
868.25927,1.09282
866.76948,1.05869
865.27969,1.18484
863.78990,1.17367
862.30011,1.20590
860.81032,1.18877
859.32053,1.17168
857.83075,1.18473
856.34096,1.09421
854.85117,1.05071
853.36138,0.93856
851.87159,0.85416
850.38180,0.76979
848.89202,0.69389
847.40223,0.51682
845.91244,0.56989
844.42265,0.55072
842.93286,0.53157
841.44307,0.47390
839.95329,0.44760
838.46350,0.39602
836.97371,0.39749
835.48392,0.43874
833.99413,0.48004
832.50434,0.47196
831.01455,0.50007
829.52477,0.44025
828.03498,0.32023
826.54519,0.35807
825.05540,0.39595
823.56561,0.36638
822.07582,0.26577
820.58604,0.28085
819.09625,0.25199
817.60646,0.22316
816.11667,0.13352
814.62688,0.16319
813.13709,0.15915
811.64730,0.16479
810.15752,0.13733
808.66773,0.10990
807.17794,0.00480
805.68815,0.11580
804.19836,0.18226
802.70857,0.18128
801.21879,0.18033
799.72900,0.14207
798.23921,0.30264
796.74942,0.37769
795.25963,0.36483
793.76984,0.35200
792.28006,0.45607
790.79027,0.52282
789.30048,0.61732
787.81069,0.67570
786.32090,0.65822
784.83111,0.64077
783.34132,0.74142
781.85154,0.76620
780.36175,0.78981
778.87196,0.76827
777.38217,0.74676
775.89238,0.89818
774.40259,0.85084
772.91281,0.90594
771.42302,0.91288
769.93323,0.91985
768.44344,1.02083
766.95365,1.01943
765.46386,1.06746
763.97407,0.92999
762.48429,0.86544
760.99450,0.80092
759.50471,0.69125
758.01492,0.69969
756.52513,0.56599
755.03534,0.50281
753.54556,0.43966
752.05577,0.26149
750.56598,0.22189
749.07619,0.19800
747.58640,0.18317
746.09661,0.16838
744.60683,0.10723
743.11704,0.14491
741.62725,0.15010
740.13746,0.08544
738.64767,0.02081
737.15788,0.04777
735.66809,0.11815
734.17831,0.06928
732.68852,0.11020
731.19873,0.15116
729.70894,0.00480
728.21915,0.09696
726.72936,0.06748
725.23958,0.08261
723.74979,0.11644
722.26000,0.15031
720.77021,0.11493
719.28042,0.09163
717.79063,0.03222
716.30084,0.06441
714.81106,0.09664
713.32127,0.00480
711.83148,0.09599
710.34169,0.07156
708.85190,0.08089
707.36211,0.09026
705.87233,0.14424
704.38254,0.06572
702.89275,0.09446
701.40296,0.11661
699.91317,0.13879
698.42338,0.08209
696.93360,0.15313
695.44381,0.25312
693.95402,0.24591
692.46423,0.23874
690.97444,0.25088
689.48465,0.29317
687.99486,0.22585
686.50508,0.22905
685.01529,0.23228
683.52550,0.27470
682.03571,0.25812
680.54592,0.30663
679.05613,0.28469
677.56635,0.26279
676.07656,0.16561
674.58677,0.18655
673.09698,0.17136
671.60719,0.19357
670.11740,0.21580
668.62761,0.11879
667.13783,0.10494
665.64804,0.07848
664.15825,0.05205
662.66846,0.11421
661.17867,0.04146
659.68888,0.05910
658.19910,0.09545
656.70931,0.13184
655.21952,0.09054
653.72973,0.13844
652.23994,0.13938
650.75015,0.15782
649.26037,0.17629
647.77058,0.26649
646.28079,0.13383
644.79100,0.07710
643.30121,0.06378
641.81142,0.05049
640.32163,0.09868
638.83185,0.01678
637.34206,0.00480
635.85227,0.03101
634.36248,0.05725
632.87269,0.05281
631.38290,0.07249
629.89312,0.03920
628.40333,0.06075
626.91354,0.08234
625.42375,0.15517
623.93396,0.09911
622.44417,0.10454
620.95438,0.10999
619.46460,0.05644
617.97481,0.07281
616.48502,0.18077
614.99523,0.11889
613.50544,0.05704
612.01565,0.07112
610.52587,0.08765
609.03608,0.06084
607.54629,0.11237
606.05650,0.16394
604.56671,0.14566
603.07692,0.09608
601.58714,0.10317
600.09735,0.11029
598.60756,0.08491
597.11777,0.08366
595.62798,0.11497
594.13819,0.07584
592.64840,0.03674
591.15862,0.12236
589.66883,0.07429
588.17904,0.05637
586.68925,0.06619
585.19946,0.07605
583.70967,0.11124
582.21989,0.10670
580.73010,0.12449
579.24031,0.14230
577.75052,0.08847
576.26073,0.05756
574.77094,0.06885
573.28115,0.13318
571.79137,0.19755
570.30158,0.17400
568.81179,0.25770
567.32200,0.24566
565.83221,0.23366
564.34242,0.35602
562.85264,0.30733
561.36285,0.40927
559.87306,0.41728
558.38327,0.42531
556.89348,0.50446
555.40369,0.54389
553.91391,0.53877
552.42412,0.53368
550.93433,0.59730
549.44454,0.58867
547.95475,0.59814
546.46496,0.61908
544.97517,0.64007
543.48539,0.74722
541.99560,0.81224
540.50581,0.80380
539.01602,0.79540
537.52623,0.67257
536.03644,0.65820
534.54666,0.68243
533.05687,0.70849
531.56708,0.73458
530.07729,0.69987
528.58750,0.64711
527.09771,0.60584
525.60792,0.56459
524.11814,0.59025
522.62835,0.58702
521.13856,0.53443
519.64877,0.49754
518.15898,0.46067
516.66919,0.43348
515.17941,0.45692
513.68962,0.45449
512.19983,0.45210
510.71004,0.38287
509.22025,0.31247
507.73046,0.39511
506.24068,0.41514
504.75089,0.43519
503.26110,0.51191
501.77131,0.51035
500.28152,0.45098
498.79173,0.39166
497.30194,0.41670
495.81216,0.46828
494.32237,0.53073
492.83258,0.59322
491.34279,0.44731
489.85300,0.44360
488.36321,0.32907
486.87343,0.34410
485.38364,0.35916
483.89385,0.34595
482.40406,0.25686
480.91427,0.25395
479.42448,0.25107
477.93469,0.08376
476.44491,0.11047
474.95512,0.11491
473.46533,0.11939
471.97554,0.11487
470.48575,0.14773
468.99596,0.10472
467.50618,0.07921
466.01639,0.05373
464.52660,0.00480
463.03681,0.02111
461.54702,0.07360
460.05723,0.12612
458.56745,0.17506
457.07766,0.06861
455.58787,0.09714
454.09808,0.12570
452.60829,0.20007
451.11850,0.26002
449.62871,0.29048
448.13893,0.32097
446.64914,0.30753
445.15935,0.44230
443.66956,0.50362
442.17977,0.53967
440.68998,0.57575
439.20020,0.58295
437.71041,0.69981
436.22062,0.78840
434.73083,0.87702
433.24104,0.98194
431.75125,1.12424
430.26146,1.15814
428.77168,1.19207
427.28189,1.31279
425.79210,1.35401
424.30231,1.34708
422.81252,1.34018
421.32273,1.31283
419.83295,1.24817
418.34316,1.21125
416.85337,1.17436
415.36358,0.93991
413.87379,0.79466
412.38400,0.77654
410.89422,0.75846
409.40443,0.74101
407.91464,0.78384
406.42485,0.61103
404.93506,0.59730
403.44527,0.58360
401.95548,0.46752
400.46570,0.52135
398.97591,0.53907
397.48612,0.55682
395.99633,0.49027
394.50654,0.59002
393.01675,0.56209
391.52697,0.53419
390.03718,0.43885
388.54739,0.31825
387.05760,0.42117
385.56781,0.52413
384.07802,0.50724
382.58824,0.46026
381.09845,0.44644
379.60866,0.43266
378.11887,0.43518
376.62908,0.31122
375.13929,0.29152
373.64950,0.27184
372.15972,0.31304
370.66993,0.31452
369.18014,0.19796
367.69035,0.08143
366.20056,0.09023
364.71077,0.27135
363.22099,0.25492
361.73120,0.23852
360.24141,0.15468
358.75162,0.15521
357.26183,0.17265
355.77204,0.19011
354.28225,0.09074
352.79247,0.19623
351.30268,0.19271
349.81289,0.18922
348.32310,0.13456
346.83331,0.04740
345.34352,0.10484
343.85374,0.16230
342.36395,0.21860
340.87416,0.14240
339.38437,0.16864
337.89458,0.19492
336.40479,0.21038
334.91501,0.16081
333.42522,0.13899
331.93543,0.11721
330.44564,0.13039
328.95585,0.20867
327.46606,0.16951
325.97627,0.13038
324.48649,0.07502
322.99670,0.12351
321.50691,0.16058
320.01712,0.19769
318.52733,0.16917
317.03754,0.23103
315.54776,0.20679
314.05797,0.18258
312.56818,0.00480
311.07839,0.10046
309.58860,0.09676
308.09881,0.09309
306.60902,0.10211
305.11924,0.17381
303.62945,0.11060
302.13966,0.04743
300.64987,0.01441
299.16008,0.00480
