1778.52000,0.02504
1777.03021,0.02889
1775.54042,0.02382
1774.05063,0.00237
1772.56085,0.03018
1771.07106,0.02072
1769.58127,0.02397
1768.09148,0.01234
1766.60169,0.02983
1765.11190,0.02422
1763.62212,0.02386
1762.13233,0.01832
1760.64254,0.02623
1759.15275,0.04312
1757.66296,0.03020
1756.17317,0.02627
1754.68339,0.03131
1753.19360,0.04609
1751.70381,0.01987
1750.21402,0.01158
1748.72423,0.02407
1747.23444,0.02018
1745.74465,0.03348
1744.25487,0.03189
1742.76508,0.03928
1741.27529,0.03179
1739.78550,0.02955
1738.29571,0.04299
1736.80592,0.03932
1735.31614,0.02299
1733.82635,0.03952
1732.33656,0.03966
1730.84677,0.01000
1729.35698,0.02288
1727.86719,0.03356
1726.37740,0.03084
1724.88762,0.00652
1723.39783,0.00237
1721.90804,0.02083
1720.41825,0.01619
1718.92846,0.01084
1717.43867,0.03237
1715.94889,0.03305
1714.45910,0.02704
1712.96931,0.03747
1711.47952,0.03824
1709.98973,0.06738
1708.49994,0.04807
1707.01016,0.07839
1705.52037,0.10873
1704.03058,0.09100
1702.54079,0.10388
1701.05100,0.10337
1699.56121,0.13048
1698.07142,0.13748
1696.58164,0.11394
1695.09185,0.13890
1693.60206,0.15495
1692.11227,0.12851
1690.62248,0.17967
1689.13269,0.20475
1687.64291,0.19705
1686.15312,0.18192
1684.66333,0.19964
1683.17354,0.20321
1681.68375,0.20682
1680.19396,0.16645
1678.70417,0.18802
1677.21439,0.18351
1675.72460,0.20141
1674.23481,0.17384
1672.74502,0.18881
1671.25523,0.18144
1669.76544,0.18678
1668.27566,0.19961
1666.78587,0.17815
1665.29608,0.15450
1663.80629,0.19128
1662.31650,0.18036
1660.82671,0.15530
1659.33693,0.16458
1657.84714,0.14927
1656.35735,0.13176
1654.86756,0.16127
1653.37777,0.15650
1651.88798,0.12938
1650.39819,0.11721
1648.90841,0.14609
1647.41862,0.12876
1645.92883,0.13644
1644.43904,0.14416
1642.94925,0.12990
1641.45946,0.13059
1639.96968,0.15517
1638.47989,0.13728
1636.99010,0.15446
1635.50031,0.12917
1634.01052,0.08004
1632.52073,0.14430
1631.03094,0.11761
1629.54116,0.16180
1628.05137,0.16574
1626.56158,0.16673
1625.07179,0.17073
1623.58200,0.19789
1622.09221,0.22283
1620.60243,0.16353
1619.11264,0.17362
1617.62285,0.18374
1616.13306,0.17674
1614.64327,0.19662
1613.15348,0.16432
1611.66370,0.16635
1610.17391,0.17513
1608.68412,0.18469
1607.19433,0.15922
1605.70454,0.16287
1604.21475,0.16543
1602.72496,0.16802
1601.23518,0.15535
1599.74539,0.15912
1598.25560,0.12712
1596.76581,0.10484
1595.27602,0.13406
1593.78623,0.09842
1592.29645,0.10234
1590.80666,0.10107
1589.31687,0.09536
1587.82708,0.10682
1586.33729,0.10490
1584.84750,0.10598
1583.35771,0.08249
1581.86793,0.05529
1580.37814,0.07288
1578.88835,0.05171
1577.39856,0.08502
1575.90877,0.04601
1574.41898,0.05775
1572.92920,0.04565
1571.43941,0.03732
1569.94962,0.03609
1568.45983,0.03490
1566.97004,0.05649
1565.48025,0.05871
1563.99047,0.03710
1562.50068,0.04908
1561.01089,0.06332
1559.52110,0.03807
1558.03131,0.06431
1556.54152,0.03688
1555.05173,0.06915
1553.56195,0.06565
1552.07216,0.06069
1550.58237,0.01697
1549.09258,0.00237
1547.60279,0.04265
1546.11300,0.07924
1544.62322,0.07483
1543.13343,0.06001
1541.64364,0.04149
1540.15385,0.04128
1538.66406,0.04110
1537.17427,0.05176
1535.68448,0.03485
1534.19470,0.01126
1532.70491,0.03618
1531.21512,0.03801
1529.72533,0.00781
1528.23554,0.00000
1526.74575,0.02652
1525.25597,0.03368
1523.76618,0.03490
1522.27639,0.01825
1520.78660,0.01356
1519.29681,0.01636
1517.80702,0.02740
1516.31724,0.04891
1514.82745,0.00481
1513.33766,0.01279
1511.84787,0.02081
1510.35808,0.00237
1508.86829,0.01090
1507.37850,0.03066
1505.88872,0.03104
1504.39893,0.03221
1502.90914,0.03266
1501.41935,0.01002
1499.92956,0.06796
1498.43977,0.03643
1496.94999,0.08771
1495.46020,0.12486
1493.97041,0.15830
1492.48062,0.20222
1490.99083,0.23349
1489.50104,0.30134
1488.01125,0.34385
1486.52147,0.38640
1485.03168,0.47895
1483.54189,0.53946
1482.05210,0.59403
1480.56231,0.68666
1479.07252,0.81215
1477.58274,0.85861
1476.09295,0.99907
1474.60316,1.06348
1473.11337,1.12942
1471.62358,1.15735
1470.13379,1.10700
1468.64401,1.10218
1467.15422,1.02578
1465.66443,0.99044
1464.17464,0.95513
1462.68485,0.97802
1461.19506,0.90025
1459.70527,0.89859
1458.21549,0.80000
1456.72570,0.73351
1455.23591,0.64393
1453.74612,0.64314
1452.25633,0.62447
1450.76654,0.52827
1449.27676,0.52235
1447.78697,0.51422
1446.29718,0.49493
1444.80739,0.44621
1443.31760,0.39752
1441.82781,0.36265
1440.33802,0.30395
1438.84824,0.23559
1437.35845,0.25601
1435.86866,0.20635
1434.37887,0.20968
1432.88908,0.20408
1431.39929,0.19926
1429.90951,0.23848
1428.41972,0.19494
1426.92993,0.26405
1425.44014,0.26830
1423.95035,0.27072
1422.46056,0.27316
1420.97078,0.26408
1419.48099,0.30425
1417.99120,0.30567
1416.50141,0.28549
1415.01162,0.26236
1413.52183,0.31160
1412.03204,0.32507
1410.54226,0.30278
1409.05247,0.33048
1407.56268,0.36716
1406.07289,0.34794
1404.58310,0.35970
1403.09331,0.37149
1401.60353,0.36429
1400.11374,0.34742
1398.62395,0.45066
1397.13416,0.43087
1395.64437,0.47302
1394.15458,0.53160
1392.66479,0.52235
1391.17501,0.54295
1389.68522,0.53898
1388.19543,0.53354
1386.70564,0.52179
1385.21585,0.51007
1383.72606,0.53605
1382.23628,0.51955
1380.74649,0.50904
1379.25670,0.49931
1377.76691,0.50154
1376.27712,0.51499
1374.78733,0.62020
1373.29755,0.69785
1371.80776,0.76435
1370.31797,0.93156
1368.82818,1.01564
1367.33839,1.09975
1365.84860,1.23199
1364.35881,1.41946
1362.86903,1.62933
1361.37924,1.70499
1359.88945,1.80156
1358.39966,1.87727
1356.90987,2.00000
1355.42008,1.80802
1353.93030,1.72795
1352.44051,1.68296
1350.95072,1.63800
1349.46093,1.50282
1347.97114,1.39005
1346.48135,1.31237
1344.99156,1.16162
1343.50178,0.99673
1342.01199,0.86320
1340.52220,0.73119
1339.03241,0.74688
1337.54262,0.68131
1336.05283,0.64634
1334.56305,0.61141
1333.07326,0.59814
1331.58347,0.55282
1330.09368,0.51425
1328.60389,0.50330
1327.11410,0.42675
1325.62432,0.46733
1324.13453,0.38786
1322.64474,0.41209
1321.15495,0.37220
1319.66516,0.33943
1318.17537,0.30670
1316.68558,0.29972
1315.19580,0.36363
1313.70601,0.33807
1312.21622,0.29985
1310.72643,0.32283
1309.23664,0.30482
1307.74685,0.29951
1306.25707,0.28977
1304.76728,0.28601
1303.27749,0.28229
1301.78770,0.27860
1300.29791,0.25182
1298.80812,0.27727
1297.31834,0.28560
1295.82855,0.28949
1294.33876,0.30459
1292.84897,0.24067
1291.35918,0.29611
1289.86939,0.28744
1288.37960,0.27879
1286.88982,0.28286
1285.40003,0.35334
1283.91024,0.32987
1282.42045,0.35640
1280.93066,0.33672
1279.44087,0.36406
1277.95109,0.38397
1276.46130,0.35767
1274.97151,0.36458
1273.48172,0.37153
1271.99193,0.34980
1270.50214,0.39298
1269.01235,0.40039
1267.52257,0.43617
1266.03278,0.45110
1264.54299,0.47054
1263.05320,0.53475
1261.56341,0.53038
1260.07362,0.52604
1258.58384,0.53515
1257.09405,0.49805
1255.60426,0.49828
1254.11447,0.51420
1252.62468,0.54133
1251.13489,0.54015
1249.64511,0.50917
1248.15532,0.45435
1246.66553,0.40180
1245.17574,0.34929
1243.68595,0.39301
1242.19616,0.35994
1240.70637,0.30602
1239.21659,0.26779
1237.72680,0.28180
1236.23701,0.22872
1234.74722,0.21370
1233.25743,0.20804
1231.76764,0.20240
1230.27786,0.19568
1228.78807,0.19122
1227.29828,0.22931
1225.80849,0.13542
1224.31870,0.15566
1222.82891,0.15580
1221.33912,0.11794
1219.84934,0.14312
1218.35955,0.16834
1216.86976,0.13876
1215.37997,0.17336
1213.89018,0.19680
1212.40039,0.13152
1210.91061,0.13041
1209.42082,0.11367
1207.93103,0.13276
1206.44124,0.15187
1204.95145,0.10613
1203.46166,0.07161
1201.97188,0.07142
1200.48209,0.06307
1198.99230,0.10545
1197.50251,0.00915
1196.01272,0.00237
1194.52293,0.03427
1193.03314,0.06620
1191.54336,0.01984
1190.05357,0.04810
1188.56378,0.03015
1187.07399,0.01297
1185.58420,0.02715
1184.09441,0.01749
1182.60463,0.02800
1181.11484,0.03854
1179.62505,0.03047
1178.13526,0.00527
1176.64547,0.01888
1175.15568,0.03849
1173.66589,0.08498
1172.17611,0.01366
1170.68632,0.00800
1169.19653,0.00237
1167.70674,0.00934
1166.21695,0.03723
1164.72716,0.05172
1163.23738,0.04685
1161.74759,0.02933
1160.25780,0.02526
1158.76801,0.03503
1157.27822,0.04482
1155.78843,0.01325
1154.29865,0.02795
1152.80886,0.04939
1151.31907,0.02612
1149.82928,0.09386
1148.33949,0.08258
1146.84970,0.07058
1145.35991,0.05861
1143.87013,0.07427
1142.38034,0.09443
1140.89055,0.13402
1139.40076,0.13709
1137.91097,0.15585
1136.42118,0.18284
1134.93140,0.20390
1133.44161,0.22499
1131.95182,0.21479
1130.46203,0.23071
1128.97224,0.25711
1127.48245,0.29846
1125.99266,0.35475
1124.50288,0.35589
1123.01309,0.34810
1121.52330,0.34034
1120.03351,0.40048
1118.54372,0.40248
1117.05393,0.44851
1115.56415,0.44312
1114.07436,0.44073
1112.58457,0.46000
1111.09478,0.47930
1109.60499,0.48297
1108.11520,0.55231
1106.62542,0.56499
1105.13563,0.61499
1103.64584,0.67397
1102.15605,0.73895
1100.66626,0.77972
1099.17647,0.82052
1097.68668,0.85949
1096.19690,0.85746
1094.70711,0.89574
1093.21732,0.97880
1091.72753,0.95897
1090.23774,0.98801
1088.74795,1.01709
1087.25817,1.03538
1085.76838,1.07683
1084.27859,1.11532
1082.78880,1.17099
1081.29901,1.19090
1079.80922,1.16981
1078.31943,1.21625
1076.82965,1.26272
1075.33986,1.32974
1073.85007,1.36322
1072.36028,1.37286
1070.87049,1.38999
1069.38070,1.47502
1067.89092,1.46164
1066.40113,1.44828
1064.91134,1.44017
1063.42155,1.28144
1061.93176,1.19285
1060.44197,1.19229
1058.95219,1.10599
1057.46240,1.03203
1055.97261,0.95810
1054.48282,0.95766
1052.99303,0.89386
1051.50324,0.79653
1050.01345,0.69922
1048.52367,0.70935
1047.03388,0.69489
1045.54409,0.68046
1044.05430,0.58477
1042.56451,0.51223
1041.07472,0.49715
1039.58494,0.42616
1038.09515,0.40293
1036.60536,0.40696
1035.11557,0.41101
1033.62578,0.34387
1032.13599,0.33046
1030.64620,0.32902
1029.15642,0.35743
1027.66663,0.35679
1026.17684,0.35618
1024.68705,0.42347
1023.19726,0.54896
1021.70747,0.65659
1020.21769,0.81943
1018.72790,1.00618
1017.23811,1.06541
1015.74832,1.12468
1014.25853,1.36968
1012.76874,1.53790
1011.27896,1.75015
1009.78917,1.80879
1008.29938,1.97561
1006.80959,1.88589
1005.31980,1.79620
1003.83001,1.72519
1002.34022,1.60498
1000.85044,1.50643
999.36065,1.35048
997.87086,1.30010
996.38107,1.24975
994.89128,1.26319
993.40149,1.24833
991.91171,1.25512
990.42192,1.16275
988.93213,1.15618
987.44234,1.15001
985.95255,1.14387
984.46276,1.08966
982.97297,1.05039
981.48319,1.05591
979.99340,0.89737
978.50361,0.91972
977.01382,0.94210
975.52403,0.92685
974.03424,0.77515
972.54446,0.75250
971.05467,0.71869
969.56488,0.68268
968.07509,0.65714
966.58530,0.63163
965.09551,0.65015
963.60573,0.62470
962.11594,0.62986
960.62615,0.55822
959.13636,0.55300
957.64657,0.54781
956.15678,0.52101
954.66699,0.44428
953.17721,0.45559
951.68742,0.46319
950.19763,0.44995
948.70784,0.43673
947.21805,0.43995
945.72826,0.44544
944.23848,0.47408
942.74869,0.50051
941.25890,0.55681
939.76911,0.57174
938.27932,0.58670
936.78953,0.64682
935.29974,0.64282
933.80996,0.68808
932.32017,0.63268
930.83038,0.67651
929.34059,0.72036
927.85080,0.69862
926.36101,0.68212
924.87123,0.65596
923.38144,0.66713
921.89165,0.67086
920.40186,0.67462
918.91207,0.70303
917.42228,0.72922
915.93250,0.65999
914.44271,0.70191
912.95292,0.75467
911.46313,0.80747
909.97334,0.73910
908.48355,0.83409
906.99376,0.80232
905.50398,0.80639
904.01419,0.76238
902.52440,0.71839
901.03461,0.87768
899.54482,0.81549
898.05503,0.82716
896.56525,0.86124
895.07546,0.89273
893.58567,0.92426
892.09588,0.89503
890.60609,0.92177
889.11630,0.87545
887.62651,0.91046
886.13673,0.92871
884.64694,0.94699
883.15715,0.94107
881.66736,0.88595
880.17757,0.94497
878.68778,0.93130
877.19800,0.91766
875.70821,0.86266
874.21842,0.95835
872.72863,0.93100
871.23884,0.99990
869.74905,1.00506
868.25927,1.01025
866.76948,0.94275
865.27969,0.95210
863.78990,1.01891
862.30011,0.97761
860.81032,0.98817
859.32053,0.99876
857.83075,1.01050
856.34096,0.95514
854.85117,0.91548
853.36138,0.78635
851.87159,0.74674
850.38180,0.70717
848.89202,0.61617
847.40223,0.49834
845.91244,0.43798
844.42265,0.41158
842.93286,0.38521
841.44307,0.31971
839.95329,0.30869
838.46350,0.25444
836.97371,0.33522
835.48392,0.30527
833.99413,0.27535
832.50434,0.29432
831.01455,0.35135
829.52477,0.33308
828.03498,0.25443
826.54519,0.22690
825.05540,0.19940
823.56561,0.22675
822.07582,0.20639
820.58604,0.16667
819.09625,0.13631
817.60646,0.10598
816.11667,0.08798
814.62688,0.05957
813.13709,0.07520
811.64730,0.01702
810.15752,0.04202
808.66773,0.06706
807.17794,0.02612
805.68815,0.00237
804.19836,0.03645
802.70857,0.04223
801.21879,0.04803
799.72900,0.07101
798.23921,0.14624
796.74942,0.30875
795.25963,0.33481
793.76984,0.36090
792.28006,0.40865
790.79027,0.40646
789.30048,0.54600
787.81069,0.59906
786.32090,0.62455
784.83111,0.65008
783.34132,0.68682
781.85154,0.67660
780.36175,0.65225
778.87196,0.67416
777.38217,0.69611
775.89238,0.76209
774.40259,0.80498
772.91281,0.78375
771.42302,0.79873
769.93323,0.81374
768.44344,0.80604
766.95365,0.81253
765.46386,0.85933
763.97407,0.77564
762.48429,0.72032
760.99450,0.66503
759.50471,0.63662
758.01492,0.50084
756.52513,0.40462
755.03534,0.36101
753.54556,0.31743
752.05577,0.24218
750.56598,0.15503
749.07619,0.12534
747.58640,0.12029
746.09661,0.11527
744.60683,0.08269
743.11704,0.07326
741.62725,0.05490
740.13746,0.06007
738.64767,0.06527
737.15788,0.04030
735.66809,0.03698
734.17831,0.00237
732.68852,0.02515
731.19873,0.04796
729.70894,0.03985
728.21915,0.03923
726.72936,0.01328
725.23958,0.04204
723.74979,0.05890
722.26000,0.07578
720.77021,0.02781
719.28042,0.06489
717.79063,0.06919
716.30084,0.03660
714.81106,0.00404
713.32127,0.02259
711.83148,0.05983
710.34169,0.00237
708.85190,0.01786
707.36211,0.03337
705.87233,0.03549
704.38254,0.04869
702.89275,0.03357
701.40296,0.04123
699.91317,0.04893
698.42338,0.08685
696.93360,0.11586
695.44381,0.12476
693.95402,0.13519
692.46423,0.14564
690.97444,0.13151
689.48465,0.17558
687.99486,0.16301
686.50508,0.19297
685.01529,0.22296
683.52550,0.22763
682.03571,0.26291
680.54592,0.22661
679.05613,0.19296
677.56635,0.15934
676.07656,0.17459
674.58677,0.12649
673.09698,0.10899
671.60719,0.10830
670.11740,0.10765
668.62761,0.05892
667.13783,0.11985
665.64804,0.08609
664.15825,0.05237
662.66846,0.07312
661.17867,0.04169
659.68888,0.04013
658.19910,0.04978
656.70931,0.05946
655.21952,0.11020
653.72973,0.11248
652.23994,0.12897
650.75015,0.12162
649.26037,0.11430
647.77058,0.11894
646.28079,0.06693
644.79100,0.02987
643.30121,0.02901
641.81142,0.02818
640.32163,0.03968
638.83185,0.01616
637.34206,0.00237
635.85227,0.00546
634.36248,0.00858
632.87269,0.00911
631.38290,0.03728
629.89312,0.02743
628.40333,0.03477
626.91354,0.04214
625.42375,0.06073
623.93396,0.07785
622.44417,0.07972
620.95438,0.08162
619.46460,0.06900
617.97481,0.01688
616.48502,0.08264
614.99523,0.07011
613.50544,0.05762
612.01565,0.09810
610.52587,0.05360
609.03608,0.06133
607.54629,0.08699
606.05650,0.11268
604.56671,0.15630
603.07692,0.10523
601.58714,0.11945
600.09735,0.13370
598.60756,0.09690
597.11777,0.08100
595.62798,0.00249
594.13819,0.02208
592.64840,0.04170
591.15862,0.03488
589.66883,0.03703
588.17904,0.03698
586.68925,0.03808
585.19946,0.03920
583.70967,0.09369
582.21989,0.05274
580.73010,0.07334
579.24031,0.09398
577.75052,0.09041
576.26073,0.07121
574.77094,0.06173
573.28115,0.07541
571.79137,0.08911
570.30158,0.13566
568.81179,0.18373
567.32200,0.18560
565.83221,0.18749
564.34242,0.21551
562.85264,0.27191
561.36285,0.31715
559.87306,0.32214
558.38327,0.32717
556.89348,0.43515
555.40369,0.39996
553.91391,0.40880
552.42412,0.41768
550.93433,0.45940
549.44454,0.47505
547.95475,0.47655
546.46496,0.47585
544.97517,0.47518
543.48539,0.57597
541.99560,0.63876
540.50581,0.64936
539.01602,0.66000
537.52623,0.58639
536.03644,0.65079
534.54666,0.58096
533.05687,0.58016
531.56708,0.57939
530.07729,0.56410
528.58750,0.56525
527.09771,0.53325
525.60792,0.50127
524.11814,0.52041
522.62835,0.53362
521.13856,0.48122
519.64877,0.46726
518.15898,0.45333
516.66919,0.41893
515.17941,0.37858
513.68962,0.39831
512.19983,0.41806
510.71004,0.32336
509.22025,0.33535
507.73046,0.44880
506.24068,0.42430
504.75089,0.39982
503.26110,0.42386
501.77131,0.41139
500.28152,0.37731
498.79173,0.34326
497.30194,0.37488
495.81216,0.37669
494.32237,0.40539
492.83258,0.43411
491.34279,0.39798
489.85300,0.45510
488.36321,0.30641
486.87343,0.29312
485.38364,0.27985
483.89385,0.28191
482.40406,0.25117
480.91427,0.22010
479.42448,0.18905
477.93469,0.14051
476.44491,0.10319
474.95512,0.08864
473.46533,0.07413
471.97554,0.03391
470.48575,0.08248
468.99596,0.04829
467.50618,0.02531
466.01639,0.00237
464.52660,0.07453
463.03681,0.06767
461.54702,0.08284
460.05723,0.09804
458.56745,0.04055
457.07766,0.09645
455.58787,0.10391
454.09808,0.11140
452.60829,0.11518
451.11850,0.14884
449.62871,0.16760
448.13893,0.18639
446.64914,0.21119
445.15935,0.28076
443.66956,0.39586
442.17977,0.42521
440.68998,0.45460
439.20020,0.49893
437.71041,0.54031
436.22062,0.63319
434.73083,0.72609
433.24104,0.84214
431.75125,0.91646
430.26146,0.94867
428.77168,0.98091
427.28189,1.02623
425.79210,1.13572
424.30231,1.13448
422.81252,1.13328
421.32273,1.07281
419.83295,1.01834
418.34316,0.92922
416.85337,0.84013
415.36358,0.73429
413.87379,0.68665
412.38400,0.65918
410.89422,0.63174
409.40443,0.53646
407.91464,0.55532
406.42485,0.50485
404.93506,0.48685
403.44527,0.46889
401.95548,0.46624
400.46570,0.42186
398.97591,0.41703
397.48612,0.41224
395.99633,0.46565
394.50654,0.55713
393.01675,0.51699
391.52697,0.47689
390.03718,0.42974
388.54739,0.36919
387.05760,0.40339
385.56781,0.43762
384.07802,0.48157
382.58824,0.37788
381.09845,0.36857
379.60866,0.35929
378.11887,0.34668
376.62908,0.26101
375.13929,0.24586
373.64950,0.23073
372.15972,0.23465
370.66993,0.17670
369.18014,0.16390
367.69035,0.15113
366.20056,0.13280
364.71077,0.07795
363.22099,0.08988
361.73120,0.10184
360.24141,0.12241
358.75162,0.15942
357.26183,0.12188
355.77204,0.08436
354.28225,0.10953
352.79247,0.11086
351.30268,0.08574
349.81289,0.06065
348.32310,0.09191
346.83331,0.01803
345.34352,0.01018
343.85374,0.00237
342.36395,0.11917
340.87416,0.12339
339.38437,0.11943
337.89458,0.11550
336.40479,0.09742
334.91501,0.09505
333.42522,0.07069
331.93543,0.04637
330.44564,0.04931
328.95585,0.04332
327.46606,0.02655
325.97627,0.00980
324.48649,0.06127
322.99670,0.02700
321.50691,0.04123
320.01712,0.05550
318.52733,0.09515
317.03754,0.11097
315.54776,0.08990
314.05797,0.06886
312.56818,0.06015
311.07839,0.00598
309.58860,0.01636
308.09881,0.02676
306.60902,0.02862
305.11924,0.08868
303.62945,0.05704
302.13966,0.02542
300.64987,0.00237
299.16008,0.00237
