1778.52000,0.07559
1777.03021,0.08258
1775.54042,0.01573
1774.05063,0.06625
1772.56085,0.00598
1771.07106,0.07504
1769.58127,0.08872
1768.09148,0.05137
1766.60169,0.00863
1765.11190,0.04522
1763.62212,0.04709
1762.13233,0.08050
1760.64254,0.05310
1759.15275,0.04637
1757.66296,0.03968
1756.17317,0.01021
1754.68339,0.07746
1753.19360,0.03394
1751.70381,0.04477
1750.21402,0.03173
1748.72423,0.07413
1747.23444,0.06659
1745.74465,0.03410
1744.25487,0.07877
1742.76508,0.07785
1741.27529,0.11608
1739.78550,0.07177
1738.29571,0.05140
1736.80592,0.03214
1735.31614,0.07159
1733.82635,0.06653
1732.33656,0.07997
1730.84677,0.07281
1729.35698,0.07871
1727.86719,0.07705
1726.37740,0.03413
1724.88762,0.00863
1723.39783,0.09150
1721.90804,0.07554
1720.41825,0.11503
1718.92846,0.06871
1717.43867,0.06698
1715.94889,0.06963
1714.45910,0.04949
1712.96931,0.08589
1711.47952,0.12666
1709.98973,0.10445
1708.49994,0.10510
1707.01016,0.10251
1705.52037,0.09996
1704.03058,0.16916
1702.54079,0.16776
1701.05100,0.18161
1699.56121,0.18354
1698.07142,0.20398
1696.58164,0.21250
1695.09185,0.24604
1693.60206,0.24920
1692.11227,0.26325
1690.62248,0.21541
1689.13269,0.25560
1687.64291,0.29909
1686.15312,0.30894
1684.66333,0.26666
1683.17354,0.22442
1681.68375,0.25718
1680.19396,0.29215
1678.70417,0.33693
1677.21439,0.31438
1675.72460,0.29947
1674.23481,0.25201
1672.74502,0.26759
1671.25523,0.30819
1669.76544,0.24018
1668.27566,0.31670
1666.78587,0.24876
1665.29608,0.25256
1663.80629,0.25531
1662.31650,0.24614
1660.82671,0.19897
1659.33693,0.23876
1657.84714,0.24490
1656.35735,0.23587
1654.86756,0.17689
1653.37777,0.21355
1651.88798,0.23286
1650.39819,0.18159
1648.90841,0.20967
1647.41862,0.23560
1645.92883,0.21920
1644.43904,0.20283
1642.94925,0.20170
1641.45946,0.19735
1639.96968,0.20281
1638.47989,0.17898
1636.99010,0.20080
1635.50031,0.17594
1634.01052,0.19892
1632.52073,0.16544
1631.03094,0.12548
1629.54116,0.20723
1628.05137,0.21948
1626.56158,0.22633
1625.07179,0.27994
1623.58200,0.25535
1622.09221,0.28512
1620.60243,0.26929
1619.11264,0.26002
1617.62285,0.27142
1616.13306,0.22636
1614.64327,0.22153
1613.15348,0.22000
1611.66370,0.23588
1610.17391,0.25397
1608.68412,0.25037
1607.19433,0.24028
1605.70454,0.19002
1604.21475,0.18435
1602.72496,0.17871
1601.23518,0.21982
1599.74539,0.21967
1598.25560,0.16741
1596.76581,0.16299
1595.27602,0.15861
1593.78623,0.13035
1592.29645,0.09561
1590.80666,0.10111
1589.31687,0.12510
1587.82708,0.12523
1586.33729,0.11236
1584.84750,0.09517
1583.35771,0.12800
1581.86793,0.05873
1580.37814,0.08619
1578.88835,0.10499
1577.39856,0.09232
1575.90877,0.07099
1574.41898,0.07686
1572.92920,0.04582
1571.43941,0.03002
1569.94962,0.04468
1568.45983,0.05938
1566.97004,0.10127
1565.48025,0.05518
1563.99047,0.07433
1562.50068,0.12501
1561.01089,0.06491
1559.52110,0.09827
1558.03131,0.09691
1556.54152,0.11187
1555.05173,0.09210
1553.56195,0.07889
1552.07216,0.09287
1550.58237,0.09710
1549.09258,0.05900
1547.60279,0.08612
1546.11300,0.09915
1544.62322,0.13612
1543.13343,0.10575
1541.64364,0.10150
1540.15385,0.07664
1538.66406,0.05181
1537.17427,0.05418
1535.68448,0.04572
1534.19470,0.08509
1532.70491,0.03650
1531.21512,0.07920
1529.72533,0.02307
1528.23554,0.02564
1526.74575,-0.00000
1525.25597,0.04867
1523.76618,0.06153
1522.27639,0.02443
1520.78660,0.02866
1519.29681,0.02315
1517.80702,0.02853
1516.31724,0.08936
1514.82745,0.05027
1513.33766,0.02968
1511.84787,0.00912
1510.35808,0.06264
1508.86829,0.00863
1507.37850,0.02631
1505.88872,0.05381
1504.39893,0.07917
1502.90914,0.08067
1501.41935,0.05068
1499.92956,0.07615
1498.43977,0.09295
1496.94999,0.11522
1495.46020,0.12666
1493.97041,0.21093
1492.48062,0.27133
1490.99083,0.32742
1489.50104,0.43569
1488.01125,0.46522
1486.52147,0.49479
1485.03168,0.57600
1483.54189,0.60944
1482.05210,0.75048
1480.56231,0.86656
1479.07252,1.00331
1477.58274,1.12489
1476.09295,1.27801
1474.60316,1.38554
1473.11337,1.33013
1471.62358,1.39969
1470.13379,1.36716
1468.64401,1.37269
1467.15422,1.32720
1465.66443,1.29422
1464.17464,1.26129
1462.68485,1.16809
1461.19506,1.12816
1459.70527,1.18061
1458.21549,1.00385
1456.72570,0.94990
1455.23591,0.90576
1453.74612,0.85079
1452.25633,0.76543
1450.76654,0.75398
1449.27676,0.75670
1447.78697,0.69317
1446.29718,0.69269
1444.80739,0.63521
1443.31760,0.57775
1441.82781,0.49155
1440.33802,0.39885
1438.84824,0.41919
1437.35845,0.33417
1435.86866,0.31872
1434.37887,0.34458
1432.88908,0.32485
1431.39929,0.26170
1429.90951,0.28224
1428.41972,0.27673
1426.92993,0.31146
1425.44014,0.35383
1423.95035,0.37287
1422.46056,0.39195
1420.97078,0.40834
1419.48099,0.40413
1417.99120,0.36518
1416.50141,0.37516
1415.01162,0.38625
1413.52183,0.42020
1412.03204,0.35857
1410.54226,0.37412
1409.05247,0.41143
1407.56268,0.37163
1406.07289,0.35468
1404.58310,0.35678
1403.09331,0.35892
1401.60353,0.30948
1400.11374,0.38936
1398.62395,0.40518
1397.13416,0.43841
1395.64437,0.43691
1394.15458,0.41915
1392.66479,0.51767
1391.17501,0.46956
1389.68522,0.50839
1388.19543,0.50272
1386.70564,0.47209
1385.21585,0.44149
1383.72606,0.43374
1382.23628,0.41299
1380.74649,0.40097
1379.25670,0.42483
1377.76691,0.35529
1376.27712,0.48569
1374.78733,0.50748
1373.29755,0.53365
1371.80776,0.59680
1370.31797,0.65346
1368.82818,0.72319
1367.33839,0.79295
1365.84860,0.97357
1364.35881,1.05753
1362.86903,1.17628
1361.37924,1.26466
1359.88945,1.39978
1358.39966,1.40999
1356.90987,1.49412
1355.42008,1.46202
1353.93030,1.43866
1352.44051,1.40392
1350.95072,1.36921
1349.46093,1.38832
1347.97114,1.23580
1346.48135,1.03986
1344.99156,1.00040
1343.50178,0.94142
1342.01199,0.80642
1340.52220,0.71599
1339.03241,0.71904
1337.54262,0.62326
1336.05283,0.64484
1334.56305,0.66646
1333.07326,0.57838
1331.58347,0.48164
1330.09368,0.48164
1328.60389,0.45233
1327.11410,0.48716
1325.62432,0.37208
1324.13453,0.43414
1322.64474,0.46581
1321.15495,0.48773
1319.66516,0.45320
1318.17537,0.41869
1316.68558,0.42225
1315.19580,0.50841
1313.70601,0.39144
1312.21622,0.36142
1310.72643,0.35859
1309.23664,0.33515
1307.74685,0.33565
1306.25707,0.37965
1304.76728,0.34545
1303.27749,0.31128
1301.78770,0.31518
1300.29791,0.33649
1298.80812,0.39369
1297.31834,0.30317
1295.82855,0.34197
1294.33876,0.38623
1292.84897,0.40880
1291.35918,0.34992
1289.86939,0.36060
1288.37960,0.37132
1286.88982,0.37012
1285.40003,0.44393
1283.91024,0.44823
1282.42045,0.43627
1280.93066,0.44607
1279.44087,0.47872
1277.95109,0.43753
1276.46130,0.46916
1274.97151,0.45628
1273.48172,0.44344
1271.99193,0.56209
1270.50214,0.50694
1269.01235,0.55939
1267.52257,0.56624
1266.03278,0.59268
1264.54299,0.63001
1263.05320,0.63153
1261.56341,0.63308
1260.07362,0.63467
1258.58384,0.66562
1257.09405,0.68466
1255.60426,0.73958
1254.11447,0.68589
1252.62468,0.73110
1251.13489,0.64054
1249.64511,0.61846
1248.15532,0.50950
1246.66553,0.48206
1245.17574,0.45465
1243.68595,0.43379
1242.19616,0.43035
1240.70637,0.46605
1239.21659,0.40075
1237.72680,0.33223
1236.23701,0.29633
1234.74722,0.26372
1233.25743,0.25397
1231.76764,0.24425
1230.27786,0.23782
1228.78807,0.24772
1227.29828,0.24353
1225.80849,0.17310
1224.31870,0.17224
1222.82891,0.14969
1221.33912,0.14455
1219.84934,0.15465
1218.35955,0.16479
1216.86976,0.24015
1215.37997,0.20690
1213.89018,0.24539
1212.40039,0.20352
1210.91061,0.20296
1209.42082,0.15138
1207.93103,0.16882
1206.44124,0.18629
1204.95145,0.15002
1203.46166,0.03881
1201.97188,0.13189
1200.48209,0.08051
1198.99230,0.02590
1197.50251,0.04412
1196.01272,0.02000
1194.52293,0.04101
1193.03314,0.06205
1191.54336,0.01630
1190.05357,0.00427
1188.56378,0.05145
1187.07399,0.03349
1185.58420,0.01012
1184.09441,0.02373
1182.60463,0.03683
1181.11484,0.04996
1179.62505,0.05498
1178.13526,0.07090
1176.64547,0.00863
1175.15568,0.02672
1173.66589,0.03833
1172.17611,0.03802
1170.68632,0.03177
1169.19653,0.02555
1167.70674,0.02208
1166.21695,0.03169
1164.72716,0.05110
1163.23738,0.00863
1161.74759,0.05510
1160.25780,0.03316
1158.76801,0.05037
1157.27822,0.06761
1155.78843,0.09793
1154.29865,0.02506
1152.80886,0.02285
1151.31907,0.02393
1149.82928,0.11631
1148.33949,0.14462
1146.84970,0.11049
1145.35991,0.07640
1143.87013,0.05810
1142.38034,0.11696
1140.89055,0.18347
1139.40076,0.20438
1137.91097,0.25900
1136.42118,0.27889
1134.93140,0.28198
1133.44161,0.28509
1131.95182,0.36375
1130.46203,0.34467
1128.97224,0.39623
1127.48245,0.41198
1125.99266,0.42668
1124.50288,0.50985
1123.01309,0.50615
1121.52330,0.50247
1120.03351,0.53034
1118.54372,0.50066
1117.05393,0.54272
1115.56415,0.57178
1114.07436,0.57914
1112.58457,0.63760
1111.09478,0.69609
1109.60499,0.66009
1108.11520,0.65238
1106.62542,0.60776
1105.13563,0.73375
1103.64584,0.96625
1102.15605,0.99561
1100.66626,0.98426
1099.17647,0.97295
1097.68668,1.07086
1096.19690,1.11339
1094.70711,1.13314
1093.21732,1.22572
1091.72753,1.17275
1090.23774,1.19043
1088.74795,1.20815
1087.25817,1.29760
1085.76838,1.29909
1084.27859,1.36145
1082.78880,1.41950
1081.29901,1.46890
1079.80922,1.42489
1078.31943,1.43686
1076.82965,1.44887
1075.33986,1.60596
1073.85007,1.56969
1072.36028,1.56931
1070.87049,1.63741
1069.38070,1.67078
1067.89092,1.68408
1066.40113,1.69741
1064.91134,1.59942
1063.42155,1.52536
1061.93176,1.48285
1060.44197,1.40016
1058.95219,1.21865
1057.46240,1.21372
1055.97261,1.20882
1054.48282,1.18060
1052.99303,1.13068
1051.50324,1.02647
1050.01345,0.93642
1048.52367,0.83445
1047.03388,0.82487
1045.54409,0.81532
1044.05430,0.68304
1042.56451,0.70941
1041.07472,0.57610
1039.58494,0.56343
1038.09515,0.58773
1036.60536,0.55774
1035.11557,0.52778
1033.62578,0.41203
1032.13599,0.36259
1030.64620,0.45877
1029.15642,0.46263
1027.66663,0.44534
1026.17684,0.42808
1024.68705,0.51896
1023.19726,0.66419
1021.70747,0.71277
1020.21769,0.80049
1018.72790,1.02405
1017.23811,1.13194
1015.74832,1.23987
1014.25853,1.39400
1012.76874,1.62313
1011.27896,1.85338
1009.78917,1.86312
1008.29938,2.00000
1006.80959,1.94733
1005.31980,1.89469
1003.83001,1.72204
1002.34022,1.65480
1000.85044,1.53980
999.36065,1.46285
997.87086,1.38376
996.38107,1.30471
994.89128,1.47884
993.40149,1.49655
991.91171,1.36002
990.42192,1.50600
988.93213,1.41517
987.44234,1.44606
985.95255,1.47698
984.46276,1.39059
982.97297,1.34553
981.48319,1.37329
979.99340,1.30982
978.50361,1.28332
977.01382,1.25686
975.52403,1.28911
974.03424,1.24316
972.54446,1.21245
971.05467,1.17635
969.56488,1.08053
968.07509,1.05644
966.58530,1.03239
965.09551,0.96600
963.60573,1.03980
962.11594,0.96479
960.62615,0.93870
959.13636,0.88060
957.64657,0.82253
956.15678,0.75526
954.66699,0.76842
953.17721,0.79791
951.68742,0.73835
950.19763,0.76356
948.70784,0.78881
947.21805,0.73043
945.72826,0.68947
944.23848,0.76697
942.74869,0.83473
941.25890,0.76780
939.76911,0.87799
938.27932,0.98822
936.78953,1.04851
935.29974,0.90240
933.80996,0.92255
932.32017,0.94057
930.83038,0.95047
929.34059,0.96040
927.85080,0.95136
926.36101,0.95104
924.87123,0.88774
923.38144,0.91139
921.89165,0.95463
920.40186,0.99790
918.91207,1.01079
917.42228,1.04327
915.93250,0.97800
914.44271,1.04205
912.95292,1.02520
911.46313,1.00838
909.97334,1.03016
908.48355,1.00526
906.99376,1.04993
905.50398,1.05226
904.01419,1.03072
902.52440,1.00921
901.03461,1.03011
899.54482,1.12166
898.05503,1.12199
896.56525,1.19840
895.07546,1.21835
893.58567,1.23833
892.09588,1.09973
890.60609,1.20452
889.11630,1.11813
887.62651,1.04699
886.13673,1.05736
884.64694,1.06777
883.15715,1.09451
881.66736,1.15170
880.17757,1.10898
878.68778,1.09725
877.19800,1.08555
875.70821,1.04184
874.21842,1.09920
872.72863,1.16529
871.23884,1.18035
869.74905,1.21663
868.25927,1.25294
866.76948,1.23768
865.27969,1.20507
863.78990,1.26919
862.30011,1.28120
860.81032,1.25792
859.32053,1.23468
857.83075,1.20985
856.34096,1.16766
854.85117,1.09183
853.36138,1.06493
851.87159,0.94408
850.38180,0.82326
848.89202,0.74974
847.40223,0.58173
845.91244,0.54087
844.42265,0.52992
842.93286,0.51900
841.44307,0.46629
839.95329,0.41361
838.46350,0.36858
836.97371,0.35508
835.48392,0.38236
833.99413,0.40968
832.50434,0.44300
831.01455,0.40574
829.52477,0.45217
828.03498,0.37369
826.54519,0.36858
825.05540,0.36350
823.56561,0.27100
822.07582,0.24915
820.58604,0.22516
819.09625,0.20338
817.60646,0.18163
816.11667,0.08061
814.62688,0.10239
813.13709,0.06336
811.64730,0.11563
810.15752,0.08156
808.66773,0.04752
807.17794,0.00863
805.68815,0.05007
804.19836,0.12523
802.70857,0.13035
801.21879,0.13550
799.72900,0.15861
798.23921,0.25671
796.74942,0.39397
795.25963,0.43239
793.76984,0.47085
792.28006,0.45936
790.79027,0.55330
789.30048,0.65270
787.81069,0.74561
786.32090,0.73046
784.83111,0.71534
783.34132,0.73447
781.85154,0.77538
780.36175,0.76199
778.87196,0.74809
777.38217,0.73422
775.89238,0.86761
774.40259,0.90759
772.91281,0.90524
771.42302,0.95072
769.93323,0.99624
768.44344,0.93966
766.95365,0.95809
765.46386,0.94938
763.97407,0.92007
762.48429,0.86635
760.99450,0.81265
759.50471,0.66393
758.01492,0.64671
756.52513,0.56107
755.03534,0.48307
753.54556,0.40510
752.05577,0.24568
750.56598,0.23840
749.07619,0.15728
747.58640,0.14409
746.09661,0.13094
744.60683,0.12597
743.11704,0.03303
741.62725,0.09332
740.13746,0.07595
738.64767,0.05863
737.15788,0.07990
735.66809,0.02516
734.17831,0.06823
732.68852,0.06081
731.19873,0.05343
729.70894,0.05532
728.21915,0.09853
726.72936,0.10700
725.23958,0.12094
723.74979,0.08820
722.26000,0.05549
720.77021,0.08474
719.28042,0.12163
717.79063,0.00863
716.30084,0.02684
714.81106,0.04509
713.32127,0.02480
711.83148,0.08604
710.34169,0.06365
708.85190,0.06682
707.36211,0.07003
705.87233,0.09554
704.38254,0.08524
702.89275,0.09452
701.40296,0.07777
699.91317,0.06105
698.42338,0.09108
696.93360,0.13961
695.44381,0.17949
693.95402,0.20527
692.46423,0.23109
690.97444,0.19284
689.48465,0.20678
687.99486,0.22510
686.50508,0.21737
685.01529,0.20968
683.52550,0.21723
682.03571,0.24764
680.54592,0.28894
679.05613,0.22815
677.56635,0.16739
676.07656,0.21531
674.58677,0.19482
673.09698,0.20913
671.60719,0.18110
670.11740,0.15310
668.62761,0.04149
667.13783,0.10699
665.64804,0.08671
664.15825,0.06645
662.66846,0.06796
661.17867,0.06733
659.68888,0.12758
658.19910,0.06998
656.70931,0.01241
655.21952,0.15424
653.72973,0.15487
652.23994,0.18703
650.75015,0.17252
649.26037,0.15803
647.77058,0.20225
646.28079,0.11396
644.79100,0.08437
643.30121,0.09501
641.81142,0.10569
640.32163,0.08054
638.83185,0.05326
637.34206,0.00863
635.85227,0.03615
634.36248,0.06371
632.87269,0.04621
631.38290,0.06243
629.89312,0.06239
628.40333,0.05749
626.91354,0.05262
625.42375,0.06137
623.93396,0.10601
622.44417,0.10396
620.95438,0.10194
619.46460,0.09019
617.97481,0.10454
616.48502,0.07437
614.99523,0.11704
613.50544,0.15974
612.01565,0.11882
610.52587,0.13117
609.03608,0.10226
607.54629,0.11848
606.05650,0.13473
604.56671,0.20262
603.07692,0.15321
601.58714,0.15653
600.09735,0.15988
598.60756,0.13121
597.11777,0.07324
595.62798,0.12287
594.13819,0.11712
592.64840,0.11140
591.15862,0.09703
589.66883,0.10224
588.17904,0.00863
586.68925,0.06183
585.19946,0.11507
583.70967,0.15205
582.21989,0.07390
580.73010,0.12507
579.24031,0.17627
577.75052,0.17862
576.26073,0.15058
574.77094,0.13127
573.28115,0.17446
571.79137,0.21768
570.30158,0.30060
568.81179,0.34878
567.32200,0.32855
565.83221,0.30835
564.34242,0.36424
562.85264,0.41582
561.36285,0.48698
559.87306,0.51473
558.38327,0.54250
556.89348,0.58661
555.40369,0.55470
553.91391,0.58312
552.42412,0.61158
550.93433,0.61127
549.44454,0.58058
547.95475,0.65966
546.46496,0.68499
544.97517,0.71036
543.48539,0.75803
541.99560,0.81008
540.50581,0.84424
539.01602,0.87843
537.52623,0.79586
536.03644,0.75787
534.54666,0.78402
533.05687,0.73686
531.56708,0.68974
530.07729,0.65949
528.58750,0.71185
527.09771,0.71100
525.60792,0.71019
524.11814,0.68225
522.62835,0.63262
521.13856,0.61343
519.64877,0.56550
518.15898,0.51759
516.66919,0.48222
515.17941,0.46426
513.68962,0.43493
512.19983,0.40563
510.71004,0.46165
509.22025,0.43514
507.73046,0.41735
506.24068,0.46695
504.75089,0.51659
503.26110,0.52498
501.77131,0.48451
500.28152,0.46254
498.79173,0.44061
497.30194,0.41546
495.81216,0.50333
494.32237,0.51626
492.83258,0.52923
491.34279,0.48031
489.85300,0.43685
488.36321,0.37713
486.87343,0.37666
485.38364,0.37622
483.89385,0.34485
482.40406,0.23528
480.91427,0.19366
479.42448,0.15207
477.93469,0.12409
476.44491,0.06247
474.95512,0.08454
473.46533,0.10664
471.97554,0.08967
470.48575,0.00863
468.99596,0.05611
467.50618,0.03953
466.01639,0.02299
464.52660,0.00539
463.03681,0.01173
461.54702,0.09524
460.05723,0.17878
458.56745,0.11678
457.07766,0.10695
455.58787,0.11237
454.09808,0.11783
452.60829,0.13092
451.11850,0.15383
449.62871,0.19252
448.13893,0.23125
446.64914,0.32814
445.15935,0.42071
443.66956,0.42749
442.17977,0.48265
440.68998,0.53785
439.20020,0.61317
437.71041,0.65160
436.22062,0.75850
434.73083,0.86543
433.24104,1.02673
431.75125,1.20327
430.26146,1.22610
428.77168,1.24898
427.28189,1.36803
425.79210,1.38826
424.30231,1.37809
422.81252,1.36796
421.32273,1.48063
419.83295,1.29348
418.34316,1.21826
416.85337,1.14308
415.36358,0.96254
413.87379,0.82224
412.38400,0.79334
410.89422,0.76446
409.40443,0.67098
407.91464,0.73942
406.42485,0.64709
404.93506,0.63356
403.44527,0.62007
401.95548,0.57999
400.46570,0.56602
398.97591,0.56893
397.48612,0.57187
395.99633,0.52215
394.50654,0.65608
393.01675,0.60371
391.52697,0.55138
390.03718,0.44421
388.54739,0.43486
387.05760,0.44347
385.56781,0.45211
384.07802,0.52326
382.58824,0.54338
381.09845,0.49509
379.60866,0.44683
378.11887,0.39860
376.62908,0.33955
375.13929,0.25499
373.64950,0.17047
372.15972,0.24515
370.66993,0.24490
369.18014,0.22132
367.69035,0.19778
366.20056,0.08138
364.71077,0.08343
363.22099,0.10454
361.73120,0.12567
360.24141,0.18215
358.75162,0.17566
357.26183,0.17136
355.77204,0.16710
354.28225,0.07705
352.79247,0.03918
351.30268,0.06761
349.81289,0.09608
348.32310,0.03767
346.83331,0.00863
345.34352,0.01054
343.85374,0.01249
342.36395,0.11877
340.87416,0.09798
339.38437,0.07667
337.89458,0.05539
336.40479,0.07272
334.91501,0.02707
333.42522,0.02328
331.93543,0.01953
330.44564,0.06959
328.95585,0.09034
327.46606,0.07094
325.97627,0.05156
324.48649,0.02136
322.99670,0.08402
321.50691,0.10652
320.01712,0.12905
318.52733,0.19399
317.03754,0.13945
315.54776,0.12840
314.05797,0.11739
312.56818,0.00863
311.07839,0.07048
309.58860,0.04871
308.09881,0.02698
306.60902,0.03135
305.11924,0.02707
303.62945,0.03260
302.13966,0.02068
300.64987,0.00880
299.16008,0.00863
