1778.52000,0.05771
1777.03021,0.06548
1775.54042,0.08065
1774.05063,0.04724
1772.56085,0.00945
1771.07106,0.03062
1769.58127,0.03414
1768.09148,0.02592
1766.60169,0.02951
1765.11190,0.06703
1763.62212,0.00440
1762.13233,0.12006
1760.64254,0.07370
1759.15275,0.03622
1757.66296,0.04150
1756.17317,0.06891
1754.68339,0.02858
1753.19360,0.05754
1751.70381,0.01875
1750.21402,0.04630
1748.72423,0.04000
1747.23444,0.07057
1745.74465,0.04960
1744.25487,0.08760
1742.76508,0.12858
1741.27529,0.03995
1739.78550,0.00440
1738.29571,0.09302
1736.80592,0.09328
1735.31614,0.04791
1733.82635,0.05267
1732.33656,0.00000
1730.84677,0.07689
1729.35698,0.03007
1727.86719,0.05694
1726.37740,0.05438
1724.88762,0.04154
1723.39783,0.01253
1721.90804,0.02481
1720.41825,0.06806
1718.92846,0.10103
1717.43867,0.00440
1715.94889,0.06391
1714.45910,0.03948
1712.96931,0.04308
1711.47952,0.08649
1709.98973,0.06512
1708.49994,0.07472
1707.01016,0.06446
1705.52037,0.05424
1704.03058,0.14054
1702.54079,0.08693
1701.05100,0.15563
1699.56121,0.14481
1698.07142,0.18264
1696.58164,0.16894
1695.09185,0.23336
1693.60206,0.19469
1692.11227,0.20909
1690.62248,0.23089
1689.13269,0.22031
1687.64291,0.26575
1686.15312,0.26408
1684.66333,0.29191
1683.17354,0.26527
1681.68375,0.26960
1680.19396,0.27249
1678.70417,0.25626
1677.21439,0.27395
1675.72460,0.31967
1674.23481,0.23136
1672.74502,0.22558
1671.25523,0.20953
1669.76544,0.28043
1668.27566,0.25413
1666.78587,0.22493
1665.29608,0.24584
1663.80629,0.22112
1662.31650,0.21117
1660.82671,0.23219
1659.33693,0.23115
1657.84714,0.20067
1656.35735,0.23064
1654.86756,0.20318
1653.37777,0.24205
1651.88798,0.16310
1650.39819,0.16079
1648.90841,0.17325
1647.41862,0.17838
1645.92883,0.15923
1644.43904,0.14012
1642.94925,0.15861
1641.45946,0.09316
1639.96968,0.12351
1638.47989,0.17598
1636.99010,0.12390
1635.50031,0.19118
1634.01052,0.18483
1632.52073,0.16084
1631.03094,0.05438
1629.54116,0.14685
1628.05137,0.19515
1626.56158,0.15804
1625.07179,0.14748
1623.58200,0.16937
1622.09221,0.22812
1620.60243,0.22061
1619.11264,0.24555
1617.62285,0.22780
1616.13306,0.17325
1614.64327,0.14821
1613.15348,0.17918
1611.66370,0.19398
1610.17391,0.15725
1608.68412,0.18390
1607.19433,0.19144
1605.70454,0.15923
1604.21475,0.16758
1602.72496,0.17595
1601.23518,0.13796
1599.74539,0.14420
1598.25560,0.11217
1596.76581,0.12731
1595.27602,0.12923
1593.78623,0.10909
1592.29645,0.10666
1590.80666,0.09690
1589.31687,0.11812
1587.82708,0.07602
1586.33729,0.15181
1584.84750,0.14513
1583.35771,0.06778
1581.86793,0.03613
1580.37814,0.06050
1578.88835,0.06869
1577.39856,0.14027
1575.90877,0.06309
1574.41898,0.02867
1572.92920,0.02816
1571.43941,0.08810
1569.94962,0.07514
1568.45983,0.06222
1566.97004,0.00440
1565.48025,0.04808
1563.99047,0.03877
1562.50068,0.01917
1561.01089,0.04970
1559.52110,0.05523
1558.03131,0.09467
1556.54152,0.03838
1555.05173,0.14124
1553.56195,0.07029
1552.07216,0.12460
1550.58237,0.06551
1549.09258,0.08453
1547.60279,0.06234
1546.11300,0.10500
1544.62322,0.10498
1543.13343,0.11677
1541.64364,0.07999
1540.15385,0.06607
1538.66406,0.05219
1537.17427,0.07444
1535.68448,0.05105
1534.19470,0.03359
1532.70491,0.08393
1531.21512,0.07243
1529.72533,0.03593
1528.23554,0.00093
1526.74575,0.02636
1525.25597,0.03563
1523.76618,0.01399
1522.27639,0.06016
1520.78660,0.07689
1519.29681,0.05094
1517.80702,0.00440
1516.31724,0.15158
1514.82745,0.10286
1513.33766,0.10647
1511.84787,0.11012
1510.35808,0.03351
1508.86829,0.06301
1507.37850,0.10875
1505.88872,0.06171
1504.39893,0.00440
1502.90914,0.09674
1501.41935,0.10661
1499.92956,0.03255
1498.43977,0.06459
1496.94999,0.08930
1495.46020,0.18624
1493.97041,0.24343
1492.48062,0.24173
1490.99083,0.27836
1489.50104,0.32387
1488.01125,0.35616
1486.52147,0.38848
1485.03168,0.50923
1483.54189,0.60202
1482.05210,0.52543
1480.56231,0.78034
1479.07252,0.81431
1477.58274,0.80264
1476.09295,0.88677
1474.60316,0.94294
1473.11337,1.10374
1471.62358,1.10842
1470.13379,1.14259
1468.64401,1.01622
1467.15422,1.09761
1465.66443,1.06928
1464.17464,1.04098
1462.68485,0.99283
1461.19506,0.91967
1459.70527,0.87601
1458.21549,0.81618
1456.72570,0.81531
1455.23591,0.82479
1453.74612,0.71939
1452.25633,0.63465
1450.76654,0.70464
1449.27676,0.64796
1447.78697,0.64435
1446.29718,0.53913
1444.80739,0.52012
1443.31760,0.50115
1441.82781,0.42844
1440.33802,0.36608
1438.84824,0.40098
1437.35845,0.32248
1435.86866,0.24402
1434.37887,0.26724
1432.88908,0.22863
1431.39929,0.24013
1429.90951,0.29440
1428.41972,0.28240
1426.92993,0.28370
1425.44014,0.32039
1423.95035,0.33649
1422.46056,0.35262
1420.97078,0.29513
1419.48099,0.38205
1417.99120,0.35262
1416.50141,0.36889
1415.01162,0.41614
1413.52183,0.38239
1412.03204,0.31332
1410.54226,0.36509
1409.05247,0.24895
1407.56268,0.30668
1406.07289,0.22891
1404.58310,0.24473
1403.09331,0.26057
1401.60353,0.29929
1400.11374,0.34983
1398.62395,0.44166
1397.13416,0.33610
1395.64437,0.32635
1394.15458,0.38734
1392.66479,0.42184
1391.17501,0.26192
1389.68522,0.42172
1388.19543,0.44749
1386.70564,0.41511
1385.21585,0.38276
1383.72606,0.36886
1382.23628,0.36972
1380.74649,0.25571
1379.25670,0.37598
1377.76691,0.37842
1376.27712,0.30282
1374.78733,0.40698
1373.29755,0.46699
1371.80776,0.56533
1370.31797,0.74620
1368.82818,0.77390
1367.33839,0.80163
1365.84860,0.93694
1364.35881,1.05903
1362.86903,1.12958
1361.37924,1.15598
1359.88945,1.26933
1358.39966,1.35031
1356.90987,1.34587
1355.42008,1.30022
1353.93030,1.44612
1352.44051,1.42853
1350.95072,1.41097
1349.46093,1.25349
1347.97114,1.04743
1346.48135,0.91949
1344.99156,0.79453
1343.50178,0.86407
1342.01199,0.72591
1340.52220,0.59074
1339.03241,0.57052
1337.54262,0.50318
1336.05283,0.54196
1334.56305,0.58076
1333.07326,0.57099
1331.58347,0.57745
1330.09368,0.47052
1328.60389,0.49768
1327.11410,0.40407
1325.62432,0.39741
1324.13453,0.40553
1322.64474,0.43283
1321.15495,0.50583
1319.66516,0.44628
1318.17537,0.38676
1316.68558,0.42304
1315.19580,0.36212
1313.70601,0.31597
1312.21622,0.20355
1310.72643,0.23555
1309.23664,0.31914
1307.74685,0.32911
1306.25707,0.28018
1304.76728,0.30127
1303.27749,0.32239
1301.78770,0.29861
1300.29791,0.28076
1298.80812,0.28210
1297.31834,0.24222
1295.82855,0.35117
1294.33876,0.27306
1292.84897,0.28779
1291.35918,0.24805
1289.86939,0.26801
1288.37960,0.28801
1286.88982,0.38096
1285.40003,0.43564
1283.91024,0.39460
1282.42045,0.37864
1280.93066,0.38776
1279.44087,0.48825
1277.95109,0.37959
1276.46130,0.41680
1274.97151,0.38260
1273.48172,0.34843
1271.99193,0.40195
1270.50214,0.43783
1269.01235,0.48553
1267.52257,0.51412
1266.03278,0.53095
1264.54299,0.48447
1263.05320,0.52789
1261.56341,0.56176
1260.07362,0.59568
1258.58384,0.60826
1257.09405,0.56785
1255.60426,0.64385
1254.11447,0.61971
1252.62468,0.59119
1251.13489,0.48904
1249.64511,0.49152
1248.15532,0.51171
1246.66553,0.48185
1245.17574,0.45203
1243.68595,0.43255
1242.19616,0.44110
1240.70637,0.43937
1239.21659,0.36991
1237.72680,0.31816
1236.23701,0.34894
1234.74722,0.30610
1233.25743,0.26477
1231.76764,0.22347
1230.27786,0.21020
1228.78807,0.26620
1227.29828,0.29719
1225.80849,0.18532
1224.31870,0.07790
1222.82891,0.13551
1221.33912,0.12540
1219.84934,0.11900
1218.35955,0.11263
1216.86976,0.22637
1215.37997,0.23112
1213.89018,0.24769
1212.40039,0.20832
1210.91061,0.13657
1209.42082,0.12526
1207.93103,0.11913
1206.44124,0.11305
1204.95145,0.22559
1203.46166,0.14517
1201.97188,0.10457
1200.48209,0.04927
1198.99230,0.15311
1197.50251,0.17743
1196.01272,0.00290
1194.52293,0.04570
1193.03314,0.08855
1191.54336,0.04966
1190.05357,0.02701
1188.56378,0.00440
1187.07399,0.04022
1185.58420,0.06723
1184.09441,0.06482
1182.60463,0.06612
1181.11484,0.06746
1179.62505,0.09020
1178.13526,0.11002
1176.64547,0.11072
1175.15568,0.14240
1173.66589,0.15054
1172.17611,0.11747
1170.68632,0.11463
1169.19653,0.11183
1167.70674,0.09506
1166.21695,0.07686
1164.72716,0.04543
1163.23738,0.09212
1161.74759,0.03867
1160.25780,0.00440
1158.76801,0.02043
1157.27822,0.03650
1155.78843,0.02388
1154.29865,0.08201
1152.80886,0.12691
1151.31907,0.10555
1149.82928,0.05182
1148.33949,0.14249
1146.84970,0.14186
1145.35991,0.14127
1143.87013,0.07147
1142.38034,0.09452
1140.89055,0.18242
1139.40076,0.19228
1137.91097,0.25520
1136.42118,0.30638
1134.93140,0.33844
1133.44161,0.37054
1131.95182,0.36436
1130.46203,0.35233
1128.97224,0.28287
1127.48245,0.23261
1125.99266,0.29581
1124.50288,0.33401
1123.01309,0.37003
1121.52330,0.40608
1120.03351,0.42965
1118.54372,0.34424
1117.05393,0.43859
1115.56415,0.40628
1114.07436,0.45061
1112.58457,0.50455
1111.09478,0.55853
1109.60499,0.53077
1108.11520,0.58261
1106.62542,0.52841
1105.13563,0.68491
1103.64584,0.76190
1102.15605,0.82419
1100.66626,0.87914
1099.17647,0.93413
1097.68668,0.88161
1096.19690,0.88806
1094.70711,0.89601
1093.21732,0.99092
1091.72753,1.02693
1090.23774,1.03204
1088.74795,1.03718
1087.25817,1.00848
1085.76838,1.08588
1084.27859,1.15742
1082.78880,1.25846
1081.29901,1.15918
1079.80922,1.19842
1078.31943,1.19571
1076.82965,1.19303
1075.33986,1.28098
1073.85007,1.23786
1072.36028,1.26401
1070.87049,1.25189
1069.38070,1.34146
1067.89092,1.37876
1066.40113,1.41610
1064.91134,1.27595
1063.42155,1.23602
1061.93176,1.11804
1060.44197,1.03840
1058.95219,1.01772
1057.46240,1.02875
1055.97261,1.03981
1054.48282,0.93821
1052.99303,0.91030
1051.50324,0.82498
1050.01345,0.76473
1048.52367,0.70157
1047.03388,0.67085
1045.54409,0.64018
1044.05430,0.67730
1042.56451,0.63343
1041.07472,0.62643
1039.58494,0.42647
1038.09515,0.44016
1036.60536,0.42442
1035.11557,0.40871
1033.62578,0.37536
1032.13599,0.35089
1030.64620,0.39716
1029.15642,0.44642
1027.66663,0.44194
1026.17684,0.43749
1024.68705,0.48538
1023.19726,0.67767
1021.70747,0.76688
1020.21769,0.95777
1018.72790,1.15901
1017.23811,1.27337
1015.74832,1.38776
1014.25853,1.57731
1012.76874,1.65642
1011.27896,1.86520
1009.78917,1.93405
1008.29938,2.00000
1006.80959,1.96949
1005.31980,1.93901
1003.83001,1.78408
1002.34022,1.71315
1000.85044,1.51852
999.36065,1.55373
997.87086,1.51901
996.38107,1.48432
994.89128,1.43567
993.40149,1.39294
991.91171,1.50642
990.42192,1.49470
988.93213,1.45061
987.44234,1.44853
985.95255,1.44650
984.46276,1.40251
982.97297,1.41748
981.48319,1.32495
979.99340,1.22950
978.50361,1.20996
977.01382,1.19045
975.52403,1.25274
974.03424,1.20310
972.54446,1.04743
971.05467,1.07889
969.56488,0.95569
968.07509,1.00563
966.58530,1.05561
965.09551,0.91337
963.60573,0.90375
962.11594,0.92068
960.62615,0.95238
959.13636,0.91635
957.64657,0.88035
956.15678,0.83260
954.66699,0.75543
953.17721,0.81971
951.68742,0.77059
950.19763,0.77234
948.70784,0.77411
947.21805,0.80465
945.72826,0.73210
944.23848,0.65811
942.74869,0.76978
941.25890,0.68850
939.76911,0.73100
938.27932,0.77353
936.78953,0.97078
935.29974,0.86901
933.80996,0.91460
932.32017,0.82173
930.83038,0.83866
929.34059,0.85562
927.85080,0.83358
926.36101,0.82040
924.87123,0.85588
923.38144,0.78975
921.89165,0.78920
920.40186,0.78869
918.91207,0.80369
917.42228,0.84081
915.93250,0.84851
914.44271,0.74870
912.95292,0.80508
911.46313,0.86150
909.97334,0.80451
908.48355,0.93760
906.99376,1.03390
905.50398,0.86948
904.01419,0.92165
902.52440,0.97385
901.03461,0.91413
899.54482,0.90011
898.05503,0.94653
896.56525,0.94289
895.07546,0.92161
893.58567,0.90036
892.09588,0.91009
890.60609,1.03476
889.11630,0.88397
887.62651,0.83487
886.13673,0.92503
884.64694,1.01522
883.15715,0.89109
881.66736,0.88190
880.17757,0.80204
878.68778,0.83712
877.19800,0.87224
875.70821,0.90739
874.21842,0.92048
872.72863,1.02200
871.23884,1.11471
869.74905,1.04687
868.25927,0.97907
866.76948,0.99676
865.27969,1.01153
863.78990,1.09115
862.30011,1.09126
860.81032,1.10761
859.32053,1.12399
857.83075,1.05496
856.34096,1.02132
854.85117,0.89343
853.36138,0.84218
851.87159,0.79023
850.38180,0.73832
848.89202,0.71812
847.40223,0.55062
845.91244,0.36254
844.42265,0.42936
842.93286,0.49621
841.44307,0.43493
839.95329,0.38105
838.46350,0.46716
836.97371,0.31759
835.48392,0.35073
833.99413,0.38391
832.50434,0.28895
831.01455,0.35902
829.52477,0.38789
828.03498,0.36080
826.54519,0.28366
825.05540,0.20656
823.56561,0.25471
822.07582,0.20566
820.58604,0.20085
819.09625,0.18355
817.60646,0.16628
816.11667,0.11443
814.62688,0.08471
813.13709,0.08596
811.64730,0.08872
810.15752,0.06279
808.66773,0.03689
807.17794,0.00440
805.68815,0.11324
804.19836,0.13962
802.70857,0.15573
801.21879,0.17187
799.72900,0.13942
798.23921,0.25286
796.74942,0.39727
795.25963,0.40471
793.76984,0.41219
792.28006,0.50514
790.79027,0.54951
789.30048,0.54825
787.81069,0.64131
786.32090,0.63201
784.83111,0.62275
783.34132,0.68497
781.85154,0.68831
780.36175,0.71524
778.87196,0.76358
777.38217,0.81194
775.89238,0.82720
774.40259,0.85280
772.91281,0.96241
771.42302,0.94389
769.93323,0.92540
768.44344,0.85685
766.95365,0.88852
765.46386,0.94527
763.97407,1.01973
762.48429,0.89976
760.99450,0.77983
759.50471,0.61426
758.01492,0.49882
756.52513,0.47622
755.03534,0.42125
753.54556,0.36631
752.05577,0.29373
750.56598,0.22118
749.07619,0.25032
747.58640,0.20804
746.09661,0.16580
744.60683,0.12727
743.11704,0.12709
741.62725,0.07684
740.13746,0.09072
738.64767,0.10464
737.15788,0.08396
735.66809,0.00440
734.17831,0.11851
732.68852,0.08019
731.19873,0.04190
729.70894,0.01469
728.21915,0.06265
726.72936,0.06203
725.23958,0.07912
723.74979,0.04174
722.26000,0.00440
720.77021,0.04014
719.28042,0.04056
717.79063,0.01596
716.30084,0.05918
714.81106,0.10242
713.32127,0.02637
711.83148,0.04170
710.34169,0.07031
708.85190,0.05624
707.36211,0.04221
705.87233,0.03557
704.38254,0.04370
702.89275,0.09165
701.40296,0.07849
699.91317,0.06536
698.42338,0.01912
696.93360,0.09814
695.44381,0.13595
693.95402,0.15463
692.46423,0.17335
690.97444,0.22452
689.48465,0.23595
687.99486,0.23709
686.50508,0.19850
685.01529,0.15994
683.52550,0.20686
682.03571,0.18752
680.54592,0.12108
679.05613,0.19315
677.56635,0.26525
676.07656,0.20775
674.58677,0.12818
673.09698,0.12231
671.60719,0.13562
670.11740,0.14897
668.62761,0.15057
667.13783,0.12569
665.64804,0.12293
664.15825,0.12022
662.66846,0.13963
661.17867,0.00440
659.68888,0.13837
658.19910,0.17440
656.70931,0.21047
655.21952,0.21049
653.72973,0.23410
652.23994,0.16936
650.75015,0.20484
649.26037,0.24034
647.77058,0.22727
646.28079,0.19950
644.79100,0.19681
643.30121,0.17868
641.81142,0.16059
640.32163,0.18600
638.83185,0.07443
637.34206,0.07927
635.85227,0.07974
634.36248,0.08023
632.87269,0.04394
631.38290,0.12848
629.89312,0.14381
628.40333,0.11425
626.91354,0.08472
625.42375,0.00440
623.93396,0.09297
622.44417,0.13665
620.95438,0.18037
619.46460,0.04365
617.97481,0.09111
616.48502,0.18428
614.99523,0.14416
613.50544,0.10408
612.01565,0.13253
610.52587,0.13155
609.03608,0.09084
607.54629,0.07888
606.05650,0.06696
604.56671,0.16041
603.07692,0.14340
601.58714,0.13968
600.09735,0.13600
598.60756,0.08669
597.11777,0.11844
595.62798,0.07656
594.13819,0.08849
592.64840,0.10045
591.15862,0.17653
589.66883,0.11858
588.17904,0.07983
586.68925,0.07277
585.19946,0.06576
583.70967,0.13318
582.21989,0.20652
580.73010,0.18193
579.24031,0.15737
577.75052,0.13653
576.26073,0.15698
574.77094,0.23787
573.28115,0.19356
571.79137,0.14929
570.30158,0.19345
568.81179,0.34813
567.32200,0.40709
565.83221,0.46608
564.34242,0.24962
562.85264,0.29690
561.36285,0.46206
559.87306,0.51972
558.38327,0.57742
556.89348,0.51140
555.40369,0.56179
553.91391,0.60191
552.42412,0.64207
550.93433,0.70141
549.44454,0.70775
547.95475,0.62131
546.46496,0.57468
544.97517,0.52809
543.48539,0.67010
541.99560,0.63242
540.50581,0.63086
539.01602,0.62934
537.52623,0.65806
536.03644,0.62346
534.54666,0.60952
533.05687,0.66486
531.56708,0.72023
530.07729,0.62537
528.58750,0.56590
527.09771,0.56834
525.60792,0.57082
524.11814,0.53944
522.62835,0.44770
521.13856,0.57403
519.64877,0.50814
518.15898,0.44228
516.66919,0.53042
515.17941,0.43885
513.68962,0.42466
512.19983,0.41050
510.71004,0.40301
509.22025,0.40440
507.73046,0.37193
506.24068,0.37117
504.75089,0.37045
503.26110,0.44269
501.77131,0.33523
500.28152,0.36481
498.79173,0.39443
497.30194,0.48448
495.81216,0.36538
494.32237,0.40394
492.83258,0.44253
491.34279,0.35005
489.85300,0.39018
488.36321,0.28893
486.87343,0.23633
485.38364,0.18376
483.89385,0.31242
482.40406,0.12734
480.91427,0.13527
479.42448,0.14324
477.93469,0.15567
476.44491,0.13719
474.95512,0.12979
473.46533,0.12244
471.97554,0.17183
470.48575,0.12992
468.99596,0.12340
467.50618,0.06388
466.01639,0.00440
464.52660,0.06168
463.03681,0.04828
461.54702,0.07101
460.05723,0.09378
458.56745,0.12468
457.07766,0.20129
455.58787,0.18954
454.09808,0.17782
452.60829,0.32083
451.11850,0.16480
449.62871,0.18045
448.13893,0.19612
446.64914,0.28476
445.15935,0.35575
443.66956,0.47245
442.17977,0.52878
440.68998,0.58514
439.20020,0.54283
437.71041,0.57422
436.22062,0.61080
434.73083,0.64742
433.24104,0.88369
431.75125,0.99035
430.26146,0.96224
428.77168,0.93418
427.28189,1.18090
425.79210,1.21551
424.30231,1.24721
422.81252,1.27895
421.32273,1.29746
419.83295,1.27770
418.34316,1.17401
416.85337,1.07034
415.36358,0.86654
413.87379,0.70697
412.38400,0.66381
410.89422,0.62069
409.40443,0.61149
407.91464,0.65094
406.42485,0.55047
404.93506,0.59882
403.44527,0.64722
401.95548,0.58073
400.46570,0.44799
398.97591,0.46408
397.48612,0.48020
395.99633,0.40207
394.50654,0.51843
393.01675,0.52214
391.52697,0.52587
390.03718,0.45377
388.54739,0.38024
387.05760,0.37156
385.56781,0.36291
384.07802,0.37787
382.58824,0.32362
381.09845,0.33349
379.60866,0.34340
378.11887,0.30546
376.62908,0.27640
375.13929,0.30556
373.64950,0.33476
372.15972,0.17911
370.66993,0.13692
369.18014,0.13823
367.69035,0.13958
366.20056,0.15054
364.71077,0.09376
363.22099,0.14530
361.73120,0.19687
360.24141,0.19913
358.75162,0.08798
357.26183,0.09546
355.77204,0.10298
354.28225,0.16872
352.79247,0.03709
351.30268,0.03661
349.81289,0.03616
348.32310,0.15360
346.83331,0.08988
345.34352,0.06449
343.85374,0.03914
342.36395,0.06243
340.87416,0.05925
339.38437,0.12460
337.89458,0.18999
336.40479,0.16186
334.91501,0.12199
333.42522,0.16391
331.93543,0.20586
330.44564,0.22944
328.95585,0.24273
327.46606,0.18977
325.97627,0.13684
324.48649,0.00440
322.99670,0.24003
321.50691,0.21495
320.01712,0.18990
318.52733,0.11921
317.03754,0.13548
315.54776,0.11274
314.05797,0.09004
312.56818,0.18744
311.07839,0.07420
309.58860,0.05897
308.09881,0.04377
306.60902,0.01314
305.11924,0.04884
303.62945,0.08310
302.13966,0.11739
300.64987,0.00440
299.16008,0.00440
