1778.52000,0.01045
1777.03021,0.01400
1775.54042,0.03333
1774.05063,0.00129
1772.56085,0.00825
1771.07106,0.02022
1769.58127,0.04963
1768.09148,0.01026
1766.60169,0.00492
1765.11190,0.00707
1763.62212,0.01257
1762.13233,0.03387
1760.64254,0.03778
1759.15275,0.05416
1757.66296,0.02331
1756.17317,0.02981
1754.68339,0.03137
1753.19360,0.02218
1751.70381,0.03375
1750.21402,0.02794
1748.72423,0.04539
1747.23444,0.05706
1745.74465,0.01404
1744.25487,0.06838
1742.76508,0.05144
1741.27529,0.05610
1739.78550,0.03674
1738.29571,0.03814
1736.80592,0.08519
1735.31614,0.04354
1733.82635,0.02680
1732.33656,0.02585
1730.84677,0.05810
1729.35698,0.04810
1727.86719,0.06217
1726.37740,0.02902
1724.88762,0.04068
1723.39783,0.00925
1721.90804,0.02262
1720.41825,0.04433
1718.92846,0.01217
1717.43867,0.00492
1715.94889,0.07778
1714.45910,0.03874
1712.96931,0.06939
1711.47952,0.06441
1709.98973,0.06195
1708.49994,0.06699
1707.01016,0.06585
1705.52037,0.06473
1704.03058,0.10801
1702.54079,0.12231
1701.05100,0.12834
1699.56121,0.11783
1698.07142,0.14797
1696.58164,0.14582
1695.09185,0.20422
1693.60206,0.22203
1692.11227,0.23655
1690.62248,0.23951
1689.13269,0.25078
1687.64291,0.25629
1686.15312,0.25104
1684.66333,0.27320
1683.17354,0.24481
1681.68375,0.26952
1680.19396,0.22876
1678.70417,0.24192
1677.21439,0.23771
1675.72460,0.28411
1674.23481,0.22607
1672.74502,0.22030
1671.25523,0.26016
1669.76544,0.24119
1668.27566,0.25293
1666.78587,0.22242
1665.29608,0.21682
1663.80629,0.22037
1662.31650,0.22644
1660.82671,0.23834
1659.33693,0.21795
1657.84714,0.17105
1656.35735,0.23861
1654.86756,0.18929
1653.37777,0.18396
1651.88798,0.23006
1650.39819,0.16674
1648.90841,0.17726
1647.41862,0.16459
1645.92883,0.17103
1644.43904,0.17750
1642.94925,0.13259
1641.45946,0.13166
1639.96968,0.13160
1638.47989,0.14981
1636.99010,0.14069
1635.50031,0.14736
1634.01052,0.18723
1632.52073,0.13178
1631.03094,0.13937
1629.54116,0.16193
1628.05137,0.17374
1626.56158,0.15988
1625.07179,0.18585
1623.58200,0.21849
1622.09221,0.20224
1620.60243,0.20427
1619.11264,0.20716
1617.62285,0.21920
1616.13306,0.18401
1614.64327,0.21436
1613.15348,0.17924
1611.66370,0.19225
1610.17391,0.15471
1608.68412,0.20592
1607.19433,0.16430
1605.70454,0.18739
1604.21475,0.16781
1602.72496,0.14826
1601.23518,0.16564
1599.74539,0.14077
1598.25560,0.15988
1596.76581,0.11932
1595.27602,0.16337
1593.78623,0.12122
1592.29645,0.10315
1590.80666,0.10916
1589.31687,0.12100
1587.82708,0.10967
1586.33729,0.11909
1584.84750,0.11694
1583.35771,0.08663
1581.86793,0.05967
1580.37814,0.08913
1578.88835,0.08297
1577.39856,0.07518
1575.90877,0.08815
1574.41898,0.04726
1572.92920,0.02714
1571.43941,0.03938
1569.94962,0.03300
1568.45983,0.02666
1566.97004,0.05061
1565.48025,0.05304
1563.99047,0.00492
1562.50068,0.07175
1561.01089,0.05487
1559.52110,0.07865
1558.03131,0.08837
1556.54152,0.05169
1555.05173,0.10708
1553.56195,0.08788
1552.07216,0.08198
1550.58237,0.06036
1549.09258,0.06282
1547.60279,0.05287
1546.11300,0.03881
1544.62322,0.03639
1543.13343,0.06800
1541.64364,0.03663
1540.15385,0.03804
1538.66406,0.03949
1537.17427,0.04055
1535.68448,0.03668
1534.19470,0.06848
1532.70491,0.00000
1531.21512,0.01446
1529.72533,0.00160
1528.23554,0.00254
1526.74575,0.01706
1525.25597,0.03990
1523.76618,0.03293
1522.27639,0.01853
1520.78660,0.01660
1519.29681,0.04206
1517.80702,0.02112
1516.31724,0.05992
1514.82745,0.01169
1513.33766,0.01076
1511.84787,0.00985
1510.35808,0.01147
1508.86829,0.02142
1507.37850,0.03720
1505.88872,0.00492
1504.39893,0.04616
1502.90914,0.05677
1501.41935,0.04418
1499.92956,0.04158
1498.43977,0.06389
1496.94999,0.13184
1495.46020,0.15172
1493.97041,0.22139
1492.48062,0.23720
1490.99083,0.23729
1489.50104,0.32944
1488.01125,0.37686
1486.52147,0.42431
1485.03168,0.52651
1483.54189,0.62461
1482.05210,0.62407
1480.56231,0.77944
1479.07252,0.86685
1477.58274,0.94352
1476.09295,1.02520
1474.60316,1.10691
1473.11337,1.13558
1471.62358,1.18834
1470.13379,1.19470
1468.64401,1.14222
1467.15422,1.12377
1465.66443,1.07716
1464.17464,1.03058
1462.68485,1.01057
1461.19506,0.99474
1459.70527,0.89437
1458.21549,0.85124
1456.72570,0.85209
1455.23591,0.79328
1453.74612,0.73865
1452.25633,0.69648
1450.76654,0.66347
1449.27676,0.67693
1447.78697,0.58594
1446.29718,0.56796
1444.80739,0.50606
1443.31760,0.44420
1441.82781,0.42051
1440.33802,0.35456
1438.84824,0.33757
1437.35845,0.32559
1435.86866,0.29125
1434.37887,0.26690
1432.88908,0.25336
1431.39929,0.29126
1429.90951,0.21975
1428.41972,0.25191
1426.92993,0.25094
1425.44014,0.24917
1423.95035,0.25822
1422.46056,0.26730
1420.97078,0.30626
1419.48099,0.31540
1417.99120,0.30966
1416.50141,0.30229
1415.01162,0.31485
1413.52183,0.29925
1412.03204,0.33759
1410.54226,0.32869
1409.05247,0.29412
1407.56268,0.33670
1406.07289,0.23753
1404.58310,0.25820
1403.09331,0.27890
1401.60353,0.33488
1400.11374,0.34778
1398.62395,0.34163
1397.13416,0.36537
1395.64437,0.40241
1394.15458,0.43368
1392.66479,0.47328
1391.17501,0.45818
1389.68522,0.43317
1388.19543,0.43721
1386.70564,0.43962
1385.21585,0.44207
1383.72606,0.42216
1382.23628,0.41722
1380.74649,0.41396
1379.25670,0.39581
1377.76691,0.40174
1376.27712,0.41185
1374.78733,0.43858
1373.29755,0.46948
1371.80776,0.61733
1370.31797,0.72044
1368.82818,0.78005
1367.33839,0.83970
1365.84860,0.95866
1364.35881,1.13487
1362.86903,1.20912
1361.37924,1.26682
1359.88945,1.38260
1358.39966,1.40887
1356.90987,1.49071
1355.42008,1.53694
1353.93030,1.43313
1352.44051,1.36873
1350.95072,1.30437
1349.46093,1.13598
1347.97114,1.07459
1346.48135,1.00162
1344.99156,0.84328
1343.50178,0.83505
1342.01199,0.72238
1340.52220,0.64291
1339.03241,0.62898
1337.54262,0.58108
1336.05283,0.56597
1334.56305,0.55090
1333.07326,0.47242
1331.58347,0.49016
1330.09368,0.48555
1328.60389,0.37235
1327.11410,0.41672
1325.62432,0.37904
1324.13453,0.37788
1322.64474,0.35353
1321.15495,0.34498
1319.66516,0.35469
1318.17537,0.36444
1316.68558,0.39495
1315.19580,0.34755
1313.70601,0.29439
1312.21622,0.30676
1310.72643,0.25946
1309.23664,0.27770
1307.74685,0.29017
1306.25707,0.29521
1304.76728,0.30401
1303.27749,0.31285
1301.78770,0.30555
1300.29791,0.27009
1298.80812,0.28193
1297.31834,0.29464
1295.82855,0.28664
1294.33876,0.28863
1292.84897,0.31636
1291.35918,0.32505
1289.86939,0.33874
1288.37960,0.35247
1286.88982,0.33722
1285.40003,0.36428
1283.91024,0.36236
1282.42045,0.34305
1280.93066,0.33871
1279.44087,0.40819
1277.95109,0.42132
1276.46130,0.36318
1274.97151,0.37348
1273.48172,0.38381
1271.99193,0.42030
1270.50214,0.43526
1269.01235,0.41791
1267.52257,0.47356
1266.03278,0.47287
1264.54299,0.48962
1263.05320,0.50391
1261.56341,0.54934
1260.07362,0.59479
1258.58384,0.62577
1257.09405,0.60952
1255.60426,0.61486
1254.11447,0.53151
1252.62468,0.47722
1251.13489,0.48266
1249.64511,0.49643
1248.15532,0.47209
1246.66553,0.44239
1245.17574,0.41272
1243.68595,0.45481
1242.19616,0.45548
1240.70637,0.37741
1239.21659,0.28113
1237.72680,0.29433
1236.23701,0.28933
1234.74722,0.23626
1233.25743,0.21640
1231.76764,0.19657
1230.27786,0.23398
1228.78807,0.21256
1227.29828,0.24590
1225.80849,0.19552
1224.31870,0.17088
1222.82891,0.15208
1221.33912,0.15238
1219.84934,0.13613
1218.35955,0.11992
1216.86976,0.16344
1215.37997,0.15226
1213.89018,0.17512
1212.40039,0.16484
1210.91061,0.13387
1209.42082,0.13609
1207.93103,0.12509
1206.44124,0.11411
1204.95145,0.12887
1203.46166,0.07734
1201.97188,0.07476
1200.48209,0.17005
1198.99230,0.11944
1197.50251,0.08960
1196.01272,0.03408
1194.52293,0.04286
1193.03314,0.05167
1191.54336,0.04766
1190.05357,0.08017
1188.56378,0.00492
1187.07399,0.06552
1185.58420,0.02583
1184.09441,0.03592
1182.60463,0.05268
1181.11484,0.06947
1179.62505,0.06806
1178.13526,0.08409
1176.64547,0.09849
1175.15568,0.12205
1173.66589,0.09672
1172.17611,0.05401
1170.68632,0.03621
1169.19653,0.01844
1167.70674,0.05129
1166.21695,0.05680
1164.72716,0.07064
1163.23738,0.00492
1161.74759,0.05719
1160.25780,0.04980
1158.76801,0.04783
1157.27822,0.04589
1155.78843,0.03528
1154.29865,0.04708
1152.80886,0.07219
1151.31907,0.05588
1149.82928,0.07774
1148.33949,0.08968
1146.84970,0.10248
1145.35991,0.11532
1143.87013,0.06103
1142.38034,0.07145
1140.89055,0.09682
1139.40076,0.17696
1137.91097,0.18001
1136.42118,0.24114
1134.93140,0.25421
1133.44161,0.26731
1131.95182,0.30533
1130.46203,0.25797
1128.97224,0.24878
1127.48245,0.29767
1125.99266,0.31343
1124.50288,0.33586
1123.01309,0.35500
1121.52330,0.37417
1120.03351,0.41494
1118.54372,0.48227
1117.05393,0.44599
1115.56415,0.42384
1114.07436,0.39094
1112.58457,0.42483
1111.09478,0.45874
1109.60499,0.49228
1108.11520,0.58472
1106.62542,0.52545
1105.13563,0.61962
1103.64584,0.69143
1102.15605,0.78234
1100.66626,0.80488
1099.17647,0.82746
1097.68668,0.80571
1096.19690,0.82959
1094.70711,0.78137
1093.21732,0.88658
1091.72753,0.86082
1090.23774,0.90805
1088.74795,0.95532
1087.25817,1.04574
1085.76838,0.97284
1084.27859,1.06498
1082.78880,1.15716
1081.29901,1.12334
1079.80922,1.10862
1078.31943,1.11342
1076.82965,1.11825
1075.33986,1.23463
1073.85007,1.17610
1072.36028,1.22705
1070.87049,1.33525
1069.38070,1.42192
1067.89092,1.38508
1066.40113,1.34827
1064.91134,1.27916
1063.42155,1.11390
1061.93176,1.09212
1060.44197,1.03720
1058.95219,0.99310
1057.46240,0.96354
1055.97261,0.93401
1054.48282,0.86016
1052.99303,0.82448
1051.50324,0.75650
1050.01345,0.60397
1048.52367,0.59990
1047.03388,0.60001
1045.54409,0.60015
1044.05430,0.53068
1042.56451,0.52508
1041.07472,0.42417
1039.58494,0.35894
1038.09515,0.35593
1036.60536,0.34176
1035.11557,0.32762
1033.62578,0.25838
1032.13599,0.31686
1030.64620,0.31982
1029.15642,0.34272
1027.66663,0.36191
1026.17684,0.38114
1024.68705,0.42818
1023.19726,0.56978
1021.70747,0.67658
1020.21769,0.89038
1018.72790,1.10670
1017.23811,1.18666
1015.74832,1.26665
1014.25853,1.51126
1012.76874,1.65557
1011.27896,1.84387
1009.78917,1.90699
1008.29938,2.00000
1006.80959,1.91975
1005.31980,1.83953
1003.83001,1.87294
1002.34022,1.79859
1000.85044,1.68033
999.36065,1.55962
997.87086,1.52020
996.38107,1.48081
994.89128,1.44974
993.40149,1.46348
991.91171,1.43497
990.42192,1.43054
988.93213,1.41868
987.44234,1.46779
985.95255,1.51694
984.46276,1.47201
982.97297,1.43292
981.48319,1.36650
979.99340,1.35318
978.50361,1.35233
977.01382,1.35151
975.52403,1.28854
974.03424,1.17337
972.54446,1.06818
971.05467,1.02106
969.56488,1.03948
968.07509,0.98912
966.58530,0.93878
965.09551,0.95150
963.60573,0.95430
962.11594,0.93391
960.62615,0.86299
959.13636,0.84764
957.64657,0.83233
956.15678,0.76565
954.66699,0.74709
953.17721,0.66886
951.68742,0.72748
950.19763,0.74965
948.70784,0.77185
947.21805,0.67303
945.72826,0.68204
944.23848,0.73585
942.74869,0.76896
941.25890,0.78801
939.76911,0.76730
938.27932,0.74662
936.78953,0.79728
935.29974,0.80071
933.80996,0.78925
932.32017,0.81347
930.83038,0.82446
929.34059,0.83549
927.85080,0.76446
926.36101,0.76561
924.87123,0.74274
923.38144,0.76136
921.89165,0.74685
920.40186,0.73237
918.91207,0.76519
917.42228,0.72259
915.93250,0.74137
914.44271,0.79170
912.95292,0.80351
911.46313,0.81535
909.97334,0.88153
908.48355,0.90214
906.99376,0.73374
905.50398,0.80085
904.01419,0.80042
902.52440,0.80002
901.03461,0.87387
899.54482,0.80845
898.05503,0.80359
896.56525,0.87505
895.07546,0.87399
893.58567,0.87296
892.09588,0.90555
890.60609,0.84696
889.11630,0.81079
887.62651,0.75393
886.13673,0.77089
884.64694,0.78789
883.15715,0.81653
881.66736,0.77556
880.17757,0.76364
878.68778,0.77496
877.19800,0.78633
875.70821,0.87483
874.21842,0.83734
872.72863,0.89606
871.23884,0.97223
869.74905,0.98997
868.25927,1.00775
866.76948,1.04671
865.27969,0.94143
863.78990,1.03849
862.30011,0.94737
860.81032,0.95122
859.32053,0.95510
857.83075,1.00918
856.34096,0.95053
854.85117,0.89025
853.36138,0.80348
851.87159,0.75570
850.38180,0.70796
848.89202,0.57651
847.40223,0.43266
845.91244,0.41653
844.42265,0.38384
842.93286,0.35120
841.44307,0.36667
839.95329,0.37720
838.46350,0.27915
836.97371,0.30882
835.48392,0.29707
833.99413,0.28535
832.50434,0.31678
831.01455,0.35239
829.52477,0.30180
828.03498,0.28855
826.54519,0.22559
825.05540,0.16266
823.56561,0.17605
822.07582,0.19444
820.58604,0.17556
819.09625,0.11318
817.60646,0.05083
816.11667,0.11828
814.62688,0.05476
813.13709,0.06589
811.64730,0.00492
810.15752,0.02424
808.66773,0.04360
807.17794,0.05760
805.68815,0.08656
804.19836,0.08819
802.70857,0.07659
801.21879,0.06502
799.72900,0.14469
798.23921,0.22107
796.74942,0.28589
795.25963,0.35902
793.76984,0.43219
792.28006,0.43823
790.79027,0.57283
789.30048,0.59801
787.81069,0.60332
786.32090,0.62525
784.83111,0.64721
783.34132,0.73554
781.85154,0.80234
780.36175,0.75890
778.87196,0.77726
777.38217,0.79566
775.89238,0.86674
774.40259,0.99175
772.91281,0.94930
771.42302,0.92845
769.93323,0.90763
768.44344,0.92415
766.95365,0.92578
765.46386,1.01368
763.97407,0.91422
762.48429,0.83138
760.99450,0.74857
759.50471,0.60444
758.01492,0.54326
756.52513,0.42904
755.03534,0.39612
753.54556,0.36322
752.05577,0.28725
750.56598,0.21047
749.07619,0.15695
747.58640,0.14658
746.09661,0.13624
744.60683,0.07619
743.11704,0.07337
741.62725,0.05816
740.13746,0.05832
738.64767,0.05851
737.15788,0.05334
735.66809,0.06231
734.17831,0.04063
732.68852,0.03224
731.19873,0.02389
729.70894,0.02636
728.21915,0.05207
726.72936,0.10933
725.23958,0.08121
723.74979,0.06971
722.26000,0.05825
720.77021,0.09656
719.28042,0.10257
717.79063,0.09287
716.30084,0.08319
714.81106,0.07355
713.32127,0.00590
711.83148,0.05348
710.34169,0.00492
708.85190,0.04248
707.36211,0.08008
705.87233,0.06298
704.38254,0.04426
702.89275,0.05874
701.40296,0.07740
699.91317,0.09609
698.42338,0.05926
696.93360,0.13523
695.44381,0.19133
693.95402,0.16290
692.46423,0.13449
690.97444,0.12353
689.48465,0.20879
687.99486,0.16556
686.50508,0.18248
685.01529,0.19943
683.52550,0.22678
682.03571,0.23343
680.54592,0.23182
679.05613,0.21574
677.56635,0.19969
676.07656,0.15756
674.58677,0.13702
673.09698,0.15382
671.60719,0.12712
670.11740,0.10046
668.62761,0.10078
667.13783,0.04641
665.64804,0.07043
664.15825,0.09448
662.66846,0.07005
661.17867,0.10122
659.68888,0.10339
658.19910,0.11058
656.70931,0.11780
655.21952,0.16319
653.72973,0.12404
652.23994,0.19935
650.75015,0.19800
649.26037,0.19667
647.77058,0.19497
646.28079,0.08800
644.79100,0.05403
643.30121,0.03004
641.81142,0.00608
640.32163,0.04677
638.83185,0.03443
637.34206,0.04949
635.85227,0.03225
634.36248,0.01503
632.87269,0.05672
631.38290,0.01553
629.89312,0.05563
628.40333,0.03026
626.91354,0.00492
625.42375,0.08498
623.93396,0.11035
622.44417,0.11379
620.95438,0.11725
619.46460,0.09463
617.97481,0.09194
616.48502,0.16060
614.99523,0.14969
613.50544,0.13881
612.01565,0.15284
610.52587,0.16773
609.03608,0.14617
607.54629,0.16942
606.05650,0.19270
604.56671,0.19529
603.07692,0.11997
601.58714,0.13216
600.09735,0.14438
598.60756,0.13550
597.11777,0.12996
595.62798,0.14767
594.13819,0.11028
592.64840,0.07292
591.15862,0.08907
589.66883,0.10608
588.17904,0.13972
586.68925,0.15265
585.19946,0.16562
583.70967,0.08244
582.21989,0.15767
580.73010,0.15830
579.24031,0.15896
577.75052,0.24755
576.26073,0.21180
574.77094,0.23910
573.28115,0.21212
571.79137,0.18518
570.30158,0.24076
568.81179,0.32458
567.32200,0.35702
565.83221,0.38949
564.34242,0.39132
562.85264,0.49185
561.36285,0.51530
559.87306,0.56780
558.38327,0.62034
556.89348,0.61321
555.40369,0.70479
553.91391,0.71597
552.42412,0.72718
550.93433,0.72599
549.44454,0.71820
547.95475,0.69801
546.46496,0.73050
544.97517,0.76302
543.48539,0.77112
541.99560,0.82734
540.50581,0.79031
539.01602,0.75332
537.52623,0.82539
536.03644,0.74577
534.54666,0.73582
533.05687,0.69150
531.56708,0.64721
530.07729,0.63322
528.58750,0.66238
527.09771,0.66794
525.60792,0.67353
524.11814,0.68206
522.62835,0.66658
521.13856,0.60884
519.64877,0.57850
518.15898,0.54819
516.66919,0.45324
515.17941,0.40227
513.68962,0.43300
512.19983,0.46377
510.71004,0.46099
509.22025,0.43752
507.73046,0.44807
506.24068,0.43917
504.75089,0.43030
503.26110,0.46998
501.77131,0.45413
500.28152,0.46444
498.79173,0.47477
497.30194,0.38274
495.81216,0.38444
494.32237,0.38742
492.83258,0.39043
491.34279,0.38310
489.85300,0.34016
488.36321,0.31218
486.87343,0.29873
485.38364,0.28533
483.89385,0.31880
482.40406,0.26193
480.91427,0.20550
479.42448,0.14911
477.93469,0.14706
476.44491,0.13095
474.95512,0.12109
473.46533,0.11127
471.97554,0.05463
470.48575,0.09503
468.99596,0.11142
467.50618,0.06732
466.01639,0.02325
464.52660,0.00492
463.03681,0.06852
461.54702,0.10314
460.05723,0.13779
458.56745,0.16252
457.07766,0.19226
455.58787,0.21333
454.09808,0.23443
452.60829,0.28002
451.11850,0.24273
449.62871,0.24694
448.13893,0.25117
446.64914,0.37401
445.15935,0.41977
443.66956,0.50536
442.17977,0.56363
440.68998,0.62192
439.20020,0.74493
437.71041,0.81407
436.22062,0.88242
434.73083,0.95080
433.24104,1.04409
431.75125,1.27754
430.26146,1.29254
428.77168,1.30757
427.28189,1.43167
425.79210,1.46128
424.30231,1.45775
422.81252,1.45426
421.32273,1.49309
419.83295,1.31721
418.34316,1.23587
416.85337,1.15458
415.36358,1.06171
413.87379,0.93487
412.38400,0.91420
410.89422,0.89357
409.40443,0.87296
407.91464,0.84908
406.42485,0.74977
404.93506,0.72098
403.44527,0.69221
401.95548,0.66100
400.46570,0.62235
398.97591,0.61981
397.48612,0.61730
395.99633,0.62353
394.50654,0.64886
393.01675,0.66552
391.52697,0.68221
390.03718,0.51197
388.54739,0.52085
387.05760,0.54220
385.56781,0.56359
384.07802,0.53029
382.58824,0.50199
381.09845,0.50233
379.60866,0.50271
378.11887,0.41730
376.62908,0.39743
375.13929,0.36018
373.64950,0.32296
372.15972,0.25013
370.66993,0.31330
369.18014,0.27577
367.69035,0.23827
366.20056,0.21283
364.71077,0.16171
363.22099,0.18194
361.73120,0.20220
360.24141,0.18104
358.75162,0.19307
357.26183,0.21385
355.77204,0.23466
354.28225,0.23518
352.79247,0.11800
351.30268,0.09787
349.81289,0.07777
348.32310,0.16383
346.83331,0.12306
345.34352,0.07321
343.85374,0.02339
342.36395,0.14612
340.87416,0.15777
339.38437,0.16739
337.89458,0.17703
336.40479,0.17801
334.91501,0.14253
333.42522,0.16679
331.93543,0.19108
330.44564,0.22121
328.95585,0.16016
327.46606,0.12319
325.97627,0.08626
324.48649,0.04355
322.99670,0.02157
321.50691,0.05948
320.01712,0.09741
318.52733,0.15321
317.03754,0.18748
315.54776,0.18737
314.05797,0.18729
312.56818,0.09895
311.07839,0.01064
309.58860,0.00776
308.09881,0.00492
306.60902,0.01204
305.11924,0.01837
303.62945,0.03634
302.13966,0.03763
300.64987,0.00994
299.16008,0.00492
