1778.52000,0.03900
1777.03021,0.06675
1775.54042,0.03783
1774.05063,0.01936
1772.56085,0.02406
1771.07106,0.03226
1769.58127,0.03123
1768.09148,0.03254
1766.60169,0.00265
1765.11190,0.04567
1763.62212,0.03087
1762.13233,0.01842
1760.64254,0.03261
1759.15275,0.01906
1757.66296,0.02867
1756.17317,0.05799
1754.68339,0.05609
1753.19360,0.03803
1751.70381,0.02809
1750.21402,0.00083
1748.72423,0.00368
1747.23444,0.01003
1745.74465,0.04649
1744.25487,0.04480
1742.76508,0.00265
1741.27529,0.04633
1739.78550,0.05302
1738.29571,0.04933
1736.80592,0.02368
1735.31614,0.01426
1733.82635,0.06387
1732.33656,0.02327
1730.84677,0.03361
1729.35698,0.03819
1727.86719,0.01966
1726.37740,-0.00000
1724.88762,0.03012
1723.39783,0.03945
1721.90804,0.02219
1720.41825,0.00265
1718.92846,0.03649
1717.43867,0.06805
1715.94889,0.06146
1714.45910,0.08845
1712.96931,0.04720
1711.47952,0.04648
1709.98973,0.09323
1708.49994,0.06364
1707.01016,0.06648
1705.52037,0.06935
1704.03058,0.04448
1702.54079,0.09716
1701.05100,0.14755
1699.56121,0.10773
1698.07142,0.12462
1696.58164,0.11147
1695.09185,0.15388
1693.60206,0.14078
1692.11227,0.11267
1690.62248,0.19682
1689.13269,0.19191
1687.64291,0.19050
1686.15312,0.16598
1684.66333,0.16463
1683.17354,0.20843
1681.68375,0.19325
1680.19396,0.21744
1678.70417,0.16530
1677.21439,0.18491
1675.72460,0.13861
1674.23481,0.16408
1672.74502,0.12594
1671.25523,0.21393
1669.76544,0.20015
1668.27566,0.18754
1666.78587,0.14952
1665.29608,0.18904
1663.80629,0.14992
1662.31650,0.17561
1660.82671,0.15737
1659.33693,0.12527
1657.84714,0.11751
1656.35735,0.10514
1654.86756,0.13792
1653.37777,0.13834
1651.88798,0.11912
1650.39819,0.14504
1648.90841,0.16869
1647.41862,0.16459
1645.92883,0.14086
1644.43904,0.11716
1642.94925,0.13976
1641.45946,0.16123
1639.96968,0.15034
1638.47989,0.17304
1636.99010,0.11130
1635.50031,0.10512
1634.01052,0.14641
1632.52073,0.13451
1631.03094,0.12842
1629.54116,0.12930
1628.05137,0.14294
1626.56158,0.21793
1625.07179,0.20386
1623.58200,0.15974
1622.09221,0.17118
1620.60243,0.12712
1619.11264,0.17448
1617.62285,0.20915
1616.13306,0.15708
1614.64327,0.12470
1613.15348,0.20226
1611.66370,0.15375
1610.17391,0.16079
1608.68412,0.18291
1607.19433,0.18654
1605.70454,0.15897
1604.21475,0.15514
1602.72496,0.15134
1601.23518,0.14121
1599.74539,0.13111
1598.25560,0.18235
1596.76581,0.14454
1595.27602,0.15419
1593.78623,0.11759
1592.29645,0.13309
1590.80666,0.12085
1589.31687,0.08665
1587.82708,0.09529
1586.33729,0.08776
1584.84750,0.08142
1583.35771,0.10519
1581.86793,0.11742
1580.37814,0.05910
1578.88835,0.08759
1577.39856,0.06288
1575.90877,0.04052
1574.41898,0.05173
1572.92920,0.07455
1571.43941,0.09508
1569.94962,0.08440
1568.45983,0.07375
1566.97004,0.09553
1565.48025,0.04792
1563.99047,0.07901
1562.50068,0.05806
1561.01089,0.04177
1559.52110,0.08683
1558.03131,0.06482
1556.54152,0.05209
1555.05173,0.04865
1553.56195,0.07300
1552.07216,0.05920
1550.58237,0.05006
1549.09258,0.07450
1547.60279,0.06773
1546.11300,0.05520
1544.62322,0.07279
1543.13343,0.12742
1541.64364,0.08375
1540.15385,0.06555
1538.66406,0.04739
1537.17427,0.06281
1535.68448,0.03429
1534.19470,0.05670
1532.70491,0.05717
1531.21512,0.01254
1529.72533,0.00265
1528.23554,0.05587
1526.74575,0.06515
1525.25597,0.08372
1523.76618,0.03984
1522.27639,0.10359
1520.78660,0.06555
1519.29681,0.06225
1517.80702,0.04741
1516.31724,0.05459
1514.82745,0.08262
1513.33766,0.06035
1511.84787,0.03810
1510.35808,0.07779
1508.86829,0.02147
1507.37850,0.02998
1505.88872,0.00265
1504.39893,0.03031
1502.90914,0.01288
1501.41935,0.06374
1499.92956,0.07067
1498.43977,0.15283
1496.94999,0.14709
1495.46020,0.14716
1493.97041,0.17618
1492.48062,0.26887
1490.99083,0.22738
1489.50104,0.30508
1488.01125,0.35679
1486.52147,0.40852
1485.03168,0.49673
1483.54189,0.50050
1482.05210,0.59108
1480.56231,0.68285
1479.07252,0.84522
1477.58274,0.98447
1476.09295,1.00922
1474.60316,1.03284
1473.11337,1.08657
1471.62358,1.11488
1470.13379,1.07958
1468.64401,1.00728
1467.15422,1.03452
1465.66443,0.96575
1464.17464,0.89702
1462.68485,0.90467
1461.19506,0.86145
1459.70527,0.85181
1458.21549,0.83410
1456.72570,0.70071
1455.23591,0.62637
1453.74612,0.58098
1452.25633,0.55413
1450.76654,0.44747
1449.27676,0.47043
1447.78697,0.51193
1446.29718,0.42040
1444.80739,0.41973
1443.31760,0.41909
1441.82781,0.37046
1440.33802,0.26285
1438.84824,0.22932
1437.35845,0.22011
1435.86866,0.23061
1434.37887,0.16361
1432.88908,0.19499
1431.39929,0.25069
1429.90951,0.21155
1428.41972,0.22913
1426.92993,0.29765
1425.44014,0.24934
1423.95035,0.25312
1422.46056,0.25694
1420.97078,0.23532
1419.48099,0.20333
1417.99120,0.26277
1416.50141,0.26670
1415.01162,0.22900
1413.52183,0.32671
1412.03204,0.36428
1410.54226,0.31510
1409.05247,0.29373
1407.56268,0.30940
1406.07289,0.35287
1404.58310,0.34720
1403.09331,0.34156
1401.60353,0.41520
1400.11374,0.39515
1398.62395,0.46885
1397.13416,0.51597
1395.64437,0.54576
1394.15458,0.55013
1392.66479,0.54758
1391.17501,0.59250
1389.68522,0.69299
1388.19543,0.61532
1386.70564,0.62157
1385.21585,0.62785
1383.72606,0.60465
1382.23628,0.58149
1380.74649,0.61967
1379.25670,0.67408
1377.76691,0.65215
1376.27712,0.66728
1374.78733,0.68360
1373.29755,0.80407
1371.80776,0.88524
1370.31797,0.97453
1368.82818,1.04939
1367.33839,1.12428
1365.84860,1.31316
1364.35881,1.52637
1362.86903,1.76043
1361.37924,1.85916
1359.88945,1.99031
1358.39966,2.00000
1356.90987,1.98890
1355.42008,1.99055
1353.93030,1.84183
1352.44051,1.83197
1350.95072,1.82214
1349.46093,1.71053
1347.97114,1.48787
1346.48135,1.26756
1344.99156,1.08546
1343.50178,0.89413
1342.01199,0.87985
1340.52220,0.77535
1339.03241,0.67088
1337.54262,0.62892
1336.05283,0.59508
1334.56305,0.56128
1333.07326,0.50899
1331.58347,0.42665
1330.09368,0.44384
1328.60389,0.39743
1327.11410,0.36608
1325.62432,0.39609
1324.13453,0.35439
1322.64474,0.35668
1321.15495,0.39487
1319.66516,0.37177
1318.17537,0.34870
1316.68558,0.26434
1315.19580,0.32232
1313.70601,0.29702
1312.21622,0.26481
1310.72643,0.27312
1309.23664,0.23866
1307.74685,0.30256
1306.25707,0.29824
1304.76728,0.27832
1303.27749,0.25843
1301.78770,0.25188
1300.29791,0.25345
1298.80812,0.23770
1297.31834,0.26132
1295.82855,0.27224
1294.33876,0.29938
1292.84897,0.32193
1291.35918,0.25079
1289.86939,0.24621
1288.37960,0.24165
1286.88982,0.23308
1285.40003,0.27659
1283.91024,0.27849
1282.42045,0.36719
1280.93066,0.32518
1279.44087,0.32948
1277.95109,0.31413
1276.46130,0.30692
1274.97151,0.32171
1273.48172,0.33654
1271.99193,0.34098
1270.50214,0.39405
1269.01235,0.46797
1267.52257,0.47366
1266.03278,0.47359
1264.54299,0.49206
1263.05320,0.41569
1261.56341,0.40356
1260.07362,0.39146
1258.58384,0.50839
1257.09405,0.55362
1255.60426,0.47624
1254.11447,0.47872
1252.62468,0.47197
1251.13489,0.41666
1249.64511,0.42617
1248.15532,0.39174
1246.66553,0.35271
1245.17574,0.31371
1243.68595,0.35342
1242.19616,0.30291
1240.70637,0.29061
1239.21659,0.29338
1237.72680,0.27420
1236.23701,0.22149
1234.74722,0.20468
1233.25743,0.17228
1231.76764,0.13990
1230.27786,0.13128
1228.78807,0.18747
1227.29828,0.18122
1225.80849,0.10211
1224.31870,0.08087
1222.82891,0.17537
1221.33912,0.10097
1219.84934,0.11337
1218.35955,0.12581
1216.86976,0.14174
1215.37997,0.15308
1213.89018,0.19221
1212.40039,0.10641
1210.91061,0.11090
1209.42082,0.10846
1207.93103,0.12746
1206.44124,0.14650
1204.95145,0.11407
1203.46166,0.05738
1201.97188,0.08170
1200.48209,0.08523
1198.99230,0.06912
1197.50251,0.06460
1196.01272,0.03119
1194.52293,0.01691
1193.03314,0.00265
1191.54336,0.01797
1190.05357,0.04606
1188.56378,0.03946
1187.07399,0.06760
1185.58420,0.08535
1184.09441,0.02909
1182.60463,0.05212
1181.11484,0.07517
1179.62505,0.03982
1178.13526,0.03574
1176.64547,0.05483
1175.15568,0.05544
1173.66589,0.08615
1172.17611,0.05789
1170.68632,0.03950
1169.19653,0.02113
1167.70674,0.07626
1166.21695,0.09671
1164.72716,0.00265
1163.23738,0.03105
1161.74759,0.06063
1160.25780,0.02893
1158.76801,0.04758
1157.27822,0.06626
1155.78843,0.05663
1154.29865,0.04586
1152.80886,0.01431
1151.31907,0.06376
1149.82928,0.07507
1148.33949,0.12228
1146.84970,0.10009
1145.35991,0.07793
1143.87013,0.03845
1142.38034,0.11006
1140.89055,0.10419
1139.40076,0.14463
1137.91097,0.17005
1136.42118,0.14807
1134.93140,0.15330
1133.44161,0.15857
1131.95182,0.31369
1130.46203,0.28141
1128.97224,0.30701
1127.48245,0.27248
1125.99266,0.24491
1124.50288,0.31225
1123.01309,0.35359
1121.52330,0.39495
1120.03351,0.34205
1118.54372,0.42570
1117.05393,0.44344
1115.56415,0.41955
1114.07436,0.39222
1112.58457,0.42334
1111.09478,0.45450
1109.60499,0.44577
1108.11520,0.43128
1106.62542,0.44112
1105.13563,0.67197
1103.64584,0.64022
1102.15605,0.73344
1100.66626,0.71158
1099.17647,0.68975
1097.68668,0.74836
1096.19690,0.77228
1094.70711,0.76731
1093.21732,0.84452
1091.72753,0.84308
1090.23774,0.85555
1088.74795,0.86806
1087.25817,0.93034
1085.76838,0.95794
1084.27859,1.06309
1082.78880,0.99935
1081.29901,1.08835
1079.80922,1.08368
1078.31943,1.15134
1076.82965,1.21903
1075.33986,1.20634
1073.85007,1.19137
1072.36028,1.24006
1070.87049,1.21820
1069.38070,1.22414
1067.89092,1.26713
1066.40113,1.31015
1064.91134,1.30461
1063.42155,1.20191
1061.93176,1.10849
1060.44197,1.01858
1058.95219,0.87431
1057.46240,0.86949
1055.97261,0.86470
1054.48282,0.83622
1052.99303,0.79736
1051.50324,0.70184
1050.01345,0.57163
1048.52367,0.56641
1047.03388,0.56469
1045.54409,0.56299
1044.05430,0.43869
1042.56451,0.43011
1041.07472,0.40189
1039.58494,0.32511
1038.09515,0.35712
1036.60536,0.33304
1035.11557,0.30899
1033.62578,0.31794
1032.13599,0.30147
1030.64620,0.36949
1029.15642,0.39935
1027.66663,0.33842
1026.17684,0.27752
1024.68705,0.46367
1023.19726,0.55382
1021.70747,0.76316
1020.21769,0.78973
1018.72790,0.97136
1017.23811,1.10559
1015.74832,1.23985
1014.25853,1.37992
1012.76874,1.61373
1011.27896,1.80940
1009.78917,1.83733
1008.29938,1.88959
1006.80959,1.79783
1005.31980,1.70610
1003.83001,1.68208
1002.34022,1.65462
1000.85044,1.57166
999.36065,1.36839
997.87086,1.28838
996.38107,1.20839
994.89128,1.28637
993.40149,1.34123
991.91171,1.28736
990.42192,1.33418
988.93213,1.20286
987.44234,1.17164
985.95255,1.14045
984.46276,1.01500
982.97297,0.97635
981.48319,0.93426
979.99340,0.95699
978.50361,0.93347
977.01382,0.90997
975.52403,0.88767
974.03424,0.76589
972.54446,0.72513
971.05467,0.83249
969.56488,0.74898
968.07509,0.71120
966.58530,0.67345
965.09551,0.52061
963.60573,0.58878
962.11594,0.52856
960.62615,0.55976
959.13636,0.51059
957.64657,0.46144
956.15678,0.42101
954.66699,0.49051
953.17721,0.43393
951.68742,0.40862
950.19763,0.43887
948.70784,0.46915
947.21805,0.37451
945.72826,0.41411
944.23848,0.40630
942.74869,0.40314
941.25890,0.46018
939.76911,0.47734
938.27932,0.49452
936.78953,0.53545
935.29974,0.57177
933.80996,0.58615
932.32017,0.60287
930.83038,0.60747
929.34059,0.61210
927.85080,0.67171
926.36101,0.54393
924.87123,0.57005
923.38144,0.48860
921.89165,0.49048
920.40186,0.49239
918.91207,0.51516
917.42228,0.53333
915.93250,0.57582
914.44271,0.56628
912.95292,0.56082
911.46313,0.55538
909.97334,0.58411
908.48355,0.62559
906.99376,0.58264
905.50398,0.57327
904.01419,0.59402
902.52440,0.61479
901.03461,0.55460
899.54482,0.58122
898.05503,0.56969
896.56525,0.61834
895.07546,0.63232
893.58567,0.64633
892.09588,0.60020
890.60609,0.65244
889.11630,0.65265
887.62651,0.59504
886.13673,0.58258
884.64694,0.57015
883.15715,0.62254
881.66736,0.67381
880.17757,0.67303
878.68778,0.68097
877.19800,0.68893
875.70821,0.70097
874.21842,0.69800
872.72863,0.74019
871.23884,0.81016
869.74905,0.81654
868.25927,0.82294
866.76948,0.84210
865.27969,0.82889
863.78990,0.88629
862.30011,0.83264
860.81032,0.81721
859.32053,0.80180
857.83075,0.77949
856.34096,0.71670
854.85117,0.71411
853.36138,0.73122
851.87159,0.67893
850.38180,0.62668
848.89202,0.55942
847.40223,0.41697
845.91244,0.42844
844.42265,0.39887
842.93286,0.36932
841.44307,0.30567
839.95329,0.35081
838.46350,0.34969
836.97371,0.32084
835.48392,0.29549
833.99413,0.27017
832.50434,0.28768
831.01455,0.27283
829.52477,0.29735
828.03498,0.25594
826.54519,0.23539
825.05540,0.21487
823.56561,0.20364
822.07582,0.21210
820.58604,0.15696
819.09625,0.13655
817.60646,0.11618
816.11667,0.12245
814.62688,0.11254
813.13709,0.12349
811.64730,0.03498
810.15752,0.01880
808.66773,0.00265
807.17794,0.02398
805.68815,0.09972
804.19836,0.16044
802.70857,0.15351
801.21879,0.14661
799.72900,0.19933
798.23921,0.23472
796.74942,0.32220
795.25963,0.34203
793.76984,0.36189
792.28006,0.34996
790.79027,0.40979
789.30048,0.55180
787.81069,0.54574
786.32090,0.58078
784.83111,0.61586
783.34132,0.67236
781.85154,0.60279
780.36175,0.60729
778.87196,0.62397
777.38217,0.64067
775.89238,0.69501
774.40259,0.74244
772.91281,0.79221
771.42302,0.78068
769.93323,0.76919
768.44344,0.74384
766.95365,0.79026
765.46386,0.82629
763.97407,0.68880
762.48429,0.63291
760.99450,0.57705
759.50471,0.59468
758.01492,0.44921
756.52513,0.40906
755.03534,0.36257
753.54556,0.31610
752.05577,0.23323
750.56598,0.19897
749.07619,0.17053
747.58640,0.14212
746.09661,0.11374
744.60683,0.15481
743.11704,0.08136
741.62725,0.03456
740.13746,0.03753
738.64767,0.04053
737.15788,0.05166
735.66809,0.03737
734.17831,0.04856
732.68852,0.05920
731.19873,0.06987
729.70894,0.06726
728.21915,0.03460
726.72936,0.00660
725.23958,0.05290
723.74979,0.09228
722.26000,0.13170
720.77021,0.08553
719.28042,0.05443
717.79063,0.05344
716.30084,0.06578
714.81106,0.07816
713.32127,0.00436
711.83148,0.03357
710.34169,0.00265
708.85190,0.00710
707.36211,0.01158
705.87233,0.01378
704.38254,0.08890
702.89275,0.05067
701.40296,0.05584
699.91317,0.06105
698.42338,0.13282
696.93360,0.11899
695.44381,0.16420
693.95402,0.15912
692.46423,0.15406
690.97444,0.15771
689.48465,0.16601
687.99486,0.14658
686.50508,0.17519
685.01529,0.20383
683.52550,0.13936
682.03571,0.20913
680.54592,0.19215
679.05613,0.15323
677.56635,0.11433
676.07656,0.19694
674.58677,0.21479
673.09698,0.14474
671.60719,0.11406
670.11740,0.08341
668.62761,0.08865
667.13783,0.12978
665.64804,0.10442
664.15825,0.07909
662.66846,0.05090
661.17867,0.03315
659.68888,0.10914
658.19910,0.11401
656.70931,0.11890
655.21952,0.08970
653.72973,0.09407
652.23994,0.08575
650.75015,0.11275
649.26037,0.13977
647.77058,0.12228
646.28079,0.09441
644.79100,0.07698
643.30121,0.06999
641.81142,0.06303
640.32163,0.09196
638.83185,0.08737
637.34206,0.00877
635.85227,0.00940
634.36248,0.01006
632.87269,0.00265
631.38290,0.08238
629.89312,0.07422
628.40333,0.07245
626.91354,0.07070
625.42375,0.08230
623.93396,0.10780
622.44417,0.14143
620.95438,0.17509
619.46460,0.18565
617.97481,0.12334
616.48502,0.08767
614.99523,0.09078
613.50544,0.09393
612.01565,0.12430
610.52587,0.09453
609.03608,0.13537
607.54629,0.14210
606.05650,0.14887
604.56671,0.20830
603.07692,0.15670
601.58714,0.12652
600.09735,0.09638
598.60756,0.15941
597.11777,0.12874
595.62798,0.18257
594.13819,0.13230
592.64840,0.08205
591.15862,0.16836
589.66883,0.16561
588.17904,0.11430
586.68925,0.10235
585.19946,0.09043
583.70967,0.12945
582.21989,0.18238
580.73010,0.18790
579.24031,0.19346
577.75052,0.19673
576.26073,0.22201
574.77094,0.17674
573.28115,0.17662
571.79137,0.17654
570.30158,0.19152
568.81179,0.30372
567.32200,0.28406
565.83221,0.26442
564.34242,0.23092
562.85264,0.38142
561.36285,0.43476
559.87306,0.39673
558.38327,0.35872
556.89348,0.43760
555.40369,0.41933
553.91391,0.43058
552.42412,0.44187
550.93433,0.52318
549.44454,0.55708
547.95475,0.64076
546.46496,0.62671
544.97517,0.61269
543.48539,0.56225
541.99560,0.72704
540.50581,0.68938
539.01602,0.65176
537.52623,0.54705
536.03644,0.57081
534.54666,0.58996
533.05687,0.61551
531.56708,0.64108
530.07729,0.56314
528.58750,0.52456
527.09771,0.48775
525.60792,0.45096
524.11814,0.43677
522.62835,0.42607
521.13856,0.41772
519.64877,0.35445
518.15898,0.29120
516.66919,0.31186
515.17941,0.27354
513.68962,0.32723
512.19983,0.38096
510.71004,0.30223
509.22025,0.32420
507.73046,0.28256
506.24068,0.32540
504.75089,0.36828
503.26110,0.33598
501.77131,0.31875
500.28152,0.29288
498.79173,0.26703
497.30194,0.24295
495.81216,0.30683
494.32237,0.30074
492.83258,0.29467
491.34279,0.38641
489.85300,0.30925
488.36321,0.26336
486.87343,0.23369
485.38364,0.20406
483.89385,0.20685
482.40406,0.19000
480.91427,0.17376
479.42448,0.15755
477.93469,0.13847
476.44491,0.08124
474.95512,0.08594
473.46533,0.09067
471.97554,0.08907
470.48575,0.09675
468.99596,0.00265
467.50618,0.05507
466.01639,0.10753
464.52660,0.02292
463.03681,0.02395
461.54702,0.02905
460.05723,0.03419
458.56745,0.02953
457.07766,0.03761
455.58787,0.07639
454.09808,0.11520
452.60829,0.14073
451.11850,0.14431
449.62871,0.14791
448.13893,0.15155
446.64914,0.20496
445.15935,0.26419
443.66956,0.40675
442.17977,0.39720
440.68998,0.38768
439.20020,0.41116
437.71041,0.52375
436.22062,0.61439
434.73083,0.70507
433.24104,0.72751
431.75125,0.80551
430.26146,0.84247
428.77168,0.87946
427.28189,0.94598
425.79210,1.01021
424.30231,1.00506
422.81252,0.99993
421.32273,1.01913
419.83295,1.00134
418.34316,0.97721
416.85337,0.95311
415.36358,0.74335
413.87379,0.61807
412.38400,0.51712
410.89422,0.41620
409.40443,0.48538
407.91464,0.49443
406.42485,0.43641
404.93506,0.41949
403.44527,0.40259
401.95548,0.38515
400.46570,0.38162
398.97591,0.40530
397.48612,0.42902
395.99633,0.43020
394.50654,0.42679
393.01675,0.41589
391.52697,0.40501
390.03718,0.27673
388.54739,0.34285
387.05760,0.35115
385.56781,0.35948
384.07802,0.30536
382.58824,0.22119
381.09845,0.21862
379.60866,0.21608
378.11887,0.31942
376.62908,0.18446
375.13929,0.17622
373.64950,0.16801
372.15972,0.14768
370.66993,0.15746
369.18014,0.15396
367.69035,0.15049
366.20056,0.13490
364.71077,0.12513
363.22099,0.13737
361.73120,0.14964
360.24141,0.15268
358.75162,0.16500
357.26183,0.15306
355.77204,0.14115
354.28225,0.05753
352.79247,0.04799
351.30268,0.04600
349.81289,0.04404
348.32310,0.13640
346.83331,0.03095
345.34352,0.07421
343.85374,0.11750
342.36395,0.06073
340.87416,0.03524
339.38437,0.07804
337.89458,0.12086
336.40479,0.09545
334.91501,0.04347
333.42522,0.04126
331.93543,0.03908
330.44564,0.17923
328.95585,0.12389
327.46606,0.10444
325.97627,0.08503
324.48649,0.05407
322.99670,0.14874
321.50691,0.14046
320.01712,0.13222
318.52733,0.11359
317.03754,0.18755
315.54776,0.16840
314.05797,0.14929
312.56818,0.05441
311.07839,0.04172
309.58860,0.06550
308.09881,0.08930
306.60902,0.00265
305.11924,0.16873
303.62945,0.10403
302.13966,0.03935
300.64987,0.03545
299.16008,0.00265
