1778.52000,0.00570
1777.03021,0.05143
1775.54042,0.01512
1774.05063,0.02574
1772.56085,0.03459
1771.07106,0.02182
1769.58127,0.00998
1768.09148,0.01712
1766.60169,0.00354
1765.11190,0.04049
1763.62212,0.00893
1762.13233,0.01708
1760.64254,0.05773
1759.15275,0.01184
1757.66296,0.01738
1756.17317,0.04819
1754.68339,0.01953
1753.19360,0.01523
1751.70381,0.02720
1750.21402,0.00584
1748.72423,0.04943
1747.23444,0.03805
1745.74465,0.02398
1744.25487,0.01987
1742.76508,0.01038
1741.27529,0.04511
1739.78550,0.05461
1738.29571,0.01725
1736.80592,0.03854
1735.31614,0.05806
1733.82635,0.05596
1732.33656,0.02143
1730.84677,0.02480
1729.35698,0.03722
1727.86719,0.03885
1726.37740,0.00354
1724.88762,0.03634
1723.39783,0.03310
1721.90804,0.06146
1720.41825,0.02672
1718.92846,0.01456
1717.43867,0.05923
1715.94889,0.02278
1714.45910,0.02153
1712.96931,0.05998
1711.47952,0.01821
1709.98973,0.04320
1708.49994,0.04567
1707.01016,0.04502
1705.52037,0.04440
1704.03058,0.06680
1702.54079,0.06128
1701.05100,0.04226
1699.56121,0.06655
1698.07142,0.10531
1696.58164,0.09089
1695.09185,0.14593
1693.60206,0.10542
1692.11227,0.12626
1690.62248,0.14262
1689.13269,0.16532
1687.64291,0.14297
1686.15312,0.14860
1684.66333,0.18402
1683.17354,0.15634
1681.68375,0.17288
1680.19396,0.17051
1678.70417,0.17449
1677.21439,0.18210
1675.72460,0.18704
1674.23481,0.15143
1672.74502,0.15372
1671.25523,0.16596
1669.76544,0.19446
1668.27566,0.17340
1666.78587,0.13884
1665.29608,0.15932
1663.80629,0.13654
1662.31650,0.18052
1660.82671,0.18576
1659.33693,0.16668
1657.84714,0.14944
1656.35735,0.13943
1654.86756,0.15381
1653.37777,0.09247
1651.88798,0.12223
1650.39819,0.12858
1648.90841,0.13857
1647.41862,0.11973
1645.92883,0.11579
1644.43904,0.11189
1642.94925,0.12561
1641.45946,0.12041
1639.96968,0.09631
1638.47989,0.11733
1636.99010,0.10501
1635.50031,0.13150
1634.01052,0.11924
1632.52073,0.12235
1631.03094,0.10834
1629.54116,0.15750
1628.05137,0.15167
1626.56158,0.12243
1625.07179,0.15815
1623.58200,0.19028
1622.09221,0.14310
1620.60243,0.15005
1619.11264,0.14621
1617.62285,0.11354
1616.13306,0.12238
1614.64327,0.11051
1613.15348,0.17262
1611.66370,0.14097
1610.17391,0.15805
1608.68412,0.14991
1607.19433,0.13278
1605.70454,0.14184
1604.21475,0.12837
1602.72496,0.11494
1601.23518,0.14392
1599.74539,0.15039
1598.25560,0.15418
1596.76581,0.12735
1595.27602,0.11767
1593.78623,0.11795
1592.29645,0.09301
1590.80666,0.10687
1589.31687,0.09461
1587.82708,0.07426
1586.33729,0.09272
1584.84750,0.07785
1583.35771,0.06661
1581.86793,0.07163
1580.37814,0.07218
1578.88835,0.06825
1577.39856,0.06074
1575.90877,0.03883
1574.41898,0.02597
1572.92920,0.04650
1571.43941,0.03009
1569.94962,0.02814
1568.45983,0.02622
1566.97004,0.01712
1565.48025,0.00354
1563.99047,0.01849
1562.50068,0.00913
1561.01089,0.04038
1559.52110,0.02837
1558.03131,0.06238
1556.54152,0.03690
1555.05173,0.05024
1553.56195,0.03294
1552.07216,0.01387
1550.58237,0.05975
1549.09258,0.02721
1547.60279,0.06414
1546.11300,0.08757
1544.62322,0.07045
1543.13343,0.08222
1541.64364,0.06877
1540.15385,0.03821
1538.66406,0.00769
1537.17427,0.03220
1535.68448,0.04141
1534.19470,0.03713
1532.70491,0.01484
1531.21512,0.02054
1529.72533,0.01454
1528.23554,0.00316
1526.74575,0.00354
1525.25597,0.04820
1523.76618,0.02346
1522.27639,0.05015
1520.78660,0.02277
1519.29681,0.04140
1517.80702,0.00957
1516.31724,0.02465
1514.82745,0.02985
1513.33766,0.03959
1511.84787,0.04936
1510.35808,0.00054
1508.86829,0.02471
1507.37850,0.04260
1505.88872,0.00280
1504.39893,0.04781
1502.90914,0.01799
1501.41935,0.00354
1499.92956,0.04939
1498.43977,0.06010
1496.94999,0.09429
1495.46020,0.13392
1493.97041,0.18170
1492.48062,0.20787
1490.99083,0.19889
1489.50104,0.34505
1488.01125,0.34741
1486.52147,0.34980
1485.03168,0.45186
1483.54189,0.55215
1482.05210,0.55507
1480.56231,0.74470
1479.07252,0.77564
1477.58274,0.88236
1476.09295,0.99993
1474.60316,1.02556
1473.11337,1.04399
1471.62358,1.11026
1470.13379,1.08637
1468.64401,1.07154
1467.15422,1.00172
1465.66443,0.95178
1464.17464,0.90186
1462.68485,0.87813
1461.19506,0.85262
1459.70527,0.76763
1458.21549,0.71333
1456.72570,0.61306
1455.23591,0.60661
1453.74612,0.56953
1452.25633,0.50272
1450.76654,0.45037
1449.27676,0.41158
1447.78697,0.40799
1446.29718,0.38548
1444.80739,0.37699
1443.31760,0.36852
1441.82781,0.28299
1440.33802,0.24347
1438.84824,0.21661
1437.35845,0.18077
1435.86866,0.16118
1434.37887,0.17138
1432.88908,0.14825
1431.39929,0.18556
1429.90951,0.21749
1428.41972,0.21158
1426.92993,0.18767
1425.44014,0.18092
1423.95035,0.17239
1422.46056,0.16389
1420.97078,0.21044
1419.48099,0.23627
1417.99120,0.19540
1416.50141,0.24293
1415.01162,0.21294
1413.52183,0.27136
1412.03204,0.26307
1410.54226,0.22596
1409.05247,0.26192
1407.56268,0.21044
1406.07289,0.23745
1404.58310,0.24870
1403.09331,0.25998
1401.60353,0.25371
1400.11374,0.25738
1398.62395,0.36028
1397.13416,0.32885
1395.64437,0.34434
1394.15458,0.41397
1392.66479,0.42501
1391.17501,0.42797
1389.68522,0.43005
1388.19543,0.38347
1386.70564,0.39373
1385.21585,0.40402
1383.72606,0.41163
1382.23628,0.38681
1380.74649,0.38727
1379.25670,0.38686
1377.76691,0.38648
1376.27712,0.46458
1374.78733,0.44082
1373.29755,0.51537
1371.80776,0.57012
1370.31797,0.64834
1368.82818,0.69773
1367.33839,0.74716
1365.84860,0.89851
1364.35881,1.07154
1362.86903,1.17696
1361.37924,1.33021
1359.88945,1.38339
1358.39966,1.42127
1356.90987,1.43303
1355.42008,1.40064
1353.93030,1.44041
1352.44051,1.41980
1350.95072,1.39922
1349.46093,1.26685
1347.97114,1.15525
1346.48135,0.92465
1344.99156,0.77704
1343.50178,0.70341
1342.01199,0.65054
1340.52220,0.53458
1339.03241,0.51514
1337.54262,0.48401
1336.05283,0.45111
1334.56305,0.41823
1333.07326,0.42416
1331.58347,0.38683
1330.09368,0.31527
1328.60389,0.26268
1327.11410,0.27774
1325.62432,0.24595
1324.13453,0.26378
1322.64474,0.27533
1321.15495,0.27248
1319.66516,0.28860
1318.17537,0.30475
1316.68558,0.23256
1315.19580,0.23524
1313.70601,0.21451
1312.21622,0.21094
1310.72643,0.19026
1309.23664,0.15609
1307.74685,0.16524
1306.25707,0.18343
1304.76728,0.16423
1303.27749,0.14506
1301.78770,0.16695
1300.29791,0.18977
1298.80812,0.21262
1297.31834,0.17418
1295.82855,0.22865
1294.33876,0.26332
1292.84897,0.24300
1291.35918,0.14246
1289.86939,0.17541
1288.37960,0.20839
1286.88982,0.23058
1285.40003,0.21673
1283.91024,0.20471
1282.42045,0.28561
1280.93066,0.22586
1279.44087,0.28156
1277.95109,0.35082
1276.46130,0.31010
1274.97151,0.30322
1273.48172,0.29637
1271.99193,0.29091
1270.50214,0.33417
1269.01235,0.35311
1267.52257,0.39733
1266.03278,0.38207
1264.54299,0.39298
1263.05320,0.38589
1261.56341,0.38740
1260.07362,0.38894
1258.58384,0.44687
1257.09405,0.44801
1255.60426,0.42394
1254.11447,0.47294
1252.62468,0.41647
1251.13489,0.41864
1249.64511,0.36312
1248.15532,0.28600
1246.66553,0.27879
1245.17574,0.27161
1243.68595,0.24778
1242.19616,0.23119
1240.70637,0.26693
1239.21659,0.23688
1237.72680,0.15365
1236.23701,0.16874
1234.74722,0.18296
1233.25743,0.14762
1231.76764,0.11231
1230.27786,0.11760
1228.78807,0.15539
1227.29828,0.12918
1225.80849,0.10931
1224.31870,0.09579
1222.82891,0.08500
1221.33912,0.06794
1219.84934,0.07705
1218.35955,0.08619
1216.86976,0.07913
1215.37997,0.09735
1213.89018,0.08403
1212.40039,0.05903
1210.91061,0.10800
1209.42082,0.06862
1207.93103,0.05723
1206.44124,0.04587
1204.95145,0.08865
1203.46166,0.03948
1201.97188,0.01017
1200.48209,0.06116
1198.99230,0.04183
1197.50251,0.04779
1196.01272,0.05106
1194.52293,0.02552
1193.03314,0.00000
1191.54336,0.05903
1190.05357,0.01349
1188.56378,0.03741
1187.07399,0.01538
1185.58420,0.05739
1184.09441,0.02911
1182.60463,0.04729
1181.11484,0.06550
1179.62505,0.04722
1178.13526,0.01454
1176.64547,0.00354
1175.15568,0.00759
1173.66589,0.03513
1172.17611,0.06720
1170.68632,0.07180
1169.19653,0.07643
1167.70674,0.05539
1166.21695,0.04249
1164.72716,0.08824
1163.23738,0.08352
1161.74759,0.02924
1160.25780,0.01736
1158.76801,0.03438
1157.27822,0.05142
1155.78843,0.03783
1154.29865,0.07568
1152.80886,0.00354
1151.31907,0.06724
1149.82928,0.05792
1148.33949,0.10185
1146.84970,0.09485
1145.35991,0.08788
1143.87013,0.08951
1142.38034,0.06862
1140.89055,0.10638
1139.40076,0.17934
1137.91097,0.15584
1136.42118,0.14680
1134.93140,0.15898
1133.44161,0.17118
1131.95182,0.31643
1130.46203,0.25791
1128.97224,0.30403
1127.48245,0.34115
1125.99266,0.32150
1124.50288,0.37041
1123.01309,0.35848
1121.52330,0.34658
1120.03351,0.40821
1118.54372,0.36255
1117.05393,0.46031
1115.56415,0.44087
1114.07436,0.46293
1112.58457,0.45302
1111.09478,0.44313
1109.60499,0.47792
1108.11520,0.52535
1106.62542,0.55569
1105.13563,0.63474
1103.64584,0.68588
1102.15605,0.78754
1100.66626,0.79680
1099.17647,0.80609
1097.68668,0.75094
1096.19690,0.80763
1094.70711,0.82198
1093.21732,0.89226
1091.72753,0.93281
1090.23774,0.96437
1088.74795,0.99597
1087.25817,1.05555
1085.76838,1.02949
1084.27859,1.05126
1082.78880,1.10010
1081.29901,1.15800
1079.80922,1.14469
1078.31943,1.20355
1076.82965,1.26243
1075.33986,1.27085
1073.85007,1.26938
1072.36028,1.21835
1070.87049,1.30711
1069.38070,1.38599
1067.89092,1.37787
1066.40113,1.36979
1064.91134,1.30718
1063.42155,1.30953
1061.93176,1.13156
1060.44197,1.02395
1058.95219,0.93080
1057.46240,0.89990
1055.97261,0.86903
1054.48282,0.94641
1052.99303,0.88674
1051.50324,0.79014
1050.01345,0.64938
1048.52367,0.66735
1047.03388,0.63757
1045.54409,0.60781
1044.05430,0.53751
1042.56451,0.50240
1041.07472,0.42945
1039.58494,0.36194
1038.09515,0.37021
1036.60536,0.37174
1035.11557,0.37331
1033.62578,0.34289
1032.13599,0.31611
1030.64620,0.36240
1029.15642,0.36634
1027.66663,0.38834
1026.17684,0.41038
1024.68705,0.51089
1023.19726,0.63128
1021.70747,0.76702
1020.21769,0.88837
1018.72790,1.10714
1017.23811,1.17444
1015.74832,1.24177
1014.25853,1.49760
1012.76874,1.69665
1011.27896,1.90835
1009.78917,1.95777
1008.29938,2.00000
1006.80959,1.95479
1005.31980,1.90961
1003.83001,1.78782
1002.34022,1.83829
1000.85044,1.65613
999.36065,1.54164
997.87086,1.47542
996.38107,1.40923
994.89128,1.53380
993.40149,1.45910
991.91171,1.56028
990.42192,1.48023
988.93213,1.43989
987.44234,1.37028
985.95255,1.30069
984.46276,1.26044
982.97297,1.27253
981.48319,1.21701
979.99340,1.22013
978.50361,1.19894
977.01382,1.17778
975.52403,1.15755
974.03424,1.10579
972.54446,0.94043
971.05467,0.99694
969.56488,0.98946
968.07509,0.98426
966.58530,0.97909
965.09551,0.84545
963.60573,0.87325
962.11594,0.85329
960.62615,0.83877
959.13636,0.76882
957.64657,0.69890
956.15678,0.64840
954.66699,0.68090
953.17721,0.65571
951.68742,0.61341
950.19763,0.62210
948.70784,0.63081
947.21805,0.57238
945.72826,0.57800
944.23848,0.57463
942.74869,0.62179
941.25890,0.68791
939.76911,0.69230
938.27932,0.69672
936.78953,0.72596
935.29974,0.72187
933.80996,0.71421
932.32017,0.73452
930.83038,0.75126
929.34059,0.76803
927.85080,0.76950
926.36101,0.66820
924.87123,0.67695
923.38144,0.66588
921.89165,0.69633
920.40186,0.72681
918.91207,0.69149
917.42228,0.73014
915.93250,0.69848
914.44271,0.72187
912.95292,0.74573
911.46313,0.76962
909.97334,0.74621
908.48355,0.83914
906.99376,0.83292
905.50398,0.80328
904.01419,0.79756
902.52440,0.79188
901.03461,0.73527
899.54482,0.80765
898.05503,0.84669
896.56525,0.87224
895.07546,0.87257
893.58567,0.87292
892.09588,0.83093
890.60609,0.81511
889.11630,0.76416
887.62651,0.73849
886.13673,0.72862
884.64694,0.71879
883.15715,0.83749
881.66736,0.79210
880.17757,0.84052
878.68778,0.81728
877.19800,0.79407
875.70821,0.85430
874.21842,0.84423
872.72863,0.91354
871.23884,0.91074
869.74905,0.90932
868.25927,0.90793
866.76948,0.91334
865.27969,0.95845
863.78990,0.96211
862.30011,0.96671
860.81032,0.92895
859.32053,0.89122
857.83075,0.84811
856.34096,0.76716
854.85117,0.80347
853.36138,0.78750
851.87159,0.70754
850.38180,0.62761
848.89202,0.58378
847.40223,0.52825
845.91244,0.39160
844.42265,0.39610
842.93286,0.40064
841.44307,0.37048
839.95329,0.29437
838.46350,0.23993
836.97371,0.23331
835.48392,0.24250
833.99413,0.25172
832.50434,0.23528
831.01455,0.27477
829.52477,0.24395
828.03498,0.20505
826.54519,0.19684
825.05540,0.18865
823.56561,0.18591
822.07582,0.19222
820.58604,0.17060
819.09625,0.15442
817.60646,0.13828
816.11667,0.07076
814.62688,0.10697
813.13709,0.00885
811.64730,0.05414
810.15752,0.04446
808.66773,0.03480
807.17794,0.00354
805.68815,0.05286
804.19836,0.05713
802.70857,0.08036
801.21879,0.10362
799.72900,0.18282
798.23921,0.26746
796.74942,0.41346
795.25963,0.40753
793.76984,0.40164
792.28006,0.47197
790.79027,0.59283
789.30048,0.65691
787.81069,0.68135
786.32090,0.68778
784.83111,0.69424
783.34132,0.70343
781.85154,0.70274
780.36175,0.70297
778.87196,0.71587
777.38217,0.72879
775.89238,0.80757
774.40259,0.79169
772.91281,0.85430
771.42302,0.87501
769.93323,0.89574
768.44344,0.84031
766.95365,0.91476
765.46386,0.88825
763.97407,0.79774
762.48429,0.71898
760.99450,0.64025
759.50471,0.60304
758.01492,0.49461
756.52513,0.44483
755.03534,0.38967
753.54556,0.33454
752.05577,0.19828
750.56598,0.17657
749.07619,0.14948
747.58640,0.13866
746.09661,0.12786
744.60683,0.08193
743.11704,0.03873
741.62725,0.04696
740.13746,0.05793
738.64767,0.06892
737.15788,0.01232
735.66809,0.00354
734.17831,0.06634
732.68852,0.05479
731.19873,0.04326
729.70894,0.06107
728.21915,0.03743
726.72936,0.02103
725.23958,0.07230
723.74979,0.07354
722.26000,0.07482
720.77021,0.10363
719.28042,0.04590
717.79063,0.00354
716.30084,0.02461
714.81106,0.04571
713.32127,0.01679
711.83148,0.00865
710.34169,0.01135
708.85190,0.01499
707.36211,0.01866
705.87233,0.03227
704.38254,0.00354
702.89275,0.04331
701.40296,0.08403
699.91317,0.12477
698.42338,0.13037
696.93360,0.15043
695.44381,0.15699
693.95402,0.17125
692.46423,0.18554
690.97444,0.17867
689.48465,0.16100
687.99486,0.13886
686.50508,0.14290
685.01529,0.14697
683.52550,0.19976
682.03571,0.22463
680.54592,0.20444
679.05613,0.20728
677.56635,0.21014
676.07656,0.19455
674.58677,0.14022
673.09698,0.06607
671.60719,0.09656
670.11740,0.12708
668.62761,0.03950
667.13783,0.02409
665.64804,0.03982
664.15825,0.05558
662.66846,0.07633
661.17867,0.07096
659.68888,0.05209
658.19910,0.07293
656.70931,0.09380
655.21952,0.08314
653.72973,0.06079
652.23994,0.07544
650.75015,0.07253
649.26037,0.06965
647.77058,0.08439
646.28079,0.10186
644.79100,0.13470
643.30121,0.08640
641.81142,0.03814
640.32163,0.07647
638.83185,0.06614
637.34206,0.00354
635.85227,0.02088
634.36248,0.03826
632.87269,0.02636
631.38290,0.02712
629.89312,0.03602
628.40333,0.04630
626.91354,0.05662
625.42375,0.01962
623.93396,0.10980
622.44417,0.09946
620.95438,0.08915
619.46460,0.07301
617.97481,0.03977
616.48502,0.09042
614.99523,0.07753
613.50544,0.06467
612.01565,0.02433
610.52587,0.05617
609.03608,0.11238
607.54629,0.10776
606.05650,0.10316
604.56671,0.09003
603.07692,0.22481
601.58714,0.19235
600.09735,0.15992
598.60756,0.11535
597.11777,0.12581
595.62798,0.11556
594.13819,0.09813
592.64840,0.08073
591.15862,0.09311
589.66883,0.08750
588.17904,0.09543
586.68925,0.07364
585.19946,0.05188
583.70967,0.05360
582.21989,0.09592
580.73010,0.09364
579.24031,0.09139
577.75052,0.11576
576.26073,0.13657
574.77094,0.15920
573.28115,0.17150
571.79137,0.18382
570.30158,0.23360
568.81179,0.27169
567.32200,0.23721
565.83221,0.20277
564.34242,0.24996
562.85264,0.31612
561.36285,0.41207
559.87306,0.38901
558.38327,0.36599
556.89348,0.39800
555.40369,0.45890
553.91391,0.46527
552.42412,0.47168
550.93433,0.51283
549.44454,0.58196
547.95475,0.62047
546.46496,0.60535
544.97517,0.59026
543.48539,0.66763
541.99560,0.63953
540.50581,0.68495
539.01602,0.73040
537.52623,0.63475
536.03644,0.65366
534.54666,0.64013
533.05687,0.67353
531.56708,0.70695
530.07729,0.65203
528.58750,0.55747
527.09771,0.51163
525.60792,0.46582
524.11814,0.49940
522.62835,0.44733
521.13856,0.44039
519.64877,0.43212
518.15898,0.42389
516.66919,0.37736
515.17941,0.32094
513.68962,0.29746
512.19983,0.27401
510.71004,0.25375
509.22025,0.23623
507.73046,0.32334
506.24068,0.31083
504.75089,0.29836
503.26110,0.37654
501.77131,0.31407
500.28152,0.31747
498.79173,0.32090
497.30194,0.28738
495.81216,0.29357
494.32237,0.33721
492.83258,0.38089
491.34279,0.32675
489.85300,0.36011
488.36321,0.31235
486.87343,0.24568
485.38364,0.17904
483.89385,0.21342
482.40406,0.19644
480.91427,0.16911
479.42448,0.14182
477.93469,0.15378
476.44491,0.13511
474.95512,0.09393
473.46533,0.05277
471.97554,0.00354
470.48575,0.01282
468.99596,0.04287
467.50618,0.04500
466.01639,0.04716
464.52660,0.01688
463.03681,0.05427
461.54702,0.05922
460.05723,0.06420
458.56745,0.05298
457.07766,0.06164
455.58787,0.10323
454.09808,0.14485
452.60829,0.17974
451.11850,0.12449
449.62871,0.14096
448.13893,0.15745
446.64914,0.29526
445.15935,0.36727
443.66956,0.44383
442.17977,0.46991
440.68998,0.49602
439.20020,0.51495
437.71041,0.64122
436.22062,0.69087
434.73083,0.74055
433.24104,0.83444
431.75125,0.97706
430.26146,1.03224
428.77168,1.08745
427.28189,1.16704
425.79210,1.16821
424.30231,1.16309
422.81252,1.15800
421.32273,1.20434
419.83295,1.19030
418.34316,1.10189
416.85337,1.01351
415.36358,0.84535
413.87379,0.74305
412.38400,0.68813
410.89422,0.63323
409.40443,0.58423
407.91464,0.66781
406.42485,0.53230
404.93506,0.54335
403.44527,0.55444
401.95548,0.55157
400.46570,0.48021
398.97591,0.48912
397.48612,0.49807
395.99633,0.49443
394.50654,0.48450
393.01675,0.48768
391.52697,0.49088
390.03718,0.51080
388.54739,0.47304
387.05760,0.49663
385.56781,0.52024
384.07802,0.50692
382.58824,0.37820
381.09845,0.34509
379.60866,0.31202
378.11887,0.27988
376.62908,0.31359
375.13929,0.29504
373.64950,0.27651
372.15972,0.26072
370.66993,0.18995
369.18014,0.17242
367.69035,0.15492
366.20056,0.19425
364.71077,0.12811
363.22099,0.19411
361.73120,0.26014
360.24141,0.19049
358.75162,0.13348
357.26183,0.13648
355.77204,0.13951
354.28225,0.05644
352.79247,0.07441
351.30268,0.08879
349.81289,0.10321
348.32310,0.11856
346.83331,0.06451
345.34352,0.07721
343.85374,0.08994
342.36395,0.11263
340.87416,0.13083
339.38437,0.12337
337.89458,0.11593
336.40479,0.02060
334.91501,0.11912
333.42522,0.12299
331.93543,0.12689
330.44564,0.15246
328.95585,0.16363
327.46606,0.16942
325.97627,0.17524
324.48649,0.11166
322.99670,0.08868
321.50691,0.09865
320.01712,0.10865
318.52733,0.22373
317.03754,0.15128
315.54776,0.11808
314.05797,0.08492
312.56818,0.00354
311.07839,0.06444
309.58860,0.05548
308.09881,0.04655
306.60902,0.07327
305.11924,0.11265
303.62945,0.08127
302.13966,0.04992
300.64987,0.01724
299.16008,0.00354
