1778.52000,0.06426
1777.03021,0.04988
1775.54042,0.02449
1774.05063,0.04533
1772.56085,0.01862
1771.07106,0.03263
1769.58127,0.03218
1768.09148,0.03591
1766.60169,0.02242
1765.11190,0.05103
1763.62212,0.02519
1762.13233,0.03730
1760.64254,0.01152
1759.15275,0.04232
1757.66296,0.05038
1756.17317,0.01779
1754.68339,0.03695
1753.19360,0.02235
1751.70381,0.01675
1750.21402,0.01738
1748.72423,0.01597
1747.23444,0.01735
1745.74465,0.02565
1744.25487,0.03468
1742.76508,0.03546
1741.27529,0.03764
1739.78550,0.03986
1738.29571,0.01590
1736.80592,0.03611
1735.31614,0.01152
1733.82635,0.02668
1732.33656,0.00739
1730.84677,0.03545
1729.35698,0.03458
1727.86719,0.03098
1726.37740,0.03155
1724.88762,0.01835
1723.39783,0.01967
1721.90804,0.03274
1720.41825,0.01687
1718.92846,0.02931
1717.43867,0.03557
1715.94889,0.01152
1714.45910,0.02939
1712.96931,0.05350
1711.47952,0.02730
1709.98973,0.06250
1708.49994,0.04256
1707.01016,0.05300
1705.52037,0.06346
1704.03058,0.06568
1702.54079,0.07138
1701.05100,0.08538
1699.56121,0.09941
1698.07142,0.09761
1696.58164,0.10756
1695.09185,0.14168
1693.60206,0.15790
1692.11227,0.16519
1690.62248,0.14560
1689.13269,0.18122
1687.64291,0.15273
1686.15312,0.19324
1684.66333,0.17446
1683.17354,0.18744
1681.68375,0.18459
1680.19396,0.20659
1678.70417,0.20587
1677.21439,0.20931
1675.72460,0.19071
1674.23481,0.19214
1672.74502,0.18533
1671.25523,0.17372
1669.76544,0.18627
1668.27566,0.18852
1666.78587,0.15630
1665.29608,0.16757
1663.80629,0.18162
1662.31650,0.19019
1660.82671,0.15120
1659.33693,0.16189
1657.84714,0.15055
1656.35735,0.13372
1654.86756,0.11002
1653.37777,0.13117
1651.88798,0.14202
1650.39819,0.15772
1648.90841,0.15276
1647.41862,0.14162
1645.92883,0.14258
1644.43904,0.14357
1642.94925,0.10770
1641.45946,0.14633
1639.96968,0.10155
1638.47989,0.13818
1636.99010,0.10794
1635.50031,0.15773
1634.01052,0.13858
1632.52073,0.14084
1631.03094,0.10934
1629.54116,0.13718
1628.05137,0.10229
1626.56158,0.16053
1625.07179,0.14156
1623.58200,0.17780
1622.09221,0.18785
1620.60243,0.18760
1619.11264,0.16392
1617.62285,0.15958
1616.13306,0.15596
1614.64327,0.13444
1613.15348,0.14813
1611.66370,0.13218
1610.17391,0.13282
1608.68412,0.15280
1607.19433,0.11419
1605.70454,0.14319
1604.21475,0.13050
1602.72496,0.11784
1601.23518,0.13658
1599.74539,0.12984
1598.25560,0.13072
1596.76581,0.10956
1595.27602,0.10773
1593.78623,0.07146
1592.29645,0.10141
1590.80666,0.08658
1589.31687,0.04763
1587.82708,0.07285
1586.33729,0.08569
1584.84750,0.10476
1583.35771,0.05766
1581.86793,0.05196
1580.37814,0.06906
1578.88835,0.04687
1577.39856,0.05781
1575.90877,0.06258
1574.41898,0.01152
1572.92920,0.05690
1571.43941,0.03611
1569.94962,0.03052
1568.45983,0.02496
1566.97004,0.02564
1565.48025,0.04910
1563.99047,0.02777
1562.50068,0.03198
1561.01089,0.03416
1559.52110,0.06533
1558.03131,0.06342
1556.54152,0.04706
1555.05173,0.05143
1553.56195,0.07237
1552.07216,0.08231
1550.58237,0.05641
1549.09258,0.06227
1547.60279,0.04265
1546.11300,0.03615
1544.62322,0.05038
1543.13343,0.05153
1541.64364,0.03340
1540.15385,0.03461
1538.66406,0.03585
1537.17427,0.07022
1535.68448,0.01152
1534.19470,0.04558
1532.70491,0.01690
1531.21512,0.03999
1529.72533,0.01000
1528.23554,0.01038
1526.74575,0.03631
1525.25597,0.03813
1523.76618,0.05998
1522.27639,0.01152
1520.78660,0.01342
1519.29681,0.03467
1517.80702,0.01388
1516.31724,0.01518
1514.82745,0.03031
1513.33766,0.03030
1511.84787,0.03031
1510.35808,0.02829
1508.86829,0.03181
1507.37850,0.05122
1505.88872,0.04308
1504.39893,0.01152
1502.90914,0.03371
1501.41935,0.04903
1499.92956,0.03265
1498.43977,0.07493
1496.94999,0.07103
1495.46020,0.13130
1493.97041,0.20883
1492.48062,0.19606
1490.99083,0.23503
1489.50104,0.31335
1488.01125,0.33652
1486.52147,0.35973
1485.03168,0.46434
1483.54189,0.55795
1482.05210,0.57848
1480.56231,0.64939
1479.07252,0.78101
1477.58274,0.83336
1476.09295,0.92987
1474.60316,0.91263
1473.11337,0.97403
1471.62358,0.96304
1470.13379,0.98864
1468.64401,0.97013
1467.15422,0.91303
1465.66443,0.89320
1464.17464,0.87340
1462.68485,0.85708
1461.19506,0.80700
1459.70527,0.74246
1458.21549,0.68071
1456.72570,0.64519
1455.23591,0.61247
1453.74612,0.56805
1452.25633,0.52504
1450.76654,0.47309
1449.27676,0.50531
1447.78697,0.46653
1446.29718,0.46295
1444.80739,0.43284
1443.31760,0.40277
1441.82781,0.34134
1440.33802,0.25788
1438.84824,0.21721
1437.35845,0.24553
1435.86866,0.18284
1434.37887,0.15881
1432.88908,0.19549
1431.39929,0.18117
1429.90951,0.17378
1428.41972,0.19193
1426.92993,0.19839
1425.44014,0.18212
1423.95035,0.18760
1422.46056,0.19311
1420.97078,0.23072
1419.48099,0.24906
1417.99120,0.27293
1416.50141,0.25132
1415.01162,0.28354
1413.52183,0.29302
1412.03204,0.24598
1410.54226,0.26587
1409.05247,0.22648
1407.56268,0.23884
1406.07289,0.20916
1404.58310,0.19227
1403.09331,0.17541
1401.60353,0.22996
1400.11374,0.26247
1398.62395,0.32673
1397.13416,0.28482
1395.64437,0.34224
1394.15458,0.30797
1392.66479,0.33649
1391.17501,0.34504
1389.68522,0.31224
1388.19543,0.30430
1386.70564,0.30914
1385.21585,0.31402
1383.72606,0.38272
1382.23628,0.34937
1380.74649,0.34779
1379.25670,0.30830
1377.76691,0.30953
1376.27712,0.33699
1374.78733,0.36449
1373.29755,0.36167
1371.80776,0.37336
1370.31797,0.50440
1368.82818,0.54649
1367.33839,0.58862
1365.84860,0.79629
1364.35881,0.88606
1362.86903,1.00138
1361.37924,1.04914
1359.88945,1.13763
1358.39966,1.20062
1356.90987,1.22433
1355.42008,1.24325
1353.93030,1.14771
1352.44051,1.12462
1350.95072,1.10156
1349.46093,1.02473
1347.97114,0.90035
1346.48135,0.75116
1344.99156,0.67512
1343.50178,0.63634
1342.01199,0.61483
1340.52220,0.54508
1339.03241,0.45122
1337.54262,0.39601
1336.05283,0.41531
1334.56305,0.43464
1333.07326,0.40090
1331.58347,0.36856
1330.09368,0.35074
1328.60389,0.37709
1327.11410,0.30209
1325.62432,0.28504
1324.13453,0.26734
1322.64474,0.29036
1321.15495,0.31754
1319.66516,0.28717
1318.17537,0.25682
1316.68558,0.26065
1315.19580,0.29071
1313.70601,0.29322
1312.21622,0.21368
1310.72643,0.16107
1309.23664,0.20367
1307.74685,0.23870
1306.25707,0.21515
1304.76728,0.20990
1303.27749,0.20468
1301.78770,0.21501
1300.29791,0.26054
1298.80812,0.22265
1297.31834,0.23514
1295.82855,0.20214
1294.33876,0.24089
1292.84897,0.24657
1291.35918,0.23158
1289.86939,0.25698
1288.37960,0.28240
1286.88982,0.25440
1285.40003,0.29747
1283.91024,0.26195
1282.42045,0.26577
1280.93066,0.29927
1279.44087,0.28590
1277.95109,0.27877
1276.46130,0.35236
1274.97151,0.32047
1273.48172,0.28860
1271.99193,0.30159
1270.50214,0.30357
1269.01235,0.37662
1267.52257,0.40212
1266.03278,0.40212
1264.54299,0.47112
1263.05320,0.43188
1261.56341,0.45369
1260.07362,0.47554
1258.58384,0.47087
1257.09405,0.46760
1255.60426,0.44437
1254.11447,0.43288
1252.62468,0.46626
1251.13489,0.41208
1249.64511,0.37586
1248.15532,0.38036
1246.66553,0.35627
1245.17574,0.33220
1243.68595,0.32369
1242.19616,0.36210
1240.70637,0.28812
1239.21659,0.24453
1237.72680,0.23751
1236.23701,0.23879
1234.74722,0.16356
1233.25743,0.17043
1231.76764,0.17732
1230.27786,0.19390
1228.78807,0.19120
1227.29828,0.13818
1225.80849,0.11967
1224.31870,0.11913
1222.82891,0.12344
1221.33912,0.12089
1219.84934,0.11457
1218.35955,0.10828
1216.86976,0.11823
1215.37997,0.14338
1213.89018,0.16167
1212.40039,0.16688
1210.91061,0.11902
1209.42082,0.09877
1207.93103,0.07579
1206.44124,0.05284
1204.95145,0.08303
1203.46166,0.09256
1201.97188,0.08694
1200.48209,0.06687
1198.99230,0.07373
1197.50251,0.02544
1196.01272,0.02408
1194.52293,0.03827
1193.03314,0.05248
1191.54336,0.06432
1190.05357,0.04721
1188.56378,0.01152
1187.07399,0.01809
1185.58420,0.03434
1184.09441,0.04441
1182.60463,0.05934
1181.11484,0.07431
1179.62505,0.04792
1178.13526,0.01742
1176.64547,0.06213
1175.15568,0.07100
1173.66589,0.09508
1172.17611,0.08953
1170.68632,0.07504
1169.19653,0.06058
1167.70674,0.04892
1166.21695,0.05797
1164.72716,0.05532
1163.23738,0.03547
1161.74759,0.04047
1160.25780,0.04688
1158.76801,0.02919
1157.27822,0.01152
1155.78843,0.03517
1154.29865,0.01471
1152.80886,0.05980
1151.31907,0.06148
1149.82928,0.08318
1148.33949,0.10905
1146.84970,0.13081
1145.35991,0.15260
1143.87013,0.09097
1142.38034,0.07558
1140.89055,0.09332
1139.40076,0.14764
1137.91097,0.17165
1136.42118,0.20879
1134.93140,0.24803
1133.44161,0.28730
1131.95182,0.30384
1130.46203,0.33834
1128.97224,0.32183
1127.48245,0.30881
1125.99266,0.24340
1124.50288,0.28147
1123.01309,0.29439
1121.52330,0.30735
1120.03351,0.32895
1118.54372,0.37058
1117.05393,0.40397
1115.56415,0.36636
1114.07436,0.38325
1112.58457,0.42121
1111.09478,0.45920
1109.60499,0.43481
1108.11520,0.48630
1106.62542,0.51024
1105.13563,0.51077
1103.64584,0.60166
1102.15605,0.68638
1100.66626,0.71630
1099.17647,0.74625
1097.68668,0.79865
1096.19690,0.83176
1094.70711,0.86007
1093.21732,0.87463
1091.72753,0.86507
1090.23774,0.89968
1088.74795,0.93432
1087.25817,0.93244
1085.76838,1.01059
1084.27859,1.00187
1082.78880,1.02077
1081.29901,1.11694
1079.80922,1.08900
1078.31943,1.11902
1076.82965,1.14907
1075.33986,1.14674
1073.85007,1.18305
1072.36028,1.13733
1070.87049,1.20750
1069.38070,1.22115
1067.89092,1.24138
1066.40113,1.26163
1064.91134,1.20296
1063.42155,1.07052
1061.93176,1.03880
1060.44197,1.01952
1058.95219,0.94027
1057.46240,0.91346
1055.97261,0.88669
1054.48282,0.82822
1052.99303,0.76909
1051.50324,0.72309
1050.01345,0.73506
1048.52367,0.62222
1047.03388,0.57149
1045.54409,0.52078
1044.05430,0.55011
1042.56451,0.53118
1041.07472,0.47298
1039.58494,0.44032
1038.09515,0.37942
1036.60536,0.35407
1035.11557,0.32874
1033.62578,0.35344
1032.13599,0.31473
1030.64620,0.32570
1029.15642,0.44084
1027.66663,0.42359
1026.17684,0.40637
1024.68705,0.49953
1023.19726,0.61478
1021.70747,0.69145
1020.21769,0.89918
1018.72790,1.09728
1017.23811,1.21438
1015.74832,1.33150
1014.25853,1.52418
1012.76874,1.70240
1011.27896,1.82617
1009.78917,1.90238
1008.29938,2.00000
1006.80959,1.94558
1005.31980,1.89120
1003.83001,1.75856
1002.34022,1.70182
1000.85044,1.59269
999.36065,1.42636
997.87086,1.38039
996.38107,1.33446
994.89128,1.36545
993.40149,1.27647
991.91171,1.36752
990.42192,1.38826
988.93213,1.39109
987.44234,1.38085
985.95255,1.37064
984.46276,1.35563
982.97297,1.23445
981.48319,1.20364
979.99340,1.16872
978.50361,1.16728
977.01382,1.16587
975.52403,1.10621
974.03424,1.09279
972.54446,1.01250
971.05467,0.94604
969.56488,0.94029
968.07509,0.89182
966.58530,0.84338
965.09551,0.78737
963.60573,0.77623
962.11594,0.77546
960.62615,0.77058
959.13636,0.73746
957.64657,0.70436
956.15678,0.67751
954.66699,0.69275
953.17721,0.60871
951.68742,0.59711
950.19763,0.58727
948.70784,0.57745
947.21805,0.54181
945.72826,0.52757
944.23848,0.61612
942.74869,0.61091
941.25890,0.61124
939.76911,0.63299
938.27932,0.65476
936.78953,0.71312
935.29974,0.73357
933.80996,0.69888
932.32017,0.69181
930.83038,0.69166
929.34059,0.69154
927.85080,0.74938
926.36101,0.70726
924.87123,0.75826
923.38144,0.68378
921.89165,0.68174
920.40186,0.67973
918.91207,0.64741
917.42228,0.60753
915.93250,0.70492
914.44271,0.65544
912.95292,0.67876
911.46313,0.70210
909.97334,0.67064
908.48355,0.79990
906.99376,0.81471
905.50398,0.79231
904.01419,0.82028
902.52440,0.84829
901.03461,0.79563
899.54482,0.90783
898.05503,0.85385
896.56525,0.86473
895.07546,0.85874
893.58567,0.85278
892.09588,0.82099
890.60609,0.81406
889.11630,0.88785
887.62651,0.90235
886.13673,0.87723
884.64694,0.85214
883.15715,0.84053
881.66736,0.78481
880.17757,0.75740
878.68778,0.75277
877.19800,0.74817
875.70821,0.72774
874.21842,0.72803
872.72863,0.81869
871.23884,0.88870
869.74905,0.90011
868.25927,0.91155
866.76948,0.95061
865.27969,0.89177
863.78990,0.83296
862.30011,0.90728
860.81032,0.90059
859.32053,0.89394
857.83075,0.84352
856.34096,0.78830
854.85117,0.70415
853.36138,0.65313
851.87159,0.61938
850.38180,0.58566
848.89202,0.51404
847.40223,0.39280
845.91244,0.29641
844.42265,0.28557
842.93286,0.27476
841.44307,0.31501
839.95329,0.29391
838.46350,0.27009
836.97371,0.25663
835.48392,0.25183
833.99413,0.24706
832.50434,0.23301
831.01455,0.30312
829.52477,0.28292
828.03498,0.26068
826.54519,0.24330
825.05540,0.22595
823.56561,0.12725
822.07582,0.11685
820.58604,0.14993
819.09625,0.11821
817.60646,0.08653
816.11667,0.11970
814.62688,0.01152
813.13709,0.04526
811.64730,0.03696
810.15752,0.02938
808.66773,0.02183
807.17794,0.01293
805.68815,0.04406
804.19836,0.05867
802.70857,0.08435
801.21879,0.11005
799.72900,0.12268
798.23921,0.20844
796.74942,0.38940
795.25963,0.40591
793.76984,0.42245
792.28006,0.48557
790.79027,0.54597
789.30048,0.55880
787.81069,0.62063
786.32090,0.60801
784.83111,0.59542
783.34132,0.65803
781.85154,0.66619
780.36175,0.66954
778.87196,0.70776
777.38217,0.74601
775.89238,0.71704
774.40259,0.82603
772.91281,0.87575
771.42302,0.86963
769.93323,0.86354
768.44344,0.87817
766.95365,0.87421
765.46386,0.86131
763.97407,0.84914
762.48429,0.79320
760.99450,0.73729
759.50471,0.62106
758.01492,0.52762
756.52513,0.39284
755.03534,0.37843
753.54556,0.36404
752.05577,0.21831
750.56598,0.17123
749.07619,0.13659
747.58640,0.13370
746.09661,0.13085
744.60683,0.09423
743.11704,0.07419
741.62725,0.03004
740.13746,0.03938
738.64767,0.04874
737.15788,0.02261
735.66809,0.04134
734.17831,0.02700
732.68852,0.03027
731.19873,0.03358
729.70894,0.03243
728.21915,0.03131
726.72936,0.03642
725.23958,0.07191
723.74979,0.07881
722.26000,0.08574
720.77021,0.06615
719.28042,0.04796
717.79063,0.06222
716.30084,0.03685
714.81106,0.01152
713.32127,0.02351
711.83148,0.05623
710.34169,0.06069
708.85190,0.04968
707.36211,0.03869
705.87233,0.01152
704.38254,0.06884
702.89275,0.09998
701.40296,0.07563
699.91317,0.05131
698.42338,0.06875
696.93360,0.08828
695.44381,0.11681
693.95402,0.13020
692.46423,0.14361
690.97444,0.17706
689.48465,0.16433
687.99486,0.17369
686.50508,0.18964
685.01529,0.20562
683.52550,0.19646
682.03571,0.14388
680.54592,0.15408
679.05613,0.15742
677.56635,0.16079
676.07656,0.15108
674.58677,0.11658
673.09698,0.08279
671.60719,0.06938
670.11740,0.05600
668.62761,0.05265
667.13783,0.08519
665.64804,0.09294
664.15825,0.10071
662.66846,0.07679
661.17867,0.01152
659.68888,0.07302
658.19910,0.08386
656.70931,0.09474
655.21952,0.07564
653.72973,0.08278
652.23994,0.11133
650.75015,0.11508
649.26037,0.11886
647.77058,0.12542
646.28079,0.10099
644.79100,0.06830
643.30121,0.05531
641.81142,0.04234
640.32163,0.02629
638.83185,0.04545
637.34206,0.04051
635.85227,0.02869
634.36248,0.01690
632.87269,0.03989
631.38290,0.08083
629.89312,0.07077
628.40333,0.06626
626.91354,0.06178
625.42375,0.03387
623.93396,0.01152
622.44417,0.02949
620.95438,0.04749
619.46460,0.10586
617.97481,0.08496
616.48502,0.07581
614.99523,0.09255
613.50544,0.10932
612.01565,0.12094
610.52587,0.15398
609.03608,0.13601
607.54629,0.11497
606.05650,0.09395
604.56671,0.13607
603.07692,0.19202
601.58714,0.18420
600.09735,0.17640
598.60756,0.07519
597.11777,0.09057
595.62798,0.07286
594.13819,0.07209
592.64840,0.07134
591.15862,0.09718
589.66883,0.10166
588.17904,0.07721
586.68925,0.08279
585.19946,0.08840
583.70967,0.05438
582.21989,0.07212
580.73010,0.07851
579.24031,0.08492
577.75052,0.16482
576.26073,0.13509
574.77094,0.16056
573.28115,0.15227
571.79137,0.14400
570.30158,0.13577
568.81179,0.16412
567.32200,0.21491
565.83221,0.26573
564.34242,0.27900
562.85264,0.28609
561.36285,0.34769
559.87306,0.34449
558.38327,0.34132
556.89348,0.41887
555.40369,0.46473
553.91391,0.47682
552.42412,0.48894
550.93433,0.58316
549.44454,0.53811
547.95475,0.54618
546.46496,0.56325
544.97517,0.58035
543.48539,0.58782
541.99560,0.61670
540.50581,0.61320
539.01602,0.60973
537.52623,0.66215
536.03644,0.63667
534.54666,0.64501
533.05687,0.61959
531.56708,0.59419
530.07729,0.56607
528.58750,0.55039
527.09771,0.52992
525.60792,0.50947
524.11814,0.49526
522.62835,0.47625
521.13856,0.44762
519.64877,0.42488
518.15898,0.40216
516.66919,0.41914
515.17941,0.32097
513.68962,0.29627
512.19983,0.27161
510.71004,0.29353
509.22025,0.27479
507.73046,0.31194
506.24068,0.34602
504.75089,0.38012
503.26110,0.34702
501.77131,0.28291
500.28152,0.29883
498.79173,0.31477
497.30194,0.30179
495.81216,0.32124
494.32237,0.32245
492.83258,0.32369
491.34279,0.25703
489.85300,0.27799
488.36321,0.26725
486.87343,0.23102
485.38364,0.19482
483.89385,0.18072
482.40406,0.12872
480.91427,0.11468
479.42448,0.10067
477.93469,0.01152
476.44491,0.04471
474.95512,0.05552
473.46533,0.06636
471.97554,0.09620
470.48575,0.01020
468.99596,0.07251
467.50618,0.06140
466.01639,0.05032
464.52660,0.03202
463.03681,0.00755
461.54702,0.04001
460.05723,0.07249
458.56745,0.08535
457.07766,0.07618
455.58787,0.09220
454.09808,0.10825
452.60829,0.15502
451.11850,0.11700
449.62871,0.14210
448.13893,0.16724
446.64914,0.30241
445.15935,0.41070
443.66956,0.50041
442.17977,0.48946
440.68998,0.47854
439.20020,0.50144
437.71041,0.61816
436.22062,0.64147
434.73083,0.66480
433.24104,0.77127
431.75125,0.92880
430.26146,0.95257
428.77168,0.97637
427.28189,1.12847
425.79210,1.11301
424.30231,1.12035
422.81252,1.12771
421.32273,1.10821
419.83295,0.99840
418.34316,0.95447
416.85337,0.91058
415.36358,0.76499
413.87379,0.69115
412.38400,0.65596
410.89422,0.62081
409.40443,0.57672
407.91464,0.64369
406.42485,0.60034
404.93506,0.56875
403.44527,0.53719
401.95548,0.48911
400.46570,0.45347
398.97591,0.44786
397.48612,0.44229
395.99633,0.44674
394.50654,0.47328
393.01675,0.48366
391.52697,0.49406
390.03718,0.48759
388.54739,0.37840
387.05760,0.38165
385.56781,0.38492
384.07802,0.33720
382.58824,0.36260
381.09845,0.36321
379.60866,0.36385
378.11887,0.33280
376.62908,0.31280
375.13929,0.31491
373.64950,0.31705
372.15972,0.23439
370.66993,0.21589
369.18014,0.19950
367.69035,0.18313
366.20056,0.14059
364.71077,0.13670
363.22099,0.14973
361.73120,0.16279
360.24141,0.18106
358.75162,0.12832
357.26183,0.12457
355.77204,0.12086
354.28225,0.14614
352.79247,0.10317
351.30268,0.08058
349.81289,0.05802
348.32310,0.08342
346.83331,0.05574
345.34352,0.03362
343.85374,0.01152
342.36395,0.04863
340.87416,0.07130
339.38437,0.06468
337.89458,0.05809
336.40479,0.12291
334.91501,0.10018
333.42522,0.07334
331.93543,0.04652
330.44564,0.05353
328.95585,0.05229
327.46606,0.05178
325.97627,0.05129
324.48649,0.01152
322.99670,0.01549
321.50691,0.02881
320.01712,0.04216
318.52733,0.07243
317.03754,0.06756
315.54776,0.06996
314.05797,0.07239
312.56818,0.04209
311.07839,0.05320
309.58860,0.06296
308.09881,0.07274
306.60902,0.00670
305.11924,0.00000
303.62945,0.01540
302.13966,0.02758
300.64987,0.01152
299.16008,0.01152
