1778.52000,0.06519
1777.03021,0.06403
1775.54042,0.06409
1774.05063,0.04892
1772.56085,0.02792
1771.07106,0.05857
1769.58127,0.07519
1768.09148,0.03903
1766.60169,0.02637
1765.11190,0.00436
1763.62212,0.03753
1762.13233,0.03788
1760.64254,0.03005
1759.15275,0.01639
1757.66296,0.02153
1756.17317,0.02436
1754.68339,0.03309
1753.19360,0.01017
1751.70381,0.01193
1750.21402,0.02780
1748.72423,0.04487
1747.23444,0.04907
1745.74465,0.03101
1744.25487,0.00594
1742.76508,0.01494
1741.27529,0.06386
1739.78550,0.03772
1738.29571,0.05033
1736.80592,0.00783
1735.31614,0.05806
1733.82635,0.01797
1732.33656,0.01663
1730.84677,0.02237
1729.35698,0.06921
1727.86719,0.03629
1726.37740,0.03626
1724.88762,0.00224
1723.39783,0.06095
1721.90804,0.00000
1720.41825,0.01805
1718.92846,0.00564
1717.43867,0.04722
1715.94889,0.00436
1714.45910,0.02198
1712.96931,0.09126
1711.47952,0.08900
1709.98973,0.07151
1708.49994,0.09747
1707.01016,0.08710
1705.52037,0.07675
1704.03058,0.08521
1702.54079,0.11366
1701.05100,0.14096
1699.56121,0.18824
1698.07142,0.14638
1696.58164,0.14210
1695.09185,0.23759
1693.60206,0.23103
1692.11227,0.19634
1690.62248,0.24500
1689.13269,0.27726
1687.64291,0.25675
1686.15312,0.28907
1684.66333,0.28741
1683.17354,0.27404
1681.68375,0.28652
1680.19396,0.23567
1678.70417,0.29045
1677.21439,0.24905
1675.72460,0.22998
1674.23481,0.27666
1672.74502,0.21658
1671.25523,0.30674
1669.76544,0.31361
1668.27566,0.33108
1666.78587,0.23008
1665.29608,0.29689
1663.80629,0.22294
1662.31650,0.23819
1660.82671,0.24762
1659.33693,0.18784
1657.84714,0.22314
1656.35735,0.15757
1654.86756,0.16947
1653.37777,0.14034
1651.88798,0.20276
1650.39819,0.16665
1648.90841,0.21271
1647.41862,0.15555
1645.92883,0.13069
1644.43904,0.10586
1642.94925,0.12272
1641.45946,0.14430
1639.96968,0.10491
1638.47989,0.13125
1636.99010,0.13768
1635.50031,0.20751
1634.01052,0.15651
1632.52073,0.10437
1631.03094,0.13088
1629.54116,0.16564
1628.05137,0.16640
1626.56158,0.20122
1625.07179,0.17389
1623.58200,0.20526
1622.09221,0.21906
1620.60243,0.17892
1619.11264,0.25615
1617.62285,0.18323
1616.13306,0.20537
1614.64327,0.15598
1613.15348,0.19697
1611.66370,0.21335
1610.17391,0.16875
1608.68412,0.14530
1607.19433,0.14066
1605.70454,0.15365
1604.21475,0.15670
1602.72496,0.15979
1601.23518,0.17171
1599.74539,0.15784
1598.25560,0.10999
1596.76581,0.12670
1595.27602,0.11646
1593.78623,0.08043
1592.29645,0.10663
1590.80666,0.10470
1589.31687,0.06408
1587.82708,0.06339
1586.33729,0.10263
1584.84750,0.09261
1583.35771,0.03218
1581.86793,0.09147
1580.37814,0.08742
1578.88835,0.07754
1577.39856,0.03367
1575.90877,0.05084
1574.41898,0.04693
1572.92920,0.05830
1571.43941,0.02043
1569.94962,0.04243
1568.45983,0.06446
1566.97004,0.08183
1565.48025,0.04879
1563.99047,0.06857
1562.50068,0.02503
1561.01089,0.07187
1559.52110,0.05069
1558.03131,0.06591
1556.54152,0.06826
1555.05173,0.15278
1553.56195,0.12117
1552.07216,0.12127
1550.58237,0.13901
1549.09258,0.04531
1547.60279,0.03965
1546.11300,0.01055
1544.62322,0.02724
1543.13343,0.09325
1541.64364,0.05839
1540.15385,0.07049
1538.66406,0.08262
1537.17427,0.06898
1535.68448,0.10230
1534.19470,0.03826
1532.70491,0.06227
1531.21512,0.03467
1529.72533,0.02706
1528.23554,0.01948
1526.74575,0.04948
1525.25597,0.05722
1523.76618,0.10019
1522.27639,0.06223
1520.78660,0.00436
1519.29681,0.02110
1517.80702,0.04608
1516.31724,0.05584
1514.82745,0.04334
1513.33766,0.02794
1511.84787,0.01257
1510.35808,0.04123
1508.86829,0.03121
1507.37850,0.00362
1505.88872,0.02066
1504.39893,0.03068
1502.90914,0.00436
1501.41935,0.02783
1499.92956,0.05368
1498.43977,0.00916
1496.94999,0.11603
1495.46020,0.14784
1493.97041,0.12572
1492.48062,0.20336
1490.99083,0.24818
1489.50104,0.22380
1488.01125,0.29509
1486.52147,0.36641
1485.03168,0.46885
1483.54189,0.49624
1482.05210,0.54243
1480.56231,0.68487
1479.07252,0.76985
1477.58274,0.76451
1476.09295,0.85542
1474.60316,0.96514
1473.11337,0.99041
1471.62358,0.97230
1470.13379,1.05865
1468.64401,1.09927
1467.15422,0.99560
1465.66443,0.99229
1464.17464,0.98901
1462.68485,0.85962
1461.19506,0.87812
1459.70527,0.81334
1458.21549,0.83776
1456.72570,0.71673
1455.23591,0.64618
1453.74612,0.59913
1452.25633,0.66945
1450.76654,0.64593
1449.27676,0.66117
1447.78697,0.66471
1446.29718,0.55212
1444.80739,0.50820
1443.31760,0.46432
1441.82781,0.45273
1440.33802,0.30507
1438.84824,0.27361
1437.35845,0.25274
1435.86866,0.25419
1434.37887,0.28736
1432.88908,0.21262
1431.39929,0.27871
1429.90951,0.24979
1428.41972,0.24320
1426.92993,0.23312
1425.44014,0.24654
1423.95035,0.24239
1422.46056,0.23828
1420.97078,0.32572
1419.48099,0.34866
1417.99120,0.34465
1416.50141,0.35005
1415.01162,0.34024
1413.52183,0.36214
1412.03204,0.32892
1410.54226,0.39782
1409.05247,0.28841
1407.56268,0.25412
1406.07289,0.29847
1404.58310,0.30649
1403.09331,0.31454
1401.60353,0.34727
1400.11374,0.32722
1398.62395,0.41281
1397.13416,0.36233
1395.64437,0.38228
1394.15458,0.41400
1392.66479,0.32958
1391.17501,0.36136
1389.68522,0.38497
1388.19543,0.32764
1386.70564,0.34779
1385.21585,0.36797
1383.72606,0.33069
1382.23628,0.27584
1380.74649,0.30434
1379.25670,0.26246
1377.76691,0.31214
1376.27712,0.33135
1374.78733,0.30365
1373.29755,0.43909
1371.80776,0.51941
1370.31797,0.58803
1368.82818,0.63615
1367.33839,0.68430
1365.84860,0.87388
1364.35881,0.97196
1362.86903,1.09590
1361.37924,1.06615
1359.88945,1.21245
1358.39966,1.24848
1356.90987,1.24699
1355.42008,1.38634
1353.93030,1.19367
1352.44051,1.19404
1350.95072,1.19445
1349.46093,1.08167
1347.97114,1.00059
1346.48135,0.90078
1344.99156,0.78574
1343.50178,0.82328
1342.01199,0.77754
1340.52220,0.69780
1339.03241,0.57116
1337.54262,0.59944
1336.05283,0.57144
1334.56305,0.54346
1333.07326,0.57184
1331.58347,0.48644
1330.09368,0.51488
1328.60389,0.42720
1327.11410,0.36654
1325.62432,0.37748
1324.13453,0.36968
1322.64474,0.43819
1321.15495,0.37883
1319.66516,0.36938
1318.17537,0.35995
1316.68558,0.37344
1315.19580,0.36115
1313.70601,0.30078
1312.21622,0.28621
1310.72643,0.30453
1309.23664,0.30410
1307.74685,0.31427
1306.25707,0.28223
1304.76728,0.31124
1303.27749,0.34028
1301.78770,0.26375
1300.29791,0.31398
1298.80812,0.31496
1297.31834,0.23267
1295.82855,0.23254
1294.33876,0.27586
1292.84897,0.34972
1291.35918,0.30862
1289.86939,0.30452
1288.37960,0.30045
1286.88982,0.30404
1285.40003,0.33935
1283.91024,0.39463
1282.42045,0.40537
1280.93066,0.35981
1279.44087,0.39759
1277.95109,0.34506
1276.46130,0.32424
1274.97151,0.34042
1273.48172,0.35663
1271.99193,0.38871
1270.50214,0.43491
1269.01235,0.41895
1267.52257,0.40068
1266.03278,0.43759
1264.54299,0.45106
1263.05320,0.52324
1261.56341,0.53971
1260.07362,0.55622
1258.58384,0.58508
1257.09405,0.57408
1255.60426,0.50679
1254.11447,0.51111
1252.62468,0.45444
1251.13489,0.52219
1249.64511,0.47146
1248.15532,0.50290
1246.66553,0.48626
1245.17574,0.46966
1243.68595,0.38738
1242.19616,0.47997
1240.70637,0.42123
1239.21659,0.40124
1237.72680,0.30970
1236.23701,0.32967
1234.74722,0.22413
1233.25743,0.21307
1231.76764,0.20204
1230.27786,0.21745
1228.78807,0.24698
1227.29828,0.18735
1225.80849,0.12307
1224.31870,0.09285
1222.82891,0.10726
1221.33912,0.10878
1219.84934,0.14202
1218.35955,0.17530
1216.86976,0.16167
1215.37997,0.26072
1213.89018,0.22369
1212.40039,0.18552
1210.91061,0.12861
1209.42082,0.13275
1207.93103,0.13164
1206.44124,0.13057
1204.95145,0.10782
1203.46166,0.11326
1201.97188,0.08823
1200.48209,0.09609
1198.99230,0.07347
1197.50251,0.07318
1196.01272,0.03772
1194.52293,0.03105
1193.03314,0.02440
1191.54336,0.07470
1190.05357,0.02764
1188.56378,0.03459
1187.07399,0.00989
1185.58420,0.02042
1184.09441,0.04272
1182.60463,0.07386
1181.11484,0.10503
1179.62505,0.07228
1178.13526,0.00436
1176.64547,0.11573
1175.15568,0.15790
1173.66589,0.12384
1172.17611,0.08160
1170.68632,0.04291
1169.19653,0.00425
1167.70674,0.00436
1166.21695,0.05574
1164.72716,0.06490
1163.23738,0.11752
1161.74759,0.02467
1160.25780,0.04567
1158.76801,0.03502
1157.27822,0.02440
1155.78843,0.05724
1154.29865,0.05959
1152.80886,0.09249
1151.31907,0.07497
1149.82928,0.06921
1148.33949,0.11512
1146.84970,0.13700
1145.35991,0.15892
1143.87013,0.08289
1142.38034,0.16648
1140.89055,0.10577
1139.40076,0.17886
1137.91097,0.21209
1136.42118,0.23596
1134.93140,0.25283
1133.44161,0.26973
1131.95182,0.26555
1130.46203,0.33766
1128.97224,0.30421
1127.48245,0.21095
1125.99266,0.27729
1124.50288,0.30495
1123.01309,0.32150
1121.52330,0.33808
1120.03351,0.32829
1118.54372,0.43118
1117.05393,0.33698
1115.56415,0.34958
1114.07436,0.41385
1112.58457,0.42534
1111.09478,0.43688
1109.60499,0.48129
1108.11520,0.49876
1106.62542,0.51391
1105.13563,0.60419
1103.64584,0.68980
1102.15605,0.77311
1100.66626,0.75847
1099.17647,0.74387
1097.68668,0.77212
1096.19690,0.81684
1094.70711,0.82404
1093.21732,0.88055
1091.72753,0.84089
1090.23774,0.91918
1088.74795,0.99750
1087.25817,0.95558
1085.76838,0.97824
1084.27859,1.11357
1082.78880,1.10461
1081.29901,1.19541
1079.80922,1.09382
1078.31943,1.08437
1076.82965,1.07496
1075.33986,1.21166
1073.85007,1.09495
1072.36028,1.11321
1070.87049,1.27465
1069.38070,1.37628
1067.89092,1.32952
1066.40113,1.28278
1064.91134,1.16979
1063.42155,1.11433
1061.93176,1.09057
1060.44197,1.08328
1058.95219,0.99272
1057.46240,0.95733
1055.97261,0.92198
1054.48282,0.94415
1052.99303,0.83377
1051.50324,0.72460
1050.01345,0.70346
1048.52367,0.60139
1047.03388,0.60671
1045.54409,0.61207
1044.05430,0.66147
1042.56451,0.55132
1041.07472,0.51512
1039.58494,0.47075
1038.09515,0.45574
1036.60536,0.41436
1035.11557,0.37302
1033.62578,0.43086
1032.13599,0.33971
1030.64620,0.38002
1029.15642,0.33236
1027.66663,0.41379
1026.17684,0.49527
1024.68705,0.50402
1023.19726,0.67708
1021.70747,0.77977
1020.21769,0.90127
1018.72790,1.15539
1017.23811,1.25584
1015.74832,1.35631
1014.25853,1.45565
1012.76874,1.64068
1011.27896,1.71192
1009.78917,1.85946
1008.29938,2.00000
1006.80959,1.95166
1005.31980,1.90335
1003.83001,1.74947
1002.34022,1.63904
1000.85044,1.52278
999.36065,1.40655
997.87086,1.35078
996.38107,1.29504
994.89128,1.24227
993.40149,1.30101
991.91171,1.31870
990.42192,1.25430
988.93213,1.33425
987.44234,1.32096
985.95255,1.30769
984.46276,1.33612
982.97297,1.24020
981.48319,1.18186
979.99340,1.07075
978.50361,1.05178
977.01382,1.03285
975.52403,1.02862
974.03424,0.97631
972.54446,0.91348
971.05467,0.96802
969.56488,0.83015
968.07509,0.81318
966.58530,0.79624
965.09551,0.78872
963.60573,0.81526
962.11594,0.87234
960.62615,0.76753
959.13636,0.73785
957.64657,0.70820
956.15678,0.65160
954.66699,0.64431
953.17721,0.61476
951.68742,0.64860
950.19763,0.63261
948.70784,0.61666
947.21805,0.67993
945.72826,0.62943
944.23848,0.63293
942.74869,0.73034
941.25890,0.68463
939.76911,0.68353
938.27932,0.68248
936.78953,0.76828
935.29974,0.69102
933.80996,0.72995
932.32017,0.69148
930.83038,0.73635
929.34059,0.78125
927.85080,0.76869
926.36101,0.81835
924.87123,0.86687
923.38144,0.73238
921.89165,0.70881
920.40186,0.68527
918.91207,0.70693
917.42228,0.66879
915.93250,0.74098
914.44271,0.73224
912.95292,0.71707
911.46313,0.70194
909.97334,0.86578
908.48355,0.87830
906.99376,0.84390
905.50398,0.85179
904.01419,0.86264
902.52440,0.87352
901.03461,0.86390
899.54482,0.92120
898.05503,0.92221
896.56525,0.92090
895.07546,0.97478
893.58567,1.02869
892.09588,0.94417
890.60609,0.99932
889.11630,0.92426
887.62651,0.91846
886.13673,0.92619
884.64694,0.93395
883.15715,0.94702
881.66736,0.88151
880.17757,0.83246
878.68778,0.80516
877.19800,0.77788
875.70821,0.78173
874.21842,0.85602
872.72863,0.89044
871.23884,0.96714
869.74905,0.98462
868.25927,1.00213
866.76948,0.93930
865.27969,0.87416
863.78990,0.91230
862.30011,0.87890
860.81032,0.90538
859.32053,0.93189
857.83075,0.74488
856.34096,0.75855
854.85117,0.80393
853.36138,0.65457
851.87159,0.61847
850.38180,0.58240
848.89202,0.46599
847.40223,0.40711
845.91244,0.36821
844.42265,0.37334
842.93286,0.37851
841.44307,0.30451
839.95329,0.32441
838.46350,0.27159
836.97371,0.23876
835.48392,0.24057
833.99413,0.24241
832.50434,0.25661
831.01455,0.27788
829.52477,0.22996
828.03498,0.21375
826.54519,0.20461
825.05540,0.19551
823.56561,0.08318
822.07582,0.16449
820.58604,0.13672
819.09625,0.10017
817.60646,0.06366
816.11667,0.04419
814.62688,0.07521
813.13709,0.00771
811.64730,0.05170
810.15752,0.03882
808.66773,0.02598
807.17794,0.00436
805.68815,0.02625
804.19836,0.05403
802.70857,0.10414
801.21879,0.15428
799.72900,0.12702
798.23921,0.18779
796.74942,0.36358
795.25963,0.38628
793.76984,0.40901
792.28006,0.46170
790.79027,0.47335
789.30048,0.49091
787.81069,0.52375
786.32090,0.53081
784.83111,0.53790
783.34132,0.62012
781.85154,0.68712
780.36175,0.71660
778.87196,0.70154
777.38217,0.68650
775.89238,0.77358
774.40259,0.83018
772.91281,0.86101
771.42302,0.86723
769.93323,0.87348
768.44344,0.86803
766.95365,0.84618
765.46386,0.96869
763.97407,0.95278
762.48429,0.86415
760.99450,0.77556
759.50471,0.64124
758.01492,0.49404
756.52513,0.39499
755.03534,0.39512
753.54556,0.39528
752.05577,0.24352
750.56598,0.22204
749.07619,0.13606
747.58640,0.14515
746.09661,0.15428
744.60683,0.12119
743.11704,0.08463
741.62725,0.03401
740.13746,0.03388
738.64767,0.03378
737.15788,0.07831
735.66809,0.06889
734.17831,0.00436
732.68852,0.02527
731.19873,0.04621
729.70894,0.01614
728.21915,0.06824
726.72936,0.08047
725.23958,0.04581
723.74979,0.04462
722.26000,0.04346
720.77021,0.09807
719.28042,0.10344
717.79063,0.09945
716.30084,0.07026
714.81106,0.04111
713.32127,0.00436
711.83148,0.06781
710.34169,0.02334
708.85190,0.05048
707.36211,0.07765
705.87233,0.05910
704.38254,0.06991
702.89275,0.01622
701.40296,0.05643
699.91317,0.09668
698.42338,0.00436
696.93360,0.13575
695.44381,0.13459
693.95402,0.13287
692.46423,0.13118
690.97444,0.18057
689.48465,0.15842
687.99486,0.12808
686.50508,0.16642
685.01529,0.20480
683.52550,0.18395
682.03571,0.25818
680.54592,0.19633
679.05613,0.20022
677.56635,0.20414
676.07656,0.13535
674.58677,0.12292
673.09698,0.08235
671.60719,0.10108
670.11740,0.11983
668.62761,0.06646
667.13783,0.11521
665.64804,0.07833
664.15825,0.04148
662.66846,0.08915
661.17867,0.11574
659.68888,0.12123
658.19910,0.10857
656.70931,0.09595
655.21952,0.08746
653.72973,0.14120
652.23994,0.17150
650.75015,0.20007
649.26037,0.22868
647.77058,0.17812
646.28079,0.11468
644.79100,0.05832
643.30121,0.03133
641.81142,0.00436
640.32163,0.02226
638.83185,0.09064
637.34206,0.04054
635.85227,0.02334
634.36248,0.00616
632.87269,0.04534
631.38290,0.03879
629.89312,0.04401
628.40333,0.06393
626.91354,0.08388
625.42375,0.04227
623.93396,0.04410
622.44417,0.04772
620.95438,0.05138
619.46460,0.03101
617.97481,0.05762
616.48502,0.11241
614.99523,0.10916
613.50544,0.10595
612.01565,0.11391
610.52587,0.10665
609.03608,0.02550
607.54629,0.03415
606.05650,0.04283
604.56671,0.14131
603.07692,0.17880
601.58714,0.12540
600.09735,0.07202
598.60756,0.06151
597.11777,0.06745
595.62798,0.04645
594.13819,0.05891
592.64840,0.07141
591.15862,0.09509
589.66883,0.03432
588.17904,0.02991
586.68925,0.04195
585.19946,0.05403
583.70967,0.10955
582.21989,0.00436
580.73010,0.05492
579.24031,0.10551
577.75052,0.07752
576.26073,0.18332
574.77094,0.11433
573.28115,0.11342
571.79137,0.11255
570.30158,0.13400
568.81179,0.21181
567.32200,0.21867
565.83221,0.22555
564.34242,0.24949
562.85264,0.29809
561.36285,0.32561
559.87306,0.36372
558.38327,0.40187
556.89348,0.45648
555.40369,0.51346
553.91391,0.48248
552.42412,0.45153
550.93433,0.51213
549.44454,0.53640
547.95475,0.54662
546.46496,0.55863
544.97517,0.57067
543.48539,0.57277
541.99560,0.63358
540.50581,0.65687
539.01602,0.68019
537.52623,0.64018
536.03644,0.57322
534.54666,0.65766
533.05687,0.62303
531.56708,0.58844
530.07729,0.59084
528.58750,0.53578
527.09771,0.51595
525.60792,0.49616
524.11814,0.47170
522.62835,0.55406
521.13856,0.48156
519.64877,0.44078
518.15898,0.40003
516.66919,0.45084
515.17941,0.34562
513.68962,0.32022
512.19983,0.29486
510.71004,0.44436
509.22025,0.30525
507.73046,0.40553
506.24068,0.35801
504.75089,0.31052
503.26110,0.44493
501.77131,0.34705
500.28152,0.36243
498.79173,0.37785
497.30194,0.28124
495.81216,0.23512
494.32237,0.27293
492.83258,0.31077
491.34279,0.22720
489.85300,0.25748
488.36321,0.21036
486.87343,0.16854
485.38364,0.12676
483.89385,0.19824
482.40406,0.12191
480.91427,0.09548
479.42448,0.06909
477.93469,0.08086
476.44491,0.04456
474.95512,0.10216
473.46533,0.15979
471.97554,0.03089
470.48575,0.01349
468.99596,0.14170
467.50618,0.11681
466.01639,0.09196
464.52660,0.00436
463.03681,0.02700
461.54702,0.05436
460.05723,0.08175
458.56745,0.09158
457.07766,0.08267
455.58787,0.12542
454.09808,0.16820
452.60829,0.16877
451.11850,0.11892
449.62871,0.15183
448.13893,0.18477
446.64914,0.30046
445.15935,0.35400
443.66956,0.39584
442.17977,0.46587
440.68998,0.53594
439.20020,0.52625
437.71041,0.51776
436.22062,0.59908
434.73083,0.68042
433.24104,0.78703
431.75125,0.80332
430.26146,0.86071
428.77168,0.91813
427.28189,0.98028
425.79210,1.07062
424.30231,1.03486
422.81252,0.99914
421.32273,0.98280
419.83295,1.00757
418.34316,0.89978
416.85337,0.79203
415.36358,0.70894
413.87379,0.70803
412.38400,0.66491
410.89422,0.62182
409.40443,0.50954
407.91464,0.63313
406.42485,0.56198
404.93506,0.55071
403.44527,0.53946
401.95548,0.49423
400.46570,0.43377
398.97591,0.41324
397.48612,0.39274
395.99633,0.45089
394.50654,0.42225
393.01675,0.47929
391.52697,0.53637
390.03718,0.40926
388.54739,0.31387
387.05760,0.35755
385.56781,0.40127
384.07802,0.41979
382.58824,0.43013
381.09845,0.38301
379.60866,0.33593
378.11887,0.36045
376.62908,0.38383
375.13929,0.33097
373.64950,0.27815
372.15972,0.30515
370.66993,0.22071
369.18014,0.23663
367.69035,0.25259
366.20056,0.22574
364.71077,0.19776
363.22099,0.24256
361.73120,0.28739
360.24141,0.29940
358.75162,0.34899
357.26183,0.32294
355.77204,0.29691
354.28225,0.22340
352.79247,0.20742
351.30268,0.18443
349.81289,0.16147
348.32310,0.18782
346.83331,0.18605
345.34352,0.11802
343.85374,0.05002
342.36395,0.23139
340.87416,0.16639
339.38437,0.20820
337.89458,0.25004
336.40479,0.26963
334.91501,0.23292
333.42522,0.20622
331.93543,0.17955
330.44564,0.21804
328.95585,0.18029
327.46606,0.15314
325.97627,0.12602
324.48649,0.07194
322.99670,0.13508
321.50691,0.15131
320.01712,0.16757
318.52733,0.15805
317.03754,0.24009
315.54776,0.23299
314.05797,0.22592
312.56818,0.18368
311.07839,0.09689
309.58860,0.05061
308.09881,0.00436
306.60902,0.08231
305.11924,0.04530
303.62945,0.06581
302.13966,0.08637
300.64987,0.08348
299.16008,0.00436
