1778.52000,0.02504
1777.03021,0.04796
1775.54042,0.05465
1774.05063,0.07512
1772.56085,0.02685
1771.07106,0.05363
1769.58127,0.01543
1768.09148,0.00851
1766.60169,0.00663
1765.11190,0.04104
1763.62212,0.04923
1762.13233,0.05369
1760.64254,0.03192
1759.15275,0.03769
1757.66296,0.05726
1756.17317,0.07184
1754.68339,0.06270
1753.19360,0.02233
1751.70381,0.02451
1750.21402,0.02671
1748.72423,0.02645
1747.23444,0.02121
1745.74465,0.04352
1744.25487,0.08086
1742.76508,0.09448
1741.27529,0.07686
1739.78550,0.03801
1738.29571,0.03796
1736.80592,0.07671
1735.31614,0.02420
1733.82635,0.05675
1732.33656,0.05182
1730.84677,0.02816
1729.35698,0.07207
1727.86719,0.02721
1726.37740,0.00615
1724.88762,0.06140
1723.39783,0.00663
1721.90804,0.04590
1720.41825,0.05144
1718.92846,0.03324
1717.43867,0.05135
1715.94889,0.06823
1714.45910,0.07014
1712.96931,0.04331
1711.47952,0.06154
1709.98973,0.06229
1708.49994,0.07182
1707.01016,0.06951
1705.52037,0.06722
1704.03058,0.13187
1702.54079,0.12902
1701.05100,0.10869
1699.56121,0.10340
1698.07142,0.13066
1696.58164,0.09292
1695.09185,0.15649
1693.60206,0.13382
1692.11227,0.18621
1690.62248,0.14984
1689.13269,0.20729
1687.64291,0.23351
1686.15312,0.24725
1684.66333,0.19350
1683.17354,0.21856
1681.68375,0.20863
1680.19396,0.22250
1678.70417,0.24890
1677.21439,0.20155
1675.72460,0.18925
1674.23481,0.16197
1672.74502,0.24477
1671.25523,0.16878
1669.76544,0.19662
1668.27566,0.23824
1666.78587,0.18360
1665.29608,0.13025
1663.80629,0.21198
1662.31650,0.22371
1660.82671,0.16545
1659.33693,0.20350
1657.84714,0.10278
1656.35735,0.19216
1654.86756,0.16278
1653.37777,0.14969
1651.88798,0.10411
1650.39819,0.14235
1648.90841,0.15311
1647.41862,0.14139
1645.92883,0.12407
1644.43904,0.10678
1642.94925,0.18144
1641.45946,0.14108
1639.96968,0.12075
1638.47989,0.12422
1636.99010,0.09396
1635.50031,0.14251
1634.01052,0.13856
1632.52073,0.11214
1631.03094,0.15953
1629.54116,0.10816
1628.05137,0.18562
1626.56158,0.13556
1625.07179,0.19058
1623.58200,0.17935
1622.09221,0.14689
1620.60243,0.18199
1619.11264,0.16584
1617.62285,0.14473
1616.13306,0.10864
1614.64327,0.14761
1613.15348,0.15160
1611.66370,0.15812
1610.17391,0.15092
1608.68412,0.09247
1607.19433,0.15161
1605.70454,0.17075
1604.21475,0.16430
1602.72496,0.15787
1601.23518,0.18836
1599.74539,0.14886
1598.25560,0.12940
1596.76581,0.14498
1595.27602,0.14433
1593.78623,0.14622
1592.29645,0.11312
1590.80666,0.11631
1589.31687,0.08703
1587.82708,0.07903
1586.33729,0.11984
1584.84750,0.10315
1583.35771,0.03522
1581.86793,0.10613
1580.37814,0.07953
1578.88835,0.08547
1577.39856,0.07019
1575.90877,0.10995
1574.41898,0.05346
1572.92920,0.09954
1571.43941,0.02186
1569.94962,0.01423
1568.45983,0.00663
1566.97004,0.07896
1565.48025,0.07128
1563.99047,0.07739
1562.50068,0.07353
1561.01089,0.06469
1559.52110,0.06589
1558.03131,0.09213
1556.54152,0.06213
1555.05173,0.06968
1553.56195,0.07225
1552.07216,0.10612
1550.58237,0.03872
1549.09258,0.07390
1547.60279,0.07159
1546.11300,0.08683
1544.62322,0.06957
1543.13343,0.03985
1541.64364,0.06017
1540.15385,0.05302
1538.66406,0.04589
1537.17427,0.07882
1535.68448,0.01423
1534.19470,0.01595
1532.70491,0.03145
1531.21512,0.00448
1529.72533,0.01004
1528.23554,0.00188
1526.74575,-0.00000
1525.25597,0.02591
1523.76618,0.01184
1522.27639,0.05531
1520.78660,0.04505
1519.29681,0.05858
1517.80702,0.02462
1516.31724,0.04696
1514.82745,0.04307
1513.33766,0.02484
1511.84787,0.00663
1510.35808,0.01493
1508.86829,0.01952
1507.37850,0.02913
1505.88872,0.01002
1504.39893,0.03595
1502.90914,0.02940
1501.41935,0.00663
1499.92956,0.02068
1498.43977,0.05352
1496.94999,0.12141
1495.46020,0.09929
1493.97041,0.12472
1492.48062,0.17769
1490.99083,0.17817
1489.50104,0.27247
1488.01125,0.30990
1486.52147,0.34737
1485.03168,0.45176
1483.54189,0.48616
1482.05210,0.55435
1480.56231,0.56380
1479.07252,0.63830
1477.58274,0.91417
1476.09295,0.80866
1474.60316,0.90077
1473.11337,1.01916
1471.62358,0.94251
1470.13379,0.96718
1468.64401,0.91310
1467.15422,0.83529
1465.66443,0.83566
1464.17464,0.83607
1462.68485,0.78461
1461.19506,0.79196
1459.70527,0.77807
1458.21549,0.72295
1456.72570,0.69913
1455.23591,0.56779
1453.74612,0.56904
1452.25633,0.46277
1450.76654,0.47908
1449.27676,0.52169
1447.78697,0.48179
1446.29718,0.40316
1444.80739,0.38646
1443.31760,0.36978
1441.82781,0.27624
1440.33802,0.23024
1438.84824,0.19052
1437.35845,0.20586
1435.86866,0.18747
1434.37887,0.23538
1432.88908,0.16203
1431.39929,0.22751
1429.90951,0.18923
1428.41972,0.18599
1426.92993,0.20529
1425.44014,0.20212
1423.95035,0.22273
1422.46056,0.24338
1420.97078,0.23405
1419.48099,0.20098
1417.99120,0.20671
1416.50141,0.20497
1415.01162,0.18826
1413.52183,0.25410
1412.03204,0.27121
1410.54226,0.24584
1409.05247,0.23800
1407.56268,0.31522
1406.07289,0.24742
1404.58310,0.27343
1403.09331,0.29948
1401.60353,0.32556
1400.11374,0.36167
1398.62395,0.36905
1397.13416,0.37021
1395.64437,0.36639
1394.15458,0.41763
1392.66479,0.48141
1391.17501,0.44392
1389.68522,0.43273
1388.19543,0.43907
1386.70564,0.43419
1385.21585,0.42934
1383.72606,0.42953
1382.23628,0.44225
1380.74649,0.46500
1379.25670,0.52155
1377.76691,0.51685
1376.27712,0.52594
1374.78733,0.49880
1373.29755,0.53671
1371.80776,0.76348
1370.31797,0.74893
1368.82818,0.85134
1367.33839,0.95377
1365.84860,1.08813
1364.35881,1.26378
1362.86903,1.48573
1361.37924,1.59266
1359.88945,1.57958
1358.39966,1.58404
1356.90987,1.56226
1355.42008,1.48425
1353.93030,1.47379
1352.44051,1.45085
1350.95072,1.42795
1349.46093,1.36631
1347.97114,1.35598
1346.48135,1.00428
1344.99156,0.84020
1343.50178,0.77618
1342.01199,0.76972
1340.52220,0.66074
1339.03241,0.64809
1337.54262,0.52042
1336.05283,0.50970
1334.56305,0.49902
1333.07326,0.46648
1331.58347,0.38520
1330.09368,0.37648
1328.60389,0.33778
1327.11410,0.31787
1325.62432,0.34425
1324.13453,0.25312
1322.64474,0.30333
1321.15495,0.34232
1319.66516,0.34006
1318.17537,0.33784
1316.68558,0.29814
1315.19580,0.27847
1313.70601,0.24257
1312.21622,0.27674
1310.72643,0.20214
1309.23664,0.18760
1307.74685,0.20685
1306.25707,0.26740
1304.76728,0.25232
1303.27749,0.23728
1301.78770,0.24415
1300.29791,0.21603
1298.80812,0.20170
1297.31834,0.23867
1295.82855,0.24066
1294.33876,0.31896
1292.84897,0.29850
1291.35918,0.24806
1289.86939,0.24142
1288.37960,0.23481
1286.88982,0.27075
1285.40003,0.27795
1283.91024,0.23517
1282.42045,0.31997
1280.93066,0.32351
1279.44087,0.30708
1277.95109,0.32694
1276.46130,0.35684
1274.97151,0.32299
1273.48172,0.28918
1271.99193,0.34668
1270.50214,0.41171
1269.01235,0.34797
1267.52257,0.44683
1266.03278,0.38691
1264.54299,0.43706
1263.05320,0.45848
1261.56341,0.47180
1260.07362,0.48515
1258.58384,0.50792
1257.09405,0.49695
1255.60426,0.43849
1254.11447,0.43508
1252.62468,0.49548
1251.13489,0.40585
1249.64511,0.44880
1248.15532,0.35173
1246.66553,0.35661
1245.17574,0.36151
1243.68595,0.29204
1242.19616,0.36516
1240.70637,0.37829
1239.21659,0.34767
1237.72680,0.27458
1236.23701,0.21902
1234.74722,0.21851
1233.25743,0.17176
1231.76764,0.12505
1230.27786,0.17715
1228.78807,0.13925
1227.29828,0.21268
1225.80849,0.10856
1224.31870,0.06075
1222.82891,0.09425
1221.33912,0.09527
1219.84934,0.09694
1218.35955,0.09865
1216.86976,0.10226
1215.37997,0.19093
1213.89018,0.18085
1212.40039,0.19205
1210.91061,0.10450
1209.42082,0.09701
1207.93103,0.08455
1206.44124,0.07212
1204.95145,0.09598
1203.46166,0.06235
1201.97188,0.13004
1200.48209,0.09898
1198.99230,0.09420
1197.50251,0.01818
1196.01272,0.06474
1194.52293,0.03567
1193.03314,0.00663
1191.54336,0.02789
1190.05357,0.07295
1188.56378,0.07051
1187.07399,0.03059
1185.58420,0.04448
1184.09441,0.07340
1182.60463,0.09109
1181.11484,0.10882
1179.62505,0.07655
1178.13526,0.08434
1176.64547,0.08590
1175.15568,0.05373
1173.66589,0.07536
1172.17611,0.08326
1170.68632,0.04493
1169.19653,0.00663
1167.70674,0.09202
1166.21695,0.11616
1164.72716,0.06906
1163.23738,0.04950
1161.74759,0.07249
1160.25780,0.08175
1158.76801,0.06228
1157.27822,0.04284
1155.78843,0.03469
1154.29865,0.02906
1152.80886,0.04223
1151.31907,0.11920
1149.82928,0.08241
1148.33949,0.09942
1146.84970,0.09207
1145.35991,0.08476
1143.87013,0.09186
1142.38034,0.12399
1140.89055,0.09989
1139.40076,0.19211
1137.91097,0.15181
1136.42118,0.20033
1134.93140,0.22449
1133.44161,0.24869
1131.95182,0.31355
1130.46203,0.35969
1128.97224,0.35959
1127.48245,0.37077
1125.99266,0.38449
1124.50288,0.33321
1123.01309,0.35387
1121.52330,0.37455
1120.03351,0.37339
1118.54372,0.43853
1117.05393,0.46368
1115.56415,0.48512
1114.07436,0.39279
1112.58457,0.43742
1111.09478,0.48208
1109.60499,0.52989
1108.11520,0.52897
1106.62542,0.57185
1105.13563,0.59600
1103.64584,0.73397
1102.15605,0.71817
1100.66626,0.74178
1099.17647,0.76543
1097.68668,0.70970
1096.19690,0.79531
1094.70711,0.78966
1093.21732,0.94035
1091.72753,0.92601
1090.23774,0.90670
1088.74795,0.88742
1087.25817,0.87942
1085.76838,1.00651
1084.27859,1.05360
1082.78880,1.02318
1081.29901,1.09534
1079.80922,1.09625
1078.31943,1.06468
1076.82965,1.03314
1075.33986,1.14543
1073.85007,1.34154
1072.36028,1.20630
1070.87049,1.28493
1069.38070,1.21352
1067.89092,1.27908
1066.40113,1.34466
1064.91134,1.29461
1063.42155,1.18956
1061.93176,1.09705
1060.44197,1.04209
1058.95219,0.91838
1057.46240,0.90161
1055.97261,0.88488
1054.48282,0.79377
1052.99303,0.82275
1051.50324,0.67668
1050.01345,0.60317
1048.52367,0.57346
1047.03388,0.56004
1045.54409,0.54665
1044.05430,0.62207
1042.56451,0.48619
1041.07472,0.45788
1039.58494,0.36208
1038.09515,0.35634
1036.60536,0.34501
1035.11557,0.33371
1033.62578,0.37183
1032.13599,0.35121
1030.64620,0.34313
1029.15642,0.37134
1027.66663,0.37207
1026.17684,0.37283
1024.68705,0.46616
1023.19726,0.54326
1021.70747,0.75545
1020.21769,0.86138
1018.72790,1.08363
1017.23811,1.16586
1015.74832,1.24812
1014.25853,1.43670
1012.76874,1.66907
1011.27896,1.88648
1009.78917,1.95010
1008.29938,2.00000
1006.80959,1.95364
1005.31980,1.90731
1003.83001,1.83725
1002.34022,1.81349
1000.85044,1.64346
999.36065,1.52847
997.87086,1.44916
996.38107,1.36987
994.89128,1.40629
993.40149,1.49526
991.91171,1.42920
990.42192,1.38943
988.93213,1.39095
987.44234,1.34187
985.95255,1.29281
984.46276,1.19814
982.97297,1.25481
981.48319,1.10393
979.99340,1.02686
978.50361,1.06674
977.01382,1.10665
975.52403,1.02217
974.03424,0.96898
972.54446,0.94083
971.05467,0.93272
969.56488,0.96715
968.07509,0.90158
966.58530,0.83604
965.09551,0.81930
963.60573,0.85136
962.11594,0.76840
960.62615,0.68922
959.13636,0.66635
957.64657,0.64351
956.15678,0.54067
954.66699,0.60668
953.17721,0.62019
951.68742,0.59997
950.19763,0.59542
948.70784,0.59089
947.21805,0.54326
945.72826,0.56568
944.23848,0.50435
942.74869,0.56810
941.25890,0.58686
939.76911,0.64879
938.27932,0.71076
936.78953,0.72586
935.29974,0.68597
933.80996,0.72990
932.32017,0.73259
930.83038,0.72468
929.34059,0.71680
927.85080,0.74334
926.36101,0.68613
924.87123,0.65270
923.38144,0.68809
921.89165,0.63597
920.40186,0.58388
918.91207,0.61311
917.42228,0.71114
915.93250,0.61913
914.44271,0.60718
912.95292,0.64778
911.46313,0.68841
909.97334,0.72032
908.48355,0.76852
906.99376,0.73797
905.50398,0.66368
904.01419,0.66132
902.52440,0.65899
901.03461,0.67608
899.54482,0.69070
898.05503,0.72285
896.56525,0.80381
895.07546,0.77850
893.58567,0.75322
892.09588,0.67296
890.60609,0.74653
889.11630,0.75011
887.62651,0.73996
886.13673,0.74047
884.64694,0.74101
883.15715,0.73471
881.66736,0.80722
880.17757,0.81348
878.68778,0.83165
877.19800,0.84985
875.70821,0.77617
874.21842,0.88260
872.72863,0.86275
871.23884,0.97674
869.74905,0.97696
868.25927,0.97721
866.76948,0.97000
865.27969,1.01158
863.78990,1.09821
862.30011,0.99604
860.81032,0.98769
859.32053,0.97938
857.83075,0.91857
856.34096,0.86905
854.85117,0.87333
853.36138,0.80136
851.87159,0.76694
850.38180,0.73254
848.89202,0.63441
847.40223,0.52380
845.91244,0.49700
844.42265,0.49211
842.93286,0.48726
841.44307,0.40928
839.95329,0.32008
838.46350,0.37722
836.97371,0.32685
835.48392,0.32715
833.99413,0.32748
832.50434,0.31596
831.01455,0.30323
829.52477,0.37305
828.03498,0.31911
826.54519,0.30897
825.05540,0.29885
823.56561,0.19373
822.07582,0.23120
820.58604,0.23368
819.09625,0.18180
817.60646,0.12995
816.11667,0.16129
814.62688,0.12763
813.13709,0.09900
811.64730,0.00663
810.15752,0.01591
808.66773,0.02521
807.17794,0.09145
805.68815,0.07268
804.19836,0.14022
802.70857,0.16216
801.21879,0.18412
799.72900,0.17923
798.23921,0.26816
796.74942,0.44965
795.25963,0.44360
793.76984,0.43759
792.28006,0.43035
790.79027,0.52943
789.30048,0.60604
787.81069,0.64766
786.32090,0.67055
784.83111,0.69348
783.34132,0.69018
781.85154,0.69691
780.36175,0.74244
778.87196,0.71609
777.38217,0.68977
775.89238,0.68537
774.40259,0.80230
772.91281,0.79921
771.42302,0.82491
769.93323,0.85065
768.44344,0.87016
766.95365,0.93972
765.46386,0.96680
763.97407,0.83634
762.48429,0.78782
760.99450,0.73933
759.50471,0.56145
758.01492,0.49239
756.52513,0.45087
755.03534,0.40938
753.54556,0.36793
752.05577,0.26272
750.56598,0.15880
749.07619,0.14495
747.58640,0.13300
746.09661,0.12108
744.60683,0.09482
743.11704,0.10234
741.62725,0.11740
740.13746,0.09373
738.64767,0.07008
737.15788,0.03396
735.66809,0.00663
734.17831,0.03525
732.68852,0.07202
731.19873,0.10883
729.70894,0.05876
728.21915,0.06749
726.72936,0.09001
725.23958,0.12006
723.74979,0.12513
722.26000,0.13024
720.77021,0.12036
719.28042,0.08426
717.79063,0.06945
716.30084,0.07843
714.81106,0.08743
713.32127,0.08022
711.83148,0.04552
710.34169,0.03086
708.85190,0.01873
707.36211,0.00663
705.87233,0.08169
704.38254,0.04548
702.89275,0.08308
701.40296,0.08070
699.91317,0.07834
698.42338,0.15730
696.93360,0.19628
695.44381,0.16901
693.95402,0.16552
692.46423,0.16207
690.97444,0.19617
689.48465,0.22154
687.99486,0.24319
686.50508,0.23986
685.01529,0.23657
683.52550,0.25456
682.03571,0.22756
680.54592,0.21810
679.05613,0.19805
677.56635,0.17802
676.07656,0.15865
674.58677,0.17933
673.09698,0.20379
671.60719,0.14949
670.11740,0.09523
668.62761,0.11728
667.13783,0.13936
665.64804,0.09895
664.15825,0.05856
662.66846,0.07448
661.17867,0.09918
659.68888,0.11266
658.19910,0.09616
656.70931,0.07969
655.21952,0.10326
653.72973,0.10811
652.23994,0.14050
650.75015,0.11227
649.26037,0.08407
647.77058,0.09905
646.28079,0.03402
644.79100,0.07032
643.30121,0.05412
641.81142,0.03795
640.32163,0.08434
638.83185,0.05574
637.34206,0.09718
635.85227,0.05988
634.36248,0.02261
632.87269,0.00663
631.38290,0.06858
629.89312,0.02051
628.40333,0.02625
626.91354,0.03201
625.42375,0.06532
623.93396,0.12867
622.44417,0.12765
620.95438,0.12666
619.46460,0.08381
617.97481,0.07476
616.48502,0.09699
614.99523,0.09800
613.50544,0.09904
612.01565,0.09761
610.52587,0.10622
609.03608,0.15362
607.54629,0.16666
606.05650,0.17973
604.56671,0.16470
603.07692,0.16720
601.58714,0.19725
600.09735,0.22733
598.60756,0.17240
597.11777,0.13001
595.62798,0.16268
594.13819,0.14911
592.64840,0.13557
591.15862,0.10831
589.66883,0.13485
588.17904,0.12765
586.68925,0.13612
585.19946,0.14462
583.70967,0.11001
582.21989,0.06542
580.73010,0.12779
579.24031,0.19018
577.75052,0.25448
576.26073,0.17625
574.77094,0.24436
573.28115,0.22747
571.79137,0.21061
570.30158,0.22254
568.81179,0.36831
567.32200,0.32840
565.83221,0.28853
564.34242,0.33060
562.85264,0.36394
561.36285,0.41857
559.87306,0.46636
558.38327,0.51417
556.89348,0.46385
555.40369,0.52861
553.91391,0.52525
552.42412,0.52192
550.93433,0.62303
549.44454,0.62039
547.95475,0.71906
546.46496,0.75899
544.97517,0.79895
543.48539,0.74391
541.99560,0.73516
540.50581,0.75271
539.01602,0.77029
537.52623,0.66034
536.03644,0.66422
534.54666,0.67189
533.05687,0.68208
531.56708,0.69231
530.07729,0.66255
528.58750,0.63907
527.09771,0.63313
525.60792,0.62722
524.11814,0.52006
522.62835,0.56548
521.13856,0.51340
519.64877,0.46884
518.15898,0.42432
516.66919,0.36983
515.17941,0.41791
513.68962,0.44476
512.19983,0.47164
510.71004,0.38850
509.22025,0.35792
507.73046,0.35238
506.24068,0.34750
504.75089,0.34264
503.26110,0.48850
501.77131,0.34928
500.28152,0.37578
498.79173,0.40231
497.30194,0.30820
495.81216,0.34542
494.32237,0.38017
492.83258,0.41495
491.34279,0.49728
489.85300,0.47961
488.36321,0.41569
486.87343,0.35993
485.38364,0.30420
483.89385,0.27915
482.40406,0.28663
480.91427,0.27039
479.42448,0.25417
477.93469,0.19797
476.44491,0.08053
474.95512,0.11443
473.46533,0.14835
471.97554,0.12354
470.48575,0.12877
468.99596,0.08151
467.50618,0.13994
466.01639,0.19841
464.52660,0.12748
463.03681,0.12161
461.54702,0.11201
460.05723,0.10245
458.56745,0.00663
457.07766,0.08648
455.58787,0.15885
454.09808,0.23126
452.60829,0.23742
451.11850,0.33365
449.62871,0.27922
448.13893,0.22482
446.64914,0.38992
445.15935,0.42999
443.66956,0.49761
442.17977,0.48148
440.68998,0.46537
439.20020,0.62687
437.71041,0.74713
436.22062,0.78364
434.73083,0.82018
433.24104,0.87926
431.75125,1.04716
430.26146,1.11880
428.77168,1.19048
427.28189,1.28720
425.79210,1.26389
424.30231,1.25501
422.81252,1.24615
421.32273,1.22419
419.83295,1.11222
418.34316,1.10408
416.85337,1.09597
415.36358,0.81653
413.87379,0.71969
412.38400,0.71105
410.89422,0.70243
409.40443,0.53566
407.91464,0.61902
406.42485,0.51108
404.93506,0.50634
403.44527,0.50163
401.95548,0.49508
400.46570,0.43978
398.97591,0.47456
397.48612,0.50936
395.99633,0.54294
394.50654,0.61907
393.01675,0.53830
391.52697,0.45755
390.03718,0.45624
388.54739,0.40495
387.05760,0.41683
385.56781,0.42874
384.07802,0.46757
382.58824,0.32136
381.09845,0.30085
379.60866,0.28038
378.11887,0.31558
376.62908,0.22576
375.13929,0.19662
373.64950,0.16751
372.15972,0.23910
370.66993,0.18192
369.18014,0.19229
367.69035,0.20270
366.20056,0.10184
364.71077,0.11106
363.22099,0.16470
361.73120,0.21837
360.24141,0.10262
358.75162,0.08820
357.26183,0.15197
355.77204,0.21576
354.28225,0.08139
352.79247,0.01957
351.30268,0.01547
349.81289,0.01140
348.32310,0.02299
346.83331,0.06541
345.34352,0.04846
343.85374,0.03155
342.36395,0.03154
340.87416,0.05408
339.38437,0.05664
337.89458,0.05922
336.40479,0.01433
334.91501,0.09201
333.42522,0.09156
331.93543,0.09114
330.44564,0.07763
328.95585,0.21295
327.46606,0.14135
325.97627,0.06978
324.48649,0.05389
322.99670,0.04678
321.50691,0.09464
320.01712,0.14254
318.52733,0.15858
317.03754,0.18340
315.54776,0.17137
314.05797,0.15936
312.56818,0.09299
311.07839,0.01915
309.58860,0.05288
308.09881,0.08664
306.60902,0.00663
305.11924,0.18914
303.62945,0.11721
302.13966,0.04530
300.64987,0.08910
299.16008,0.00663
