1778.52000,0.06772
1777.03021,0.05340
1775.54042,0.04139
1774.05063,0.07577
1772.56085,0.04331
1771.07106,0.04507
1769.58127,0.04458
1768.09148,0.00537
1766.60169,0.03382
1765.11190,0.03191
1763.62212,0.04066
1762.13233,0.03881
1760.64254,0.03243
1759.15275,0.04356
1757.66296,0.05851
1756.17317,0.03474
1754.68339,0.03456
1753.19360,0.01390
1751.70381,0.03506
1750.21402,0.02737
1748.72423,0.02047
1747.23444,0.00980
1745.74465,0.02577
1744.25487,0.01668
1742.76508,0.05018
1741.27529,0.04116
1739.78550,0.03673
1738.29571,0.01788
1736.80592,0.03783
1735.31614,0.00537
1733.82635,0.03250
1732.33656,0.01254
1730.84677,0.03289
1729.35698,0.03124
1727.86719,0.02277
1726.37740,0.01206
1724.88762,0.00289
1723.39783,0.01124
1721.90804,0.00289
1720.41825,0.02236
1718.92846,0.04414
1717.43867,0.02111
1715.94889,0.00572
1714.45910,0.02455
1712.96931,0.01453
1711.47952,0.03722
1709.98973,0.04247
1708.49994,0.04014
1707.01016,0.04735
1705.52037,0.05458
1704.03058,0.05159
1702.54079,0.06838
1701.05100,0.09433
1699.56121,0.08915
1698.07142,0.09920
1696.58164,0.14803
1695.09185,0.14294
1693.60206,0.17284
1692.11227,0.18301
1690.62248,0.18865
1689.13269,0.14645
1687.64291,0.19623
1686.15312,0.21032
1684.66333,0.22216
1683.17354,0.19680
1681.68375,0.19883
1680.19396,0.21304
1678.70417,0.21361
1677.21439,0.19673
1675.72460,0.21256
1674.23481,0.24741
1672.74502,0.18502
1671.25523,0.22450
1669.76544,0.21005
1668.27566,0.22983
1666.78587,0.18125
1665.29608,0.19045
1663.80629,0.20728
1662.31650,0.19603
1660.82671,0.15136
1659.33693,0.15005
1657.84714,0.19208
1656.35735,0.18779
1654.86756,0.15085
1653.37777,0.15421
1651.88798,0.16521
1650.39819,0.14660
1648.90841,0.13866
1647.41862,0.14899
1645.92883,0.13313
1644.43904,0.11730
1642.94925,0.12165
1641.45946,0.14958
1639.96968,0.13270
1638.47989,0.17285
1636.99010,0.14160
1635.50031,0.13013
1634.01052,0.10046
1632.52073,0.14149
1631.03094,0.11416
1629.54116,0.14082
1628.05137,0.19030
1626.56158,0.13646
1625.07179,0.18905
1623.58200,0.19075
1622.09221,0.18108
1620.60243,0.17068
1619.11264,0.20971
1617.62285,0.19101
1616.13306,0.15943
1614.64327,0.14079
1613.15348,0.14347
1611.66370,0.14693
1610.17391,0.12763
1608.68412,0.14331
1607.19433,0.12711
1605.70454,0.16565
1604.21475,0.15255
1602.72496,0.13948
1601.23518,0.14772
1599.74539,0.15295
1598.25560,0.10349
1596.76581,0.10954
1595.27602,0.12550
1593.78623,0.11946
1592.29645,0.10280
1590.80666,0.08921
1589.31687,0.06806
1587.82708,0.07885
1586.33729,0.07144
1584.84750,0.10281
1583.35771,0.06202
1581.86793,0.05166
1580.37814,0.05044
1578.88835,0.03178
1577.39856,0.07851
1575.90877,0.05155
1574.41898,0.04210
1572.92920,0.03420
1571.43941,0.04305
1569.94962,0.04282
1568.45983,0.04261
1566.97004,0.01811
1565.48025,0.03241
1563.99047,0.01861
1562.50068,0.02992
1561.01089,0.02303
1559.52110,0.02301
1558.03131,0.04961
1556.54152,0.01925
1555.05173,0.07555
1553.56195,0.04070
1552.07216,0.07122
1550.58237,0.03491
1549.09258,0.03738
1547.60279,0.00188
1546.11300,0.05609
1544.62322,0.02065
1543.13343,0.00956
1541.64364,0.00231
1540.15385,0.00872
1538.66406,0.01515
1537.17427,0.04480
1535.68448,0.02584
1534.19470,0.00615
1532.70491,0.01825
1531.21512,0.04937
1529.72533,0.00529
1528.23554,0.00000
1526.74575,0.04110
1525.25597,0.02675
1523.76618,0.02079
1522.27639,0.01562
1520.78660,0.00668
1519.29681,0.01601
1517.80702,0.00789
1516.31724,0.02489
1514.82745,0.01151
1513.33766,0.00843
1511.84787,0.00537
1510.35808,0.03014
1508.86829,0.04658
1507.37850,0.03645
1505.88872,0.01268
1504.39893,0.04365
1502.90914,0.03285
1501.41935,0.00537
1499.92956,0.02858
1498.43977,0.05410
1496.94999,0.07205
1495.46020,0.15539
1493.97041,0.14757
1492.48062,0.20665
1490.99083,0.25892
1489.50104,0.33098
1488.01125,0.37458
1486.52147,0.41820
1485.03168,0.54887
1483.54189,0.64841
1482.05210,0.66895
1480.56231,0.79211
1479.07252,0.88414
1477.58274,0.91997
1476.09295,1.01511
1474.60316,1.02440
1473.11337,1.08768
1471.62358,1.11223
1470.13379,1.17709
1468.64401,1.12191
1467.15422,1.05080
1465.66443,1.02456
1464.17464,0.99835
1462.68485,0.98129
1461.19506,1.00985
1459.70527,0.86062
1458.21549,0.81021
1456.72570,0.78644
1455.23591,0.69733
1453.74612,0.64930
1452.25633,0.57773
1450.76654,0.55484
1449.27676,0.57453
1447.78697,0.58969
1446.29718,0.51369
1444.80739,0.48674
1443.31760,0.45982
1441.82781,0.32311
1440.33802,0.27687
1438.84824,0.25042
1437.35845,0.23768
1435.86866,0.21281
1434.37887,0.20849
1432.88908,0.18824
1431.39929,0.26226
1429.90951,0.21471
1428.41972,0.18391
1426.92993,0.19875
1425.44014,0.23641
1423.95035,0.21748
1422.46056,0.19859
1420.97078,0.23786
1419.48099,0.25284
1417.99120,0.29218
1416.50141,0.30798
1415.01162,0.27822
1413.52183,0.27433
1412.03204,0.30998
1410.54226,0.31071
1409.05247,0.27956
1407.56268,0.29782
1406.07289,0.20289
1404.58310,0.18360
1403.09331,0.16435
1401.60353,0.24582
1400.11374,0.29312
1398.62395,0.31157
1397.13416,0.31941
1395.64437,0.33717
1394.15458,0.35875
1392.66479,0.38720
1391.17501,0.32526
1389.68522,0.32565
1388.19543,0.32912
1386.70564,0.32654
1385.21585,0.32399
1383.72606,0.28955
1382.23628,0.35850
1380.74649,0.33628
1379.25670,0.27990
1377.76691,0.26762
1376.27712,0.28197
1374.78733,0.28040
1373.29755,0.33813
1371.80776,0.37233
1370.31797,0.48028
1368.82818,0.54532
1367.33839,0.61039
1365.84860,0.71235
1364.35881,0.90402
1362.86903,0.97716
1361.37924,1.11265
1359.88945,1.16381
1358.39966,1.17245
1356.90987,1.21152
1355.42008,1.20882
1353.93030,1.24111
1352.44051,1.19364
1350.95072,1.14620
1349.46093,1.03343
1347.97114,0.92449
1346.48135,0.78519
1344.99156,0.68999
1343.50178,0.68070
1342.01199,0.57568
1340.52220,0.52466
1339.03241,0.46454
1337.54262,0.44245
1336.05283,0.43673
1334.56305,0.43104
1333.07326,0.42500
1331.58347,0.40000
1330.09368,0.39098
1328.60389,0.36983
1327.11410,0.31680
1325.62432,0.29344
1324.13453,0.32026
1322.64474,0.29543
1321.15495,0.31016
1319.66516,0.31922
1318.17537,0.32830
1316.68558,0.33324
1315.19580,0.32149
1313.70601,0.26341
1312.21622,0.24792
1310.72643,0.25222
1309.23664,0.28695
1307.74685,0.23508
1306.25707,0.26455
1304.76728,0.25301
1303.27749,0.24150
1301.78770,0.22395
1300.29791,0.23682
1298.80812,0.25201
1297.31834,0.22618
1295.82855,0.27259
1294.33876,0.27418
1292.84897,0.25529
1291.35918,0.26227
1289.86939,0.26852
1288.37960,0.27480
1286.88982,0.27275
1285.40003,0.28897
1283.91024,0.32574
1282.42045,0.32302
1280.93066,0.28993
1279.44087,0.36631
1277.95109,0.36900
1276.46130,0.37401
1274.97151,0.37030
1273.48172,0.36663
1271.99193,0.29649
1270.50214,0.39053
1269.01235,0.40557
1267.52257,0.40848
1266.03278,0.47297
1264.54299,0.46606
1263.05320,0.49642
1261.56341,0.51275
1260.07362,0.52911
1258.58384,0.53296
1257.09405,0.51404
1255.60426,0.51415
1254.11447,0.49150
1252.62468,0.47191
1251.13489,0.45312
1249.64511,0.38344
1248.15532,0.32823
1246.66553,0.34905
1245.17574,0.36989
1243.68595,0.34973
1242.19616,0.31972
1240.70637,0.31102
1239.21659,0.29323
1237.72680,0.25572
1236.23701,0.22659
1234.74722,0.20661
1233.25743,0.18819
1231.76764,0.16979
1230.27786,0.17802
1228.78807,0.17413
1227.29828,0.13227
1225.80849,0.12691
1224.31870,0.14059
1222.82891,0.07906
1221.33912,0.11635
1219.84934,0.10656
1218.35955,0.09680
1216.86976,0.09467
1215.37997,0.11157
1213.89018,0.15357
1212.40039,0.11050
1210.91061,0.11381
1209.42082,0.09359
1207.93103,0.07189
1206.44124,0.05021
1204.95145,0.06504
1203.46166,0.02899
1201.97188,0.06592
1200.48209,0.05197
1198.99230,0.09048
1197.50251,0.01656
1196.01272,0.02625
1194.52293,0.01812
1193.03314,0.01002
1191.54336,0.00537
1190.05357,0.02359
1188.56378,0.05476
1187.07399,0.01528
1185.58420,0.01459
1184.09441,0.01393
1182.60463,0.03458
1181.11484,0.05527
1179.62505,0.00758
1178.13526,0.06109
1176.64547,0.08194
1175.15568,0.06483
1173.66589,0.06599
1172.17611,0.08770
1170.68632,0.06384
1169.19653,0.04001
1167.70674,0.05269
1166.21695,0.00537
1164.72716,0.03562
1163.23738,0.02258
1161.74759,0.06505
1160.25780,0.04828
1158.76801,0.02697
1157.27822,0.00570
1155.78843,0.05969
1154.29865,0.03848
1152.80886,0.01350
1151.31907,0.09494
1149.82928,0.06926
1148.33949,0.09529
1146.84970,0.10007
1145.35991,0.10487
1143.87013,0.07400
1142.38034,0.08495
1140.89055,0.06325
1139.40076,0.14494
1137.91097,0.21374
1136.42118,0.22253
1134.93140,0.21577
1133.44161,0.20905
1131.95182,0.28861
1130.46203,0.32108
1128.97224,0.35435
1127.48245,0.30177
1125.99266,0.30849
1124.50288,0.29929
1123.01309,0.30760
1121.52330,0.31594
1120.03351,0.30911
1118.54372,0.37983
1117.05393,0.42018
1115.56415,0.48487
1114.07436,0.42117
1112.58457,0.44033
1111.09478,0.45953
1109.60499,0.48483
1108.11520,0.56488
1106.62542,0.57352
1105.13563,0.59512
1103.64584,0.64790
1102.15605,0.79799
1100.66626,0.77598
1099.17647,0.75400
1097.68668,0.78943
1096.19690,0.77777
1094.70711,0.84441
1093.21732,0.92173
1091.72753,0.96944
1090.23774,0.97158
1088.74795,0.97375
1087.25817,1.00559
1085.76838,1.00175
1084.27859,1.04885
1082.78880,1.14158
1081.29901,1.15530
1079.80922,1.12954
1078.31943,1.13687
1076.82965,1.14423
1075.33986,1.21355
1073.85007,1.18335
1072.36028,1.16382
1070.87049,1.18004
1069.38070,1.31561
1067.89092,1.33227
1066.40113,1.34896
1064.91134,1.29310
1063.42155,1.11645
1061.93176,1.07510
1060.44197,1.07177
1058.95219,0.98641
1057.46240,0.99378
1055.97261,1.00119
1054.48282,0.94783
1052.99303,0.83598
1051.50324,0.76065
1050.01345,0.67014
1048.52367,0.63515
1047.03388,0.59220
1045.54409,0.54928
1044.05430,0.55086
1042.56451,0.52358
1041.07472,0.45378
1039.58494,0.41060
1038.09515,0.44802
1036.60536,0.42048
1035.11557,0.39298
1033.62578,0.34993
1032.13599,0.29171
1030.64620,0.30496
1029.15642,0.35775
1027.66663,0.38056
1026.17684,0.40339
1024.68705,0.47756
1023.19726,0.60571
1021.70747,0.77949
1020.21769,0.86970
1018.72790,1.11726
1017.23811,1.27821
1015.74832,1.43919
1014.25853,1.55840
1012.76874,1.77948
1011.27896,1.92232
1009.78917,1.97095
1008.29938,1.99606
1006.80959,1.99801
1005.31980,2.00000
1003.83001,1.80025
1002.34022,1.70085
1000.85044,1.64023
999.36065,1.57661
997.87086,1.50921
996.38107,1.44185
994.89128,1.44291
993.40149,1.40373
991.91171,1.37977
990.42192,1.38776
988.93213,1.38743
987.44234,1.39358
985.95255,1.39977
984.46276,1.36533
982.97297,1.30128
981.48319,1.26918
979.99340,1.22343
978.50361,1.17771
977.01382,1.13202
975.52403,1.11601
974.03424,1.15245
972.54446,1.10762
971.05467,1.02178
969.56488,1.02640
968.07509,0.95848
966.58530,0.89058
965.09551,0.84514
963.60573,0.85445
962.11594,0.82654
960.62615,0.75156
959.13636,0.72561
957.64657,0.69970
956.15678,0.64608
954.66699,0.65633
953.17721,0.61493
951.68742,0.63816
950.19763,0.65040
948.70784,0.66267
947.21805,0.60468
945.72826,0.61967
944.23848,0.55338
942.74869,0.63454
941.25890,0.61619
939.76911,0.62370
938.27932,0.63125
936.78953,0.69354
935.29974,0.76498
933.80996,0.69890
932.32017,0.74913
930.83038,0.76709
929.34059,0.78507
927.85080,0.75331
926.36101,0.72615
924.87123,0.71649
923.38144,0.70914
921.89165,0.68396
920.40186,0.65882
918.91207,0.62724
917.42228,0.63902
915.93250,0.66982
914.44271,0.63226
912.95292,0.68402
911.46313,0.73581
909.97334,0.76370
908.48355,0.72094
906.99376,0.87732
905.50398,0.80726
904.01419,0.82197
902.52440,0.83671
901.03461,0.75002
899.54482,0.81156
898.05503,0.81841
896.56525,0.79338
895.07546,0.80257
893.58567,0.81179
892.09588,0.83548
890.60609,0.87441
889.11630,0.81761
887.62651,0.88319
886.13673,0.85647
884.64694,0.82978
883.15715,0.85669
881.66736,0.73925
880.17757,0.74495
878.68778,0.75600
877.19800,0.76708
875.70821,0.73867
874.21842,0.74905
872.72863,0.75566
871.23884,0.87402
869.74905,0.89019
868.25927,0.90639
866.76948,0.91389
865.27969,0.91305
863.78990,0.93505
862.30011,0.87120
860.81032,0.86286
859.32053,0.85454
857.83075,0.88046
856.34096,0.77798
854.85117,0.78648
853.36138,0.67114
851.87159,0.64626
850.38180,0.62141
848.89202,0.50616
847.40223,0.42894
845.91244,0.35403
844.42265,0.32209
842.93286,0.29017
841.44307,0.27159
839.95329,0.24468
838.46350,0.31127
836.97371,0.27834
835.48392,0.27090
833.99413,0.26349
832.50434,0.24965
831.01455,0.27079
829.52477,0.28057
828.03498,0.29114
826.54519,0.26565
825.05540,0.24018
823.56561,0.18625
822.07582,0.16958
820.58604,0.14915
819.09625,0.13596
817.60646,0.12281
816.11667,0.06675
814.62688,0.09507
813.13709,0.07631
811.64730,0.02794
810.15752,0.03280
808.66773,0.03769
807.17794,0.00537
805.68815,0.07078
804.19836,0.09137
802.70857,0.09871
801.21879,0.10607
799.72900,0.17387
798.23921,0.22575
796.74942,0.36962
795.25963,0.38280
793.76984,0.39601
792.28006,0.49133
790.79027,0.56844
789.30048,0.61443
787.81069,0.61408
786.32090,0.63885
784.83111,0.66365
783.34132,0.62768
781.85154,0.68217
780.36175,0.67515
778.87196,0.68601
777.38217,0.69690
775.89238,0.79483
774.40259,0.73853
772.91281,0.88364
771.42302,0.90909
769.93323,0.93458
768.44344,0.86320
766.95365,0.84960
765.46386,0.86340
763.97407,0.77463
762.48429,0.74365
760.99450,0.71270
759.50471,0.57387
758.01492,0.50195
756.52513,0.36926
755.03534,0.33805
753.54556,0.30687
752.05577,0.26547
750.56598,0.19370
749.07619,0.12196
747.58640,0.11560
746.09661,0.10928
744.60683,0.08474
743.11704,0.09064
741.62725,0.00537
740.13746,0.01458
738.64767,0.02382
737.15788,0.01675
735.66809,0.02263
734.17831,0.07262
732.68852,0.04588
731.19873,0.01917
729.70894,0.04645
728.21915,0.00537
726.72936,0.06114
725.23958,0.07514
723.74979,0.04282
722.26000,0.01052
720.77021,0.01170
719.28042,0.03266
717.79063,0.05518
716.30084,0.05796
714.81106,0.06078
713.32127,0.02791
711.83148,0.01939
710.34169,0.00330
708.85190,0.00776
707.36211,0.01225
705.87233,0.00537
704.38254,0.04297
702.89275,0.04489
701.40296,0.06203
699.91317,0.07920
698.42338,0.08729
696.93360,0.05665
695.44381,0.09823
693.95402,0.12123
692.46423,0.14426
690.97444,0.14110
689.48465,0.12961
687.99486,0.17895
686.50508,0.17284
685.01529,0.16676
683.52550,0.17439
682.03571,0.15546
680.54592,0.11223
679.05613,0.14580
677.56635,0.17939
676.07656,0.09826
674.58677,0.12203
673.09698,0.12912
671.60719,0.11914
670.11740,0.10919
668.62761,0.07609
667.13783,0.06810
665.64804,0.05368
664.15825,0.03929
662.66846,0.03671
661.17867,0.05316
659.68888,0.07572
658.19910,0.06982
656.70931,0.06394
655.21952,0.11319
653.72973,0.13207
652.23994,0.12439
650.75015,0.11674
649.26037,0.10911
647.77058,0.13800
646.28079,0.11448
644.79100,0.10999
643.30121,0.05803
641.81142,0.00610
640.32163,0.02012
638.83185,0.01213
637.34206,0.03776
635.85227,0.03037
634.36248,0.02301
632.87269,0.02821
631.38290,0.01369
629.89312,0.06227
628.40333,0.04971
626.91354,0.03718
625.42375,0.02050
623.93396,0.00537
622.44417,0.03807
620.95438,0.07079
619.46460,0.06289
617.97481,0.09150
616.48502,0.06314
614.99523,0.06407
613.50544,0.06503
612.01565,0.10668
610.52587,0.12556
609.03608,0.10571
607.54629,0.10072
606.05650,0.09575
604.56671,0.11779
603.07692,0.15659
601.58714,0.14601
600.09735,0.13547
598.60756,0.10368
597.11777,0.10688
595.62798,0.10707
594.13819,0.08715
592.64840,0.06726
591.15862,0.04322
589.66883,0.06633
588.17904,0.05375
586.68925,0.04614
585.19946,0.03857
583.70967,0.05192
582.21989,0.08278
580.73010,0.08518
579.24031,0.08760
577.75052,0.12843
576.26073,0.16246
574.77094,0.16231
573.28115,0.16752
571.79137,0.17276
570.30158,0.19627
568.81179,0.19929
567.32200,0.22969
565.83221,0.26013
564.34242,0.31568
562.85264,0.39330
561.36285,0.41851
559.87306,0.41905
558.38327,0.41962
556.89348,0.46392
555.40369,0.51510
553.91391,0.51234
552.42412,0.50962
550.93433,0.55024
549.44454,0.61217
547.95475,0.66578
546.46496,0.67306
544.97517,0.68037
543.48539,0.71050
541.99560,0.74219
540.50581,0.72603
539.01602,0.70991
537.52623,0.67785
536.03644,0.66407
534.54666,0.59483
533.05687,0.57921
531.56708,0.56362
530.07729,0.51044
528.58750,0.57964
527.09771,0.57173
525.60792,0.56386
524.11814,0.49560
522.62835,0.48057
521.13856,0.46785
519.64877,0.44871
518.15898,0.42959
516.66919,0.39948
515.17941,0.35192
513.68962,0.33594
512.19983,0.31998
510.71004,0.33635
509.22025,0.31324
507.73046,0.33499
506.24068,0.36286
504.75089,0.39075
503.26110,0.34952
501.77131,0.33796
500.28152,0.33099
498.79173,0.32404
497.30194,0.35513
495.81216,0.31785
494.32237,0.32506
492.83258,0.33230
491.34279,0.34299
489.85300,0.34156
488.36321,0.24668
486.87343,0.22516
485.38364,0.20368
483.89385,0.21300
482.40406,0.15320
480.91427,0.10179
479.42448,0.05041
477.93469,0.02566
476.44491,0.01766
474.95512,0.06516
473.46533,0.11270
471.97554,0.06907
470.48575,0.02167
468.99596,0.05790
467.50618,0.04438
466.01639,0.03090
464.52660,0.00870
463.03681,0.03593
461.54702,0.02064
460.05723,0.00537
458.56745,0.09129
457.07766,0.05108
455.58787,0.08082
454.09808,0.11059
452.60829,0.13887
451.11850,0.15351
449.62871,0.17729
448.13893,0.20110
446.64914,0.34654
445.15935,0.40993
443.66956,0.45359
442.17977,0.49843
440.68998,0.54329
439.20020,0.66228
437.71041,0.74635
436.22062,0.77307
434.73083,0.79981
433.24104,0.92273
431.75125,1.02439
430.26146,1.08809
428.77168,1.15182
427.28189,1.25813
425.79210,1.25505
424.30231,1.25883
422.81252,1.26265
421.32273,1.25510
419.83295,1.14954
418.34316,1.07859
416.85337,1.00768
415.36358,0.83762
413.87379,0.84922
412.38400,0.78181
410.89422,0.71444
409.40443,0.68053
407.91464,0.67325
406.42485,0.67969
404.93506,0.65081
403.44527,0.62197
401.95548,0.59049
400.46570,0.49750
398.97591,0.49002
397.48612,0.48258
395.99633,0.54394
394.50654,0.55366
393.01675,0.55467
391.52697,0.55570
390.03718,0.50168
388.54739,0.48720
387.05760,0.46249
385.56781,0.43781
384.07802,0.45534
382.58824,0.43871
381.09845,0.42856
379.60866,0.41845
378.11887,0.38974
376.62908,0.34435
375.13929,0.32179
373.64950,0.29926
372.15972,0.23572
370.66993,0.21856
369.18014,0.18700
367.69035,0.15548
366.20056,0.14526
364.71077,0.07123
363.22099,0.12073
361.73120,0.17026
360.24141,0.14496
358.75162,0.14325
357.26183,0.12296
355.77204,0.10269
354.28225,0.05548
352.79247,0.07441
351.30268,0.07932
349.81289,0.08425
348.32310,0.04324
346.83331,0.06002
345.34352,0.03427
343.85374,0.00855
342.36395,0.03207
340.87416,0.04954
339.38437,0.08718
337.89458,0.12486
336.40479,0.13558
334.91501,0.10302
333.42522,0.09709
331.93543,0.09119
330.44564,0.02300
328.95585,0.09088
327.46606,0.08279
325.97627,0.07473
324.48649,0.01883
322.99670,0.04489
321.50691,0.04896
320.01712,0.05305
318.52733,0.05641
317.03754,0.06588
315.54776,0.04954
314.05797,0.03324
312.56818,0.06940
311.07839,0.05316
309.58860,0.03200
308.09881,0.01088
306.60902,0.00537
305.11924,0.06282
303.62945,0.04469
302.13966,0.02659
300.64987,0.01042
299.16008,0.00537
