1778.52000,0.02119
1777.03021,0.01343
1775.54042,0.01714
1774.05063,0.03615
1772.56085,0.01894
1771.07106,0.03738
1769.58127,0.02786
1768.09148,0.02283
1766.60169,0.00510
1765.11190,0.03384
1763.62212,0.03080
1762.13233,0.02081
1760.64254,0.02419
1759.15275,0.05496
1757.66296,0.02916
1756.17317,0.03264
1754.68339,0.01198
1753.19360,0.01997
1751.70381,0.01401
1750.21402,0.01952
1748.72423,0.01870
1747.23444,0.03000
1745.74465,0.01016
1744.25487,0.02280
1742.76508,0.05517
1741.27529,0.03098
1739.78550,0.02589
1738.29571,0.01257
1736.80592,0.03681
1735.31614,0.00510
1733.82635,0.01254
1732.33656,0.05181
1730.84677,0.06058
1729.35698,0.04204
1727.86719,0.02416
1726.37740,0.01712
1724.88762,0.00630
1723.39783,0.00823
1721.90804,0.00510
1720.41825,0.03235
1718.92846,0.01320
1717.43867,0.01698
1715.94889,0.04813
1714.45910,0.04370
1712.96931,0.06220
1711.47952,0.03939
1709.98973,0.04650
1708.49994,0.04537
1707.01016,0.04841
1705.52037,0.05148
1704.03058,0.05871
1702.54079,0.07615
1701.05100,0.08472
1699.56121,0.07043
1698.07142,0.10195
1696.58164,0.10489
1695.09185,0.12375
1693.60206,0.16682
1692.11227,0.18003
1690.62248,0.14683
1689.13269,0.17854
1687.64291,0.18930
1686.15312,0.20072
1684.66333,0.20263
1683.17354,0.18549
1681.68375,0.20146
1680.19396,0.17929
1678.70417,0.18323
1677.21439,0.15986
1675.72460,0.19185
1674.23481,0.15772
1672.74502,0.17133
1671.25523,0.20341
1669.76544,0.18909
1668.27566,0.19961
1666.78587,0.18218
1665.29608,0.13361
1663.80629,0.16648
1662.31650,0.18412
1660.82671,0.15281
1659.33693,0.19595
1657.84714,0.17425
1656.35735,0.15258
1654.86756,0.12204
1653.37777,0.14876
1651.88798,0.11828
1650.39819,0.12345
1648.90841,0.09493
1647.41862,0.13069
1645.92883,0.12513
1644.43904,0.11961
1642.94925,0.13447
1641.45946,0.12328
1639.96968,0.13947
1638.47989,0.12390
1636.99010,0.12870
1635.50031,0.13863
1634.01052,0.12887
1632.52073,0.10006
1631.03094,0.13043
1629.54116,0.13475
1628.05137,0.16200
1626.56158,0.15748
1625.07179,0.18416
1623.58200,0.20514
1622.09221,0.17210
1620.60243,0.18297
1619.11264,0.19450
1617.62285,0.15074
1616.13306,0.17060
1614.64327,0.15552
1613.15348,0.14301
1611.66370,0.14580
1610.17391,0.14544
1608.68412,0.12412
1607.19433,0.14798
1605.70454,0.15344
1604.21475,0.14684
1602.72496,0.14027
1601.23518,0.15535
1599.74539,0.12150
1598.25560,0.10358
1596.76581,0.12384
1595.27602,0.09962
1593.78623,0.12313
1592.29645,0.10533
1590.80666,0.08819
1589.31687,0.10098
1587.82708,0.07310
1586.33729,0.08404
1584.84750,0.06131
1583.35771,0.07994
1581.86793,0.04328
1580.37814,0.06134
1578.88835,0.05654
1577.39856,0.07021
1575.90877,0.04257
1574.41898,0.03150
1572.92920,0.02682
1571.43941,0.03871
1569.94962,0.04840
1568.45983,0.05812
1566.97004,0.04021
1565.48025,0.04205
1563.99047,0.04455
1562.50068,0.00510
1561.01089,0.03454
1559.52110,0.03158
1558.03131,0.04454
1556.54152,0.04291
1555.05173,0.05339
1553.56195,0.05118
1552.07216,0.04710
1550.58237,0.04496
1549.09258,0.06001
1547.60279,0.00769
1546.11300,0.00564
1544.62322,0.06976
1543.13343,0.03406
1541.64364,0.02765
1540.15385,0.02476
1538.66406,0.02191
1537.17427,0.00987
1535.68448,0.00994
1534.19470,0.02467
1532.70491,0.00000
1531.21512,0.00716
1529.72533,0.00926
1528.23554,0.00186
1526.74575,0.04091
1525.25597,0.01194
1523.76618,0.01099
1522.27639,0.02215
1520.78660,0.01426
1519.29681,0.01276
1517.80702,0.04564
1516.31724,0.03912
1514.82745,0.02881
1513.33766,0.01694
1511.84787,0.00510
1510.35808,0.02543
1508.86829,0.04388
1507.37850,0.02165
1505.88872,0.02617
1504.39893,0.03581
1502.90914,0.03594
1501.41935,0.03165
1499.92956,0.02738
1498.43977,0.07594
1496.94999,0.07937
1495.46020,0.13371
1493.97041,0.13466
1492.48062,0.18207
1490.99083,0.25368
1489.50104,0.29161
1488.01125,0.34833
1486.52147,0.40508
1485.03168,0.48317
1483.54189,0.60518
1482.05210,0.60765
1480.56231,0.71826
1479.07252,0.83845
1477.58274,0.85564
1476.09295,0.94091
1474.60316,1.08346
1473.11337,1.09629
1471.62358,1.16066
1470.13379,1.15256
1468.64401,1.09871
1467.15422,1.03216
1465.66443,0.99267
1464.17464,0.95322
1462.68485,0.89376
1461.19506,0.84705
1459.70527,0.81436
1458.21549,0.79824
1456.72570,0.73446
1455.23591,0.67515
1453.74612,0.61715
1452.25633,0.58271
1450.76654,0.57438
1449.27676,0.47767
1447.78697,0.49993
1446.29718,0.47452
1444.80739,0.43737
1443.31760,0.40026
1441.82781,0.36921
1440.33802,0.31531
1438.84824,0.29323
1437.35845,0.23111
1435.86866,0.22563
1434.37887,0.19665
1432.88908,0.23448
1431.39929,0.22019
1429.90951,0.20847
1428.41972,0.19043
1426.92993,0.21566
1425.44014,0.21676
1423.95035,0.22424
1422.46056,0.23176
1420.97078,0.27302
1419.48099,0.29904
1417.99120,0.30156
1416.50141,0.32892
1415.01162,0.29907
1413.52183,0.28960
1412.03204,0.30051
1410.54226,0.29810
1409.05247,0.27092
1407.56268,0.25839
1406.07289,0.26752
1404.58310,0.26332
1403.09331,0.25916
1401.60353,0.31862
1400.11374,0.33678
1398.62395,0.37341
1397.13416,0.38273
1395.64437,0.40034
1394.15458,0.46441
1392.66479,0.47191
1391.17501,0.46863
1389.68522,0.46537
1388.19543,0.47360
1386.70564,0.46341
1385.21585,0.45326
1383.72606,0.44059
1382.23628,0.44067
1380.74649,0.42043
1379.25670,0.42312
1377.76691,0.45701
1376.27712,0.45530
1374.78733,0.51151
1373.29755,0.58046
1371.80776,0.63228
1370.31797,0.77571
1368.82818,0.85048
1367.33839,0.92528
1365.84860,1.08025
1364.35881,1.19073
1362.86903,1.32732
1361.37924,1.37808
1359.88945,1.48865
1358.39966,1.58208
1356.90987,1.68254
1355.42008,1.62848
1353.93030,1.48223
1352.44051,1.40534
1350.95072,1.32848
1349.46093,1.22939
1347.97114,1.12651
1346.48135,1.02176
1344.99156,0.96537
1343.50178,0.88803
1342.01199,0.79800
1340.52220,0.62150
1339.03241,0.66127
1337.54262,0.56561
1336.05283,0.54216
1334.56305,0.51874
1333.07326,0.53638
1331.58347,0.50062
1330.09368,0.43500
1328.60389,0.40694
1327.11410,0.33884
1325.62432,0.38080
1324.13453,0.35410
1322.64474,0.36368
1321.15495,0.31860
1319.66516,0.30949
1318.17537,0.30040
1316.68558,0.29294
1315.19580,0.31794
1313.70601,0.31308
1312.21622,0.30316
1310.72643,0.31617
1309.23664,0.27198
1307.74685,0.30095
1306.25707,0.28289
1304.76728,0.28744
1303.27749,0.29201
1301.78770,0.28867
1300.29791,0.24848
1298.80812,0.24329
1297.31834,0.26230
1295.82855,0.31633
1294.33876,0.24572
1292.84897,0.25847
1291.35918,0.28460
1289.86939,0.29327
1288.37960,0.30198
1286.88982,0.29259
1285.40003,0.35891
1283.91024,0.32096
1282.42045,0.32311
1280.93066,0.32719
1279.44087,0.38919
1277.95109,0.37108
1276.46130,0.34219
1274.97151,0.33813
1273.48172,0.33410
1271.99193,0.36318
1270.50214,0.39547
1269.01235,0.42651
1267.52257,0.43533
1266.03278,0.44863
1264.54299,0.48359
1263.05320,0.54083
1261.56341,0.54755
1260.07362,0.55429
1258.58384,0.57156
1257.09405,0.53353
1255.60426,0.49044
1254.11447,0.50272
1252.62468,0.48577
1251.13489,0.48602
1249.64511,0.46023
1248.15532,0.44019
1246.66553,0.42177
1245.17574,0.40339
1243.68595,0.32429
1242.19616,0.33999
1240.70637,0.33474
1239.21659,0.25828
1237.72680,0.25627
1236.23701,0.24284
1234.74722,0.24915
1233.25743,0.22974
1231.76764,0.21036
1230.27786,0.14299
1228.78807,0.18314
1227.29828,0.18961
1225.80849,0.20056
1224.31870,0.14031
1222.82891,0.12207
1221.33912,0.10386
1219.84934,0.11144
1218.35955,0.11905
1216.86976,0.12001
1215.37997,0.14644
1213.89018,0.12139
1212.40039,0.13835
1210.91061,0.11971
1209.42082,0.13164
1207.93103,0.12230
1206.44124,0.11298
1204.95145,0.09702
1203.46166,0.05246
1201.97188,0.08172
1200.48209,0.10782
1198.99230,0.08562
1197.50251,0.06918
1196.01272,0.01906
1194.52293,0.01094
1193.03314,0.00285
1191.54336,0.05132
1190.05357,0.04258
1188.56378,0.01861
1187.07399,0.02202
1185.58420,0.00510
1184.09441,0.01417
1182.60463,0.02994
1181.11484,0.04574
1179.62505,0.06379
1178.13526,0.06662
1176.64547,0.07902
1175.15568,0.05392
1173.66589,0.07592
1172.17611,0.03053
1170.68632,0.03033
1169.19653,0.03016
1167.70674,0.05101
1166.21695,0.03436
1164.72716,0.00948
1163.23738,0.03742
1161.74759,0.03041
1160.25780,0.05268
1158.76801,0.02888
1157.27822,0.00510
1155.78843,0.03109
1154.29865,0.03230
1152.80886,0.01764
1151.31907,0.05453
1149.82928,0.06919
1148.33949,0.10042
1146.84970,0.09733
1145.35991,0.09427
1143.87013,0.04164
1142.38034,0.10479
1140.89055,0.09928
1139.40076,0.18794
1137.91097,0.17613
1136.42118,0.23750
1134.93140,0.21049
1133.44161,0.18351
1131.95182,0.23352
1130.46203,0.24031
1128.97224,0.26494
1127.48245,0.29597
1125.99266,0.31939
1124.50288,0.36065
1123.01309,0.35583
1121.52330,0.35104
1120.03351,0.42165
1118.54372,0.43568
1117.05393,0.38106
1115.56415,0.37672
1114.07436,0.44363
1112.58457,0.47178
1111.09478,0.49996
1109.60499,0.48366
1108.11520,0.53289
1106.62542,0.51346
1105.13563,0.62699
1103.64584,0.71638
1102.15605,0.78990
1100.66626,0.80304
1099.17647,0.81620
1097.68668,0.87137
1096.19690,0.91894
1094.70711,0.96146
1093.21732,0.95757
1091.72753,0.94609
1090.23774,0.98488
1088.74795,1.02370
1087.25817,1.07272
1085.76838,1.10334
1084.27859,1.18868
1082.78880,1.22508
1081.29901,1.20999
1079.80922,1.16822
1078.31943,1.19295
1076.82965,1.21771
1075.33986,1.23264
1073.85007,1.32773
1072.36028,1.34591
1070.87049,1.44297
1069.38070,1.46057
1067.89092,1.45753
1066.40113,1.45452
1064.91134,1.34819
1063.42155,1.21009
1061.93176,1.17759
1060.44197,1.11397
1058.95219,1.06182
1057.46240,1.02815
1055.97261,0.99451
1054.48282,0.95327
1052.99303,0.88344
1051.50324,0.80219
1050.01345,0.67772
1048.52367,0.56791
1047.03388,0.57357
1045.54409,0.57926
1044.05430,0.63618
1042.56451,0.51632
1041.07472,0.43465
1039.58494,0.41598
1038.09515,0.35281
1036.60536,0.35233
1035.11557,0.35187
1033.62578,0.32632
1032.13599,0.35614
1030.64620,0.34656
1029.15642,0.39869
1027.66663,0.40125
1026.17684,0.40385
1024.68705,0.44781
1023.19726,0.62854
1021.70747,0.79404
1020.21769,0.92841
1018.72790,1.09842
1017.23811,1.21250
1015.74832,1.32660
1014.25853,1.56222
1012.76874,1.66558
1011.27896,1.78995
1009.78917,1.90355
1008.29938,2.00000
1006.80959,1.98296
1005.31980,1.96595
1003.83001,1.83099
1002.34022,1.78192
1000.85044,1.64957
999.36065,1.54142
997.87086,1.49276
996.38107,1.44414
994.89128,1.43784
993.40149,1.40613
991.91171,1.36173
990.42192,1.35743
988.93213,1.33917
987.44234,1.33620
985.95255,1.33326
984.46276,1.27057
982.97297,1.30395
981.48319,1.21843
979.99340,1.17682
978.50361,1.16959
977.01382,1.16239
975.52403,1.15585
974.03424,1.00434
972.54446,0.94826
971.05467,0.91828
969.56488,0.87371
968.07509,0.87814
966.58530,0.88260
965.09551,0.82031
963.60573,0.84646
962.11594,0.81858
960.62615,0.72713
959.13636,0.70598
957.64657,0.68487
956.15678,0.61832
954.66699,0.52063
953.17721,0.59215
951.68742,0.60836
950.19763,0.59059
948.70784,0.57284
947.21805,0.59933
945.72826,0.60676
944.23848,0.58816
942.74869,0.63191
941.25890,0.59810
939.76911,0.62410
938.27932,0.65014
936.78953,0.69910
935.29974,0.72583
933.80996,0.68200
932.32017,0.72787
930.83038,0.76456
929.34059,0.80127
927.85080,0.78173
926.36101,0.77303
924.87123,0.73320
923.38144,0.74555
921.89165,0.74553
920.40186,0.74554
918.91207,0.71983
917.42228,0.75138
915.93250,0.73781
914.44271,0.74208
912.95292,0.76260
911.46313,0.78315
909.97334,0.87273
908.48355,0.87395
906.99376,0.86565
905.50398,0.84530
904.01419,0.84692
902.52440,0.84857
901.03461,0.83213
899.54482,0.85706
898.05503,0.83305
896.56525,0.93372
895.07546,0.94762
893.58567,0.96154
892.09588,0.87977
890.60609,0.89153
889.11630,0.85053
887.62651,0.84200
886.13673,0.86212
884.64694,0.88227
883.15715,0.85984
881.66736,0.80818
880.17757,0.85831
878.68778,0.87573
877.19800,0.89317
875.70821,0.90078
874.21842,0.90652
872.72863,0.94854
871.23884,0.97278
869.74905,0.96589
868.25927,0.95903
866.76948,0.93185
865.27969,0.92760
863.78990,0.93292
862.30011,0.91982
860.81032,0.93697
859.32053,0.95414
857.83075,0.93859
856.34096,0.93898
854.85117,0.84145
853.36138,0.71978
851.87159,0.69100
850.38180,0.66225
848.89202,0.52287
847.40223,0.40196
845.91244,0.34214
844.42265,0.35200
842.93286,0.36188
841.44307,0.32632
839.95329,0.29715
838.46350,0.25656
836.97371,0.23827
835.48392,0.24862
833.99413,0.25901
832.50434,0.24526
831.01455,0.30277
829.52477,0.31198
828.03498,0.27224
826.54519,0.24844
825.05540,0.22467
823.56561,0.24226
822.07582,0.19757
820.58604,0.16371
819.09625,0.13147
817.60646,0.09927
816.11667,0.03689
814.62688,0.06039
813.13709,0.06294
811.64730,0.00510
810.15752,0.02053
808.66773,0.03598
807.17794,0.05815
805.68815,0.08861
804.19836,0.09621
802.70857,0.09811
801.21879,0.10005
799.72900,0.10456
798.23921,0.26110
796.74942,0.39351
795.25963,0.42832
793.76984,0.46317
792.28006,0.53270
790.79027,0.55457
789.30048,0.64770
787.81069,0.62065
786.32090,0.63466
784.83111,0.64871
783.34132,0.73242
781.85154,0.74429
780.36175,0.78419
778.87196,0.77323
777.38217,0.76230
775.89238,0.92058
774.40259,0.88682
772.91281,0.85436
771.42302,0.86931
769.93323,0.88430
768.44344,0.87801
766.95365,0.89655
765.46386,0.96346
763.97407,0.87650
762.48429,0.79051
760.99450,0.70456
759.50471,0.58588
758.01492,0.54228
756.52513,0.44847
755.03534,0.39126
753.54556,0.33408
752.05577,0.28806
750.56598,0.21918
749.07619,0.17068
747.58640,0.13715
746.09661,0.10366
744.60683,0.08005
743.11704,0.01768
741.62725,0.06028
740.13746,0.05172
738.64767,0.04318
737.15788,0.03691
735.66809,0.05228
734.17831,0.01808
732.68852,0.01158
731.19873,0.00510
729.70894,0.01294
728.21915,0.06914
726.72936,0.06177
725.23958,0.03090
723.74979,0.02709
722.26000,0.02331
720.77021,0.08348
719.28042,0.05146
717.79063,0.05318
716.30084,0.03617
714.81106,0.01919
713.32127,0.00510
711.83148,0.06576
710.34169,0.06858
708.85190,0.07111
707.36211,0.07367
705.87233,0.06258
704.38254,0.00510
702.89275,0.03963
701.40296,0.04652
699.91317,0.05344
698.42338,0.07597
696.93360,0.11125
695.44381,0.08360
693.95402,0.09764
692.46423,0.11171
690.97444,0.13185
689.48465,0.14884
687.99486,0.21420
686.50508,0.22108
685.01529,0.22799
683.52550,0.24638
682.03571,0.27307
680.54592,0.22092
679.05613,0.18439
677.56635,0.14789
676.07656,0.15371
674.58677,0.11441
673.09698,0.08722
671.60719,0.08710
670.11740,0.08700
668.62761,0.09679
667.13783,0.06146
665.64804,0.06464
664.15825,0.06785
662.66846,0.03897
661.17867,0.05718
659.68888,0.07288
658.19910,0.07781
656.70931,0.08276
655.21952,0.09028
653.72973,0.15445
652.23994,0.12896
650.75015,0.13913
649.26037,0.14932
647.77058,0.14046
646.28079,0.09094
644.79100,0.00837
643.30121,0.01519
641.81142,0.02204
640.32163,0.02796
638.83185,0.06890
637.34206,0.01701
635.85227,0.02049
634.36248,0.02400
632.87269,0.02944
631.38290,0.02220
629.89312,0.03597
628.40333,0.02052
626.91354,0.00510
625.42375,0.02384
623.93396,0.02161
622.44417,0.05535
620.95438,0.08912
619.46460,0.09144
617.97481,0.08997
616.48502,0.10253
614.99523,0.12021
613.50544,0.13791
612.01565,0.11622
610.52587,0.08692
609.03608,0.10345
607.54629,0.12478
606.05650,0.14613
604.56671,0.23081
603.07692,0.19594
601.58714,0.16301
600.09735,0.13012
598.60756,0.15767
597.11777,0.11212
595.62798,0.12765
594.13819,0.11269
592.64840,0.09775
591.15862,0.12165
589.66883,0.13031
588.17904,0.07031
586.68925,0.03769
585.19946,0.00510
583.70967,0.07104
582.21989,0.12493
580.73010,0.15468
579.24031,0.18446
577.75052,0.19073
576.26073,0.15570
574.77094,0.14614
573.28115,0.16237
571.79137,0.17863
570.30158,0.16090
568.81179,0.28120
567.32200,0.30423
565.83221,0.32729
564.34242,0.35293
562.85264,0.40849
561.36285,0.43037
559.87306,0.44942
558.38327,0.46850
556.89348,0.53627
555.40369,0.61042
553.91391,0.59907
552.42412,0.58775
550.93433,0.60666
549.44454,0.64787
547.95475,0.67194
546.46496,0.67187
544.97517,0.67183
543.48539,0.73669
541.99560,0.75452
540.50581,0.76380
539.01602,0.77311
537.52623,0.78849
536.03644,0.73330
534.54666,0.70486
533.05687,0.72224
531.56708,0.73965
530.07729,0.67631
528.58750,0.61683
527.09771,0.64387
525.60792,0.67095
524.11814,0.66307
522.62835,0.65714
521.13856,0.59908
519.64877,0.56840
518.15898,0.53775
516.66919,0.48996
515.17941,0.45238
513.68962,0.45490
512.19983,0.45744
510.71004,0.43077
509.22025,0.40348
507.73046,0.42202
506.24068,0.43710
504.75089,0.45220
503.26110,0.45875
501.77131,0.46723
500.28152,0.44395
498.79173,0.42070
497.30194,0.36695
495.81216,0.38701
494.32237,0.40265
492.83258,0.41832
491.34279,0.39141
489.85300,0.39632
488.36321,0.36248
486.87343,0.31212
485.38364,0.26180
483.89385,0.31200
482.40406,0.28336
480.91427,0.26430
479.42448,0.24526
477.93469,0.16966
476.44491,0.15132
474.95512,0.14574
473.46533,0.14018
471.97554,0.14038
470.48575,0.09736
468.99596,0.13133
467.50618,0.11700
466.01639,0.10269
464.52660,0.00510
463.03681,0.15352
461.54702,0.17350
460.05723,0.19351
458.56745,0.17539
457.07766,0.16303
455.58787,0.17963
454.09808,0.19626
452.60829,0.24823
451.11850,0.26079
449.62871,0.26893
448.13893,0.27710
446.64914,0.32537
445.15935,0.50596
443.66956,0.55048
442.17977,0.55877
440.68998,0.56710
439.20020,0.73255
437.71041,0.74221
436.22062,0.80723
434.73083,0.87228
433.24104,1.00033
431.75125,1.13413
430.26146,1.19737
428.77168,1.26064
427.28189,1.31059
425.79210,1.41017
424.30231,1.42519
422.81252,1.44025
421.32273,1.34976
419.83295,1.24467
418.34316,1.15202
416.85337,1.05940
415.36358,0.90416
413.87379,0.84881
412.38400,0.82719
410.89422,0.80561
409.40443,0.75289
407.91464,0.73009
406.42485,0.72959
404.93506,0.67951
403.44527,0.62946
401.95548,0.61060
400.46570,0.57142
398.97591,0.57425
397.48612,0.57711
395.99633,0.58509
394.50654,0.62936
393.01675,0.66570
391.52697,0.70207
390.03718,0.56199
388.54739,0.46391
387.05760,0.49815
385.56781,0.53242
384.07802,0.53174
382.58824,0.57116
381.09845,0.53239
379.60866,0.49364
378.11887,0.46765
376.62908,0.40607
375.13929,0.37568
373.64950,0.34533
372.15972,0.32264
370.66993,0.30125
369.18014,0.26940
367.69035,0.23758
366.20056,0.18639
364.71077,0.11425
363.22099,0.16106
361.73120,0.20791
360.24141,0.19374
358.75162,0.18595
357.26183,0.19791
355.77204,0.20990
354.28225,0.14306
352.79247,0.10424
351.30268,0.09470
349.81289,0.08519
348.32310,0.13359
346.83331,0.08407
345.34352,0.07084
343.85374,0.05764
342.36395,0.14969
340.87416,0.16164
339.38437,0.17806
337.89458,0.19452
336.40479,0.17858
334.91501,0.20019
333.42522,0.17794
331.93543,0.15573
330.44564,0.16280
328.95585,0.16991
327.46606,0.14365
325.97627,0.11743
324.48649,0.08202
322.99670,0.07741
321.50691,0.09700
320.01712,0.11663
318.52733,0.15663
317.03754,0.24501
315.54776,0.24819
314.05797,0.25140
312.56818,0.11727
311.07839,0.09255
309.58860,0.05039
308.09881,0.00825
306.60902,0.00510
305.11924,0.07982
303.62945,0.05663
302.13966,0.03094
300.64987,0.01165
299.16008,0.00510
