1778.52000,0.00326
1777.03021,0.05034
1775.54042,0.03416
1774.05063,0.02095
1772.56085,0.04899
1771.07106,0.05058
1769.58127,0.07427
1768.09148,0.03618
1766.60169,0.00842
1765.11190,0.01309
1763.62212,0.05164
1762.13233,0.04754
1760.64254,0.10089
1759.15275,0.06153
1757.66296,0.08256
1756.17317,0.05946
1754.68339,0.00842
1753.19360,0.06325
1751.70381,0.02685
1750.21402,0.04347
1748.72423,0.03216
1747.23444,0.07093
1745.74465,0.03172
1744.25487,0.07645
1742.76508,0.03731
1741.27529,0.08505
1739.78550,0.04892
1738.29571,0.06582
1736.80592,0.04742
1735.31614,0.03200
1733.82635,0.02840
1732.33656,0.04102
1730.84677,0.04778
1729.35698,0.01778
1727.86719,0.00842
1726.37740,0.05372
1724.88762,0.05931
1723.39783,0.03401
1721.90804,0.04850
1720.41825,0.02328
1718.92846,0.02606
1717.43867,0.04653
1715.94889,0.02289
1714.45910,0.05668
1712.96931,0.03605
1711.47952,0.01692
1709.98973,0.01843
1708.49994,0.01556
1707.01016,0.06131
1705.52037,0.10709
1704.03058,0.06163
1702.54079,0.03093
1701.05100,0.08270
1699.56121,0.07710
1698.07142,0.07447
1696.58164,0.10279
1695.09185,0.13851
1693.60206,0.10948
1692.11227,0.09669
1690.62248,0.13987
1689.13269,0.14628
1687.64291,0.15567
1686.15312,0.14743
1684.66333,0.07151
1683.17354,0.12075
1681.68375,0.15824
1680.19396,0.15308
1678.70417,0.13913
1677.21439,0.12226
1675.72460,0.15842
1674.23481,0.18873
1672.74502,0.12928
1671.25523,0.11844
1669.76544,0.10469
1668.27566,0.10128
1666.78587,0.13028
1665.29608,0.08572
1663.80629,0.10008
1662.31650,0.14538
1660.82671,0.15539
1659.33693,0.14335
1657.84714,0.09897
1656.35735,0.06786
1654.86756,0.08242
1653.37777,0.08377
1651.88798,0.14109
1650.39819,0.09099
1648.90841,0.14249
1647.41862,0.06743
1645.92883,0.04760
1644.43904,0.02781
1642.94925,0.07062
1641.45946,0.08549
1639.96968,0.13867
1638.47989,0.10945
1636.99010,0.06849
1635.50031,0.13796
1634.01052,0.08823
1632.52073,0.07976
1631.03094,0.04335
1629.54116,0.13357
1628.05137,0.15023
1626.56158,0.11981
1625.07179,0.14831
1623.58200,0.18126
1622.09221,0.12003
1620.60243,0.16188
1619.11264,0.15224
1617.62285,0.09112
1616.13306,0.15368
1614.64327,0.11029
1613.15348,0.12140
1611.66370,0.09868
1610.17391,0.11133
1608.68412,0.09752
1607.19433,0.14557
1605.70454,0.09944
1604.21475,0.10118
1602.72496,0.10296
1601.23518,0.10846
1599.74539,0.18318
1598.25560,0.12544
1596.76581,0.09718
1595.27602,0.09693
1593.78623,0.09082
1592.29645,0.07886
1590.80666,0.03602
1589.31687,0.08889
1587.82708,0.06231
1586.33729,0.09612
1584.84750,0.08433
1583.35771,0.08583
1581.86793,0.05055
1580.37814,0.06094
1578.88835,0.10965
1577.39856,0.06417
1575.90877,0.00842
1574.41898,0.06123
1572.92920,0.06107
1571.43941,0.03151
1569.94962,0.03658
1568.45983,0.04168
1566.97004,0.03872
1565.48025,0.03579
1563.99047,0.04762
1562.50068,0.06095
1561.01089,0.06402
1559.52110,0.04651
1558.03131,0.06878
1556.54152,0.07636
1555.05173,0.06632
1553.56195,0.07397
1552.07216,0.08755
1550.58237,0.11882
1549.09258,0.03236
1547.60279,0.05046
1546.11300,0.07153
1544.62322,0.12061
1543.13343,0.09317
1541.64364,0.09521
1540.15385,0.07594
1538.66406,0.05671
1537.17427,0.10448
1535.68448,0.06250
1534.19470,0.09415
1532.70491,0.08904
1531.21512,0.00446
1529.72533,0.03452
1528.23554,0.04105
1526.74575,0.05940
1525.25597,0.05717
1523.76618,0.08295
1522.27639,0.05282
1520.78660,0.05658
1519.29681,0.01621
1517.80702,0.04654
1516.31724,0.01508
1514.82745,0.01162
1513.33766,0.04639
1511.84787,0.08119
1510.35808,0.07334
1508.86829,0.05080
1507.37850,0.04155
1505.88872,0.02350
1504.39893,0.00842
1502.90914,0.05435
1501.41935,0.08412
1499.92956,0.09774
1498.43977,0.13935
1496.94999,0.14567
1495.46020,0.13878
1493.97041,0.24969
1492.48062,0.25170
1490.99083,0.25668
1489.50104,0.39714
1488.01125,0.40293
1486.52147,0.40875
1485.03168,0.54931
1483.54189,0.53828
1482.05210,0.59646
1480.56231,0.60316
1479.07252,0.76152
1477.58274,0.81687
1476.09295,0.75743
1474.60316,0.85700
1473.11337,0.91098
1471.62358,0.91642
1470.13379,0.90716
1468.64401,0.92592
1467.15422,0.85785
1465.66443,0.85238
1464.17464,0.84695
1462.68485,0.87467
1461.19506,0.76994
1459.70527,0.79331
1458.21549,0.59738
1456.72570,0.62671
1455.23591,0.58100
1453.74612,0.52355
1452.25633,0.47055
1450.76654,0.45585
1449.27676,0.43825
1447.78697,0.49723
1446.29718,0.47233
1444.80739,0.40699
1443.31760,0.34168
1441.82781,0.22710
1440.33802,0.26417
1438.84824,0.22325
1437.35845,0.21328
1435.86866,0.22985
1434.37887,0.18020
1432.88908,0.14384
1431.39929,0.26944
1429.90951,0.21843
1428.41972,0.24399
1426.92993,0.20482
1425.44014,0.19366
1423.95035,0.18768
1422.46056,0.18174
1420.97078,0.18834
1419.48099,0.21559
1417.99120,0.19871
1416.50141,0.35115
1415.01162,0.25043
1413.52183,0.29842
1412.03204,0.30817
1410.54226,0.27527
1409.05247,0.33220
1407.56268,0.21104
1406.07289,0.14880
1404.58310,0.17345
1403.09331,0.19813
1401.60353,0.24492
1400.11374,0.32120
1398.62395,0.35628
1397.13416,0.40907
1395.64437,0.36474
1394.15458,0.42937
1392.66479,0.45429
1391.17501,0.38209
1389.68522,0.43652
1388.19543,0.43799
1386.70564,0.41447
1385.21585,0.39099
1383.72606,0.47500
1382.23628,0.42508
1380.74649,0.40464
1379.25670,0.37982
1377.76691,0.39773
1376.27712,0.47161
1374.78733,0.44100
1373.29755,0.52820
1371.80776,0.62131
1370.31797,0.74096
1368.82818,0.84593
1367.33839,0.95092
1365.84860,1.07068
1364.35881,1.20960
1362.86903,1.34267
1361.37924,1.50669
1359.88945,1.46907
1358.39966,1.50655
1356.90987,1.51464
1355.42008,1.40940
1353.93030,1.53385
1352.44051,1.46327
1350.95072,1.39274
1349.46093,1.17282
1347.97114,0.99416
1346.48135,0.91121
1344.99156,0.81947
1343.50178,0.76014
1342.01199,0.69644
1340.52220,0.51206
1339.03241,0.49700
1337.54262,0.45989
1336.05283,0.43092
1334.56305,0.40198
1333.07326,0.38853
1331.58347,0.43694
1330.09368,0.40148
1328.60389,0.35280
1327.11410,0.33213
1325.62432,0.34535
1324.13453,0.31150
1322.64474,0.28504
1321.15495,0.30425
1319.66516,0.26682
1318.17537,0.22943
1316.68558,0.24874
1315.19580,0.27987
1313.70601,0.20209
1312.21622,0.23329
1310.72643,0.18208
1309.23664,0.20157
1307.74685,0.17987
1306.25707,0.17440
1304.76728,0.19178
1303.27749,0.20920
1301.78770,0.16408
1300.29791,0.27357
1298.80812,0.19025
1297.31834,0.24976
1295.82855,0.21067
1294.33876,0.21284
1292.84897,0.23418
1291.35918,0.22758
1289.86939,0.20556
1288.37960,0.18357
1286.88982,0.27276
1285.40003,0.25011
1283.91024,0.29079
1282.42045,0.28145
1280.93066,0.22063
1279.44087,0.31440
1277.95109,0.39938
1276.46130,0.36663
1274.97151,0.34716
1273.48172,0.32773
1271.99193,0.30391
1270.50214,0.25511
1269.01235,0.34765
1267.52257,0.35338
1266.03278,0.36797
1264.54299,0.35463
1263.05320,0.37371
1261.56341,0.39430
1260.07362,0.41492
1258.58384,0.47385
1257.09405,0.51957
1255.60426,0.38572
1254.11447,0.44917
1252.62468,0.38311
1251.13489,0.31709
1249.64511,0.25551
1248.15532,0.33382
1246.66553,0.34592
1245.17574,0.35805
1243.68595,0.34666
1242.19616,0.32942
1240.70637,0.35196
1239.21659,0.24647
1237.72680,0.17634
1236.23701,0.16807
1234.74722,0.20252
1233.25743,0.16856
1231.76764,0.13463
1230.27786,0.13974
1228.78807,0.15225
1227.29828,0.20160
1225.80849,0.18768
1224.31870,0.15025
1222.82891,0.14817
1221.33912,0.07989
1219.84934,0.07789
1218.35955,0.07592
1216.86976,0.11962
1215.37997,0.14569
1213.89018,0.19240
1212.40039,0.17437
1210.91061,0.12105
1209.42082,0.14432
1207.93103,0.11094
1206.44124,0.07759
1204.95145,0.05385
1203.46166,0.08903
1201.97188,0.08744
1200.48209,0.12710
1198.99230,0.10497
1197.50251,0.05785
1196.01272,0.05050
1194.52293,0.05424
1193.03314,0.05800
1191.54336,0.09787
1190.05357,0.06859
1188.56378,0.00842
1187.07399,0.07070
1185.58420,0.10063
1184.09441,0.05110
1182.60463,0.04136
1181.11484,0.03164
1179.62505,0.06613
1178.13526,0.05795
1176.64547,0.06012
1175.15568,0.13151
1173.66589,0.15877
1172.17611,0.07566
1170.68632,0.05809
1169.19653,0.04056
1167.70674,0.14450
1166.21695,0.11305
1164.72716,0.04631
1163.23738,0.11061
1161.74759,0.07779
1160.25780,0.04353
1158.76801,0.05126
1157.27822,0.05903
1155.78843,0.06462
1154.29865,0.00842
1152.80886,0.07836
1151.31907,0.06295
1149.82928,0.13884
1148.33949,0.14264
1146.84970,0.15530
1145.35991,0.16800
1143.87013,0.23226
1142.38034,0.10370
1140.89055,0.13123
1139.40076,0.21619
1137.91097,0.14516
1136.42118,0.21989
1134.93140,0.24534
1133.44161,0.27082
1131.95182,0.36479
1130.46203,0.40139
1128.97224,0.44538
1127.48245,0.30687
1125.99266,0.33768
1124.50288,0.34791
1123.01309,0.31255
1121.52330,0.27722
1120.03351,0.25959
1118.54372,0.43777
1117.05393,0.43052
1115.56415,0.45126
1114.07436,0.45143
1112.58457,0.47225
1111.09478,0.49310
1109.60499,0.48160
1108.11520,0.55551
1106.62542,0.55438
1105.13563,0.63278
1103.64584,0.67146
1102.15605,0.79262
1100.66626,0.77028
1099.17647,0.74798
1097.68668,0.84863
1096.19690,0.81977
1094.70711,0.82775
1093.21732,0.82252
1091.72753,0.90564
1090.23774,0.89238
1088.74795,0.87915
1087.25817,0.95207
1085.76838,1.01619
1084.27859,1.08035
1082.78880,1.04739
1081.29901,1.17491
1079.80922,1.22004
1078.31943,1.22986
1076.82965,1.23973
1075.33986,1.27465
1073.85007,1.31844
1072.36028,1.06638
1070.87049,1.14851
1069.38070,1.27337
1067.89092,1.28344
1066.40113,1.29354
1064.91134,1.26982
1063.42155,1.09010
1061.93176,1.04437
1060.44197,1.08258
1058.95219,0.96331
1057.46240,0.95154
1055.97261,0.93981
1054.48282,0.88983
1052.99303,0.82370
1051.50324,0.70607
1050.01345,0.66798
1048.52367,0.54454
1047.03388,0.57570
1045.54409,0.60689
1044.05430,0.50711
1042.56451,0.56045
1041.07472,0.45926
1039.58494,0.39491
1038.09515,0.38211
1036.60536,0.39143
1035.11557,0.40079
1033.62578,0.38074
1032.13599,0.19585
1030.64620,0.27007
1029.15642,0.35317
1027.66663,0.33399
1026.17684,0.31484
1024.68705,0.47753
1023.19726,0.54605
1021.70747,0.72058
1020.21769,0.83921
1018.72790,1.04473
1017.23811,1.16048
1015.74832,1.27627
1014.25853,1.49367
1012.76874,1.79501
1011.27896,1.93151
1009.78917,1.93409
1008.29938,2.00000
1006.80959,1.97836
1005.31980,1.95675
1003.83001,1.65475
1002.34022,1.63100
1000.85044,1.68972
999.36065,1.51295
997.87086,1.50108
996.38107,1.48925
994.89128,1.50837
993.40149,1.38472
991.91171,1.45837
990.42192,1.50115
988.93213,1.35994
987.44234,1.35052
985.95255,1.34114
984.46276,1.24420
982.97297,1.32689
981.48319,1.26977
979.99340,1.30395
978.50361,1.28296
977.01382,1.26200
975.52403,1.27421
974.03424,1.12893
972.54446,1.06760
971.05467,0.99011
969.56488,0.93473
968.07509,0.88380
966.58530,0.83291
965.09551,0.80119
963.60573,0.81661
962.11594,0.87034
960.62615,0.76512
959.13636,0.72839
957.64657,0.69169
956.15678,0.68667
954.66699,0.57717
953.17721,0.54720
951.68742,0.54670
950.19763,0.60880
948.70784,0.67094
947.21805,0.58664
945.72826,0.54947
944.23848,0.50351
942.74869,0.67398
941.25890,0.69581
939.76911,0.67277
938.27932,0.64976
936.78953,0.67464
935.29974,0.71574
933.80996,0.67885
932.32017,0.80098
930.83038,0.79876
929.34059,0.79657
927.85080,0.90555
926.36101,0.74813
924.87123,0.76297
923.38144,0.68069
921.89165,0.66396
920.40186,0.64725
918.91207,0.69903
917.42228,0.64192
915.93250,0.71732
914.44271,0.68382
912.95292,0.67981
911.46313,0.67582
909.97334,0.79700
908.48355,0.80633
906.99376,0.80686
905.50398,0.75885
904.01419,0.79331
902.52440,0.82781
901.03461,0.75488
899.54482,0.90279
898.05503,0.80049
896.56525,0.87045
895.07546,0.81974
893.58567,0.76906
892.09588,0.79349
890.60609,0.87389
889.11630,0.86159
887.62651,0.80075
886.13673,0.82532
884.64694,0.84992
883.15715,0.78034
881.66736,0.73583
880.17757,0.79587
878.68778,0.77350
877.19800,0.75117
875.70821,0.70826
874.21842,0.79346
872.72863,0.89783
871.23884,1.03904
869.74905,1.07429
868.25927,1.10958
866.76948,0.94764
865.27969,0.94619
863.78990,0.92417
862.30011,0.94782
860.81032,0.97297
859.32053,0.99816
857.83075,0.94831
856.34096,1.01772
854.85117,0.88698
853.36138,0.70474
851.87159,0.73746
850.38180,0.77022
848.89202,0.56453
847.40223,0.50314
845.91244,0.39026
844.42265,0.36648
842.93286,0.34273
841.44307,0.34772
839.95329,0.28945
838.46350,0.35928
836.97371,0.28636
835.48392,0.27897
833.99413,0.27162
832.50434,0.28418
831.01455,0.35419
829.52477,0.38448
828.03498,0.34120
826.54519,0.29501
825.05540,0.24886
823.56561,0.18949
822.07582,0.16991
820.58604,0.22101
819.09625,0.21033
817.60646,0.19968
816.11667,0.13901
814.62688,0.11959
813.13709,0.07077
811.64730,0.06909
810.15752,0.03874
808.66773,0.00842
807.17794,0.09767
805.68815,0.13691
804.19836,0.19531
802.70857,0.24418
801.21879,0.29309
799.72900,0.28388
798.23921,0.34096
796.74942,0.44369
795.25963,0.49936
793.76984,0.55506
792.28006,0.62699
790.79027,0.61799
789.30048,0.66350
787.81069,0.67223
786.32090,0.65524
784.83111,0.63828
783.34132,0.70894
781.85154,0.78405
780.36175,0.79590
778.87196,0.76878
777.38217,0.74169
775.89238,0.79191
774.40259,0.90842
772.91281,0.98815
771.42302,1.02229
769.93323,1.05646
768.44344,0.97143
766.95365,0.87466
765.46386,0.86330
763.97407,0.79309
762.48429,0.79284
760.99450,0.79263
759.50471,0.63567
758.01492,0.54941
756.52513,0.45729
755.03534,0.43807
753.54556,0.41889
752.05577,0.28272
750.56598,0.27170
749.07619,0.25630
747.58640,0.21224
746.09661,0.16820
744.60683,0.16174
743.11704,0.11115
741.62725,0.03704
740.13746,0.04835
738.64767,0.05969
737.15788,0.09020
735.66809,0.13252
734.17831,0.06889
732.68852,0.05682
731.19873,0.04478
729.70894,0.18881
728.21915,0.13856
726.72936,0.13693
725.23958,0.16477
723.74979,0.14407
722.26000,0.12340
720.77021,0.12632
719.28042,0.07923
717.79063,0.09988
716.30084,0.13014
714.81106,0.16043
713.32127,0.10317
711.83148,0.10630
710.34169,0.04910
708.85190,0.02875
707.36211,0.00842
705.87233,0.09587
704.38254,0.08473
702.89275,0.15606
701.40296,0.15382
699.91317,0.15161
698.42338,0.12588
696.93360,0.15466
695.44381,0.23940
693.95402,0.20053
692.46423,0.16169
690.97444,0.20533
689.48465,0.24752
687.99486,0.30300
686.50508,0.27608
685.01529,0.24919
683.52550,0.24294
682.03571,0.26028
680.54592,0.17903
679.05613,0.19718
677.56635,0.21536
676.07656,0.27406
674.58677,0.14142
673.09698,0.08095
671.60719,0.08160
670.11740,0.08229
668.62761,0.13233
667.13783,0.11468
665.64804,0.07720
664.15825,0.03975
662.66846,0.07226
661.17867,0.06800
659.68888,0.04759
658.19910,0.06769
656.70931,0.08782
655.21952,0.10873
653.72973,0.17383
652.23994,0.13886
650.75015,0.11645
649.26037,0.09406
647.77058,0.12250
646.28079,0.15097
644.79100,0.06171
643.30121,0.03505
641.81142,0.00842
640.32163,0.10708
638.83185,0.04385
637.34206,0.00862
635.85227,0.01901
634.36248,0.02943
632.87269,0.01854
631.38290,0.09306
629.89312,0.10579
628.40333,0.07293
626.91354,0.04009
625.42375,0.00288
623.93396,0.07866
622.44417,0.06394
620.95438,0.04926
619.46460,0.07215
617.97481,0.08477
616.48502,0.01793
614.99523,0.04902
613.50544,0.08015
612.01565,0.08849
610.52587,0.15574
609.03608,0.12735
607.54629,0.14021
606.05650,0.15311
604.56671,0.15573
603.07692,0.13484
601.58714,0.13459
600.09735,0.13437
598.60756,0.11947
597.11777,0.08988
595.62798,0.10449
594.13819,0.09484
592.64840,0.08523
591.15862,0.05283
589.66883,0.08672
588.17904,0.00875
586.68925,0.07803
585.19946,0.14735
583.70967,0.06949
582.21989,0.11385
580.73010,0.10525
579.24031,0.09668
577.75052,0.12642
576.26073,0.17975
574.77094,0.20956
573.28115,0.18420
571.79137,0.15888
570.30158,0.16377
568.81179,0.27468
567.32200,0.29435
565.83221,0.31407
564.34242,0.32056
562.85264,0.33445
561.36285,0.38813
559.87306,0.41386
558.38327,0.43964
556.89348,0.47280
555.40369,0.61788
553.91391,0.62830
552.42412,0.63875
550.93433,0.69266
549.44454,0.66859
547.95475,0.73288
546.46496,0.75524
544.97517,0.77764
543.48539,0.76254
541.99560,0.70920
540.50581,0.69932
539.01602,0.68947
537.52623,0.80110
536.03644,0.69932
534.54666,0.69179
533.05687,0.62540
531.56708,0.55905
530.07729,0.53543
528.58750,0.50889
527.09771,0.54937
525.60792,0.58988
524.11814,0.46777
522.62835,0.56355
521.13856,0.49155
519.64877,0.46154
518.15898,0.43157
516.66919,0.38470
515.17941,0.28487
513.68962,0.27193
512.19983,0.25902
510.71004,0.27559
509.22025,0.31427
507.73046,0.28822
506.24068,0.35199
504.75089,0.41581
503.26110,0.48407
501.77131,0.34922
500.28152,0.33143
498.79173,0.31368
497.30194,0.41299
495.81216,0.32097
494.32237,0.32982
492.83258,0.33871
491.34279,0.34542
489.85300,0.36982
488.36321,0.37807
486.87343,0.30908
485.38364,0.24011
483.89385,0.26760
482.40406,0.24655
480.91427,0.14162
479.42448,0.03673
477.93469,0.00842
476.44491,0.05102
474.95512,0.14002
473.46533,0.22906
471.97554,0.12455
470.48575,0.02008
468.99596,0.10996
467.50618,0.09609
466.01639,0.08225
464.52660,0.00000
463.03681,0.04732
461.54702,0.05935
460.05723,0.07141
458.56745,0.02757
457.07766,0.09859
455.58787,0.12106
454.09808,0.14356
452.60829,0.11311
451.11850,0.18573
449.62871,0.17595
448.13893,0.16621
446.64914,0.26691
445.15935,0.45302
443.66956,0.53759
442.17977,0.54933
440.68998,0.56110
439.20020,0.65314
437.71041,0.69663
436.22062,0.77181
434.73083,0.84702
433.24104,0.97894
431.75125,1.09322
430.26146,1.10303
428.77168,1.11287
427.28189,1.25082
425.79210,1.30047
424.30231,1.32734
422.81252,1.35425
421.32273,1.32010
419.83295,1.13878
418.34316,1.10912
416.85337,1.07949
415.36358,0.75253
413.87379,0.73475
412.38400,0.71037
410.89422,0.68603
409.40443,0.67571
407.91464,0.76994
406.42485,0.60954
404.93506,0.61551
403.44527,0.62152
401.95548,0.51863
400.46570,0.43050
398.97591,0.42778
397.48612,0.42509
395.99633,0.55346
394.50654,0.57292
393.01675,0.60787
391.52697,0.64286
390.03718,0.47548
388.54739,0.42295
387.05760,0.45289
385.56781,0.48286
384.07802,0.33328
382.58824,0.41337
381.09845,0.41990
379.60866,0.42646
378.11887,0.42128
376.62908,0.45146
375.13929,0.39188
373.64950,0.33233
372.15972,0.21688
370.66993,0.17065
369.18014,0.15243
367.69035,0.13423
366.20056,0.09694
364.71077,0.10237
363.22099,0.11593
361.73120,0.12953
360.24141,0.20131
358.75162,0.16566
357.26183,0.16979
355.77204,0.17395
354.28225,0.16932
352.79247,0.10731
351.30268,0.05785
349.81289,0.00842
348.32310,0.08827
346.83331,0.11074
345.34352,0.06921
343.85374,0.02771
342.36395,0.04145
340.87416,0.01106
339.38437,0.11025
337.89458,0.20947
336.40479,0.21305
334.91501,0.22402
333.42522,0.16215
331.93543,0.10032
330.44564,0.12022
328.95585,0.15341
327.46606,0.11082
325.97627,0.06826
324.48649,0.11333
322.99670,0.01711
321.50691,0.07110
320.01712,0.12513
318.52733,0.15490
317.03754,0.07871
315.54776,0.15050
314.05797,0.22233
312.56818,0.10356
311.07839,0.10406
309.58860,0.07000
308.09881,0.03598
306.60902,0.07044
305.11924,0.00336
303.62945,0.04746
302.13966,0.09159
300.64987,0.00842
299.16008,0.00842
