1778.52000,0.03489
1777.03021,0.03531
1775.54042,0.02801
1774.05063,0.02185
1772.56085,0.02512
1771.07106,0.00741
1769.58127,0.04281
1768.09148,0.03179
1766.60169,0.02079
1765.11190,0.03084
1763.62212,0.01936
1762.13233,0.03887
1760.64254,0.03462
1759.15275,0.03705
1757.66296,0.03618
1756.17317,0.02097
1754.68339,0.03178
1753.19360,0.02547
1751.70381,0.03357
1750.21402,0.00741
1748.72423,0.03276
1747.23444,0.03602
1745.74465,0.04926
1744.25487,0.03212
1742.76508,0.03547
1741.27529,0.03829
1739.78550,0.01681
1738.29571,0.03463
1736.80592,0.04362
1735.31614,0.01725
1733.82635,0.03183
1732.33656,0.00995
1730.84677,0.03012
1729.35698,0.04257
1727.86719,0.03791
1726.37740,0.02665
1724.88762,0.03145
1723.39783,0.01748
1721.90804,0.00741
1720.41825,0.01181
1718.92846,0.01955
1717.43867,0.04005
1715.94889,0.03735
1714.45910,0.03744
1712.96931,0.03479
1711.47952,0.04102
1709.98973,0.03457
1708.49994,0.04141
1707.01016,0.04275
1705.52037,0.04412
1704.03058,0.06875
1702.54079,0.06797
1701.05100,0.08325
1699.56121,0.09027
1698.07142,0.09234
1696.58164,0.11711
1695.09185,0.11757
1693.60206,0.13300
1692.11227,0.14791
1690.62248,0.15510
1689.13269,0.15955
1687.64291,0.14966
1686.15312,0.15693
1684.66333,0.19300
1683.17354,0.14171
1681.68375,0.19885
1680.19396,0.17859
1678.70417,0.17661
1677.21439,0.16083
1675.72460,0.15559
1674.23481,0.16421
1672.74502,0.17562
1671.25523,0.15996
1669.76544,0.16921
1668.27566,0.18237
1666.78587,0.13527
1665.29608,0.13190
1663.80629,0.15398
1662.31650,0.17057
1660.82671,0.15290
1659.33693,0.15628
1657.84714,0.10880
1656.35735,0.13214
1654.86756,0.10630
1653.37777,0.09762
1651.88798,0.10390
1650.39819,0.12404
1648.90841,0.11932
1647.41862,0.09085
1645.92883,0.09449
1644.43904,0.09815
1642.94925,0.10958
1641.45946,0.13211
1639.96968,0.12203
1638.47989,0.14406
1636.99010,0.11469
1635.50031,0.10083
1634.01052,0.10801
1632.52073,0.10085
1631.03094,0.09703
1629.54116,0.12034
1628.05137,0.14257
1626.56158,0.11782
1625.07179,0.15725
1623.58200,0.13533
1622.09221,0.15989
1620.60243,0.17784
1619.11264,0.14052
1617.62285,0.16406
1616.13306,0.14892
1614.64327,0.15924
1613.15348,0.13199
1611.66370,0.13850
1610.17391,0.12292
1608.68412,0.15382
1607.19433,0.12337
1605.70454,0.15157
1604.21475,0.13278
1602.72496,0.11403
1601.23518,0.10858
1599.74539,0.10924
1598.25560,0.12099
1596.76581,0.09350
1595.27602,0.11692
1593.78623,0.08894
1592.29645,0.09860
1590.80666,0.06901
1589.31687,0.08038
1587.82708,0.07519
1586.33729,0.07611
1584.84750,0.08536
1583.35771,0.08855
1581.86793,0.04144
1580.37814,0.07068
1578.88835,0.05294
1577.39856,0.07118
1575.90877,0.04189
1574.41898,0.05023
1572.92920,0.03371
1571.43941,0.02774
1569.94962,0.04225
1568.45983,0.05679
1566.97004,0.05366
1565.48025,0.01959
1563.99047,0.03311
1562.50068,0.02897
1561.01089,0.02208
1559.52110,0.02408
1558.03131,0.03052
1556.54152,0.03313
1555.05173,0.05733
1553.56195,0.03621
1552.07216,0.04444
1550.58237,0.05435
1549.09258,0.04769
1547.60279,0.01176
1546.11300,0.03724
1544.62322,0.03731
1543.13343,0.04516
1541.64364,0.03865
1540.15385,0.03411
1538.66406,0.02959
1537.17427,0.05746
1535.68448,0.03006
1534.19470,0.03420
1532.70491,0.00741
1531.21512,0.01683
1529.72533,0.06886
1528.23554,0.00922
1526.74575,0.04293
1525.25597,0.03631
1523.76618,0.03137
1522.27639,0.03808
1520.78660,0.01329
1519.29681,0.01342
1517.80702,0.02259
1516.31724,0.05391
1514.82745,0.03051
1513.33766,0.03313
1511.84787,0.03578
1510.35808,0.01689
1508.86829,0.02347
1507.37850,0.00741
1505.88872,0.01900
1504.39893,0.01458
1502.90914,0.01572
1501.41935,0.01191
1499.92956,0.04297
1498.43977,0.06023
1496.94999,0.06481
1495.46020,0.06388
1493.97041,0.09285
1492.48062,0.14119
1490.99083,0.17188
1489.50104,0.22139
1488.01125,0.26374
1486.52147,0.30612
1485.03168,0.36291
1483.54189,0.42249
1482.05210,0.44782
1480.56231,0.53677
1479.07252,0.61579
1477.58274,0.66664
1476.09295,0.70259
1474.60316,0.79221
1473.11337,0.86858
1471.62358,0.83217
1470.13379,0.88206
1468.64401,0.84405
1467.15422,0.79888
1465.66443,0.78056
1464.17464,0.76226
1462.68485,0.71331
1461.19506,0.70531
1459.70527,0.62710
1458.21549,0.60754
1456.72570,0.54985
1455.23591,0.52205
1453.74612,0.50977
1452.25633,0.44332
1450.76654,0.44935
1449.27676,0.41116
1447.78697,0.38848
1446.29718,0.33929
1444.80739,0.31585
1443.31760,0.29243
1441.82781,0.27927
1440.33802,0.19425
1438.84824,0.20880
1437.35845,0.19186
1435.86866,0.13955
1434.37887,0.16027
1432.88908,0.14397
1431.39929,0.15037
1429.90951,0.15957
1428.41972,0.12621
1426.92993,0.14541
1425.44014,0.13700
1423.95035,0.15488
1422.46056,0.17279
1420.97078,0.17165
1419.48099,0.19487
1417.99120,0.20927
1416.50141,0.21707
1415.01162,0.21715
1413.52183,0.20897
1412.03204,0.21906
1410.54226,0.22808
1409.05247,0.20450
1407.56268,0.23016
1406.07289,0.22544
1404.58310,0.23651
1403.09331,0.24760
1401.60353,0.27007
1400.11374,0.28537
1398.62395,0.33333
1397.13416,0.31385
1395.64437,0.33919
1394.15458,0.40549
1392.66479,0.41762
1391.17501,0.42259
1389.68522,0.48510
1388.19543,0.47962
1386.70564,0.47113
1385.21585,0.46266
1383.72606,0.44400
1382.23628,0.45356
1380.74649,0.45320
1379.25670,0.46559
1377.76691,0.44815
1376.27712,0.46391
1374.78733,0.54552
1373.29755,0.60282
1371.80776,0.73922
1370.31797,0.83197
1368.82818,0.95157
1367.33839,1.07120
1365.84860,1.21657
1364.35881,1.31386
1362.86903,1.45100
1361.37924,1.55222
1359.88945,1.62471
1358.39966,1.73870
1356.90987,1.81512
1355.42008,1.67977
1353.93030,1.63790
1352.44051,1.55210
1350.95072,1.46633
1349.46093,1.28242
1347.97114,1.12122
1346.48135,1.01867
1344.99156,0.91393
1343.50178,0.82084
1342.01199,0.70234
1340.52220,0.60488
1339.03241,0.56385
1337.54262,0.52341
1336.05283,0.50982
1334.56305,0.49625
1333.07326,0.42659
1331.58347,0.39456
1330.09368,0.34154
1328.60389,0.31178
1327.11410,0.26767
1325.62432,0.29216
1324.13453,0.23152
1322.64474,0.23063
1321.15495,0.27290
1319.66516,0.25382
1318.17537,0.23477
1316.68558,0.20247
1315.19580,0.22827
1313.70601,0.17613
1312.21622,0.15664
1310.72643,0.17423
1309.23664,0.19517
1307.74685,0.16139
1306.25707,0.18902
1304.76728,0.18876
1303.27749,0.18852
1301.78770,0.15873
1300.29791,0.16214
1298.80812,0.17222
1297.31834,0.15026
1295.82855,0.15874
1294.33876,0.16006
1292.84897,0.20454
1291.35918,0.16997
1289.86939,0.18520
1288.37960,0.20046
1286.88982,0.21741
1285.40003,0.25872
1283.91024,0.25526
1282.42045,0.23414
1280.93066,0.24734
1279.44087,0.27272
1277.95109,0.25279
1276.46130,0.24285
1274.97151,0.24593
1273.48172,0.24903
1271.99193,0.26074
1270.50214,0.30676
1269.01235,0.28314
1267.52257,0.31318
1266.03278,0.32058
1264.54299,0.33354
1263.05320,0.38634
1261.56341,0.38525
1260.07362,0.38420
1258.58384,0.40888
1257.09405,0.39931
1255.60426,0.40415
1254.11447,0.39962
1252.62468,0.36801
1251.13489,0.36187
1249.64511,0.34415
1248.15532,0.30323
1246.66553,0.29221
1245.17574,0.28121
1243.68595,0.22434
1242.19616,0.26096
1240.70637,0.26940
1239.21659,0.21870
1237.72680,0.19790
1236.23701,0.15776
1234.74722,0.12706
1233.25743,0.11629
1231.76764,0.10555
1230.27786,0.13356
1228.78807,0.13891
1227.29828,0.11388
1225.80849,0.13478
1224.31870,0.07000
1222.82891,0.06496
1221.33912,0.06493
1219.84934,0.05885
1218.35955,0.05280
1216.86976,0.10041
1215.37997,0.12096
1213.89018,0.10228
1212.40039,0.09523
1210.91061,0.08490
1209.42082,0.08068
1207.93103,0.08257
1206.44124,0.08449
1204.95145,0.11409
1203.46166,0.01985
1201.97188,0.02738
1200.48209,0.07587
1198.99230,0.06522
1197.50251,0.02860
1196.01272,0.03238
1194.52293,0.01988
1193.03314,0.00741
1191.54336,0.03196
1190.05357,0.04160
1188.56378,0.03690
1187.07399,0.03942
1185.58420,0.02980
1184.09441,0.01025
1182.60463,0.03214
1181.11484,0.05405
1179.62505,0.06604
1178.13526,0.01722
1176.64547,0.05194
1175.15568,0.09333
1173.66589,0.05511
1172.17611,0.03959
1170.68632,0.02410
1169.19653,0.00865
1167.70674,0.02805
1166.21695,0.05468
1164.72716,0.04871
1163.23738,0.05272
1161.74759,0.01750
1160.25780,0.02102
1158.76801,0.02263
1157.27822,0.02426
1155.78843,0.00741
1154.29865,0.05727
1152.80886,0.02366
1151.31907,0.02270
1149.82928,0.04555
1148.33949,0.07673
1146.84970,0.08719
1145.35991,0.09769
1143.87013,0.05430
1142.38034,0.05573
1140.89055,0.10419
1139.40076,0.14494
1137.91097,0.15475
1136.42118,0.20220
1134.93140,0.18829
1133.44161,0.17440
1131.95182,0.20645
1130.46203,0.22636
1128.97224,0.20869
1127.48245,0.25244
1125.99266,0.29345
1124.50288,0.29191
1123.01309,0.29897
1121.52330,0.30606
1120.03351,0.33778
1118.54372,0.33691
1117.05393,0.33219
1115.56415,0.32640
1114.07436,0.35548
1112.58457,0.36661
1111.09478,0.37777
1109.60499,0.40141
1108.11520,0.42175
1106.62542,0.44599
1105.13563,0.48852
1103.64584,0.50563
1102.15605,0.60572
1100.66626,0.61321
1099.17647,0.62073
1097.68668,0.61861
1096.19690,0.65080
1094.70711,0.71232
1093.21732,0.71803
1091.72753,0.69500
1090.23774,0.72703
1088.74795,0.75908
1087.25817,0.77430
1085.76838,0.85812
1084.27859,0.84022
1082.78880,0.95451
1081.29901,0.97483
1079.80922,0.90281
1078.31943,0.91295
1076.82965,0.92312
1075.33986,1.01820
1073.85007,1.02428
1072.36028,1.00440
1070.87049,1.12998
1069.38070,1.17375
1067.89092,1.18686
1066.40113,1.19999
1064.91134,1.11832
1063.42155,0.99298
1061.93176,0.93625
1060.44197,0.86185
1058.95219,0.76646
1057.46240,0.76041
1055.97261,0.75439
1054.48282,0.72490
1052.99303,0.67609
1051.50324,0.61568
1050.01345,0.53374
1048.52367,0.46510
1047.03388,0.45207
1045.54409,0.43907
1044.05430,0.45733
1042.56451,0.35231
1041.07472,0.35405
1039.58494,0.31047
1038.09515,0.28904
1036.60536,0.26681
1035.11557,0.24460
1033.62578,0.25478
1032.13599,0.24453
1030.64620,0.28296
1029.15642,0.32033
1027.66663,0.31762
1026.17684,0.31495
1024.68705,0.41489
1023.19726,0.49550
1021.70747,0.67845
1020.21769,0.85202
1018.72790,1.02452
1017.23811,1.13815
1015.74832,1.25181
1014.25853,1.48025
1012.76874,1.65950
1011.27896,1.80394
1009.78917,1.89311
1008.29938,2.00000
1006.80959,1.98471
1005.31980,1.96944
1003.83001,1.78664
1002.34022,1.71558
1000.85044,1.61911
999.36065,1.45963
997.87086,1.42875
996.38107,1.39790
994.89128,1.32809
993.40149,1.32411
991.91171,1.24551
990.42192,1.24104
988.93213,1.20398
987.44234,1.17689
985.95255,1.14984
984.46276,1.15157
982.97297,1.08199
981.48319,1.04286
979.99340,0.97499
978.50361,0.95804
977.01382,0.94111
975.52403,0.89933
974.03424,0.80172
972.54446,0.74451
971.05467,0.69562
969.56488,0.61912
968.07509,0.62891
966.58530,0.63873
965.09551,0.61429
963.60573,0.55504
962.11594,0.54725
960.62615,0.50244
959.13636,0.48061
957.64657,0.45880
956.15678,0.38643
954.66699,0.41141
953.17721,0.41983
951.68742,0.43879
950.19763,0.44063
948.70784,0.44250
947.21805,0.44274
945.72826,0.41481
944.23848,0.47484
942.74869,0.48125
941.25890,0.46557
939.76911,0.47840
938.27932,0.49126
936.78953,0.53981
935.29974,0.53420
933.80996,0.52862
932.32017,0.52860
930.83038,0.55294
929.34059,0.57731
927.85080,0.54419
926.36101,0.54816
924.87123,0.48468
923.38144,0.48539
921.89165,0.47644
920.40186,0.46753
918.91207,0.49874
917.42228,0.50011
915.93250,0.46501
914.44271,0.52672
912.95292,0.51408
911.46313,0.50147
909.97334,0.49027
908.48355,0.56260
906.99376,0.53653
905.50398,0.52375
904.01419,0.50658
902.52440,0.48944
901.03461,0.52100
899.54482,0.51774
898.05503,0.55101
896.56525,0.54837
895.07546,0.57202
893.58567,0.59570
892.09588,0.60641
890.60609,0.60222
889.11630,0.53060
887.62651,0.53752
886.13673,0.54946
884.64694,0.56142
883.15715,0.58448
881.66736,0.58931
880.17757,0.60413
878.68778,0.60819
877.19800,0.61228
875.70821,0.57409
874.21842,0.68857
872.72863,0.70684
871.23884,0.75114
869.74905,0.78856
868.25927,0.82600
866.76948,0.77914
865.27969,0.79093
863.78990,0.80717
862.30011,0.78860
860.81032,0.80296
859.32053,0.81735
857.83075,0.76292
856.34096,0.78484
854.85117,0.72660
853.36138,0.62525
851.87159,0.60522
850.38180,0.58522
848.89202,0.43972
847.40223,0.35563
845.91244,0.35729
844.42265,0.33574
842.93286,0.31423
841.44307,0.30270
839.95329,0.28844
838.46350,0.22885
836.97371,0.23898
835.48392,0.23448
833.99413,0.23001
832.50434,0.26068
831.01455,0.26760
829.52477,0.27345
828.03498,0.22291
826.54519,0.22522
825.05540,0.22756
823.56561,0.15555
822.07582,0.15490
820.58604,0.16037
819.09625,0.12162
817.60646,0.08290
816.11667,0.07518
814.62688,0.06031
813.13709,0.01172
811.64730,0.00741
810.15752,0.02290
808.66773,0.03842
807.17794,0.05369
805.68815,0.04853
804.19836,0.07713
802.70857,0.08309
801.21879,0.08908
799.72900,0.11445
798.23921,0.17801
796.74942,0.29911
795.25963,0.33231
793.76984,0.36554
792.28006,0.37999
790.79027,0.42932
789.30048,0.45047
787.81069,0.47773
786.32090,0.49589
784.83111,0.51409
783.34132,0.59010
781.85154,0.56605
780.36175,0.60949
778.87196,0.63721
777.38217,0.66495
775.89238,0.72783
774.40259,0.74706
772.91281,0.71157
771.42302,0.72615
769.93323,0.74077
768.44344,0.70149
766.95365,0.69376
765.46386,0.71040
763.97407,0.69941
762.48429,0.65196
760.99450,0.60453
759.50471,0.48026
758.01492,0.41354
756.52513,0.33247
755.03534,0.31281
753.54556,0.29317
752.05577,0.20279
750.56598,0.20146
749.07619,0.12219
747.58640,0.11540
746.09661,0.10863
744.60683,0.06871
743.11704,0.04430
741.62725,0.04370
740.13746,0.04811
738.64767,0.05255
737.15788,0.05093
735.66809,0.02944
734.17831,0.01903
732.68852,0.03077
731.19873,0.04254
729.70894,0.04660
728.21915,0.03465
726.72936,0.06254
725.23958,0.07443
723.74979,0.06146
722.26000,0.04852
720.77021,0.07266
719.28042,0.07028
717.79063,0.05964
716.30084,0.06396
714.81106,0.06831
713.32127,0.03508
711.83148,0.00741
710.34169,0.04066
708.85190,0.05404
707.36211,0.06745
705.87233,0.08918
704.38254,0.06283
702.89275,0.03982
701.40296,0.06330
699.91317,0.08680
698.42338,0.11034
696.93360,0.07694
695.44381,0.11491
693.95402,0.12056
692.46423,0.12624
690.97444,0.11839
689.48465,0.16090
687.99486,0.15810
686.50508,0.16361
685.01529,0.16916
683.52550,0.23335
682.03571,0.23453
680.54592,0.19813
679.05613,0.18803
677.56635,0.17796
676.07656,0.17373
674.58677,0.12915
673.09698,0.09179
671.60719,0.07880
670.11740,0.06583
668.62761,0.04736
667.13783,0.09639
665.64804,0.07217
664.15825,0.04798
662.66846,0.05286
661.17867,0.05610
659.68888,0.03780
658.19910,0.06240
656.70931,0.08702
655.21952,0.07821
653.72973,0.10648
652.23994,0.11045
650.75015,0.11252
649.26037,0.11461
647.77058,0.12917
646.28079,0.05362
644.79100,0.03451
643.30121,0.02511
641.81142,0.01573
640.32163,0.02823
638.83185,0.02250
637.34206,0.00741
635.85227,0.01037
634.36248,0.01336
632.87269,0.01389
631.38290,0.02772
629.89312,0.03992
628.40333,0.02837
626.91354,0.01685
625.42375,0.02250
623.93396,0.05528
622.44417,0.05408
620.95438,0.05290
619.46460,0.04816
617.97481,0.05285
616.48502,0.04485
614.99523,0.07504
613.50544,0.10526
612.01565,0.06638
610.52587,0.05628
609.03608,0.07773
607.54629,0.09037
606.05650,0.10303
604.56671,0.11904
603.07692,0.13066
601.58714,0.15143
600.09735,0.17223
598.60756,0.14743
597.11777,0.10331
595.62798,0.05700
594.13819,0.07515
592.64840,0.09333
591.15862,0.07366
589.66883,0.09328
588.17904,0.07477
586.68925,0.05103
585.19946,0.02732
583.70967,0.04485
582.21989,0.10056
580.73010,0.06864
579.24031,0.03676
577.75052,0.10748
576.26073,0.08810
574.77094,0.10192
573.28115,0.10665
571.79137,0.11141
570.30158,0.15905
568.81179,0.19124
567.32200,0.19885
565.83221,0.20649
564.34242,0.20393
562.85264,0.28988
561.36285,0.31668
559.87306,0.33466
558.38327,0.35268
556.89348,0.39837
555.40369,0.39488
553.91391,0.41989
552.42412,0.44493
550.93433,0.44097
549.44454,0.45418
547.95475,0.50447
546.46496,0.50253
544.97517,0.50062
543.48539,0.52280
541.99560,0.54832
540.50581,0.57774
539.01602,0.60719
537.52623,0.59851
536.03644,0.51299
534.54666,0.51156
533.05687,0.49606
531.56708,0.48058
530.07729,0.48864
528.58750,0.47626
527.09771,0.47414
525.60792,0.47206
524.11814,0.42935
522.62835,0.37617
521.13856,0.37721
519.64877,0.35616
518.15898,0.33514
516.66919,0.34124
515.17941,0.29926
513.68962,0.30487
512.19983,0.31051
510.71004,0.31397
509.22025,0.29257
507.73046,0.32041
506.24068,0.32755
504.75089,0.33472
503.26110,0.32394
501.77131,0.31429
500.28152,0.33150
498.79173,0.34874
497.30194,0.26950
495.81216,0.31527
494.32237,0.31407
492.83258,0.31290
491.34279,0.29295
489.85300,0.30842
488.36321,0.29738
486.87343,0.26618
485.38364,0.23501
483.89385,0.18977
482.40406,0.19654
480.91427,0.16159
479.42448,0.12666
477.93469,0.10034
476.44491,0.13820
474.95512,0.12686
473.46533,0.11555
471.97554,0.05008
470.48575,0.02888
468.99596,0.09951
467.50618,0.09302
466.01639,0.08656
464.52660,0.00741
463.03681,0.09009
461.54702,0.09151
460.05723,0.09296
458.56745,0.07066
457.07766,0.07217
455.58787,0.08255
454.09808,0.09297
452.60829,0.13548
451.11850,0.15425
449.62871,0.14733
448.13893,0.14044
446.64914,0.23340
445.15935,0.27661
443.66956,0.30160
442.17977,0.34184
440.68998,0.38210
439.20020,0.46082
437.71041,0.52077
436.22062,0.57798
434.73083,0.63522
433.24104,0.66927
431.75125,0.79791
430.26146,0.81127
428.77168,0.82467
427.28189,0.90307
425.79210,0.94887
424.30231,0.95654
422.81252,0.96425
421.32273,0.95484
419.83295,0.82158
418.34316,0.80835
416.85337,0.79516
415.36358,0.69075
413.87379,0.63613
412.38400,0.56827
410.89422,0.50045
409.40443,0.47025
407.91464,0.47769
406.42485,0.41603
404.93506,0.39726
403.44527,0.37852
401.95548,0.36783
400.46570,0.32177
398.97591,0.32662
397.48612,0.33149
395.99633,0.35244
394.50654,0.38779
393.01675,0.39330
391.52697,0.39885
390.03718,0.28000
388.54739,0.26403
387.05760,0.28625
385.56781,0.30851
384.07802,0.33245
382.58824,0.29448
381.09845,0.28198
379.60866,0.26950
378.11887,0.21005
376.62908,0.19875
375.13929,0.18691
373.64950,0.17511
372.15972,0.18324
370.66993,0.15933
369.18014,0.13379
367.69035,0.10828
366.20056,0.10934
364.71077,0.08333
363.22099,0.09855
361.73120,0.11380
360.24141,0.13322
358.75162,0.08521
357.26183,0.08644
355.77204,0.08770
354.28225,0.07572
352.79247,0.04552
351.30268,0.06540
349.81289,0.08530
348.32310,0.05574
346.83331,0.00741
345.34352,0.01141
343.85374,0.01544
342.36395,0.10300
340.87416,0.12312
339.38437,0.11729
337.89458,0.11148
336.40479,0.11454
334.91501,0.07672
333.42522,0.08344
331.93543,0.09019
330.44564,0.12213
328.95585,0.08165
327.46606,0.05780
325.97627,0.03397
324.48649,0.00741
322.99670,0.01921
321.50691,0.04653
320.01712,0.07388
318.52733,0.09296
317.03754,0.10598
315.54776,0.09443
314.05797,0.08290
312.56818,0.03685
311.07839,0.00906
309.58860,0.01173
308.09881,0.01442
306.60902,0.00000
305.11924,0.05916
303.62945,0.04009
302.13966,0.02106
300.64987,0.02279
299.16008,0.00741
