1778.52000,0.00000
1777.03021,0.02642
1775.54042,0.03467
1774.05063,0.03204
1772.56085,0.00397
1771.07106,0.03268
1769.58127,0.02868
1768.09148,0.02253
1766.60169,0.03023
1765.11190,0.02631
1763.62212,0.01079
1762.13233,0.03095
1760.64254,0.01184
1759.15275,0.01605
1757.66296,0.04502
1756.17317,0.03328
1754.68339,0.00920
1753.19360,0.01716
1751.70381,0.01714
1750.21402,0.01789
1748.72423,0.04340
1747.23444,0.01874
1745.74465,0.01593
1744.25487,0.03789
1742.76508,0.03732
1741.27529,0.01787
1739.78550,0.04865
1738.29571,0.03507
1736.80592,0.03389
1735.31614,0.01528
1733.82635,0.04108
1732.33656,0.03635
1730.84677,0.04985
1729.35698,0.01170
1727.86719,0.04053
1726.37740,0.03083
1724.88762,0.04589
1723.39783,0.03042
1721.90804,0.04045
1720.41825,0.07088
1718.92846,0.01184
1717.43867,0.04309
1715.94889,0.05326
1714.45910,0.05619
1712.96931,0.07442
1711.47952,0.08468
1709.98973,0.07678
1708.49994,0.08637
1707.01016,0.08108
1705.52037,0.07581
1704.03058,0.07676
1702.54079,0.09374
1701.05100,0.09620
1699.56121,0.12780
1698.07142,0.12449
1696.58164,0.12559
1695.09185,0.16091
1693.60206,0.17079
1692.11227,0.20107
1690.62248,0.20592
1689.13269,0.18096
1687.64291,0.18514
1686.15312,0.19080
1684.66333,0.19213
1683.17354,0.22113
1681.68375,0.19559
1680.19396,0.18609
1678.70417,0.18899
1677.21439,0.17736
1675.72460,0.18468
1674.23481,0.17893
1672.74502,0.18267
1671.25523,0.17189
1669.76544,0.20261
1668.27566,0.16933
1666.78587,0.17973
1665.29608,0.14942
1663.80629,0.17225
1662.31650,0.17328
1660.82671,0.14597
1659.33693,0.13032
1657.84714,0.14236
1656.35735,0.13187
1654.86756,0.11340
1653.37777,0.15754
1651.88798,0.13112
1650.39819,0.13093
1648.90841,0.13878
1647.41862,0.11609
1645.92883,0.12399
1644.43904,0.13192
1642.94925,0.10059
1641.45946,0.11367
1639.96968,0.11296
1638.47989,0.13847
1636.99010,0.13563
1635.50031,0.13864
1634.01052,0.13295
1632.52073,0.10109
1631.03094,0.10492
1629.54116,0.15243
1628.05137,0.14686
1626.56158,0.15223
1625.07179,0.14816
1623.58200,0.14995
1622.09221,0.19616
1620.60243,0.14852
1619.11264,0.16059
1617.62285,0.16613
1616.13306,0.15133
1614.64327,0.16130
1613.15348,0.14728
1611.66370,0.17695
1610.17391,0.13534
1608.68412,0.14979
1607.19433,0.14026
1605.70454,0.13658
1604.21475,0.14238
1602.72496,0.14822
1601.23518,0.15553
1599.74539,0.12868
1598.25560,0.13970
1596.76581,0.10636
1595.27602,0.12616
1593.78623,0.09142
1592.29645,0.11856
1590.80666,0.11080
1589.31687,0.08415
1587.82708,0.09028
1586.33729,0.10007
1584.84750,0.09606
1583.35771,0.09791
1581.86793,0.06122
1580.37814,0.11042
1578.88835,0.06069
1577.39856,0.09467
1575.90877,0.07119
1574.41898,0.05648
1572.92920,0.03815
1571.43941,0.05188
1569.94962,0.04089
1568.45983,0.02992
1566.97004,0.03427
1565.48025,0.04957
1563.99047,0.01977
1562.50068,0.01184
1561.01089,0.02499
1559.52110,0.06509
1558.03131,0.03755
1556.54152,0.05589
1555.05173,0.05315
1553.56195,0.05480
1552.07216,0.05503
1550.58237,0.05019
1549.09258,0.01773
1547.60279,0.03115
1546.11300,0.03367
1544.62322,0.04787
1543.13343,0.03809
1541.64364,0.02324
1540.15385,0.04080
1538.66406,0.05839
1537.17427,0.04654
1535.68448,0.05945
1534.19470,0.04548
1532.70491,0.03881
1531.21512,0.02198
1529.72533,0.06266
1528.23554,0.00951
1526.74575,0.04790
1525.25597,0.06667
1523.76618,0.07019
1522.27639,0.03881
1520.78660,0.04166
1519.29681,0.01325
1517.80702,0.03539
1516.31724,0.03646
1514.82745,0.05065
1513.33766,0.05396
1511.84787,0.05730
1510.35808,0.04247
1508.86829,0.03059
1507.37850,0.06093
1505.88872,0.05711
1504.39893,0.01184
1502.90914,0.05232
1501.41935,0.02952
1499.92956,0.07661
1498.43977,0.08952
1496.94999,0.09737
1495.46020,0.12126
1493.97041,0.18375
1492.48062,0.20405
1490.99083,0.25932
1489.50104,0.30661
1488.01125,0.33319
1486.52147,0.35980
1485.03168,0.43992
1483.54189,0.50697
1482.05210,0.58206
1480.56231,0.65572
1479.07252,0.79562
1477.58274,0.80676
1476.09295,0.86959
1474.60316,0.87351
1473.11337,0.92331
1471.62358,0.92656
1470.13379,0.92547
1468.64401,0.91787
1467.15422,0.90811
1465.66443,0.87400
1464.17464,0.83993
1462.68485,0.84044
1461.19506,0.79078
1459.70527,0.74042
1458.21549,0.66607
1456.72570,0.64269
1455.23591,0.59897
1453.74612,0.57128
1452.25633,0.50287
1450.76654,0.49125
1449.27676,0.41053
1447.78697,0.43754
1446.29718,0.39617
1444.80739,0.39667
1443.31760,0.39720
1441.82781,0.31590
1440.33802,0.24700
1438.84824,0.20941
1437.35845,0.23516
1435.86866,0.18235
1434.37887,0.15868
1432.88908,0.17142
1431.39929,0.20311
1429.90951,0.15333
1428.41972,0.16616
1426.92993,0.19138
1425.44014,0.17807
1423.95035,0.19390
1422.46056,0.20975
1420.97078,0.19798
1419.48099,0.23354
1417.99120,0.23638
1416.50141,0.28728
1415.01162,0.29673
1413.52183,0.30111
1412.03204,0.29461
1410.54226,0.29178
1409.05247,0.28898
1407.56268,0.26365
1406.07289,0.28346
1404.58310,0.26510
1403.09331,0.24676
1401.60353,0.28122
1400.11374,0.33243
1398.62395,0.37858
1397.13416,0.38256
1395.64437,0.43532
1394.15458,0.44008
1392.66479,0.47689
1391.17501,0.43078
1389.68522,0.46110
1388.19543,0.52346
1386.70564,0.50836
1385.21585,0.49329
1383.72606,0.49971
1382.23628,0.50907
1380.74649,0.45734
1379.25670,0.46458
1377.76691,0.46530
1376.27712,0.48423
1374.78733,0.51484
1373.29755,0.53238
1371.80776,0.66346
1370.31797,0.75019
1368.82818,0.84458
1367.33839,0.93901
1365.84860,1.13860
1364.35881,1.34623
1362.86903,1.51387
1361.37924,1.61460
1359.88945,1.67169
1358.39966,1.70699
1356.90987,1.74304
1355.42008,1.73036
1353.93030,1.58966
1352.44051,1.54321
1350.95072,1.49679
1349.46093,1.30887
1347.97114,1.20611
1346.48135,0.99788
1344.99156,0.87626
1343.50178,0.86455
1342.01199,0.72189
1340.52220,0.65421
1339.03241,0.58146
1337.54262,0.48037
1336.05283,0.49864
1334.56305,0.51693
1333.07326,0.43048
1331.58347,0.44665
1330.09368,0.39299
1328.60389,0.36556
1327.11410,0.37746
1325.62432,0.31152
1324.13453,0.31183
1322.64474,0.29470
1321.15495,0.34819
1319.66516,0.32530
1318.17537,0.30244
1316.68558,0.27597
1315.19580,0.31211
1313.70601,0.29516
1312.21622,0.22803
1310.72643,0.23223
1309.23664,0.24593
1307.74685,0.18544
1306.25707,0.22684
1304.76728,0.23153
1303.27749,0.23625
1301.78770,0.27628
1300.29791,0.23267
1298.80812,0.21601
1297.31834,0.19720
1295.82855,0.21188
1294.33876,0.26225
1292.84897,0.19477
1291.35918,0.24083
1289.86939,0.24035
1288.37960,0.23991
1286.88982,0.24094
1285.40003,0.28275
1283.91024,0.30495
1282.42045,0.30680
1280.93066,0.28903
1279.44087,0.33969
1277.95109,0.31107
1276.46130,0.30867
1274.97151,0.30884
1273.48172,0.30905
1271.99193,0.30164
1270.50214,0.32555
1269.01235,0.38224
1267.52257,0.39457
1266.03278,0.35672
1264.54299,0.43095
1263.05320,0.41208
1261.56341,0.41251
1260.07362,0.41298
1258.58384,0.43567
1257.09405,0.44092
1255.60426,0.46949
1254.11447,0.46753
1252.62468,0.42703
1251.13489,0.44695
1249.64511,0.39632
1248.15532,0.34864
1246.66553,0.32135
1245.17574,0.29409
1243.68595,0.29597
1242.19616,0.34954
1240.70637,0.27726
1239.21659,0.25739
1237.72680,0.18953
1236.23701,0.19301
1234.74722,0.20380
1233.25743,0.18659
1231.76764,0.16942
1230.27786,0.15192
1228.78807,0.15045
1227.29828,0.14901
1225.80849,0.13668
1224.31870,0.13675
1222.82891,0.12303
1221.33912,0.13480
1219.84934,0.11677
1218.35955,0.09877
1216.86976,0.08953
1215.37997,0.10651
1213.89018,0.13953
1212.40039,0.13111
1210.91061,0.11252
1209.42082,0.09251
1207.93103,0.06962
1206.44124,0.04676
1204.95145,0.06467
1203.46166,0.06733
1201.97188,0.06348
1200.48209,0.07857
1198.99230,0.07404
1197.50251,0.05426
1196.01272,0.06871
1194.52293,0.04026
1193.03314,0.01184
1191.54336,0.03549
1190.05357,0.06280
1188.56378,0.04867
1187.07399,0.03893
1185.58420,0.01321
1184.09441,0.04646
1182.60463,0.05319
1181.11484,0.05994
1179.62505,0.06272
1178.13526,0.01532
1176.64547,0.05672
1175.15568,0.05740
1173.66589,0.11269
1172.17611,0.09015
1170.68632,0.07491
1169.19653,0.05970
1167.70674,0.05325
1166.21695,0.03956
1164.72716,0.07028
1163.23738,0.07192
1161.74759,0.02411
1160.25780,0.04255
1158.76801,0.02718
1157.27822,0.01184
1155.78843,0.03435
1154.29865,0.04743
1152.80886,0.05472
1151.31907,0.06276
1149.82928,0.06793
1148.33949,0.06657
1146.84970,0.07288
1145.35991,0.07922
1143.87013,0.06195
1142.38034,0.10145
1140.89055,0.06677
1139.40076,0.11798
1137.91097,0.16849
1136.42118,0.17610
1134.93140,0.20265
1133.44161,0.22924
1131.95182,0.24057
1130.46203,0.31378
1128.97224,0.28442
1127.48245,0.28639
1125.99266,0.26800
1124.50288,0.27802
1123.01309,0.27534
1121.52330,0.27269
1120.03351,0.32719
1118.54372,0.35843
1117.05393,0.38533
1115.56415,0.36933
1114.07436,0.40212
1112.58457,0.39527
1111.09478,0.38846
1109.60499,0.43079
1108.11520,0.51608
1106.62542,0.48279
1105.13563,0.52012
1103.64584,0.57857
1102.15605,0.68872
1100.66626,0.67046
1099.17647,0.65224
1097.68668,0.68316
1096.19690,0.73594
1094.70711,0.76764
1093.21732,0.79501
1091.72753,0.76711
1090.23774,0.79054
1088.74795,0.81399
1087.25817,0.80946
1085.76838,0.84207
1084.27859,0.90017
1082.78880,0.96995
1081.29901,1.00410
1079.80922,1.06229
1078.31943,1.05794
1076.82965,1.05361
1075.33986,1.14609
1073.85007,1.08725
1072.36028,1.12666
1070.87049,1.12173
1069.38070,1.22596
1067.89092,1.24764
1066.40113,1.26935
1064.91134,1.11827
1063.42155,1.06400
1061.93176,0.96173
1060.44197,0.92861
1058.95219,0.88462
1057.46240,0.85629
1055.97261,0.82799
1054.48282,0.77899
1052.99303,0.73001
1051.50324,0.68179
1050.01345,0.60668
1048.52367,0.55779
1047.03388,0.51693
1045.54409,0.47611
1044.05430,0.45496
1042.56451,0.45057
1041.07472,0.37563
1039.58494,0.37203
1038.09515,0.33863
1036.60536,0.31726
1035.11557,0.29592
1033.62578,0.23349
1032.13599,0.22276
1030.64620,0.27827
1029.15642,0.31708
1027.66663,0.33736
1026.17684,0.35767
1024.68705,0.48024
1023.19726,0.56501
1021.70747,0.67017
1020.21769,0.84595
1018.72790,1.01230
1017.23811,1.17322
1015.74832,1.33417
1014.25853,1.44239
1012.76874,1.62341
1011.27896,1.78699
1009.78917,1.80434
1008.29938,2.00000
1006.80959,1.93155
1005.31980,1.86313
1003.83001,1.71033
1002.34022,1.70309
1000.85044,1.58019
999.36065,1.43548
997.87086,1.40577
996.38107,1.37609
994.89128,1.31879
993.40149,1.23095
991.91171,1.23047
990.42192,1.22419
988.93213,1.23467
987.44234,1.20444
985.95255,1.17423
984.46276,1.15861
982.97297,1.16557
981.48319,1.05978
979.99340,1.00059
978.50361,0.94724
977.01382,0.89393
975.52403,0.90322
974.03424,0.84996
972.54446,0.86513
971.05467,0.77992
969.56488,0.73475
968.07509,0.69107
966.58530,0.64742
965.09551,0.62708
963.60573,0.61550
962.11594,0.58576
960.62615,0.55969
959.13636,0.53147
957.64657,0.50327
956.15678,0.46200
954.66699,0.43532
953.17721,0.46542
951.68742,0.48536
950.19763,0.47660
948.70784,0.46786
947.21805,0.43550
945.72826,0.40316
944.23848,0.43708
942.74869,0.44483
941.25890,0.43441
939.76911,0.47169
938.27932,0.50899
936.78953,0.55833
935.29974,0.58806
933.80996,0.56542
932.32017,0.56318
930.83038,0.58935
929.34059,0.61556
927.85080,0.56538
926.36101,0.61347
924.87123,0.59028
923.38144,0.56275
921.89165,0.55017
920.40186,0.53761
918.91207,0.45924
917.42228,0.54461
915.93250,0.53396
914.44271,0.53208
912.95292,0.52331
911.46313,0.51456
909.97334,0.52805
908.48355,0.55611
906.99376,0.62422
905.50398,0.54392
904.01419,0.53751
902.52440,0.53113
901.03461,0.62628
899.54482,0.62323
898.05503,0.61147
896.56525,0.61794
895.07546,0.60260
893.58567,0.58730
892.09588,0.60986
890.60609,0.62227
889.11630,0.57867
887.62651,0.62024
886.13673,0.62691
884.64694,0.63361
883.15715,0.62869
881.66736,0.58087
880.17757,0.59639
878.68778,0.61558
877.19800,0.63479
875.70821,0.61183
874.21842,0.65148
872.72863,0.72462
871.23884,0.80799
869.74905,0.81025
868.25927,0.81254
866.76948,0.83559
865.27969,0.81429
863.78990,0.76828
862.30011,0.76377
860.81032,0.77639
859.32053,0.78904
857.83075,0.76788
856.34096,0.75476
854.85117,0.69437
853.36138,0.62091
851.87159,0.59296
850.38180,0.56504
848.89202,0.47347
847.40223,0.43578
845.91244,0.33118
844.42265,0.30556
842.93286,0.27996
841.44307,0.27004
839.95329,0.28416
838.46350,0.25610
836.97371,0.26082
835.48392,0.24483
833.99413,0.22887
832.50434,0.24532
831.01455,0.20358
829.52477,0.19826
828.03498,0.23444
826.54519,0.22699
825.05540,0.21957
823.56561,0.10813
822.07582,0.15462
820.58604,0.10799
819.09625,0.10142
817.60646,0.09487
816.11667,0.05197
814.62688,0.01856
813.13709,0.02956
811.64730,0.01222
810.15752,0.01255
808.66773,0.01291
807.17794,0.01184
805.68815,0.04387
804.19836,0.04683
802.70857,0.07127
801.21879,0.09575
799.72900,0.12354
798.23921,0.14771
796.74942,0.28688
795.25963,0.32821
793.76984,0.36957
792.28006,0.39386
790.79027,0.48075
789.30048,0.49855
787.81069,0.49746
786.32090,0.50185
784.83111,0.50628
783.34132,0.53147
781.85154,0.58143
780.36175,0.61614
778.87196,0.59303
777.38217,0.56995
775.89238,0.57418
774.40259,0.65922
772.91281,0.76611
771.42302,0.78061
769.93323,0.79515
768.44344,0.75296
766.95365,0.66205
765.46386,0.68614
763.97407,0.67387
762.48429,0.63980
760.99450,0.60576
759.50471,0.47861
758.01492,0.37768
756.52513,0.32700
755.03534,0.29853
753.54556,0.27009
752.05577,0.20639
750.56598,0.17474
749.07619,0.14967
747.58640,0.13153
746.09661,0.11343
744.60683,0.07170
743.11704,0.06275
741.62725,0.08148
740.13746,0.05003
738.64767,0.01861
737.15788,0.05052
735.66809,0.02280
734.17831,0.01184
732.68852,0.02318
731.19873,0.03456
729.70894,0.02449
728.21915,0.02974
726.72936,0.01901
725.23958,0.02140
723.74979,0.01982
722.26000,0.01827
720.77021,0.06327
719.28042,0.03043
717.79063,0.02892
716.30084,0.05763
714.81106,0.08637
713.32127,0.03546
711.83148,0.02460
710.34169,0.02759
708.85190,0.01970
707.36211,0.01184
705.87233,0.03930
704.38254,0.03040
702.89275,0.05537
701.40296,0.04944
699.91317,0.04354
698.42338,0.09479
696.93360,0.07985
695.44381,0.07222
693.95402,0.10609
692.46423,0.13999
690.97444,0.14191
689.48465,0.15913
687.99486,0.19312
686.50508,0.18530
685.01529,0.17751
683.52550,0.19485
682.03571,0.19402
680.54592,0.17140
679.05613,0.17391
677.56635,0.17645
676.07656,0.11754
674.58677,0.11977
673.09698,0.10384
671.60719,0.07921
670.11740,0.05461
668.62761,0.06351
667.13783,0.04915
665.64804,0.06939
664.15825,0.08965
662.66846,0.06738
661.17867,0.11645
659.68888,0.08550
658.19910,0.07095
656.70931,0.05644
655.21952,0.05832
653.72973,0.04568
652.23994,0.08328
650.75015,0.09252
649.26037,0.10180
647.77058,0.05945
646.28079,0.10371
644.79100,0.05850
643.30121,0.04388
641.81142,0.02929
640.32163,0.03146
638.83185,0.01184
637.34206,0.05645
635.85227,0.04471
634.36248,0.03299
632.87269,0.05295
631.38290,0.04165
629.89312,0.04276
628.40333,0.04898
626.91354,0.05524
625.42375,0.03387
623.93396,0.05401
622.44417,0.06180
620.95438,0.06963
619.46460,0.04183
617.97481,0.06354
616.48502,0.09037
614.99523,0.07794
613.50544,0.06553
612.01565,0.09609
610.52587,0.07210
609.03608,0.13546
607.54629,0.10898
606.05650,0.08254
604.56671,0.13143
603.07692,0.17817
601.58714,0.14635
600.09735,0.11457
598.60756,0.12210
597.11777,0.05180
595.62798,0.08268
594.13819,0.08339
592.64840,0.08413
591.15862,0.07143
589.66883,0.09369
588.17904,0.05632
586.68925,0.05972
585.19946,0.06315
583.70967,0.13064
582.21989,0.08465
580.73010,0.09326
579.24031,0.10190
577.75052,0.09528
576.26073,0.14182
574.77094,0.15491
573.28115,0.12765
571.79137,0.10041
570.30158,0.12742
568.81179,0.14063
567.32200,0.17351
565.83221,0.20643
564.34242,0.28448
562.85264,0.28107
561.36285,0.35264
559.87306,0.35365
558.38327,0.35469
556.89348,0.42343
555.40369,0.44855
553.91391,0.47878
552.42412,0.50905
550.93433,0.50077
549.44454,0.54419
547.95475,0.46394
546.46496,0.45940
544.97517,0.45488
543.48539,0.55736
541.99560,0.53689
540.50581,0.55538
539.01602,0.57390
537.52623,0.54042
536.03644,0.53753
534.54666,0.56815
533.05687,0.54167
531.56708,0.51522
530.07729,0.47388
528.58750,0.49806
527.09771,0.44769
525.60792,0.39734
524.11814,0.43471
522.62835,0.44300
521.13856,0.43604
519.64877,0.38799
518.15898,0.33997
516.66919,0.31782
515.17941,0.29787
513.68962,0.27578
512.19983,0.25371
510.71004,0.34154
509.22025,0.26568
507.73046,0.25753
506.24068,0.28032
504.75089,0.30315
503.26110,0.28781
501.77131,0.31906
500.28152,0.32560
498.79173,0.33217
497.30194,0.31621
495.81216,0.32284
494.32237,0.32914
492.83258,0.33546
491.34279,0.37201
489.85300,0.28489
488.36321,0.25455
486.87343,0.24207
485.38364,0.22962
483.89385,0.21684
482.40406,0.17207
480.91427,0.14515
479.42448,0.11826
477.93469,0.04884
476.44491,0.06676
474.95512,0.06615
473.46533,0.06558
471.97554,0.05157
470.48575,0.03687
468.99596,0.04038
467.50618,0.02609
466.01639,0.01184
464.52660,0.01144
463.03681,0.03872
461.54702,0.03874
460.05723,0.03879
458.56745,0.08362
457.07766,0.04334
455.58787,0.05986
454.09808,0.07639
452.60829,0.17228
451.11850,0.10228
449.62871,0.10872
448.13893,0.11519
446.64914,0.20027
445.15935,0.28611
443.66956,0.35961
442.17977,0.39312
440.68998,0.42666
439.20020,0.46895
437.71041,0.50109
436.22062,0.55873
434.73083,0.61639
433.24104,0.75049
431.75125,0.84387
430.26146,0.87797
428.77168,0.91210
427.28189,0.99756
425.79210,1.00374
424.30231,1.00558
422.81252,1.00745
421.32273,0.99334
419.83295,0.92177
418.34316,0.86916
416.85337,0.81657
415.36358,0.67160
413.87379,0.60961
412.38400,0.59094
410.89422,0.57231
409.40443,0.50749
407.91464,0.52493
406.42485,0.49220
404.93506,0.45621
403.44527,0.42026
401.95548,0.41089
400.46570,0.36954
398.97591,0.36423
397.48612,0.35895
395.99633,0.40792
394.50654,0.41980
393.01675,0.43825
391.52697,0.45674
390.03718,0.37412
388.54739,0.31262
387.05760,0.30536
385.56781,0.29814
384.07802,0.29639
382.58824,0.32670
381.09845,0.31228
379.60866,0.29789
378.11887,0.27371
376.62908,0.24956
375.13929,0.23635
373.64950,0.22317
372.15972,0.22821
370.66993,0.11031
369.18014,0.11795
367.69035,0.12563
366.20056,0.11550
364.71077,0.08794
363.22099,0.10189
361.73120,0.11586
360.24141,0.14369
358.75162,0.13008
357.26183,0.13177
355.77204,0.13349
354.28225,0.13742
352.79247,0.11228
351.30268,0.08244
349.81289,0.05262
348.32310,0.04503
346.83331,0.08235
345.34352,0.06185
343.85374,0.04138
342.36395,0.01184
340.87416,0.03746
339.38437,0.05839
337.89458,0.07934
336.40479,0.09778
334.91501,0.07840
333.42522,0.05178
331.93543,0.02519
330.44564,0.02119
328.95585,0.02740
327.46606,0.03509
325.97627,0.04282
324.48649,0.06656
322.99670,0.04449
321.50691,0.05192
320.01712,0.05938
318.52733,0.06068
317.03754,0.02053
315.54776,0.05100
314.05797,0.08150
312.56818,0.10038
311.07839,0.11056
309.58860,0.08729
308.09881,0.06406
306.60902,0.01757
305.11924,0.02786
303.62945,0.03673
302.13966,0.01809
300.64987,0.01184
299.16008,0.01184
