1778.52000,0.02270
1777.03021,0.01120
1775.54042,0.03669
1774.05063,0.01264
1772.56085,0.02223
1771.07106,0.00749
1769.58127,0.01883
1768.09148,0.02684
1766.60169,0.01807
1765.11190,0.01270
1763.62212,0.01912
1762.13233,0.04825
1760.64254,0.02869
1759.15275,0.03184
1757.66296,0.03418
1756.17317,0.00968
1754.68339,0.02889
1753.19360,0.02294
1751.70381,0.04558
1750.21402,0.02289
1748.72423,0.03467
1747.23444,0.01540
1745.74465,0.01380
1744.25487,0.03663
1742.76508,0.02757
1741.27529,0.05970
1739.78550,0.04734
1738.29571,0.05770
1736.80592,0.05632
1735.31614,0.02726
1733.82635,0.03182
1732.33656,0.03054
1730.84677,0.04105
1729.35698,0.02471
1727.86719,0.00000
1726.37740,0.05188
1724.88762,0.01055
1723.39783,0.00873
1721.90804,0.01030
1720.41825,0.03542
1718.92846,0.00429
1717.43867,0.01485
1715.94889,0.02376
1714.45910,0.00749
1712.96931,0.04033
1711.47952,0.05724
1709.98973,0.06073
1708.49994,0.01806
1707.01016,0.04010
1705.52037,0.06217
1704.03058,0.06243
1702.54079,0.07784
1701.05100,0.13277
1699.56121,0.11885
1698.07142,0.11419
1696.58164,0.11545
1695.09185,0.15286
1693.60206,0.17351
1692.11227,0.15301
1690.62248,0.14348
1689.13269,0.21210
1687.64291,0.20934
1686.15312,0.22594
1684.66333,0.26946
1683.17354,0.20799
1681.68375,0.25156
1680.19396,0.23804
1678.70417,0.23128
1677.21439,0.19850
1675.72460,0.21868
1674.23481,0.19604
1672.74502,0.23476
1671.25523,0.23655
1669.76544,0.26526
1668.27566,0.21755
1666.78587,0.22699
1665.29608,0.18942
1663.80629,0.19725
1662.31650,0.19923
1660.82671,0.18024
1659.33693,0.23436
1657.84714,0.17595
1656.35735,0.18897
1654.86756,0.17011
1653.37777,0.15379
1651.88798,0.14339
1650.39819,0.14058
1648.90841,0.17056
1647.41862,0.14009
1645.92883,0.13485
1644.43904,0.12964
1642.94925,0.12195
1641.45946,0.17561
1639.96968,0.14781
1638.47989,0.16374
1636.99010,0.15196
1635.50031,0.14695
1634.01052,0.15036
1632.52073,0.15212
1631.03094,0.16820
1629.54116,0.14147
1628.05137,0.10216
1626.56158,0.12925
1625.07179,0.19922
1623.58200,0.22386
1622.09221,0.19812
1620.60243,0.20602
1619.11264,0.21562
1617.62285,0.15637
1616.13306,0.17108
1614.64327,0.13206
1613.15348,0.16112
1611.66370,0.16500
1610.17391,0.20000
1608.68412,0.16698
1607.19433,0.18944
1605.70454,0.17161
1604.21475,0.15716
1602.72496,0.14275
1601.23518,0.15022
1599.74539,0.13503
1598.25560,0.12659
1596.76581,0.11651
1595.27602,0.09469
1593.78623,0.08383
1592.29645,0.06292
1590.80666,0.11177
1589.31687,0.07664
1587.82708,0.05498
1586.33729,0.11148
1584.84750,0.07560
1583.35771,0.09436
1581.86793,0.03587
1580.37814,0.05217
1578.88835,0.07859
1577.39856,0.04875
1575.90877,0.09035
1574.41898,0.06393
1572.92920,0.05519
1571.43941,0.04143
1569.94962,0.03317
1568.45983,0.02494
1566.97004,0.05161
1565.48025,0.04050
1563.99047,0.04119
1562.50068,0.05199
1561.01089,0.03593
1559.52110,0.05687
1558.03131,0.05601
1556.54152,0.07029
1555.05173,0.05772
1553.56195,0.04603
1552.07216,0.07973
1550.58237,0.07817
1549.09258,0.05229
1547.60279,0.02560
1546.11300,0.09722
1544.62322,0.08152
1543.13343,0.07676
1541.64364,0.03087
1540.15385,0.05306
1538.66406,0.07528
1537.17427,0.04377
1535.68448,0.01816
1534.19470,0.02452
1532.70491,0.02418
1531.21512,0.04152
1529.72533,0.03704
1528.23554,0.03008
1526.74575,0.03491
1525.25597,0.01793
1523.76618,0.06650
1522.27639,0.00674
1520.78660,0.00749
1519.29681,0.00830
1517.80702,0.04324
1516.31724,0.02192
1514.82745,0.02416
1513.33766,0.03189
1511.84787,0.03966
1510.35808,0.00586
1508.86829,0.05258
1507.37850,0.01784
1505.88872,0.00749
1504.39893,0.02752
1502.90914,0.09799
1501.41935,0.01055
1499.92956,0.07435
1498.43977,0.08359
1496.94999,0.16090
1495.46020,0.16599
1493.97041,0.22068
1492.48062,0.26448
1490.99083,0.33352
1489.50104,0.37654
1488.01125,0.43682
1486.52147,0.49713
1485.03168,0.57805
1483.54189,0.63464
1482.05210,0.71563
1480.56231,0.84705
1479.07252,0.95498
1477.58274,1.00161
1476.09295,1.07348
1474.60316,1.14790
1473.11337,1.25092
1471.62358,1.29936
1470.13379,1.32347
1468.64401,1.26528
1467.15422,1.19032
1465.66443,1.17378
1464.17464,1.15727
1462.68485,1.06224
1461.19506,1.00421
1459.70527,0.94453
1458.21549,0.91260
1456.72570,0.84038
1455.23591,0.83540
1453.74612,0.78173
1452.25633,0.70540
1450.76654,0.74168
1449.27676,0.66457
1447.78697,0.59506
1446.29718,0.57263
1444.80739,0.52544
1443.31760,0.47829
1441.82781,0.42990
1440.33802,0.38491
1438.84824,0.35591
1437.35845,0.32610
1435.86866,0.24508
1434.37887,0.25482
1432.88908,0.27467
1431.39929,0.27523
1429.90951,0.30523
1428.41972,0.27393
1426.92993,0.32835
1425.44014,0.28031
1423.95035,0.30077
1422.46056,0.32126
1420.97078,0.31448
1419.48099,0.39342
1417.99120,0.39006
1416.50141,0.38422
1415.01162,0.39268
1413.52183,0.37934
1412.03204,0.34418
1410.54226,0.35610
1409.05247,0.33697
1407.56268,0.33467
1406.07289,0.30300
1404.58310,0.30161
1403.09331,0.30024
1401.60353,0.35772
1400.11374,0.33961
1398.62395,0.36439
1397.13416,0.37323
1395.64437,0.36782
1394.15458,0.39185
1392.66479,0.38566
1391.17501,0.38455
1389.68522,0.39439
1388.19543,0.35385
1386.70564,0.36250
1385.21585,0.37117
1383.72606,0.38365
1382.23628,0.33148
1380.74649,0.40032
1379.25670,0.36249
1377.76691,0.35914
1376.27712,0.33733
1374.78733,0.37773
1373.29755,0.45092
1371.80776,0.47374
1370.31797,0.61588
1368.82818,0.67236
1367.33839,0.72888
1365.84860,0.81902
1364.35881,0.94449
1362.86903,0.96749
1361.37924,1.07706
1359.88945,1.11273
1358.39966,1.18371
1356.90987,1.25557
1355.42008,1.17960
1353.93030,1.15826
1352.44051,1.14914
1350.95072,1.14006
1349.46093,1.04489
1347.97114,0.94555
1346.48135,0.82609
1344.99156,0.80578
1343.50178,0.73846
1342.01199,0.67958
1340.52220,0.58880
1339.03241,0.53838
1337.54262,0.57536
1336.05283,0.55482
1334.56305,0.53431
1333.07326,0.53274
1331.58347,0.43039
1330.09368,0.45408
1328.60389,0.45513
1327.11410,0.41504
1325.62432,0.41362
1324.13453,0.38031
1322.64474,0.36216
1321.15495,0.36588
1319.66516,0.38517
1318.17537,0.40450
1316.68558,0.39487
1315.19580,0.33066
1313.70601,0.29842
1312.21622,0.25108
1310.72643,0.27014
1309.23664,0.27243
1307.74685,0.32936
1306.25707,0.28550
1304.76728,0.30133
1303.27749,0.31719
1301.78770,0.31543
1300.29791,0.32547
1298.80812,0.30362
1297.31834,0.35404
1295.82855,0.29109
1294.33876,0.29957
1292.84897,0.32321
1291.35918,0.30151
1289.86939,0.31765
1288.37960,0.33382
1286.88982,0.35338
1285.40003,0.37717
1283.91024,0.45981
1282.42045,0.41141
1280.93066,0.37313
1279.44087,0.36513
1277.95109,0.39832
1276.46130,0.36098
1274.97151,0.38373
1273.48172,0.40651
1271.99193,0.44991
1270.50214,0.48410
1269.01235,0.51160
1267.52257,0.49628
1266.03278,0.50116
1264.54299,0.54219
1263.05320,0.52865
1261.56341,0.58739
1260.07362,0.64616
1258.58384,0.68480
1257.09405,0.60670
1255.60426,0.62020
1254.11447,0.61945
1252.62468,0.57168
1251.13489,0.55923
1249.64511,0.50733
1248.15532,0.42941
1246.66553,0.45822
1245.17574,0.48706
1243.68595,0.38404
1242.19616,0.41042
1240.70637,0.38307
1239.21659,0.35071
1237.72680,0.35450
1236.23701,0.27516
1234.74722,0.23617
1233.25743,0.23207
1231.76764,0.22801
1230.27786,0.20424
1228.78807,0.20822
1227.29828,0.18955
1225.80849,0.21376
1224.31870,0.20019
1222.82891,0.19086
1221.33912,0.16139
1219.84934,0.16220
1218.35955,0.16304
1216.86976,0.15971
1215.37997,0.22950
1213.89018,0.26572
1212.40039,0.20620
1210.91061,0.16352
1209.42082,0.14690
1207.93103,0.14796
1206.44124,0.14905
1204.95145,0.13925
1203.46166,0.07824
1201.97188,0.09875
1200.48209,0.09661
1198.99230,0.11550
1197.50251,0.04369
1196.01272,0.05844
1194.52293,0.04592
1193.03314,0.03343
1191.54336,0.06760
1190.05357,0.05727
1188.56378,0.00749
1187.07399,0.05595
1185.58420,0.02128
1184.09441,0.04627
1182.60463,0.03896
1181.11484,0.03168
1179.62505,0.05761
1178.13526,0.06678
1176.64547,0.04573
1175.15568,0.09276
1173.66589,0.13310
1172.17611,0.05837
1170.68632,0.04039
1169.19653,0.02244
1167.70674,0.08307
1166.21695,0.06728
1164.72716,0.03304
1163.23738,0.02823
1161.74759,0.00749
1160.25780,0.07289
1158.76801,0.06145
1157.27822,0.05004
1155.78843,0.10041
1154.29865,0.09956
1152.80886,0.11051
1151.31907,0.07864
1149.82928,0.08209
1148.33949,0.13429
1146.84970,0.13108
1145.35991,0.12790
1143.87013,0.13820
1142.38034,0.14096
1140.89055,0.19920
1139.40076,0.22807
1137.91097,0.28722
1136.42118,0.27667
1134.93140,0.30269
1133.44161,0.32875
1131.95182,0.35021
1130.46203,0.35827
1128.97224,0.34955
1127.48245,0.39548
1125.99266,0.36750
1124.50288,0.40845
1123.01309,0.42212
1121.52330,0.43582
1120.03351,0.48274
1118.54372,0.52885
1117.05393,0.49939
1115.56415,0.48087
1114.07436,0.54640
1112.58457,0.52753
1111.09478,0.50869
1109.60499,0.53735
1108.11520,0.62316
1106.62542,0.74681
1105.13563,0.81253
1103.64584,0.84551
1102.15605,0.94657
1100.66626,0.96071
1099.17647,0.97489
1097.68668,1.00211
1096.19690,1.03273
1094.70711,1.02138
1093.21732,1.14531
1091.72753,1.07269
1090.23774,1.09167
1088.74795,1.11069
1087.25817,1.19526
1085.76838,1.22106
1084.27859,1.29981
1082.78880,1.31811
1081.29901,1.40365
1079.80922,1.36069
1078.31943,1.36270
1076.82965,1.36474
1075.33986,1.43444
1073.85007,1.44537
1072.36028,1.44793
1070.87049,1.50092
1069.38070,1.58923
1067.89092,1.55114
1066.40113,1.51307
1064.91134,1.46202
1063.42155,1.34379
1061.93176,1.27180
1060.44197,1.28721
1058.95219,1.19344
1057.46240,1.17195
1055.97261,1.15048
1054.48282,1.03917
1052.99303,1.03037
1051.50324,0.96364
1050.01345,0.83561
1048.52367,0.74794
1047.03388,0.74977
1045.54409,0.75163
1044.05430,0.72790
1042.56451,0.61095
1041.07472,0.53267
1039.58494,0.48551
1038.09515,0.45939
1036.60536,0.44463
1035.11557,0.42991
1033.62578,0.40976
1032.13599,0.38880
1030.64620,0.42836
1029.15642,0.52844
1027.66663,0.51891
1026.17684,0.50942
1024.68705,0.63563
1023.19726,0.68795
1021.70747,0.85539
1020.21769,1.02706
1018.72790,1.23405
1017.23811,1.30455
1015.74832,1.37509
1014.25853,1.57545
1012.76874,1.75736
1011.27896,1.86957
1009.78917,1.93141
1008.29938,2.00000
1006.80959,1.95269
1005.31980,1.90541
1003.83001,1.84640
1002.34022,1.80927
1000.85044,1.70159
999.36065,1.61496
997.87086,1.55649
996.38107,1.49806
994.89128,1.54593
993.40149,1.57703
991.91171,1.58044
990.42192,1.63765
988.93213,1.54535
987.44234,1.55557
985.95255,1.56583
984.46276,1.56855
982.97297,1.59231
981.48319,1.59510
979.99340,1.43410
978.50361,1.42477
977.01382,1.41547
975.52403,1.38646
974.03424,1.40285
972.54446,1.25460
971.05467,1.23577
969.56488,1.11279
968.07509,1.15661
966.58530,1.20045
965.09551,1.13134
963.60573,1.12610
962.11594,1.10325
960.62615,1.06364
959.13636,1.01187
957.64657,0.96013
956.15678,0.90212
954.66699,0.86935
953.17721,0.89962
951.68742,0.90723
950.19763,0.87581
948.70784,0.84443
947.21805,0.80509
945.72826,0.75571
944.23848,0.76936
942.74869,0.81581
941.25890,0.90933
939.76911,0.94198
938.27932,0.97466
936.78953,1.05987
935.29974,0.98130
933.80996,0.97249
932.32017,0.96287
930.83038,0.98059
929.34059,0.99833
927.85080,1.02157
926.36101,1.00704
924.87123,0.97741
923.38144,0.98478
921.89165,0.96026
920.40186,0.93577
918.91207,1.01296
917.42228,0.93897
915.93250,1.04142
914.44271,0.99774
912.95292,1.02255
911.46313,1.04739
909.97334,1.14073
908.48355,1.12153
906.99376,1.10825
905.50398,1.08071
904.01419,1.06622
902.52440,1.05177
901.03461,1.07053
899.54482,1.06916
898.05503,1.09219
896.56525,1.15557
895.07546,1.15765
893.58567,1.15977
892.09588,1.09723
890.60609,1.20946
889.11630,1.11086
887.62651,1.03245
886.13673,1.05278
884.64694,1.07315
883.15715,1.04188
881.66736,0.98376
880.17757,1.00044
878.68778,1.02345
877.19800,1.04650
875.70821,1.02547
874.21842,1.05991
872.72863,1.09019
871.23884,1.15242
869.74905,1.14790
868.25927,1.14341
866.76948,1.05452
865.27969,1.06647
863.78990,1.11878
862.30011,1.12743
860.81032,1.11932
859.32053,1.11123
857.83075,1.04857
856.34096,0.98090
854.85117,0.94603
853.36138,0.87338
851.87159,0.80833
850.38180,0.74331
848.89202,0.63463
847.40223,0.53943
845.91244,0.49886
844.42265,0.48731
842.93286,0.47579
841.44307,0.41347
839.95329,0.36127
838.46350,0.37967
836.97371,0.34097
835.48392,0.35523
833.99413,0.36952
832.50434,0.34436
831.01455,0.36291
829.52477,0.27396
828.03498,0.30770
826.54519,0.29653
825.05540,0.28538
823.56561,0.23773
822.07582,0.24807
820.58604,0.17695
819.09625,0.15081
817.60646,0.12470
816.11667,0.11248
814.62688,0.06165
813.13709,0.00749
811.64730,0.08634
810.15752,0.04886
808.66773,0.01142
807.17794,0.05003
805.68815,0.12312
804.19836,0.06603
802.70857,0.09004
801.21879,0.11407
799.72900,0.16041
798.23921,0.25634
796.74942,0.42874
795.25963,0.44367
793.76984,0.45862
792.28006,0.54795
790.79027,0.62220
789.30048,0.71327
787.81069,0.65400
786.32090,0.67626
784.83111,0.69854
783.34132,0.76538
781.85154,0.80788
780.36175,0.79414
778.87196,0.80940
777.38217,0.82470
775.89238,0.89674
774.40259,0.99065
772.91281,0.96194
771.42302,0.97106
769.93323,0.98021
768.44344,0.96756
766.95365,0.94989
765.46386,0.99358
763.97407,0.97262
762.48429,0.88994
760.99450,0.80729
759.50471,0.64529
758.01492,0.58833
756.52513,0.48603
755.03534,0.40309
753.54556,0.32018
752.05577,0.24318
750.56598,0.21158
749.07619,0.13632
747.58640,0.12830
746.09661,0.12032
744.60683,0.06532
743.11704,0.04059
741.62725,0.00749
740.13746,0.04320
738.64767,0.07893
737.15788,0.03783
735.66809,0.02952
734.17831,0.02125
732.68852,0.01762
731.19873,0.01403
729.70894,0.05289
728.21915,0.03970
726.72936,0.05595
725.23958,0.04786
723.74979,0.04064
722.26000,0.03346
720.77021,0.05319
719.28042,0.01666
717.79063,0.03795
716.30084,0.05003
714.81106,0.06214
713.32127,0.01548
711.83148,0.00749
710.34169,0.02930
708.85190,0.02300
707.36211,0.01673
705.87233,0.04703
704.38254,0.01772
702.89275,0.06851
701.40296,0.04457
699.91317,0.02065
698.42338,0.03373
696.93360,0.10061
695.44381,0.10703
693.95402,0.12944
692.46423,0.15189
690.97444,0.15841
689.48465,0.16159
687.99486,0.14381
686.50508,0.15378
685.01529,0.16378
683.52550,0.21246
682.03571,0.14187
680.54592,0.22590
679.05613,0.17260
677.56635,0.11933
676.07656,0.16396
674.58677,0.10193
673.09698,0.11218
671.60719,0.10693
670.11740,0.10170
668.62761,0.05912
667.13783,0.07538
665.64804,0.09335
664.15825,0.11135
662.66846,0.05881
661.17867,0.07268
659.68888,0.04541
658.19910,0.06059
656.70931,0.07581
655.21952,0.11500
653.72973,0.08366
652.23994,0.12291
650.75015,0.13531
649.26037,0.14775
647.77058,0.08964
646.28079,0.09962
644.79100,0.09198
643.30121,0.09068
641.81142,0.08941
640.32163,0.11127
638.83185,0.08612
637.34206,0.05680
635.85227,0.03213
634.36248,0.00749
632.87269,0.04801
631.38290,0.06838
629.89312,0.07619
628.40333,0.04875
626.91354,0.02134
625.42375,0.08385
623.93396,0.04054
622.44417,0.04136
620.95438,0.04222
619.46460,0.08133
617.97481,0.12972
616.48502,0.10840
614.99523,0.12367
613.50544,0.13896
612.01565,0.13455
610.52587,0.12008
609.03608,0.17033
607.54629,0.13199
606.05650,0.09367
604.56671,0.18182
603.07692,0.11207
601.58714,0.14568
600.09735,0.17932
598.60756,0.16762
597.11777,0.14167
595.62798,0.10736
594.13819,0.11046
592.64840,0.11359
591.15862,0.13062
589.66883,0.09307
588.17904,0.03623
586.68925,0.07939
585.19946,0.12258
583.70967,0.13472
582.21989,0.14270
580.73010,0.15406
579.24031,0.16545
577.75052,0.19284
576.26073,0.23958
574.77094,0.16202
573.28115,0.18026
571.79137,0.19854
570.30158,0.24036
568.81179,0.29818
567.32200,0.33503
565.83221,0.37191
564.34242,0.40798
562.85264,0.44408
561.36285,0.51718
559.87306,0.53864
558.38327,0.56014
556.89348,0.64257
555.40369,0.62254
553.91391,0.63489
552.42412,0.64727
550.93433,0.75587
549.44454,0.68388
547.95475,0.65645
546.46496,0.69374
544.97517,0.73106
543.48539,0.72052
541.99560,0.74614
540.50581,0.77725
539.01602,0.80839
537.52623,0.77866
536.03644,0.71284
534.54666,0.73525
533.05687,0.72284
531.56708,0.71045
530.07729,0.60947
528.58750,0.73366
527.09771,0.71801
525.60792,0.70239
524.11814,0.63765
522.62835,0.67796
521.13856,0.58725
519.64877,0.57343
518.15898,0.55965
516.66919,0.47827
515.17941,0.48765
513.68962,0.44204
512.19983,0.39646
510.71004,0.43197
509.22025,0.40032
507.73046,0.43422
506.24068,0.45975
504.75089,0.48531
503.26110,0.42858
501.77131,0.39036
500.28152,0.40635
498.79173,0.42238
497.30194,0.35989
495.81216,0.40496
494.32237,0.42780
492.83258,0.45068
491.34279,0.37487
489.85300,0.37554
488.36321,0.35105
486.87343,0.29213
485.38364,0.23326
483.89385,0.24329
482.40406,0.20548
480.91427,0.17652
479.42448,0.14759
477.93469,0.10567
476.44491,0.04782
474.95512,0.08955
473.46533,0.13131
471.97554,0.05339
470.48575,0.03935
468.99596,0.07910
467.50618,0.04328
466.01639,0.00749
464.52660,0.02328
463.03681,0.08279
461.54702,0.10116
460.05723,0.11956
458.56745,0.12119
457.07766,0.21359
455.58787,0.18588
454.09808,0.15820
452.60829,0.21624
451.11850,0.23819
449.62871,0.22993
448.13893,0.22170
446.64914,0.40336
445.15935,0.46745
443.66956,0.55004
442.17977,0.59234
440.68998,0.63467
439.20020,0.75180
437.71041,0.80512
436.22062,0.83074
434.73083,0.85640
433.24104,1.06943
431.75125,1.21024
430.26146,1.28850
428.77168,1.36678
427.28189,1.41528
425.79210,1.43272
424.30231,1.44809
422.81252,1.46350
421.32273,1.46171
419.83295,1.32470
418.34316,1.25703
416.85337,1.18940
415.36358,1.09197
413.87379,0.91476
412.38400,0.88124
410.89422,0.84775
409.40443,0.84957
407.91464,0.79430
406.42485,0.75839
404.93506,0.74182
403.44527,0.72529
401.95548,0.61806
400.46570,0.59067
398.97591,0.60028
397.48612,0.60992
395.99633,0.65739
394.50654,0.63013
393.01675,0.62011
391.52697,0.61013
390.03718,0.59221
388.54739,0.52390
387.05760,0.49511
385.56781,0.46636
384.07802,0.50316
382.58824,0.47447
381.09845,0.46933
379.60866,0.46422
378.11887,0.46082
376.62908,0.38185
375.13929,0.34071
373.64950,0.29960
372.15972,0.31481
370.66993,0.24604
369.18014,0.23569
367.69035,0.22537
366.20056,0.18862
364.71077,0.18803
363.22099,0.17907
361.73120,0.17013
360.24141,0.24692
358.75162,0.20109
357.26183,0.20569
355.77204,0.21032
354.28225,0.08561
352.79247,0.04494
351.30268,0.07277
349.81289,0.10064
348.32310,0.16423
346.83331,0.14637
345.34352,0.11048
343.85374,0.07462
342.36395,0.08794
340.87416,0.11473
339.38437,0.11508
337.89458,0.11547
336.40479,0.16672
334.91501,0.09954
333.42522,0.12019
331.93543,0.14087
330.44564,0.15107
328.95585,0.14199
327.46606,0.13042
325.97627,0.11887
324.48649,0.04688
322.99670,0.16670
321.50691,0.14332
320.01712,0.11997
318.52733,0.14411
317.03754,0.17669
315.54776,0.17570
314.05797,0.17473
312.56818,0.11499
311.07839,0.06033
309.58860,0.03636
308.09881,0.01242
306.60902,0.00749
305.11924,0.05801
303.62945,0.05100
302.13966,0.04403
300.64987,0.02323
299.16008,0.00749
