1778.52000,0.04744
1777.03021,0.05846
1775.54042,0.00264
1774.05063,0.04158
1772.56085,0.07275
1771.07106,0.03709
1769.58127,0.01930
1768.09148,0.01602
1766.60169,0.03730
1765.11190,0.05861
1763.62212,0.05878
1762.13233,0.08573
1760.64254,0.05811
1759.15275,0.05393
1757.66296,0.04978
1756.17317,0.01334
1754.68339,0.02709
1753.19360,0.02415
1751.70381,0.03685
1750.21402,0.03287
1748.72423,0.07461
1747.23444,0.04507
1745.74465,0.02893
1744.25487,0.07634
1742.76508,0.10039
1741.27529,0.08212
1739.78550,0.06055
1738.29571,0.08136
1736.80592,0.10888
1735.31614,0.02500
1733.82635,0.00690
1732.33656,0.06350
1730.84677,0.05773
1729.35698,0.05757
1727.86719,0.09532
1726.37740,0.03839
1724.88762,0.03053
1723.39783,0.00264
1721.90804,0.01901
1720.41825,0.01313
1718.92846,0.04406
1717.43867,0.07056
1715.94889,0.05252
1714.45910,0.06126
1712.96931,0.10458
1711.47952,0.04430
1709.98973,0.04423
1708.49994,0.05979
1707.01016,0.05310
1705.52037,0.04644
1704.03058,0.09108
1702.54079,0.09006
1701.05100,0.10579
1699.56121,0.09815
1698.07142,0.11507
1696.58164,0.08967
1695.09185,0.11779
1693.60206,0.11586
1692.11227,0.16634
1690.62248,0.15668
1689.13269,0.18382
1687.64291,0.13745
1686.15312,0.13012
1684.66333,0.18411
1683.17354,0.17573
1681.68375,0.16850
1680.19396,0.16465
1678.70417,0.14077
1677.21439,0.16373
1675.72460,0.16220
1674.23481,0.14511
1672.74502,0.13808
1671.25523,0.17232
1669.76544,0.16870
1668.27566,0.20523
1666.78587,0.14262
1665.29608,0.15136
1663.80629,0.15568
1662.31650,0.15892
1660.82671,0.18448
1659.33693,0.19781
1657.84714,0.15992
1656.35735,0.12206
1654.86756,0.14218
1653.37777,0.07876
1651.88798,0.09449
1650.39819,0.12140
1648.90841,0.08594
1647.41862,0.06054
1645.92883,0.06526
1644.43904,0.07002
1642.94925,0.12719
1641.45946,0.12421
1639.96968,0.11570
1638.47989,0.15625
1636.99010,0.10546
1635.50031,0.11933
1634.01052,0.09981
1632.52073,0.08589
1631.03094,0.12104
1629.54116,0.09605
1628.05137,0.07889
1626.56158,0.14646
1625.07179,0.16726
1623.58200,0.18586
1622.09221,0.16549
1620.60243,0.14850
1619.11264,0.13155
1617.62285,0.15363
1616.13306,0.12894
1614.64327,0.11543
1613.15348,0.14764
1611.66370,0.06288
1610.17391,0.11299
1608.68412,0.10073
1607.19433,0.11190
1605.70454,0.11196
1604.21475,0.12655
1602.72496,0.14117
1601.23518,0.14690
1599.74539,0.09696
1598.25560,0.09942
1596.76581,0.06960
1595.27602,0.04872
1593.78623,0.10701
1592.29645,0.08286
1590.80666,0.11446
1589.31687,0.10264
1587.82708,0.03848
1586.33729,0.05681
1584.84750,0.07629
1583.35771,0.02672
1581.86793,0.05629
1580.37814,0.06808
1578.88835,0.11778
1577.39856,0.07503
1575.90877,0.03008
1574.41898,0.03196
1572.92920,0.03612
1571.43941,0.00241
1569.94962,0.02056
1568.45983,0.03874
1566.97004,0.00291
1565.48025,0.01614
1563.99047,0.03721
1562.50068,0.05051
1561.01089,0.04379
1559.52110,0.01370
1558.03131,0.03045
1556.54152,0.01045
1555.05173,0.08633
1553.56195,0.08201
1552.07216,0.08440
1550.58237,0.03445
1549.09258,0.03134
1547.60279,0.00264
1546.11300,0.04321
1544.62322,0.06153
1543.13343,0.06985
1541.64364,0.04478
1540.15385,0.03646
1538.66406,0.02817
1537.17427,0.03105
1535.68448,0.04066
1534.19470,0.02467
1532.70491,0.00091
1531.21512,0.01842
1529.72533,0.02705
1528.23554,0.02903
1526.74575,0.03661
1525.25597,0.09326
1523.76618,0.04296
1522.27639,0.02612
1520.78660,0.00264
1519.29681,0.01555
1517.80702,0.06415
1516.31724,0.05149
1514.82745,0.00655
1513.33766,0.00957
1511.84787,0.01262
1510.35808,0.06584
1508.86829,0.00433
1507.37850,0.02865
1505.88872,0.01177
1504.39893,0.05733
1502.90914,0.00264
1501.41935,0.02382
1499.92956,0.03500
1498.43977,0.04844
1496.94999,0.06415
1495.46020,0.13561
1493.97041,0.13355
1492.48062,0.16719
1490.99083,0.16855
1489.50104,0.22454
1488.01125,0.28335
1486.52147,0.34220
1485.03168,0.38938
1483.54189,0.43659
1482.05210,0.43258
1480.56231,0.54004
1479.07252,0.62636
1477.58274,0.69934
1476.09295,0.75118
1474.60316,0.79191
1473.11337,0.89285
1471.62358,0.88127
1470.13379,0.89647
1468.64401,0.80250
1467.15422,0.78768
1465.66443,0.76732
1464.17464,0.74700
1462.68485,0.74676
1461.19506,0.73320
1459.70527,0.66951
1458.21549,0.61924
1456.72570,0.54448
1455.23591,0.52770
1453.74612,0.48978
1452.25633,0.46861
1450.76654,0.46642
1449.27676,0.42304
1447.78697,0.41200
1446.29718,0.36757
1444.80739,0.31425
1443.31760,0.26097
1441.82781,0.22889
1440.33802,0.22583
1438.84824,0.19716
1437.35845,0.12507
1435.86866,0.20234
1434.37887,0.15706
1432.88908,0.18871
1431.39929,0.13012
1429.90951,0.15181
1428.41972,0.12673
1426.92993,0.16296
1425.44014,0.13460
1423.95035,0.15197
1422.46056,0.16936
1420.97078,0.17788
1419.48099,0.20315
1417.99120,0.16493
1416.50141,0.16686
1415.01162,0.19111
1413.52183,0.17862
1412.03204,0.17954
1410.54226,0.22506
1409.05247,0.18705
1407.56268,0.16912
1406.07289,0.19469
1404.58310,0.19522
1403.09331,0.19578
1401.60353,0.16796
1400.11374,0.16915
1398.62395,0.24838
1397.13416,0.25298
1395.64437,0.29773
1394.15458,0.32022
1392.66479,0.35836
1391.17501,0.36309
1389.68522,0.35560
1388.19543,0.38380
1386.70564,0.37248
1385.21585,0.36119
1383.72606,0.31372
1382.23628,0.31197
1380.74649,0.28908
1379.25670,0.31303
1377.76691,0.31138
1376.27712,0.37217
1374.78733,0.36613
1373.29755,0.45597
1371.80776,0.57369
1370.31797,0.63016
1368.82818,0.70783
1367.33839,0.78554
1365.84860,0.95244
1364.35881,1.08036
1362.86903,1.10468
1361.37924,1.17918
1359.88945,1.27600
1358.39966,1.34834
1356.90987,1.34494
1355.42008,1.28919
1353.93030,1.25688
1352.44051,1.17112
1350.95072,1.08539
1349.46093,0.99412
1347.97114,0.93854
1346.48135,0.82951
1344.99156,0.79183
1343.50178,0.70515
1342.01199,0.53158
1340.52220,0.51295
1339.03241,0.50104
1337.54262,0.41338
1336.05283,0.39374
1334.56305,0.37412
1333.07326,0.38017
1331.58347,0.32943
1330.09368,0.33889
1328.60389,0.26592
1327.11410,0.28214
1325.62432,0.27499
1324.13453,0.28013
1322.64474,0.23293
1321.15495,0.21919
1319.66516,0.20939
1318.17537,0.19962
1316.68558,0.20381
1315.19580,0.19133
1313.70601,0.15547
1312.21622,0.25338
1310.72643,0.18193
1309.23664,0.21638
1307.74685,0.19292
1306.25707,0.17841
1304.76728,0.17507
1303.27749,0.17177
1301.78770,0.16739
1300.29791,0.15524
1298.80812,0.16875
1297.31834,0.12547
1295.82855,0.17917
1294.33876,0.19725
1292.84897,0.14961
1291.35918,0.22458
1289.86939,0.23551
1288.37960,0.24648
1286.88982,0.21235
1285.40003,0.28411
1283.91024,0.25228
1282.42045,0.23496
1280.93066,0.27006
1279.44087,0.30964
1277.95109,0.27237
1276.46130,0.25073
1274.97151,0.24919
1273.48172,0.24768
1271.99193,0.25734
1270.50214,0.31385
1269.01235,0.30909
1267.52257,0.34895
1266.03278,0.31863
1264.54299,0.40759
1263.05320,0.41969
1261.56341,0.41120
1260.07362,0.40275
1258.58384,0.45172
1257.09405,0.43053
1255.60426,0.48068
1254.11447,0.47515
1252.62468,0.40057
1251.13489,0.34830
1249.64511,0.31947
1248.15532,0.32745
1246.66553,0.33100
1245.17574,0.33459
1243.68595,0.33710
1242.19616,0.34075
1240.70637,0.28873
1239.21659,0.20776
1237.72680,0.16582
1236.23701,0.17630
1234.74722,0.12887
1233.25743,0.14777
1231.76764,0.16670
1230.27786,0.08259
1228.78807,0.14450
1227.29828,0.16521
1225.80849,0.13915
1224.31870,0.10421
1222.82891,0.11722
1221.33912,0.07789
1219.84934,0.07704
1218.35955,0.07622
1216.86976,0.09159
1215.37997,0.15826
1213.89018,0.12690
1212.40039,0.14795
1210.91061,0.09214
1209.42082,0.08985
1207.93103,0.09874
1206.44124,0.10766
1204.95145,0.13000
1203.46166,0.02978
1201.97188,0.12907
1200.48209,0.05566
1198.99230,0.08927
1197.50251,0.06497
1196.01272,0.02398
1194.52293,0.01702
1193.03314,0.01009
1191.54336,0.00264
1190.05357,0.07012
1188.56378,0.04849
1187.07399,0.07370
1185.58420,0.02093
1184.09441,0.01723
1182.60463,0.03864
1181.11484,0.06008
1179.62505,0.01748
1178.13526,0.06184
1176.64547,0.09954
1175.15568,0.11387
1173.66589,0.08032
1172.17611,-0.00000
1170.68632,0.02743
1169.19653,0.05489
1167.70674,0.02110
1166.21695,0.03191
1164.72716,0.05279
1163.23738,0.07816
1161.74759,0.07570
1160.25780,0.01310
1158.76801,0.02743
1157.27822,0.04179
1155.78843,0.08850
1154.29865,0.00264
1152.80886,0.04728
1151.31907,0.04404
1149.82928,0.15005
1148.33949,0.16582
1146.84970,0.15488
1145.35991,0.14397
1143.87013,0.05064
1142.38034,0.11224
1140.89055,0.20395
1139.40076,0.13747
1137.91097,0.23928
1136.42118,0.23415
1134.93140,0.26081
1133.44161,0.28751
1131.95182,0.32148
1130.46203,0.26077
1128.97224,0.30150
1127.48245,0.29100
1125.99266,0.33179
1124.50288,0.37485
1123.01309,0.38897
1121.52330,0.40312
1120.03351,0.47971
1118.54372,0.40924
1117.05393,0.45358
1115.56415,0.42106
1114.07436,0.39750
1112.58457,0.42411
1111.09478,0.45076
1109.60499,0.49527
1108.11520,0.51529
1106.62542,0.54984
1105.13563,0.59223
1103.64584,0.61904
1102.15605,0.71498
1100.66626,0.71066
1099.17647,0.70638
1097.68668,0.72218
1096.19690,0.78706
1094.70711,0.76839
1093.21732,0.75643
1091.72753,0.86153
1090.23774,0.86301
1088.74795,0.86454
1087.25817,0.92404
1085.76838,0.98692
1084.27859,1.05875
1082.78880,1.13507
1081.29901,1.16685
1079.80922,1.01034
1078.31943,1.02547
1076.82965,1.04064
1075.33986,1.12938
1073.85007,1.12010
1072.36028,1.13091
1070.87049,1.27771
1069.38070,1.40894
1067.89092,1.40592
1066.40113,1.40293
1064.91134,1.16541
1063.42155,1.10733
1061.93176,1.08494
1060.44197,1.10048
1058.95219,0.97452
1057.46240,0.96171
1055.97261,0.94894
1054.48282,0.72613
1052.99303,0.79199
1051.50324,0.70186
1050.01345,0.63071
1048.52367,0.53397
1047.03388,0.55204
1045.54409,0.57014
1044.05430,0.53145
1042.56451,0.50282
1041.07472,0.44524
1039.58494,0.40999
1038.09515,0.31683
1036.60536,0.26883
1035.11557,0.22087
1033.62578,0.31390
1032.13599,0.32005
1030.64620,0.30952
1029.15642,0.33023
1027.66663,0.33146
1026.17684,0.33273
1024.68705,0.35911
1023.19726,0.52036
1021.70747,0.68053
1020.21769,0.84519
1018.72790,0.98649
1017.23811,1.11556
1015.74832,1.24466
1014.25853,1.51755
1012.76874,1.58209
1011.27896,1.69235
1009.78917,1.78593
1008.29938,1.89848
1006.80959,1.94922
1005.31980,2.00000
1003.83001,1.84298
1002.34022,1.65702
1000.85044,1.62153
999.36065,1.49582
997.87086,1.44870
996.38107,1.40161
994.89128,1.36403
993.40149,1.36549
991.91171,1.39484
990.42192,1.37296
988.93213,1.31546
987.44234,1.27693
985.95255,1.23844
984.46276,1.31811
982.97297,1.35434
981.48319,1.31930
979.99340,1.27091
978.50361,1.21532
977.01382,1.15975
975.52403,1.15604
974.03424,0.98856
972.54446,1.04286
971.05467,0.91221
969.56488,0.85961
968.07509,0.85941
966.58530,0.85925
965.09551,0.90035
963.60573,0.82113
962.11594,0.84670
960.62615,0.75418
959.13636,0.69401
957.64657,0.63387
956.15678,0.57043
954.66699,0.63628
953.17721,0.57290
951.68742,0.68340
950.19763,0.67692
948.70784,0.67048
947.21805,0.53703
945.72826,0.58748
944.23848,0.63129
942.74869,0.70410
941.25890,0.66774
939.76911,0.66595
938.27932,0.66420
936.78953,0.65023
935.29974,0.56274
933.80996,0.66695
932.32017,0.71437
930.83038,0.73675
929.34059,0.75916
927.85080,0.71419
926.36101,0.63470
924.87123,0.60094
923.38144,0.65524
921.89165,0.65999
920.40186,0.66478
918.91207,0.68464
917.42228,0.61984
915.93250,0.66986
914.44271,0.66419
912.95292,0.66915
911.46313,0.67414
909.97334,0.70980
908.48355,0.72990
906.99376,0.66980
905.50398,0.64316
904.01419,0.58647
902.52440,0.52981
901.03461,0.69160
899.54482,0.74979
898.05503,0.68878
896.56525,0.75038
895.07546,0.73178
893.58567,0.71321
892.09588,0.70694
890.60609,0.68621
889.11630,0.63209
887.62651,0.67049
886.13673,0.68329
884.64694,0.69613
883.15715,0.70789
881.66736,0.68625
880.17757,0.78388
878.68778,0.79797
877.19800,0.81209
875.70821,0.74267
874.21842,0.75018
872.72863,0.84575
871.23884,0.93355
869.74905,0.96512
868.25927,0.99672
866.76948,0.96539
865.27969,0.90066
863.78990,0.90951
862.30011,0.93623
860.81032,0.95518
859.32053,0.97417
857.83075,0.97201
856.34096,1.01335
854.85117,0.84857
853.36138,0.72171
851.87159,0.69238
850.38180,0.66310
848.89202,0.53856
847.40223,0.38621
845.91244,0.35646
844.42265,0.39362
842.93286,0.43080
841.44307,0.33876
839.95329,0.41167
838.46350,0.27512
836.97371,0.22329
835.48392,0.24783
833.99413,0.27240
832.50434,0.38449
831.01455,0.31720
829.52477,0.40038
828.03498,0.28189
826.54519,0.22974
825.05540,0.17763
823.56561,0.16733
822.07582,0.20945
820.58604,0.20926
819.09625,0.17065
817.60646,0.13208
816.11667,0.08184
814.62688,0.06060
813.13709,0.02269
811.64730,0.00264
810.15752,0.04253
808.66773,0.08245
807.17794,0.13968
805.68815,0.13677
804.19836,0.09043
802.70857,0.08424
801.21879,0.07809
799.72900,0.03965
798.23921,0.21410
796.74942,0.37966
795.25963,0.44552
793.76984,0.51141
792.28006,0.41965
790.79027,0.58535
789.30048,0.51594
787.81069,0.55690
786.32090,0.56055
784.83111,0.56424
783.34132,0.63762
781.85154,0.65865
780.36175,0.67414
778.87196,0.67072
777.38217,0.66734
775.89238,0.83003
774.40259,0.91809
772.91281,0.83234
771.42302,0.83634
769.93323,0.84037
768.44344,0.79038
766.95365,0.78389
765.46386,0.93345
763.97407,0.81224
762.48429,0.77967
760.99450,0.74712
759.50471,0.62490
758.01492,0.50495
756.52513,0.34937
755.03534,0.33479
753.54556,0.32025
752.05577,0.25392
750.56598,0.14305
749.07619,0.14699
747.58640,0.14317
746.09661,0.13938
744.60683,0.08771
743.11704,0.00264
741.62725,0.02561
740.13746,0.04360
738.64767,0.06162
737.15788,0.05794
735.66809,0.08551
734.17831,0.05627
732.68852,0.02929
731.19873,0.00235
729.70894,0.07908
728.21915,0.09678
726.72936,0.15575
725.23958,0.09774
723.74979,0.07209
722.26000,0.04646
720.77021,0.12228
719.28042,0.07666
717.79063,0.14364
716.30084,0.12316
714.81106,0.10272
713.32127,0.00264
711.83148,0.08136
710.34169,0.03197
708.85190,0.05894
707.36211,0.08595
705.87233,0.14810
704.38254,0.04869
702.89275,0.05073
701.40296,0.04611
699.91317,0.04153
698.42338,0.08267
696.93360,0.17734
695.44381,0.16283
693.95402,0.16507
692.46423,0.16734
690.97444,0.16296
689.48465,0.17533
687.99486,0.16656
686.50508,0.18568
685.01529,0.20484
683.52550,0.36333
682.03571,0.24326
680.54592,0.29038
679.05613,0.26398
677.56635,0.23762
676.07656,0.14777
674.58677,0.16493
673.09698,0.15316
671.60719,0.14922
670.11740,0.14531
668.62761,0.07346
667.13783,0.06740
665.64804,0.08866
664.15825,0.10997
662.66846,0.14858
661.17867,0.09918
659.68888,0.09328
658.19910,0.11416
656.70931,0.13508
655.21952,0.12594
653.72973,0.21601
652.23994,0.21808
650.75015,0.26309
649.26037,0.30813
647.77058,0.25570
646.28079,0.15204
644.79100,0.07850
643.30121,0.07186
641.81142,0.06526
640.32163,0.06203
638.83185,0.11455
637.34206,0.09690
635.85227,0.04975
634.36248,0.00264
632.87269,0.07133
631.38290,0.08546
629.89312,0.09405
628.40333,0.07481
626.91354,0.05561
625.42375,0.07656
623.93396,0.14546
622.44417,0.15366
620.95438,0.16189
619.46460,0.11611
617.97481,0.16955
616.48502,0.09040
614.99523,0.12886
613.50544,0.16735
612.01565,0.12843
610.52587,0.22438
609.03608,0.16992
607.54629,0.16731
606.05650,0.16474
604.56671,0.24411
603.07692,0.32574
601.58714,0.27925
600.09735,0.23280
598.60756,0.23875
597.11777,0.20351
595.62798,0.07915
594.13819,0.12142
592.64840,0.16373
591.15862,0.13642
589.66883,0.14927
588.17904,0.25464
586.68925,0.20904
585.19946,0.16349
583.70967,0.22884
582.21989,0.22402
580.73010,0.21144
579.24031,0.19889
577.75052,0.27218
576.26073,0.25970
574.77094,0.29294
573.28115,0.28498
571.79137,0.27706
570.30158,0.25579
568.81179,0.28137
567.32200,0.30976
565.83221,0.33819
564.34242,0.42627
562.85264,0.47762
561.36285,0.55573
559.87306,0.55142
558.38327,0.54715
556.89348,0.58191
555.40369,0.69248
553.91391,0.66992
552.42412,0.64739
550.93433,0.71237
549.44454,0.60689
547.95475,0.60954
546.46496,0.64063
544.97517,0.67177
543.48539,0.74806
541.99560,0.74416
540.50581,0.79601
539.01602,0.84789
537.52623,0.76942
536.03644,0.72999
534.54666,0.66274
533.05687,0.65291
531.56708,0.64311
530.07729,0.56815
528.58750,0.60244
527.09771,0.60556
525.60792,0.60872
524.11814,0.62973
522.62835,0.51594
521.13856,0.55374
519.64877,0.52137
518.15898,0.48904
516.66919,0.42219
515.17941,0.34757
513.68962,0.43847
512.19983,0.52941
510.71004,0.48721
509.22025,0.43390
507.73046,0.43857
506.24068,0.44328
504.75089,0.44802
503.26110,0.43497
501.77131,0.37514
500.28152,0.40784
498.79173,0.44058
497.30194,0.41540
495.81216,0.43929
494.32237,0.40025
492.83258,0.36124
491.34279,0.39526
489.85300,0.45383
488.36321,0.38985
486.87343,0.33538
485.38364,0.28094
483.89385,0.30621
482.40406,0.29697
480.91427,0.24041
479.42448,0.18387
477.93469,0.18477
476.44491,0.23472
474.95512,0.20002
473.46533,0.16535
471.97554,0.10621
470.48575,0.18416
468.99596,0.13399
467.50618,0.13456
466.01639,0.13517
464.52660,0.00264
463.03681,0.09185
461.54702,0.12092
460.05723,0.15002
458.56745,0.14684
457.07766,0.13477
455.58787,0.17233
454.09808,0.20993
452.60829,0.26483
451.11850,0.21724
449.62871,0.28725
448.13893,0.35730
446.64914,0.42905
445.15935,0.53427
443.66956,0.52920
442.17977,0.53809
440.68998,0.54701
439.20020,0.67577
437.71041,0.71652
436.22062,0.78795
434.73083,0.85942
433.24104,0.96825
431.75125,1.09717
430.26146,1.11246
428.77168,1.12778
427.28189,1.29915
425.79210,1.36135
424.30231,1.35282
422.81252,1.34432
421.32273,1.30521
419.83295,1.30067
418.34316,1.17304
416.85337,1.04544
415.36358,0.90282
413.87379,0.88171
412.38400,0.83222
410.89422,0.78276
409.40443,0.73834
407.91464,0.67725
406.42485,0.66522
404.93506,0.66716
403.44527,0.66912
401.95548,0.53239
400.46570,0.53052
398.97591,0.53872
397.48612,0.54696
395.99633,0.57974
394.50654,0.57690
393.01675,0.56239
391.52697,0.54791
390.03718,0.39473
388.54739,0.45220
387.05760,0.47516
385.56781,0.49815
384.07802,0.50334
382.58824,0.45731
381.09845,0.40852
379.60866,0.35977
378.11887,0.40856
376.62908,0.35486
375.13929,0.30510
373.64950,0.25537
372.15972,0.28424
370.66993,0.26522
369.18014,0.21726
367.69035,0.16934
366.20056,0.17716
364.71077,0.09476
363.22099,0.17064
361.73120,0.24654
360.24141,0.12747
358.75162,0.22907
357.26183,0.26274
355.77204,0.29643
354.28225,0.21538
352.79247,0.10316
351.30268,0.06731
349.81289,0.03149
348.32310,0.16119
346.83331,0.04465
345.34352,0.02509
343.85374,0.00557
342.36395,0.14133
340.87416,0.20915
339.38437,0.23075
337.89458,0.25239
336.40479,0.18547
334.91501,0.14978
333.42522,0.17208
331.93543,0.19441
330.44564,0.17220
328.95585,0.20908
327.46606,0.16855
325.97627,0.12805
324.48649,0.02351
322.99670,0.11840
321.50691,0.08237
320.01712,0.04639
318.52733,0.15474
317.03754,0.28988
315.54776,0.28241
314.05797,0.27498
312.56818,0.02910
311.07839,0.05182
309.58860,0.02721
308.09881,0.00264
306.60902,0.05586
305.11924,0.05116
303.62945,0.04427
302.13966,0.03742
300.64987,0.06180
299.16008,0.00264
