1778.52000,0.01817
1777.03021,0.02270
1775.54042,0.00719
1774.05063,0.01579
1772.56085,0.00770
1771.07106,0.02974
1769.58127,0.03777
1768.09148,0.00368
1766.60169,0.01043
1765.11190,0.02055
1763.62212,0.02802
1762.13233,0.04155
1760.64254,0.01497
1759.15275,0.03190
1757.66296,0.02478
1756.17317,0.03308
1754.68339,0.02067
1753.19360,0.01832
1751.70381,0.01734
1750.21402,0.00368
1748.72423,0.02180
1747.23444,0.02123
1745.74465,0.01667
1744.25487,0.03555
1742.76508,0.02837
1741.27529,0.05200
1739.78550,0.06361
1738.29571,0.01974
1736.80592,0.01536
1735.31614,0.01569
1733.82635,0.00000
1732.33656,0.04732
1730.84677,0.02912
1729.35698,0.01564
1727.86719,0.01824
1726.37740,0.02889
1724.88762,0.06499
1723.39783,0.01216
1721.90804,0.00552
1720.41825,0.03048
1718.92846,0.01467
1717.43867,0.01094
1715.94889,0.04201
1714.45910,0.02496
1712.96931,0.02131
1711.47952,0.01836
1709.98973,0.03016
1708.49994,0.05336
1707.01016,0.05786
1705.52037,0.06239
1704.03058,0.06829
1702.54079,0.06686
1701.05100,0.08486
1699.56121,0.09018
1698.07142,0.09619
1696.58164,0.13636
1695.09185,0.13909
1693.60206,0.17931
1692.11227,0.16472
1690.62248,0.17356
1689.13269,0.17909
1687.64291,0.16994
1686.15312,0.19827
1684.66333,0.20322
1683.17354,0.18947
1681.68375,0.22057
1680.19396,0.19217
1678.70417,0.18386
1677.21439,0.19766
1675.72460,0.20346
1674.23481,0.18521
1672.74502,0.16432
1671.25523,0.20232
1669.76544,0.18951
1668.27566,0.20081
1666.78587,0.17000
1665.29608,0.15929
1663.80629,0.18674
1662.31650,0.18479
1660.82671,0.18420
1659.33693,0.18163
1657.84714,0.16104
1656.35735,0.14583
1654.86756,0.14135
1653.37777,0.14760
1651.88798,0.16726
1650.39819,0.12742
1648.90841,0.11838
1647.41862,0.10669
1645.92883,0.11410
1644.43904,0.12153
1642.94925,0.09589
1641.45946,0.12513
1639.96968,0.12764
1638.47989,0.14623
1636.99010,0.11536
1635.50031,0.10658
1634.01052,0.12928
1632.52073,0.11723
1631.03094,0.11590
1629.54116,0.13869
1628.05137,0.13944
1626.56158,0.11881
1625.07179,0.19988
1623.58200,0.16192
1622.09221,0.17683
1620.60243,0.16301
1619.11264,0.16460
1617.62285,0.15017
1616.13306,0.13845
1614.64327,0.14883
1613.15348,0.16325
1611.66370,0.14626
1610.17391,0.16209
1608.68412,0.14516
1607.19433,0.13228
1605.70454,0.11809
1604.21475,0.12634
1602.72496,0.13462
1601.23518,0.15196
1599.74539,0.14792
1598.25560,0.10379
1596.76581,0.11453
1595.27602,0.12396
1593.78623,0.11202
1592.29645,0.10813
1590.80666,0.09826
1589.31687,0.07504
1587.82708,0.06121
1586.33729,0.06748
1584.84750,0.10321
1583.35771,0.06004
1581.86793,0.05034
1580.37814,0.08015
1578.88835,0.03774
1577.39856,0.08298
1575.90877,0.04465
1574.41898,0.02975
1572.92920,0.03562
1571.43941,0.03417
1569.94962,0.03174
1568.45983,0.02934
1566.97004,0.05673
1565.48025,0.03734
1563.99047,0.00526
1562.50068,0.00465
1561.01089,0.06562
1559.52110,0.03631
1558.03131,0.03378
1556.54152,0.03597
1555.05173,0.06294
1553.56195,0.04980
1552.07216,0.06680
1550.58237,0.03165
1549.09258,0.05740
1547.60279,0.02432
1546.11300,0.03140
1544.62322,0.01376
1543.13343,0.05168
1541.64364,0.04213
1540.15385,0.03729
1538.66406,0.03248
1537.17427,0.03907
1535.68448,0.01426
1534.19470,0.02158
1532.70491,0.01623
1531.21512,0.01424
1529.72533,0.02500
1528.23554,0.00368
1526.74575,0.05110
1525.25597,0.03767
1523.76618,0.02026
1522.27639,0.03499
1520.78660,0.02768
1519.29681,0.01839
1517.80702,0.01715
1516.31724,0.01394
1514.82745,0.01678
1513.33766,0.02099
1511.84787,0.02523
1510.35808,0.01879
1508.86829,0.03781
1507.37850,0.01270
1505.88872,0.00368
1504.39893,0.03086
1502.90914,0.04269
1501.41935,0.02244
1499.92956,0.03968
1498.43977,0.07835
1496.94999,0.10568
1495.46020,0.15110
1493.97041,0.16110
1492.48062,0.16846
1490.99083,0.26548
1489.50104,0.32038
1488.01125,0.34321
1486.52147,0.36607
1485.03168,0.44247
1483.54189,0.54499
1482.05210,0.58868
1480.56231,0.72537
1479.07252,0.79588
1477.58274,0.83497
1476.09295,0.88011
1474.60316,0.95873
1473.11337,0.98120
1471.62358,1.01238
1470.13379,1.06634
1468.64401,1.01532
1467.15422,0.95161
1465.66443,0.94546
1464.17464,0.93934
1462.68485,0.85031
1461.19506,0.82418
1459.70527,0.80009
1458.21549,0.75797
1456.72570,0.69314
1455.23591,0.63302
1453.74612,0.60570
1452.25633,0.57574
1450.76654,0.53845
1449.27676,0.52059
1447.78697,0.43922
1446.29718,0.46757
1444.80739,0.42506
1443.31760,0.38257
1441.82781,0.35014
1440.33802,0.26825
1438.84824,0.22518
1437.35845,0.19753
1435.86866,0.20268
1434.37887,0.19114
1432.88908,0.18231
1431.39929,0.18354
1429.90951,0.20420
1428.41972,0.18074
1426.92993,0.18875
1425.44014,0.20415
1423.95035,0.20420
1422.46056,0.20427
1420.97078,0.22779
1419.48099,0.27943
1417.99120,0.30033
1416.50141,0.29517
1415.01162,0.31078
1413.52183,0.32307
1412.03204,0.28122
1410.54226,0.30026
1409.05247,0.26783
1407.56268,0.29563
1406.07289,0.24520
1404.58310,0.25366
1403.09331,0.26215
1401.60353,0.28940
1400.11374,0.32404
1398.62395,0.33664
1397.13416,0.33856
1395.64437,0.36660
1394.15458,0.42477
1392.66479,0.41407
1391.17501,0.40006
1389.68522,0.42622
1388.19543,0.42163
1386.70564,0.43113
1385.21585,0.44065
1383.72606,0.42813
1382.23628,0.44306
1380.74649,0.41856
1379.25670,0.39676
1377.76691,0.40510
1376.27712,0.43085
1374.78733,0.43390
1373.29755,0.48379
1371.80776,0.54777
1370.31797,0.69940
1368.82818,0.77648
1367.33839,0.85358
1365.84860,1.09092
1364.35881,1.27010
1362.86903,1.34763
1361.37924,1.39977
1359.88945,1.47469
1358.39966,1.56636
1356.90987,1.67478
1355.42008,1.58123
1353.93030,1.49707
1352.44051,1.44237
1350.95072,1.38770
1349.46093,1.24945
1347.97114,1.06240
1346.48135,0.91216
1344.99156,0.86163
1343.50178,0.77634
1342.01199,0.72386
1340.52220,0.62325
1339.03241,0.55678
1337.54262,0.53181
1336.05283,0.51222
1334.56305,0.49267
1333.07326,0.44973
1331.58347,0.42489
1330.09368,0.45626
1328.60389,0.34652
1327.11410,0.33983
1325.62432,0.33450
1324.13453,0.32586
1322.64474,0.30587
1321.15495,0.33274
1319.66516,0.31917
1318.17537,0.30564
1316.68558,0.26704
1315.19580,0.29604
1313.70601,0.20734
1312.21622,0.21901
1310.72643,0.21130
1309.23664,0.21902
1307.74685,0.21271
1306.25707,0.23253
1304.76728,0.25203
1303.27749,0.27157
1301.78770,0.25536
1300.29791,0.23449
1298.80812,0.20161
1297.31834,0.24501
1295.82855,0.24965
1294.33876,0.20549
1292.84897,0.23360
1291.35918,0.21692
1289.86939,0.23406
1288.37960,0.25122
1286.88982,0.28815
1285.40003,0.24885
1283.91024,0.29988
1282.42045,0.29142
1280.93066,0.27963
1279.44087,0.30200
1277.95109,0.25215
1276.46130,0.26387
1274.97151,0.27093
1273.48172,0.27803
1271.99193,0.32195
1270.50214,0.31706
1269.01235,0.35770
1267.52257,0.32679
1266.03278,0.36213
1264.54299,0.39014
1263.05320,0.41618
1261.56341,0.43656
1260.07362,0.45697
1258.58384,0.47842
1257.09405,0.44237
1255.60426,0.45651
1254.11447,0.45664
1252.62468,0.40262
1251.13489,0.38676
1249.64511,0.37494
1248.15532,0.33840
1246.66553,0.31059
1245.17574,0.28281
1243.68595,0.31258
1242.19616,0.31362
1240.70637,0.25382
1239.21659,0.21144
1237.72680,0.21391
1236.23701,0.17561
1234.74722,0.15539
1233.25743,0.17634
1231.76764,0.19733
1230.27786,0.14577
1228.78807,0.13838
1227.29828,0.12434
1225.80849,0.10096
1224.31870,0.08965
1222.82891,0.04560
1221.33912,0.02833
1219.84934,0.04922
1218.35955,0.07014
1216.86976,0.10581
1215.37997,0.15154
1213.89018,0.12706
1212.40039,0.11131
1210.91061,0.10161
1209.42082,0.07455
1207.93103,0.07695
1206.44124,0.07938
1204.95145,0.03569
1203.46166,0.04955
1201.97188,0.04071
1200.48209,0.06801
1198.99230,0.06591
1197.50251,0.02170
1196.01272,0.01430
1194.52293,0.02233
1193.03314,0.03038
1191.54336,0.00368
1190.05357,0.02866
1188.56378,0.00752
1187.07399,0.00447
1185.58420,0.02218
1184.09441,0.03190
1182.60463,0.01923
1181.11484,0.00660
1179.62505,0.05320
1178.13526,0.05033
1176.64547,0.04882
1175.15568,0.05738
1173.66589,0.08269
1172.17611,0.07727
1170.68632,0.06585
1169.19653,0.05446
1167.70674,0.04110
1166.21695,0.00368
1164.72716,0.06633
1163.23738,0.07014
1161.74759,0.02782
1160.25780,0.04373
1158.76801,0.04395
1157.27822,0.04421
1155.78843,0.04616
1154.29865,0.04948
1152.80886,0.08360
1151.31907,0.02946
1149.82928,0.09307
1148.33949,0.06441
1146.84970,0.07858
1145.35991,0.09279
1143.87013,0.08027
1142.38034,0.11460
1140.89055,0.15231
1139.40076,0.14389
1137.91097,0.18500
1136.42118,0.23150
1134.93140,0.23688
1133.44161,0.24230
1131.95182,0.28286
1130.46203,0.27529
1128.97224,0.25906
1127.48245,0.23951
1125.99266,0.23805
1124.50288,0.31756
1123.01309,0.32118
1121.52330,0.32483
1120.03351,0.37032
1118.54372,0.35831
1117.05393,0.39249
1115.56415,0.41532
1114.07436,0.41009
1112.58457,0.40857
1111.09478,0.40708
1109.60499,0.46548
1108.11520,0.52860
1106.62542,0.49075
1105.13563,0.56463
1103.64584,0.66797
1102.15605,0.71984
1100.66626,0.73093
1099.17647,0.74206
1097.68668,0.77060
1096.19690,0.83998
1094.70711,0.83314
1093.21732,0.89923
1091.72753,0.93660
1090.23774,0.95426
1088.74795,0.97195
1087.25817,0.97261
1085.76838,0.99939
1084.27859,1.05898
1082.78880,1.10388
1081.29901,1.14680
1079.80922,1.09544
1078.31943,1.13876
1076.82965,1.18211
1075.33986,1.16295
1073.85007,1.17258
1072.36028,1.20765
1070.87049,1.28758
1069.38070,1.37155
1067.89092,1.36591
1066.40113,1.36031
1064.91134,1.31995
1063.42155,1.15588
1061.93176,1.09351
1060.44197,1.04588
1058.95219,1.01166
1057.46240,0.97681
1055.97261,0.94198
1054.48282,0.85234
1052.99303,0.79817
1051.50324,0.76143
1050.01345,0.71469
1048.52367,0.61112
1047.03388,0.58650
1045.54409,0.56192
1044.05430,0.54741
1042.56451,0.54964
1041.07472,0.45692
1039.58494,0.41574
1038.09515,0.38127
1036.60536,0.36289
1035.11557,0.34454
1033.62578,0.31820
1032.13599,0.31529
1030.64620,0.34920
1029.15642,0.36709
1027.66663,0.36428
1026.17684,0.36149
1024.68705,0.51459
1023.19726,0.56070
1021.70747,0.75065
1020.21769,0.95802
1018.72790,1.07579
1017.23811,1.22435
1015.74832,1.37295
1014.25853,1.52961
1012.76874,1.72174
1011.27896,1.80621
1009.78917,1.94089
1008.29938,2.00000
1006.80959,1.95680
1005.31980,1.91364
1003.83001,1.77552
1002.34022,1.71167
1000.85044,1.62913
999.36065,1.51117
997.87086,1.46916
996.38107,1.42717
994.89128,1.36950
993.40149,1.37340
991.91171,1.38335
990.42192,1.35787
988.93213,1.35183
987.44234,1.29899
985.95255,1.24618
984.46276,1.27434
982.97297,1.26975
981.48319,1.18291
979.99340,1.14160
978.50361,1.14546
977.01382,1.14936
975.52403,1.04592
974.03424,1.00874
972.54446,0.94215
971.05467,0.91573
969.56488,0.87864
968.07509,0.82184
966.58530,0.76508
965.09551,0.76620
963.60573,0.81418
962.11594,0.70299
960.62615,0.69685
959.13636,0.66866
957.64657,0.64050
956.15678,0.61907
954.66699,0.55284
953.17721,0.59233
951.68742,0.57099
950.19763,0.57877
948.70784,0.58658
947.21805,0.59408
945.72826,0.51600
944.23848,0.56571
942.74869,0.60875
941.25890,0.63444
939.76911,0.62604
938.27932,0.61768
936.78953,0.69362
935.29974,0.67595
933.80996,0.69042
932.32017,0.70090
930.83038,0.72078
929.34059,0.74068
927.85080,0.77534
926.36101,0.73979
924.87123,0.73169
923.38144,0.63198
921.89165,0.67110
920.40186,0.71026
918.91207,0.71031
917.42228,0.68631
915.93250,0.66368
914.44271,0.72001
912.95292,0.72185
911.46313,0.72372
909.97334,0.74335
908.48355,0.79044
906.99376,0.87300
905.50398,0.80844
904.01419,0.81883
902.52440,0.82924
901.03461,0.86511
899.54482,0.85284
898.05503,0.85666
896.56525,0.89796
895.07546,0.89682
893.58567,0.89571
892.09588,0.81336
890.60609,0.93037
889.11630,0.88153
887.62651,0.87418
886.13673,0.86185
884.64694,0.84955
883.15715,0.83628
881.66736,0.78558
880.17757,0.81116
878.68778,0.81203
877.19800,0.81292
875.70821,0.80046
874.21842,0.80343
872.72863,0.91545
871.23884,0.90977
869.74905,0.91851
868.25927,0.92727
866.76948,0.94443
865.27969,0.90410
863.78990,0.93937
862.30011,0.93054
860.81032,0.89196
859.32053,0.85342
857.83075,0.86875
856.34096,0.81923
854.85117,0.81321
853.36138,0.65740
851.87159,0.63238
850.38180,0.60740
848.89202,0.57475
847.40223,0.44246
845.91244,0.36171
844.42265,0.34822
842.93286,0.33476
841.44307,0.34774
839.95329,0.32397
838.46350,0.24805
836.97371,0.25846
835.48392,0.25250
833.99413,0.24657
832.50434,0.24369
831.01455,0.25287
829.52477,0.27680
828.03498,0.25394
826.54519,0.23880
825.05540,0.22369
823.56561,0.17082
822.07582,0.15008
820.58604,0.10463
819.09625,0.11105
817.60646,0.11749
816.11667,0.06811
814.62688,0.04418
813.13709,0.04437
811.64730,0.00377
810.15752,0.00368
808.66773,0.00329
807.17794,0.00393
805.68815,0.04808
804.19836,0.07153
802.70857,0.10738
801.21879,0.14326
799.72900,0.13937
798.23921,0.24052
796.74942,0.34372
795.25963,0.38373
793.76984,0.42378
792.28006,0.47556
790.79027,0.57352
789.30048,0.59258
787.81069,0.58492
786.32090,0.60772
784.83111,0.63056
783.34132,0.70258
781.85154,0.64287
780.36175,0.71897
778.87196,0.73055
777.38217,0.74216
775.89238,0.76685
774.40259,0.89324
772.91281,0.88119
771.42302,0.89427
769.93323,0.90737
768.44344,0.87066
766.95365,0.88014
765.46386,0.89233
763.97407,0.85037
762.48429,0.76529
760.99450,0.68024
759.50471,0.54673
758.01492,0.49151
756.52513,0.39618
755.03534,0.35540
753.54556,0.31465
752.05577,0.24684
750.56598,0.21251
749.07619,0.12202
747.58640,0.11416
746.09661,0.10634
744.60683,0.08952
743.11704,0.09413
741.62725,0.05463
740.13746,0.04625
738.64767,0.03791
737.15788,0.04733
735.66809,0.05744
734.17831,0.00672
732.68852,0.00518
731.19873,0.00368
729.70894,0.05143
728.21915,0.05371
726.72936,0.03396
725.23958,0.01089
723.74979,0.01728
722.26000,0.02371
720.77021,0.04822
719.28042,0.01055
717.79063,0.04216
716.30084,0.04069
714.81106,0.03925
713.32127,0.04152
711.83148,0.00368
710.34169,0.02050
708.85190,0.02530
707.36211,0.03014
705.87233,0.02631
704.38254,0.01515
702.89275,0.03017
701.40296,0.02081
699.91317,0.01147
698.42338,0.05869
696.93360,0.02633
695.44381,0.07562
693.95402,0.09249
692.46423,0.10939
690.97444,0.10324
689.48465,0.10917
687.99486,0.15258
686.50508,0.15890
685.01529,0.16525
683.52550,0.18401
682.03571,0.20948
680.54592,0.17344
679.05613,0.17356
677.56635,0.17371
676.07656,0.13040
674.58677,0.08914
673.09698,0.06730
671.60719,0.07292
670.11740,0.07856
668.62761,0.04946
667.13783,0.04312
665.64804,0.03448
664.15825,0.02587
662.66846,0.05106
661.17867,0.04619
659.68888,0.06007
658.19910,0.06462
656.70931,0.06920
655.21952,0.08853
653.72973,0.10655
652.23994,0.05503
650.75015,0.05839
649.26037,0.06179
647.77058,0.10267
646.28079,0.09274
644.79100,0.05141
643.30121,0.03620
641.81142,0.02101
640.32163,0.07208
638.83185,0.06431
637.34206,0.01710
635.85227,0.01663
634.36248,0.01618
632.87269,0.04519
631.38290,0.03276
629.89312,0.05448
628.40333,0.02906
626.91354,0.00368
625.42375,0.02113
623.93396,0.06938
622.44417,0.06046
620.95438,0.05158
619.46460,0.09657
617.97481,0.08608
616.48502,0.11173
614.99523,0.09628
613.50544,0.08086
612.01565,0.09724
610.52587,0.09826
609.03608,0.10801
607.54629,0.11545
606.05650,0.12293
604.56671,0.12809
603.07692,0.15200
601.58714,0.15221
600.09735,0.15244
598.60756,0.12695
597.11777,0.09480
595.62798,0.14028
594.13819,0.10919
592.64840,0.07814
591.15862,0.09962
589.66883,0.12181
588.17904,0.07111
586.68925,0.06827
585.19946,0.06546
583.70967,0.08107
582.21989,0.09337
580.73010,0.11373
579.24031,0.13412
577.75052,0.11975
576.26073,0.15358
574.77094,0.15265
573.28115,0.15209
571.79137,0.15156
570.30158,0.16544
568.81179,0.20209
567.32200,0.22205
565.83221,0.24204
564.34242,0.29751
562.85264,0.27073
561.36285,0.40988
559.87306,0.41661
558.38327,0.42337
556.89348,0.45826
555.40369,0.46909
553.91391,0.47895
552.42412,0.48885
550.93433,0.54660
549.44454,0.56424
547.95475,0.62406
546.46496,0.59092
544.97517,0.55782
543.48539,0.61171
541.99560,0.66897
540.50581,0.69081
539.01602,0.71268
537.52623,0.67772
536.03644,0.60600
534.54666,0.68214
533.05687,0.64259
531.56708,0.60307
530.07729,0.57161
528.58750,0.55757
527.09771,0.57366
525.60792,0.58978
524.11814,0.54840
522.62835,0.56793
521.13856,0.52327
519.64877,0.49971
518.15898,0.47618
516.66919,0.42693
515.17941,0.41316
513.68962,0.38069
512.19983,0.34825
510.71004,0.38407
509.22025,0.32961
507.73046,0.37686
506.24068,0.38836
504.75089,0.39988
503.26110,0.37297
501.77131,0.32670
500.28152,0.34701
498.79173,0.36735
497.30194,0.34859
495.81216,0.33588
494.32237,0.33557
492.83258,0.33530
491.34279,0.33338
489.85300,0.31477
488.36321,0.26676
486.87343,0.23149
485.38364,0.19625
483.89385,0.20987
482.40406,0.15060
480.91427,0.12548
479.42448,0.10040
477.93469,0.10009
476.44491,0.11051
474.95512,0.08485
473.46533,0.05921
471.97554,0.06571
470.48575,0.02007
468.99596,0.08549
467.50618,0.07770
466.01639,0.06994
464.52660,0.00368
463.03681,0.09762
461.54702,0.11568
460.05723,0.13376
458.56745,0.12545
457.07766,0.07168
455.58787,0.10223
454.09808,0.13281
452.60829,0.19887
451.11850,0.17733
449.62871,0.16787
448.13893,0.15843
446.64914,0.24468
445.15935,0.30420
443.66956,0.45004
442.17977,0.47784
440.68998,0.50568
439.20020,0.58807
437.71041,0.60158
436.22062,0.62951
434.73083,0.65747
433.24104,0.82760
431.75125,0.87602
430.26146,0.94019
428.77168,1.00439
427.28189,1.10708
425.79210,1.18840
424.30231,1.17443
422.81252,1.16049
421.32273,1.13487
419.83295,1.02233
418.34316,0.95028
416.85337,0.87826
415.36358,0.75578
413.87379,0.74770
412.38400,0.69484
410.89422,0.64201
409.40443,0.58586
407.91464,0.63410
406.42485,0.55527
404.93506,0.55239
403.44527,0.54954
401.95548,0.51897
400.46570,0.45564
398.97591,0.46459
397.48612,0.47357
395.99633,0.46920
394.50654,0.50433
393.01675,0.51239
391.52697,0.52049
390.03718,0.41657
388.54739,0.34011
387.05760,0.37539
385.56781,0.41070
384.07802,0.44202
382.58824,0.40113
381.09845,0.39104
379.60866,0.38098
378.11887,0.34019
376.62908,0.31012
375.13929,0.28142
373.64950,0.25276
372.15972,0.24218
370.66993,0.20354
369.18014,0.16861
367.69035,0.13371
366.20056,0.10519
364.71077,0.11416
363.22099,0.14089
361.73120,0.16765
360.24141,0.14259
358.75162,0.15169
357.26183,0.13539
355.77204,0.11912
354.28225,0.07479
352.79247,0.05458
351.30268,0.05378
349.81289,0.05302
348.32310,0.10112
346.83331,0.08102
345.34352,0.05928
343.85374,0.03757
342.36395,0.02091
340.87416,0.07390
339.38437,0.08846
337.89458,0.10305
336.40479,0.11801
334.91501,0.05072
333.42522,0.03898
331.93543,0.02727
330.44564,0.10990
328.95585,0.09090
327.46606,0.06356
325.97627,0.03625
324.48649,0.03759
322.99670,0.03295
321.50691,0.01830
320.01712,0.00368
318.52733,0.06209
317.03754,0.11117
315.54776,0.11713
314.05797,0.12312
312.56818,0.10139
311.07839,0.04757
309.58860,0.02656
308.09881,0.00559
306.60902,0.02009
305.11924,0.06205
303.62945,0.03548
302.13966,0.00893
300.64987,0.03071
299.16008,0.00368
