1778.52000,0.03302
1777.03021,0.02782
1775.54042,0.03568
1774.05063,0.01995
1772.56085,0.03521
1771.07106,0.00000
1769.58127,0.02998
1768.09148,0.04777
1766.60169,0.04034
1765.11190,0.02969
1763.62212,0.04188
1762.13233,0.05328
1760.64254,0.04517
1759.15275,0.03220
1757.66296,0.02823
1756.17317,0.01125
1754.68339,0.00082
1753.19360,0.02137
1751.70381,0.02810
1750.21402,0.01696
1748.72423,0.03190
1747.23444,0.00208
1745.74465,0.01709
1744.25487,0.02724
1742.76508,0.04312
1741.27529,0.02564
1739.78550,0.04485
1738.29571,0.04128
1736.80592,0.02878
1735.31614,0.01225
1733.82635,0.00959
1732.33656,0.04198
1730.84677,0.02961
1729.35698,0.02949
1727.86719,0.02044
1726.37740,0.02283
1724.88762,0.00407
1723.39783,0.00000
1721.90804,0.01043
1720.41825,0.00543
1718.92846,0.00859
1717.43867,0.01993
1715.94889,0.05004
1714.45910,0.04760
1712.96931,0.05985
1711.47952,0.04118
1709.98973,0.07793
1708.49994,0.08376
1707.01016,0.07293
1705.52037,0.06212
1704.03058,0.08352
1702.54079,0.11473
1701.05100,0.11175
1699.56121,0.11126
1698.07142,0.12138
1696.58164,0.12502
1695.09185,0.13276
1693.60206,0.16578
1692.11227,0.19232
1690.62248,0.22866
1689.13269,0.21210
1687.64291,0.23303
1686.15312,0.25562
1684.66333,0.25218
1683.17354,0.25284
1681.68375,0.23888
1680.19396,0.24205
1678.70417,0.23711
1677.21439,0.23871
1675.72460,0.22976
1674.23481,0.20211
1672.74502,0.21928
1671.25523,0.23078
1669.76544,0.23988
1668.27566,0.22294
1666.78587,0.21906
1665.29608,0.18101
1663.80629,0.19186
1662.31650,0.21739
1660.82671,0.16152
1659.33693,0.17816
1657.84714,0.19239
1656.35735,0.17082
1654.86756,0.22013
1653.37777,0.16849
1651.88798,0.17226
1650.39819,0.19723
1648.90841,0.16523
1647.41862,0.13245
1645.92883,0.13145
1644.43904,0.13049
1642.94925,0.11327
1641.45946,0.15065
1639.96968,0.20517
1638.47989,0.18234
1636.99010,0.15222
1635.50031,0.13598
1634.01052,0.16211
1632.52073,0.12883
1631.03094,0.11105
1629.54116,0.18044
1628.05137,0.13340
1626.56158,0.18168
1625.07179,0.17462
1623.58200,0.18306
1622.09221,0.18664
1620.60243,0.17967
1619.11264,0.21182
1617.62285,0.17722
1616.13306,0.19803
1614.64327,0.17245
1613.15348,0.18192
1611.66370,0.18817
1610.17391,0.16187
1608.68412,0.12339
1607.19433,0.15335
1605.70454,0.13610
1604.21475,0.14169
1602.72496,0.14732
1601.23518,0.13424
1599.74539,0.15051
1598.25560,0.11387
1596.76581,0.11473
1595.27602,0.11237
1593.78623,0.11899
1592.29645,0.10855
1590.80666,0.09650
1589.31687,0.11218
1587.82708,0.06844
1586.33729,0.10698
1584.84750,0.09832
1583.35771,0.06445
1581.86793,0.09494
1580.37814,0.10510
1578.88835,0.05585
1577.39856,0.11657
1575.90877,0.04376
1574.41898,0.07930
1572.92920,0.05705
1571.43941,0.00388
1569.94962,0.01630
1568.45983,0.02875
1566.97004,0.06119
1565.48025,0.00000
1563.99047,0.01801
1562.50068,0.04258
1561.01089,0.08101
1559.52110,0.06980
1558.03131,0.07736
1556.54152,0.05562
1555.05173,0.08116
1553.56195,0.07822
1552.07216,0.06798
1550.58237,0.05289
1549.09258,0.01828
1547.60279,0.03827
1546.11300,0.07865
1544.62322,0.08241
1543.13343,0.05037
1541.64364,0.06235
1540.15385,0.04707
1538.66406,0.03182
1537.17427,0.02922
1535.68448,0.01608
1534.19470,0.00214
1532.70491,0.02570
1531.21512,0.01591
1529.72533,0.01266
1528.23554,0.02002
1526.74575,0.03557
1525.25597,0.01205
1523.76618,0.04802
1522.27639,0.04330
1520.78660,0.04023
1519.29681,0.04535
1517.80702,0.00000
1516.31724,0.02793
1514.82745,0.03878
1513.33766,0.02687
1511.84787,0.01498
1510.35808,0.00313
1508.86829,0.01818
1507.37850,0.02512
1505.88872,0.01173
1504.39893,0.00489
1502.90914,0.04450
1501.41935,0.01411
1499.92956,0.02365
1498.43977,0.06009
1496.94999,0.11612
1495.46020,0.08911
1493.97041,0.14764
1492.48062,0.19724
1490.99083,0.26317
1489.50104,0.30795
1488.01125,0.34543
1486.52147,0.38295
1485.03168,0.49542
1483.54189,0.54684
1482.05210,0.58689
1480.56231,0.76054
1479.07252,0.85685
1477.58274,0.89862
1476.09295,0.94287
1474.60316,1.04742
1473.11337,1.11861
1471.62358,1.13608
1470.13379,1.16091
1468.64401,1.11410
1467.15422,1.10153
1465.66443,1.07067
1464.17464,1.03984
1462.68485,1.03062
1461.19506,0.97012
1459.70527,0.90966
1458.21549,0.89158
1456.72570,0.79127
1455.23591,0.73335
1453.74612,0.73817
1452.25633,0.71044
1450.76654,0.61759
1449.27676,0.65996
1447.78697,0.60056
1446.29718,0.53387
1444.80739,0.50345
1443.31760,0.47305
1441.82781,0.42274
1440.33802,0.37572
1438.84824,0.32873
1437.35845,0.27770
1435.86866,0.26904
1434.37887,0.29870
1432.88908,0.27464
1431.39929,0.24817
1429.90951,0.22905
1428.41972,0.26617
1426.92993,0.24060
1425.44014,0.25904
1423.95035,0.27101
1422.46056,0.28300
1420.97078,0.29176
1419.48099,0.33884
1417.99120,0.39164
1416.50141,0.31825
1415.01162,0.32063
1413.52183,0.36783
1412.03204,0.29534
1410.54226,0.32632
1409.05247,0.34836
1407.56268,0.28574
1406.07289,0.24759
1404.58310,0.26770
1403.09331,0.28783
1401.60353,0.31900
1400.11374,0.34205
1398.62395,0.35699
1397.13416,0.31902
1395.64437,0.43338
1394.15458,0.42317
1392.66479,0.39100
1391.17501,0.41424
1389.68522,0.45705
1388.19543,0.41602
1386.70564,0.41696
1385.21585,0.41793
1383.72606,0.36314
1382.23628,0.36947
1380.74649,0.37664
1379.25670,0.35208
1377.76691,0.39189
1376.27712,0.36903
1374.78733,0.45125
1373.29755,0.50500
1371.80776,0.67362
1370.31797,0.74209
1368.82818,0.78901
1367.33839,0.83597
1365.84860,1.04543
1364.35881,1.15719
1362.86903,1.29342
1361.37924,1.27494
1359.88945,1.40878
1358.39966,1.44982
1356.90987,1.52346
1355.42008,1.50022
1353.93030,1.49004
1352.44051,1.37199
1350.95072,1.25396
1349.46093,1.16895
1347.97114,1.02452
1346.48135,0.97215
1344.99156,0.84570
1343.50178,0.85529
1342.01199,0.75008
1340.52220,0.68399
1339.03241,0.59187
1337.54262,0.56249
1336.05283,0.55758
1334.56305,0.55270
1333.07326,0.51201
1331.58347,0.48439
1330.09368,0.45598
1328.60389,0.39910
1327.11410,0.41474
1325.62432,0.35792
1324.13453,0.39642
1322.64474,0.33397
1321.15495,0.36194
1319.66516,0.34231
1318.17537,0.32271
1316.68558,0.34263
1315.19580,0.36504
1313.70601,0.30440
1312.21622,0.28614
1310.72643,0.25245
1309.23664,0.31407
1307.74685,0.30161
1306.25707,0.30628
1304.76728,0.32320
1303.27749,0.34015
1301.78770,0.29036
1300.29791,0.28050
1298.80812,0.27230
1297.31834,0.23725
1295.82855,0.24948
1294.33876,0.32607
1292.84897,0.27728
1291.35918,0.26923
1289.86939,0.28443
1288.37960,0.29967
1286.88982,0.36746
1285.40003,0.32289
1283.91024,0.39563
1282.42045,0.35032
1280.93066,0.37833
1279.44087,0.39253
1277.95109,0.36685
1276.46130,0.35424
1274.97151,0.36853
1273.48172,0.38286
1271.99193,0.37685
1270.50214,0.45232
1269.01235,0.44394
1267.52257,0.46002
1266.03278,0.44844
1264.54299,0.50530
1263.05320,0.57278
1261.56341,0.56659
1260.07362,0.56043
1258.58384,0.52865
1257.09405,0.58160
1255.60426,0.54825
1254.11447,0.54914
1252.62468,0.48735
1251.13489,0.45572
1249.64511,0.45752
1248.15532,0.41863
1246.66553,0.45592
1245.17574,0.49323
1243.68595,0.39417
1242.19616,0.40916
1240.70637,0.35576
1239.21659,0.27797
1237.72680,0.24663
1236.23701,0.25034
1234.74722,0.21662
1233.25743,0.22487
1231.76764,0.23315
1230.27786,0.18242
1228.78807,0.18466
1227.29828,0.24638
1225.80849,0.18760
1224.31870,0.15654
1222.82891,0.09945
1221.33912,0.11081
1219.84934,0.13278
1218.35955,0.15479
1216.86976,0.13447
1215.37997,0.17853
1213.89018,0.15991
1212.40039,0.17226
1210.91061,0.15207
1209.42082,0.11156
1207.93103,0.09428
1206.44124,0.07704
1204.95145,0.13272
1203.46166,0.07686
1201.97188,0.02591
1200.48209,0.06946
1198.99230,0.06419
1197.50251,0.05243
1196.01272,0.05617
1194.52293,0.04692
1193.03314,0.03770
1191.54336,0.00000
1190.05357,0.03464
1188.56378,0.00741
1187.07399,0.01523
1185.58420,0.03286
1184.09441,0.04075
1182.60463,0.04704
1181.11484,0.05336
1179.62505,0.06460
1178.13526,0.02293
1176.64547,0.03260
1175.15568,0.10420
1173.66589,0.09602
1172.17611,0.09113
1170.68632,0.04555
1169.19653,0.00000
1167.70674,0.01991
1166.21695,0.02845
1164.72716,0.05983
1163.23738,0.03586
1161.74759,0.03146
1160.25780,0.04827
1158.76801,0.05249
1157.27822,0.05674
1155.78843,0.06713
1154.29865,0.05720
1152.80886,0.08801
1151.31907,0.06347
1149.82928,0.12204
1148.33949,0.10571
1146.84970,0.10856
1145.35991,0.11143
1143.87013,0.08542
1142.38034,0.16858
1140.89055,0.15892
1139.40076,0.20224
1137.91097,0.22685
1136.42118,0.28163
1134.93140,0.29612
1133.44161,0.31065
1131.95182,0.33376
1130.46203,0.31292
1128.97224,0.31248
1127.48245,0.33813
1125.99266,0.37032
1124.50288,0.38382
1123.01309,0.39327
1121.52330,0.40276
1120.03351,0.48801
1118.54372,0.48046
1117.05393,0.44117
1115.56415,0.44997
1114.07436,0.50115
1112.58457,0.50512
1111.09478,0.50913
1109.60499,0.51642
1108.11520,0.57587
1106.62542,0.57019
1105.13563,0.68427
1103.64584,0.74870
1102.15605,0.83515
1100.66626,0.85525
1099.17647,0.87539
1097.68668,0.84710
1096.19690,0.85468
1094.70711,0.86310
1093.21732,0.94078
1091.72753,0.94275
1090.23774,0.95982
1088.74795,0.97692
1087.25817,1.07020
1085.76838,1.09347
1084.27859,1.11189
1082.78880,1.23621
1081.29901,1.25224
1079.80922,1.15918
1078.31943,1.20175
1076.82965,1.24435
1075.33986,1.22305
1073.85007,1.25227
1072.36028,1.19113
1070.87049,1.39062
1069.38070,1.44845
1067.89092,1.46884
1066.40113,1.48926
1064.91134,1.31100
1063.42155,1.14091
1061.93176,1.19808
1060.44197,1.09891
1058.95219,0.98348
1057.46240,0.97600
1055.97261,0.96854
1054.48282,0.93791
1052.99303,0.86251
1051.50324,0.77575
1050.01345,0.68250
1048.52367,0.62593
1047.03388,0.62315
1045.54409,0.62039
1044.05430,0.68526
1042.56451,0.53842
1041.07472,0.50074
1039.58494,0.42970
1038.09515,0.37987
1036.60536,0.33170
1035.11557,0.28356
1033.62578,0.34051
1032.13599,0.35921
1030.64620,0.33967
1029.15642,0.37554
1027.66663,0.39393
1026.17684,0.41235
1024.68705,0.49066
1023.19726,0.60402
1021.70747,0.71416
1020.21769,0.90577
1018.72790,1.06158
1017.23811,1.16122
1015.74832,1.26090
1014.25853,1.52919
1012.76874,1.64277
1011.27896,1.81665
1009.78917,1.90505
1008.29938,2.00000
1006.80959,1.96752
1005.31980,1.93508
1003.83001,1.83385
1002.34022,1.76604
1000.85044,1.67383
999.36065,1.55722
997.87086,1.55873
996.38107,1.56027
994.89128,1.47226
993.40149,1.47060
991.91171,1.43070
990.42192,1.42260
988.93213,1.44140
987.44234,1.46349
985.95255,1.48561
984.46276,1.47682
982.97297,1.49167
981.48319,1.50738
979.99340,1.44330
978.50361,1.39554
977.01382,1.34781
975.52403,1.26428
974.03424,1.23371
972.54446,1.20155
971.05467,1.10264
969.56488,1.06485
968.07509,1.06047
966.58530,1.05612
965.09551,1.03797
963.60573,0.98726
962.11594,0.92845
960.62615,0.84605
959.13636,0.83127
957.64657,0.81653
956.15678,0.83032
954.66699,0.73420
953.17721,0.70408
951.68742,0.73914
950.19763,0.75225
948.70784,0.76538
947.21805,0.64417
945.72826,0.66389
944.23848,0.73005
942.74869,0.79055
941.25890,0.75009
939.76911,0.77523
938.27932,0.80039
936.78953,0.84554
935.29974,0.78403
933.80996,0.84716
932.32017,0.82074
930.83038,0.84769
929.34059,0.87467
927.85080,0.85242
926.36101,0.88231
924.87123,0.80555
923.38144,0.74430
921.89165,0.75148
920.40186,0.75870
918.91207,0.77654
917.42228,0.80907
915.93250,0.78951
914.44271,0.80092
912.95292,0.81481
911.46313,0.82874
909.97334,0.83699
908.48355,0.87215
906.99376,0.84789
905.50398,0.79353
904.01419,0.78399
902.52440,0.77448
901.03461,0.80573
899.54482,0.79465
898.05503,0.80235
896.56525,0.80925
895.07546,0.86098
893.58567,0.91275
892.09588,0.85460
890.60609,0.88443
889.11630,0.75061
887.62651,0.82041
886.13673,0.79863
884.64694,0.77688
883.15715,0.84841
881.66736,0.85726
880.17757,0.84985
878.68778,0.87668
877.19800,0.90354
875.70821,0.84574
874.21842,0.87837
872.72863,0.95663
871.23884,0.98362
869.74905,1.01023
868.25927,1.03688
866.76948,1.03708
865.27969,0.96240
863.78990,1.01153
862.30011,1.01916
860.81032,1.03456
859.32053,1.04999
857.83075,1.00234
856.34096,0.95472
854.85117,0.89002
853.36138,0.77894
851.87159,0.73467
850.38180,0.69043
848.89202,0.56152
847.40223,0.38949
845.91244,0.40154
844.42265,0.42909
842.93286,0.45668
841.44307,0.38819
839.95329,0.33766
838.46350,0.28716
836.97371,0.31650
835.48392,0.31940
833.99413,0.32234
832.50434,0.30861
831.01455,0.32097
829.52477,0.33337
828.03498,0.27006
826.54519,0.27396
825.05540,0.27790
823.56561,0.18862
822.07582,0.22968
820.58604,0.16571
819.09625,0.12498
817.60646,0.08429
816.11667,0.10674
814.62688,0.08280
813.13709,0.03039
811.64730,0.00000
810.15752,0.01271
808.66773,0.02545
807.17794,0.03864
805.68815,0.11049
804.19836,0.01053
802.70857,0.08244
801.21879,0.15438
799.72900,0.15551
798.23921,0.21041
796.74942,0.39484
795.25963,0.40909
793.76984,0.42337
792.28006,0.48165
790.79027,0.59698
789.30048,0.54213
787.81069,0.55898
786.32090,0.58075
784.83111,0.60254
783.34132,0.63333
781.85154,0.68614
780.36175,0.71373
778.87196,0.72425
777.38217,0.73481
775.89238,0.81706
774.40259,0.79021
772.91281,0.88393
771.42302,0.87425
769.93323,0.86460
768.44344,0.80367
766.95365,0.82829
765.46386,0.90913
763.97407,0.83771
762.48429,0.78832
760.99450,0.73895
759.50471,0.57234
758.01492,0.50756
756.52513,0.39151
755.03534,0.34593
753.54556,0.30038
752.05577,0.22270
750.56598,0.19066
749.07619,0.11874
747.58640,0.09938
746.09661,0.08005
744.60683,0.04732
743.11704,0.07489
741.62725,0.05851
740.13746,0.05885
738.64767,0.05923
737.15788,0.03235
735.66809,0.04705
734.17831,0.01046
732.68852,0.02562
731.19873,0.04082
729.70894,0.03935
728.21915,0.02243
726.72936,0.09677
725.23958,0.08887
723.74979,0.05821
722.26000,0.02758
720.77021,0.07679
719.28042,0.06902
717.79063,0.08898
716.30084,0.08291
714.81106,0.07686
713.32127,0.00000
711.83148,0.00060
710.34169,0.02974
708.85190,0.03610
707.36211,0.04250
705.87233,0.06033
704.38254,0.05539
702.89275,0.05699
701.40296,0.06229
699.91317,0.06762
698.42338,0.06769
696.93360,0.10200
695.44381,0.09317
693.95402,0.11247
692.46423,0.13181
690.97444,0.10272
689.48465,0.17546
687.99486,0.17900
686.50508,0.18258
685.01529,0.18619
683.52550,0.22160
682.03571,0.20003
680.54592,0.18256
679.05613,0.16593
677.56635,0.14934
676.07656,0.16047
674.58677,0.06820
673.09698,0.09324
671.60719,0.09061
670.11740,0.08802
668.62761,0.05452
667.13783,0.06991
665.64804,0.04257
664.15825,0.01527
662.66846,0.07636
661.17867,0.12201
659.68888,0.04634
658.19910,0.06884
656.70931,0.09138
655.21952,0.10539
653.72973,0.11536
652.23994,0.15387
650.75015,0.14354
649.26037,0.13325
647.77058,0.14742
646.28079,0.07937
644.79100,0.02356
643.30121,0.01176
641.81142,0.00000
640.32163,0.03846
638.83185,0.03216
637.34206,0.03730
635.85227,0.02210
634.36248,0.00694
632.87269,0.02031
631.38290,0.01091
629.89312,0.06099
628.40333,0.03048
626.91354,0.00000
625.42375,0.03642
623.93396,0.05007
622.44417,0.05520
620.95438,0.06036
619.46460,0.05944
617.97481,0.05204
616.48502,0.05445
614.99523,0.06503
613.50544,0.07564
612.01565,0.04149
610.52587,0.08311
609.03608,0.08893
607.54629,0.09682
606.05650,0.10474
604.56671,0.12613
603.07692,0.09298
601.58714,0.10507
600.09735,0.11718
598.60756,0.04260
597.11777,0.08124
595.62798,0.08897
594.13819,0.07678
592.64840,0.06463
591.15862,0.01137
589.66883,0.10474
588.17904,0.07924
586.68925,0.05418
585.19946,0.02915
583.70967,0.09414
582.21989,0.08994
580.73010,0.09758
579.24031,0.10525
577.75052,0.18177
576.26073,0.11579
574.77094,0.15329
573.28115,0.15375
571.79137,0.15425
570.30158,0.13809
568.81179,0.24818
567.32200,0.27239
565.83221,0.29664
564.34242,0.36204
562.85264,0.33626
561.36285,0.46362
559.87306,0.48391
558.38327,0.50424
556.89348,0.52256
555.40369,0.58489
553.91391,0.60572
552.42412,0.62658
550.93433,0.60105
549.44454,0.59347
547.95475,0.65270
546.46496,0.65089
544.97517,0.64910
543.48539,0.64083
541.99560,0.68064
540.50581,0.72904
539.01602,0.77747
537.52623,0.72534
536.03644,0.58041
534.54666,0.65133
533.05687,0.63554
531.56708,0.61979
530.07729,0.56864
528.58750,0.53299
527.09771,0.54380
525.60792,0.55464
524.11814,0.53945
522.62835,0.54465
521.13856,0.50509
519.64877,0.49529
518.15898,0.48552
516.66919,0.40696
515.17941,0.42291
513.68962,0.39817
512.19983,0.37345
510.71004,0.38461
509.22025,0.32738
507.73046,0.38665
506.24068,0.38772
504.75089,0.38882
503.26110,0.43434
501.77131,0.37727
500.28152,0.35851
498.79173,0.33978
497.30194,0.33005
495.81216,0.36758
494.32237,0.35261
492.83258,0.33767
491.34279,0.34516
489.85300,0.33640
488.36321,0.23971
486.87343,0.23141
485.38364,0.22315
483.89385,0.19252
482.40406,0.20427
480.91427,0.15050
479.42448,0.09675
477.93469,0.09150
476.44491,0.09442
474.95512,0.11650
473.46533,0.13863
471.97554,0.03251
470.48575,0.05266
468.99596,0.12984
467.50618,0.08042
466.01639,0.03103
464.52660,0.00000
463.03681,0.03912
461.54702,0.07706
460.05723,0.11502
458.56745,0.09316
457.07766,0.14381
455.58787,0.16884
454.09808,0.19390
452.60829,0.22022
451.11850,0.22050
449.62871,0.25339
448.13893,0.28631
446.64914,0.37302
445.15935,0.41822
443.66956,0.53513
442.17977,0.55596
440.68998,0.57682
439.20020,0.65147
437.71041,0.70090
436.22062,0.75036
434.73083,0.79986
433.24104,0.97888
431.75125,1.05857
430.26146,1.10286
428.77168,1.14719
427.28189,1.28724
425.79210,1.31819
424.30231,1.32882
422.81252,1.33947
421.32273,1.32084
419.83295,1.13936
418.34316,1.10124
416.85337,1.06316
415.36358,0.94692
413.87379,0.90320
412.38400,0.81675
410.89422,0.73034
409.40443,0.71277
407.91464,0.71153
406.42485,0.63457
404.93506,0.64601
403.44527,0.65748
401.95548,0.54153
400.46570,0.58768
398.97591,0.59843
397.48612,0.60921
395.99633,0.61392
394.50654,0.60155
393.01675,0.58840
391.52697,0.57529
390.03718,0.47180
388.54739,0.40988
387.05760,0.40989
385.56781,0.40993
384.07802,0.41326
382.58824,0.41744
381.09845,0.42124
379.60866,0.42507
378.11887,0.38861
376.62908,0.34649
375.13929,0.32191
373.64950,0.29737
372.15972,0.27896
370.66993,0.29316
369.18014,0.23165
367.69035,0.17017
366.20056,0.22030
364.71077,0.14341
363.22099,0.17080
361.73120,0.19822
360.24141,0.19228
358.75162,0.20266
357.26183,0.21062
355.77204,0.21862
354.28225,0.14928
352.79247,0.11174
351.30268,0.09051
349.81289,0.06932
348.32310,0.15892
346.83331,0.10032
345.34352,0.05276
343.85374,0.00522
342.36395,0.14937
340.87416,0.22107
339.38437,0.23335
337.89458,0.24566
336.40479,0.17981
334.91501,0.15717
333.42522,0.16957
331.93543,0.18201
330.44564,0.19855
328.95585,0.13205
327.46606,0.13929
325.97627,0.14655
324.48649,0.02233
322.99670,0.07092
321.50691,0.08370
320.01712,0.09652
318.52733,0.12892
317.03754,0.14832
315.54776,0.15187
314.05797,0.15544
312.56818,0.04382
311.07839,0.03646
309.58860,0.02670
308.09881,0.01697
306.60902,0.00401
305.11924,0.04229
303.62945,0.02928
302.13966,0.00852
300.64987,0.00000
299.16008,0.00000
