1778.52000,0.02172
1777.03021,0.03501
1775.54042,0.01709
1774.05063,0.01036
1772.56085,0.01407
1771.07106,0.00369
1769.58127,0.00746
1768.09148,0.00085
1766.60169,0.02403
1765.11190,0.03384
1763.62212,0.01320
1762.13233,0.03275
1760.64254,0.03076
1759.15275,0.02359
1757.66296,0.01869
1756.17317,0.03018
1754.68339,0.01716
1753.19360,0.01011
1751.70381,0.00236
1750.21402,0.02364
1748.72423,0.01521
1747.23444,0.00085
1745.74465,0.01132
1744.25487,0.02926
1742.76508,0.03161
1741.27529,0.03772
1739.78550,0.04162
1738.29571,0.02695
1736.80592,0.03464
1735.31614,0.01483
1733.82635,0.01365
1732.33656,0.01175
1730.84677,0.03592
1729.35698,0.03855
1727.86719,0.02113
1726.37740,0.04837
1724.88762,0.01167
1723.39783,0.02559
1721.90804,0.00085
1720.41825,0.04351
1718.92846,0.02521
1717.43867,0.03966
1715.94889,0.03556
1714.45910,0.04561
1712.96931,0.04975
1711.47952,0.04053
1709.98973,0.04026
1708.49994,0.08986
1707.01016,0.08036
1705.52037,0.07090
1704.03058,0.08637
1702.54079,0.07660
1701.05100,0.13304
1699.56121,0.12110
1698.07142,0.12108
1696.58164,0.12928
1695.09185,0.14420
1693.60206,0.18072
1692.11227,0.18678
1690.62248,0.23377
1689.13269,0.21088
1687.64291,0.23340
1686.15312,0.22470
1684.66333,0.21455
1683.17354,0.25575
1681.68375,0.24418
1680.19396,0.25718
1678.70417,0.21294
1677.21439,0.19848
1675.72460,0.23240
1674.23481,0.24701
1672.74502,0.22893
1671.25523,0.23765
1669.76544,0.24863
1668.27566,0.25519
1666.78587,0.21119
1665.29608,0.20517
1663.80629,0.20586
1662.31650,0.22221
1660.82671,0.24826
1659.33693,0.23343
1657.84714,0.19854
1656.35735,0.17634
1654.86756,0.17127
1653.37777,0.17070
1651.88798,0.16495
1650.39819,0.18154
1648.90841,0.15354
1647.41862,0.13375
1645.92883,0.14263
1644.43904,0.15154
1642.94925,0.18391
1641.45946,0.15085
1639.96968,0.16767
1638.47989,0.11980
1636.99010,0.15675
1635.50031,0.17589
1634.01052,0.13407
1632.52073,0.12872
1631.03094,0.13530
1629.54116,0.13969
1628.05137,0.12625
1626.56158,0.17086
1625.07179,0.16716
1623.58200,0.17092
1622.09221,0.19108
1620.60243,0.18301
1619.11264,0.21290
1617.62285,0.18629
1616.13306,0.21327
1614.64327,0.15548
1613.15348,0.16765
1611.66370,0.17091
1610.17391,0.15711
1608.68412,0.14705
1607.19433,0.18909
1605.70454,0.15826
1604.21475,0.15537
1602.72496,0.15250
1601.23518,0.12698
1599.74539,0.15429
1598.25560,0.12735
1596.76581,0.17704
1595.27602,0.11296
1593.78623,0.10024
1592.29645,0.09276
1590.80666,0.09720
1589.31687,0.08903
1587.82708,0.08015
1586.33729,0.07502
1584.84750,0.05877
1583.35771,0.04180
1581.86793,0.04420
1580.37814,0.05035
1578.88835,0.08256
1577.39856,0.05084
1575.90877,0.03775
1574.41898,0.03510
1572.92920,0.03694
1571.43941,0.03138
1569.94962,0.03960
1568.45983,0.04786
1566.97004,0.04462
1565.48025,0.04141
1563.99047,0.05832
1562.50068,0.03211
1561.01089,0.03644
1559.52110,0.04599
1558.03131,0.04071
1556.54152,0.04959
1555.05173,0.07783
1553.56195,0.03843
1552.07216,0.07046
1550.58237,0.06681
1549.09258,0.01932
1547.60279,0.02913
1546.11300,0.02706
1544.62322,0.04437
1543.13343,0.04088
1541.64364,0.04561
1540.15385,0.04330
1538.66406,0.04102
1537.17427,0.02724
1535.68448,0.00085
1534.19470,0.01078
1532.70491,0.00364
1531.21512,0.01735
1529.72533,0.04969
1528.23554,0.01512
1526.74575,0.01629
1525.25597,0.02417
1523.76618,0.00085
1522.27639,0.01476
1520.78660,0.02052
1519.29681,0.00400
1517.80702,0.01800
1516.31724,0.02385
1514.82745,0.05576
1513.33766,0.04346
1511.84787,0.03118
1510.35808,0.02823
1508.86829,0.01267
1507.37850,0.00085
1505.88872,0.01578
1504.39893,0.01140
1502.90914,0.01375
1501.41935,0.01910
1499.92956,0.04308
1498.43977,0.03733
1496.94999,0.08517
1495.46020,0.11743
1493.97041,0.17648
1492.48062,0.19318
1490.99083,0.26866
1489.50104,0.33302
1488.01125,0.35539
1486.52147,0.37778
1485.03168,0.49281
1483.54189,0.56324
1482.05210,0.67684
1480.56231,0.73916
1479.07252,0.78588
1477.58274,0.92933
1476.09295,1.01256
1474.60316,1.00880
1473.11337,1.13300
1471.62358,1.14715
1470.13379,1.16803
1468.64401,1.16886
1467.15422,1.09311
1465.66443,1.07763
1464.17464,1.06219
1462.68485,1.03042
1461.19506,0.94884
1459.70527,0.84201
1458.21549,0.84380
1456.72570,0.79058
1455.23591,0.78053
1453.74612,0.70282
1452.25633,0.65937
1450.76654,0.65015
1449.27676,0.59560
1447.78697,0.59091
1446.29718,0.55427
1444.80739,0.51060
1443.31760,0.46695
1441.82781,0.40512
1440.33802,0.37083
1438.84824,0.31352
1437.35845,0.28674
1435.86866,0.21387
1434.37887,0.23698
1432.88908,0.23186
1431.39929,0.23718
1429.90951,0.23881
1428.41972,0.23081
1426.92993,0.22878
1425.44014,0.28034
1423.95035,0.26499
1422.46056,0.24967
1420.97078,0.26414
1419.48099,0.25037
1417.99120,0.31696
1416.50141,0.33597
1415.01162,0.33569
1413.52183,0.33617
1412.03204,0.26901
1410.54226,0.31716
1409.05247,0.26418
1407.56268,0.29380
1406.07289,0.28254
1404.58310,0.26983
1403.09331,0.25714
1401.60353,0.30697
1400.11374,0.30029
1398.62395,0.33902
1397.13416,0.36737
1395.64437,0.32732
1394.15458,0.34160
1392.66479,0.32764
1391.17501,0.33008
1389.68522,0.35784
1388.19543,0.34770
1386.70564,0.34093
1385.21585,0.33420
1383.72606,0.34423
1382.23628,0.33272
1380.74649,0.28777
1379.25670,0.30682
1377.76691,0.31698
1376.27712,0.30857
1374.78733,0.37085
1373.29755,0.42052
1371.80776,0.47543
1370.31797,0.53111
1368.82818,0.62587
1367.33839,0.72066
1365.84860,0.83370
1364.35881,0.90364
1362.86903,1.01972
1361.37924,0.99079
1359.88945,1.03702
1358.39966,1.22385
1356.90987,1.23965
1355.42008,1.24655
1353.93030,1.19472
1352.44051,1.15185
1350.95072,1.10902
1349.46093,0.98291
1347.97114,0.99591
1346.48135,0.84235
1344.99156,0.79368
1343.50178,0.73761
1342.01199,0.71132
1340.52220,0.61961
1339.03241,0.52198
1337.54262,0.52479
1336.05283,0.51648
1334.56305,0.50819
1333.07326,0.50738
1331.58347,0.51254
1330.09368,0.48576
1328.60389,0.44190
1327.11410,0.38394
1325.62432,0.34906
1324.13453,0.37223
1322.64474,0.36048
1321.15495,0.36214
1319.66516,0.34376
1318.17537,0.32540
1316.68558,0.30112
1315.19580,0.33117
1313.70601,0.29357
1312.21622,0.26865
1310.72643,0.31664
1309.23664,0.28880
1307.74685,0.32124
1306.25707,0.30611
1304.76728,0.30848
1303.27749,0.31089
1301.78770,0.34345
1300.29791,0.29274
1298.80812,0.30900
1297.31834,0.29406
1295.82855,0.29997
1294.33876,0.32078
1292.84897,0.26874
1291.35918,0.31119
1289.86939,0.29639
1288.37960,0.28163
1286.88982,0.33310
1285.40003,0.33551
1283.91024,0.37290
1282.42045,0.40810
1280.93066,0.37118
1279.44087,0.39230
1277.95109,0.38297
1276.46130,0.34911
1274.97151,0.36885
1273.48172,0.38861
1271.99193,0.46418
1270.50214,0.47434
1269.01235,0.47337
1267.52257,0.47168
1266.03278,0.46185
1264.54299,0.46916
1263.05320,0.52558
1261.56341,0.55117
1260.07362,0.57679
1258.58384,0.60802
1257.09405,0.54853
1255.60426,0.59173
1254.11447,0.57768
1252.62468,0.56738
1251.13489,0.48497
1249.64511,0.47994
1248.15532,0.45634
1246.66553,0.44542
1245.17574,0.43454
1243.68595,0.40583
1242.19616,0.37120
1240.70637,0.39760
1239.21659,0.33626
1237.72680,0.24817
1236.23701,0.26053
1234.74722,0.23944
1233.25743,0.21319
1231.76764,0.18696
1230.27786,0.17936
1228.78807,0.15021
1227.29828,0.19697
1225.80849,0.19987
1224.31870,0.13587
1222.82891,0.15520
1221.33912,0.11208
1219.84934,0.11213
1218.35955,0.11221
1216.86976,0.17629
1215.37997,0.19280
1213.89018,0.22347
1212.40039,0.18054
1210.91061,0.17706
1209.42082,0.13344
1207.93103,0.12556
1206.44124,0.11771
1204.95145,0.13295
1203.46166,0.09392
1201.97188,0.08393
1200.48209,0.05092
1198.99230,0.05438
1197.50251,0.06903
1196.01272,0.06883
1194.52293,0.03483
1193.03314,0.00085
1191.54336,0.06312
1190.05357,0.00196
1188.56378,0.04050
1187.07399,0.02402
1185.58420,0.02246
1184.09441,0.02985
1182.60463,0.05660
1181.11484,0.08339
1179.62505,0.05815
1178.13526,0.04484
1176.64547,0.07767
1175.15568,0.07929
1173.66589,0.11739
1172.17611,0.07743
1170.68632,0.06018
1169.19653,0.04296
1167.70674,0.07078
1166.21695,0.03614
1164.72716,0.07740
1163.23738,0.06366
1161.74759,0.00085
1160.25780,0.03316
1158.76801,0.04913
1157.27822,0.06514
1155.78843,0.06110
1154.29865,0.06898
1152.80886,0.09029
1151.31907,0.06402
1149.82928,0.05564
1148.33949,0.09786
1146.84970,0.08954
1145.35991,0.08125
1143.87013,0.06779
1142.38034,0.08113
1140.89055,0.19565
1139.40076,0.15922
1137.91097,0.22918
1136.42118,0.27835
1134.93140,0.26172
1133.44161,0.24513
1131.95182,0.29810
1130.46203,0.26037
1128.97224,0.30226
1127.48245,0.34268
1125.99266,0.32364
1124.50288,0.37305
1123.01309,0.37713
1121.52330,0.38123
1120.03351,0.40322
1118.54372,0.39177
1117.05393,0.44431
1115.56415,0.40540
1114.07436,0.48850
1112.58457,0.49949
1111.09478,0.51051
1109.60499,0.54982
1108.11520,0.57503
1106.62542,0.63374
1105.13563,0.66645
1103.64584,0.73117
1102.15605,0.83757
1100.66626,0.85587
1099.17647,0.87420
1097.68668,0.92789
1096.19690,0.91393
1094.70711,0.97438
1093.21732,1.00585
1091.72753,1.02991
1090.23774,1.01645
1088.74795,1.00301
1087.25817,1.07626
1085.76838,1.12945
1084.27859,1.15516
1082.78880,1.19503
1081.29901,1.28625
1079.80922,1.17296
1078.31943,1.18726
1076.82965,1.20159
1075.33986,1.22377
1073.85007,1.24895
1072.36028,1.26672
1070.87049,1.31874
1069.38070,1.35219
1067.89092,1.38381
1066.40113,1.41547
1064.91134,1.34712
1063.42155,1.26690
1061.93176,1.20159
1060.44197,1.15788
1058.95219,1.13279
1057.46240,1.09472
1055.97261,1.05667
1054.48282,0.94838
1052.99303,0.90705
1051.50324,0.86129
1050.01345,0.79846
1048.52367,0.74756
1047.03388,0.69557
1045.54409,0.64362
1044.05430,0.65974
1042.56451,0.57401
1041.07472,0.46450
1039.58494,0.44651
1038.09515,0.39360
1036.60536,0.39687
1035.11557,0.40017
1033.62578,0.39197
1032.13599,0.32802
1030.64620,0.40616
1029.15642,0.40252
1027.66663,0.42271
1026.17684,0.44293
1024.68705,0.53904
1023.19726,0.62701
1021.70747,0.80128
1020.21769,1.00236
1018.72790,1.12315
1017.23811,1.25995
1015.74832,1.39679
1014.25853,1.54891
1012.76874,1.68618
1011.27896,1.84356
1009.78917,1.96379
1008.29938,2.00000
1006.80959,1.94141
1005.31980,1.88285
1003.83001,1.77561
1002.34022,1.71079
1000.85044,1.66088
999.36065,1.51060
997.87086,1.50351
996.38107,1.49646
994.89128,1.57683
993.40149,1.50253
991.91171,1.49967
990.42192,1.48791
988.93213,1.45981
987.44234,1.46150
985.95255,1.46322
984.46276,1.37423
982.97297,1.47344
981.48319,1.41055
979.99340,1.33727
978.50361,1.33766
977.01382,1.33808
975.52403,1.32439
974.03424,1.21256
972.54446,1.21605
971.05467,1.15263
969.56488,1.06320
968.07509,1.04781
966.58530,1.03246
965.09551,1.01155
963.60573,1.02043
962.11594,0.97133
960.62615,0.98473
959.13636,0.92044
957.64657,0.85618
956.15678,0.86670
954.66699,0.82742
953.17721,0.78445
951.68742,0.79953
950.19763,0.80162
948.70784,0.80374
947.21805,0.76908
945.72826,0.65858
944.23848,0.70356
942.74869,0.75601
941.25890,0.70139
939.76911,0.74051
938.27932,0.77967
936.78953,0.90811
935.29974,0.88262
933.80996,0.82294
932.32017,0.84809
930.83038,0.85356
929.34059,0.85906
927.85080,0.86273
926.36101,0.90511
924.87123,0.87240
923.38144,0.80997
921.89165,0.81265
920.40186,0.81536
918.91207,0.87574
917.42228,0.80674
915.93250,0.85380
914.44271,0.84882
912.95292,0.86842
911.46313,0.88806
909.97334,0.83706
908.48355,0.94824
906.99376,0.95457
905.50398,0.94607
904.01419,0.90858
902.52440,0.87113
901.03461,0.97279
899.54482,0.93019
898.05503,0.94415
896.56525,1.02137
895.07546,1.00824
893.58567,0.99515
892.09588,0.96386
890.60609,0.98021
889.11630,0.89097
887.62651,0.88655
886.13673,0.92382
884.64694,0.96111
883.15715,0.95679
881.66736,0.89151
880.17757,0.90733
878.68778,0.90123
877.19800,0.89517
875.70821,0.86869
874.21842,0.85563
872.72863,0.98986
871.23884,0.94190
869.74905,0.97728
868.25927,1.01268
866.76948,0.96407
865.27969,0.91698
863.78990,0.96885
862.30011,0.97686
860.81032,0.99085
859.32053,1.00487
857.83075,1.00628
856.34096,0.91103
854.85117,0.88647
853.36138,0.79202
851.87159,0.75860
850.38180,0.72520
848.89202,0.59292
847.40223,0.43464
845.91244,0.39836
844.42265,0.40377
842.93286,0.40921
841.44307,0.40500
839.95329,0.35993
838.46350,0.29108
836.97371,0.30482
835.48392,0.32641
833.99413,0.34802
832.50434,0.32913
831.01455,0.29614
829.52477,0.32789
828.03498,0.33736
826.54519,0.28140
825.05540,0.22548
823.56561,0.18595
822.07582,0.21339
820.58604,0.16054
819.09625,0.11775
817.60646,0.07500
816.11667,0.09290
814.62688,0.06173
813.13709,0.00085
811.64730,0.01721
810.15752,0.02393
808.66773,0.03069
807.17794,0.06276
805.68815,0.02569
804.19836,0.10022
802.70857,0.11788
801.21879,0.13557
799.72900,0.15218
798.23921,0.23799
796.74942,0.35135
795.25963,0.38181
793.76984,0.41230
792.28006,0.49154
790.79027,0.57229
789.30048,0.58540
787.81069,0.62903
786.32090,0.62992
784.83111,0.63085
783.34132,0.72515
781.85154,0.71015
780.36175,0.76137
778.87196,0.75610
777.38217,0.75086
775.89238,0.81036
774.40259,0.93831
772.91281,0.95920
771.42302,0.93549
769.93323,0.91180
768.44344,0.88890
766.95365,0.90247
765.46386,0.88632
763.97407,0.88656
762.48429,0.81581
760.99450,0.74509
759.50471,0.59518
758.01492,0.55687
756.52513,0.42860
755.03534,0.40188
753.54556,0.37520
752.05577,0.24553
750.56598,0.18730
749.07619,0.17223
747.58640,0.14864
746.09661,0.12509
744.60683,0.09078
743.11704,0.07658
741.62725,0.05572
740.13746,0.04010
738.64767,0.02451
737.15788,0.01043
735.66809,0.00085
734.17831,0.02809
732.68852,0.04532
731.19873,0.06259
729.70894,0.03711
728.21915,0.07043
726.72936,0.06584
725.23958,0.05087
723.74979,0.04151
722.26000,0.03218
720.77021,0.05227
719.28042,0.10882
717.79063,0.06798
716.30084,0.06063
714.81106,0.05332
713.32127,0.06389
711.83148,0.00085
710.34169,0.04932
708.85190,0.05877
707.36211,0.06825
705.87233,0.05953
704.38254,0.11035
702.89275,0.04220
701.40296,0.03953
699.91317,0.03690
698.42338,0.05586
696.93360,0.07857
695.44381,0.12437
693.95402,0.14231
692.46423,0.16028
690.97444,0.15486
689.48465,0.12640
687.99486,0.16120
686.50508,0.19826
685.01529,0.23536
683.52550,0.19810
682.03571,0.22410
680.54592,0.16757
679.05613,0.15681
677.56635,0.14609
676.07656,0.15659
674.58677,0.13960
673.09698,0.06612
671.60719,0.08229
670.11740,0.09850
668.62761,0.10841
667.13783,0.12282
665.64804,0.09821
664.15825,0.07363
662.66846,0.12160
661.17867,0.09597
659.68888,0.04582
658.19910,0.07417
656.70931,0.10256
655.21952,0.12986
653.72973,0.07165
652.23994,0.14587
650.75015,0.13979
649.26037,0.13375
647.77058,0.10542
646.28079,0.07861
644.79100,0.07637
643.30121,0.06413
641.81142,0.05191
640.32163,0.04085
638.83185,0.04320
637.34206,0.05971
635.85227,0.05023
634.36248,0.04077
632.87269,0.00085
631.38290,0.05720
629.89312,0.01391
628.40333,0.03350
626.91354,0.05312
625.42375,0.06645
623.93396,0.07535
622.44417,0.07238
620.95438,0.06944
619.46460,0.05463
617.97481,0.08522
616.48502,0.11584
614.99523,0.13273
613.50544,0.14966
612.01565,0.08220
610.52587,0.13972
609.03608,0.08422
607.54629,0.10238
606.05650,0.12058
604.56671,0.14550
603.07692,0.13475
601.58714,0.13221
600.09735,0.12970
598.60756,0.13392
597.11777,0.10619
595.62798,0.09113
594.13819,0.09098
592.64840,0.09086
591.15862,0.10639
589.66883,0.04609
588.17904,0.02896
586.68925,0.03231
585.19946,0.03569
583.70967,0.09972
582.21989,0.17345
580.73010,0.17469
579.24031,0.17597
577.75052,0.16277
576.26073,0.16671
574.77094,0.17365
573.28115,0.21038
571.79137,0.24714
570.30158,0.26162
568.81179,0.26571
567.32200,0.29029
565.83221,0.31490
564.34242,0.31686
562.85264,0.33223
561.36285,0.41012
559.87306,0.42369
558.38327,0.43730
556.89348,0.53759
555.40369,0.57246
553.91391,0.56645
552.42412,0.56047
550.93433,0.62221
549.44454,0.60142
547.95475,0.59107
546.46496,0.59228
544.97517,0.59353
543.48539,0.61674
541.99560,0.65412
540.50581,0.68967
539.01602,0.72525
537.52623,0.67198
536.03644,0.64701
534.54666,0.69495
533.05687,0.68417
531.56708,0.67342
530.07729,0.63742
528.58750,0.57690
527.09771,0.57145
525.60792,0.56603
524.11814,0.64245
522.62835,0.51660
521.13856,0.54698
519.64877,0.51156
518.15898,0.47617
516.66919,0.44342
515.17941,0.38541
513.68962,0.36016
512.19983,0.33493
510.71004,0.39304
509.22025,0.35301
507.73046,0.32565
506.24068,0.33476
504.75089,0.34391
503.26110,0.32780
501.77131,0.36081
500.28152,0.35368
498.79173,0.34659
497.30194,0.31350
495.81216,0.38679
494.32237,0.38909
492.83258,0.39142
491.34279,0.32944
489.85300,0.31435
488.36321,0.23830
486.87343,0.22588
485.38364,0.21349
483.89385,0.20224
482.40406,0.21929
480.91427,0.17129
479.42448,0.12332
477.93469,0.08989
476.44491,0.13458
474.95512,0.10827
473.46533,0.08199
471.97554,0.03381
470.48575,0.05557
468.99596,0.06769
467.50618,0.05158
466.01639,0.03550
464.52660,0.00085
463.03681,0.05266
461.54702,0.07140
460.05723,0.09017
458.56745,0.11901
457.07766,0.12557
455.58787,0.11356
454.09808,0.10159
452.60829,0.18485
451.11850,0.16550
449.62871,0.21498
448.13893,0.26449
446.64914,0.26755
445.15935,0.40898
443.66956,0.52515
442.17977,0.53314
440.68998,0.54115
439.20020,0.63139
437.71041,0.60339
436.22062,0.69518
434.73083,0.78699
433.24104,0.86321
431.75125,1.07856
430.26146,1.11505
428.77168,1.15158
427.28189,1.22421
425.79210,1.30357
424.30231,1.27473
422.81252,1.24593
421.32273,1.28150
419.83295,1.12223
418.34316,1.07567
416.85337,1.02914
415.36358,0.87145
413.87379,0.81941
412.38400,0.78636
410.89422,0.75335
409.40443,0.70437
407.91464,0.70972
406.42485,0.63478
404.93506,0.60709
403.44527,0.57944
401.95548,0.59012
400.46570,0.56959
398.97591,0.55616
397.48612,0.54277
395.99633,0.52308
394.50654,0.49672
393.01675,0.54106
391.52697,0.58543
390.03718,0.46917
388.54739,0.38418
387.05760,0.37621
385.56781,0.36827
384.07802,0.42766
382.58824,0.43205
381.09845,0.39557
379.60866,0.35911
378.11887,0.30781
376.62908,0.31307
375.13929,0.30088
373.64950,0.28872
372.15972,0.28440
370.66993,0.15442
369.18014,0.16913
367.69035,0.18387
366.20056,0.19380
364.71077,0.11006
363.22099,0.12824
361.73120,0.14645
360.24141,0.12527
358.75162,0.15991
357.26183,0.10718
355.77204,0.05449
354.28225,0.04831
352.79247,0.02580
351.30268,0.03382
349.81289,0.04186
348.32310,0.10126
346.83331,0.04838
345.34352,0.03718
343.85374,0.02601
342.36395,0.08330
340.87416,0.01939
339.38437,0.05741
337.89458,0.09545
336.40479,0.12311
334.91501,0.02586
333.42522,0.05842
331.93543,0.09101
330.44564,0.13218
328.95585,0.10496
327.46606,0.10194
325.97627,0.09896
324.48649,0.01159
322.99670,0.00085
321.50691,0.05306
320.01712,0.10529
318.52733,0.05454
317.03754,0.11093
315.54776,0.07661
314.05797,0.04232
312.56818,0.03335
311.07839,0.03779
309.58860,0.03297
308.09881,0.02819
306.60902,0.00000
305.11924,0.01573
303.62945,0.01550
302.13966,0.01529
300.64987,0.01996
299.16008,0.00085
