1778.52000,0.04514
1777.03021,0.04572
1775.54042,0.02876
1774.05063,0.03292
1772.56085,0.03008
1771.07106,0.02375
1769.58127,0.01305
1768.09148,0.03402
1766.60169,0.01899
1765.11190,0.03123
1763.62212,0.01274
1762.13233,0.04525
1760.64254,0.04791
1759.15275,0.00491
1757.66296,0.04541
1756.17317,0.02443
1754.68339,0.02105
1753.19360,0.02737
1751.70381,0.02757
1750.21402,0.03658
1748.72423,0.02541
1747.23444,0.01954
1745.74465,0.01722
1744.25487,0.03162
1742.76508,0.05131
1741.27529,0.02711
1739.78550,0.03369
1738.29571,0.03942
1736.80592,0.03551
1735.31614,0.02811
1733.82635,0.05941
1732.33656,0.03538
1730.84677,0.01577
1729.35698,0.04539
1727.86719,0.02848
1726.37740,0.00632
1724.88762,0.01406
1723.39783,0.01832
1721.90804,0.03491
1720.41825,0.03219
1718.92846,0.00491
1717.43867,0.03723
1715.94889,0.04058
1714.45910,0.06329
1712.96931,0.05879
1711.47952,0.04817
1709.98973,0.03582
1708.49994,0.05953
1707.01016,0.04900
1705.52037,0.03849
1704.03058,0.07985
1702.54079,0.06326
1701.05100,0.10029
1699.56121,0.06354
1698.07142,0.06548
1696.58164,0.10347
1695.09185,0.11162
1693.60206,0.13473
1692.11227,0.13328
1690.62248,0.13273
1689.13269,0.15593
1687.64291,0.17037
1686.15312,0.15409
1684.66333,0.15805
1683.17354,0.18663
1681.68375,0.14145
1680.19396,0.16043
1678.70417,0.13550
1677.21439,0.12291
1675.72460,0.15516
1674.23481,0.11099
1672.74502,0.12309
1671.25523,0.16245
1669.76544,0.13946
1668.27566,0.17273
1666.78587,0.13222
1665.29608,0.13304
1663.80629,0.15760
1662.31650,0.15584
1660.82671,0.12512
1659.33693,0.14011
1657.84714,0.09977
1656.35735,0.11043
1654.86756,0.11320
1653.37777,0.09229
1651.88798,0.07052
1650.39819,0.07602
1648.90841,0.12108
1647.41862,0.10116
1645.92883,0.10191
1644.43904,0.10269
1642.94925,0.11185
1641.45946,0.11928
1639.96968,0.10213
1638.47989,0.10962
1636.99010,0.12680
1635.50031,0.12204
1634.01052,0.10589
1632.52073,0.11437
1631.03094,0.14045
1629.54116,0.12790
1628.05137,0.15317
1626.56158,0.11783
1625.07179,0.15457
1623.58200,0.15356
1622.09221,0.15345
1620.60243,0.17007
1619.11264,0.15157
1617.62285,0.15507
1616.13306,0.13663
1614.64327,0.13403
1613.15348,0.12268
1611.66370,0.13508
1610.17391,0.11236
1608.68412,0.15820
1607.19433,0.12412
1605.70454,0.12345
1604.21475,0.13248
1602.72496,0.14154
1601.23518,0.08121
1599.74539,0.10965
1598.25560,0.10034
1596.76581,0.11391
1595.27602,0.12047
1593.78623,0.11389
1592.29645,0.10206
1590.80666,0.08674
1589.31687,0.04246
1587.82708,0.08959
1586.33729,0.07875
1584.84750,0.08288
1583.35771,0.04487
1581.86793,0.06399
1580.37814,0.07524
1578.88835,0.08388
1577.39856,0.05652
1575.90877,0.02568
1574.41898,0.01947
1572.92920,0.06600
1571.43941,0.06688
1569.94962,0.03835
1568.45983,0.00984
1566.97004,0.02926
1565.48025,0.03376
1563.99047,0.00491
1562.50068,0.04104
1561.01089,0.03502
1559.52110,0.03782
1558.03131,0.01253
1556.54152,0.04263
1555.05173,0.07275
1553.56195,0.04931
1552.07216,0.07509
1550.58237,0.03853
1549.09258,0.00814
1547.60279,0.05862
1546.11300,0.03619
1544.62322,0.11748
1543.13343,0.09863
1541.64364,0.03939
1540.15385,0.03290
1538.66406,0.02644
1537.17427,0.00771
1535.68448,0.03908
1534.19470,0.01250
1532.70491,0.00000
1531.21512,0.02044
1529.72533,0.00577
1528.23554,0.00781
1526.74575,0.02834
1525.25597,0.02078
1523.76618,0.05191
1522.27639,0.04089
1520.78660,0.01760
1519.29681,0.00664
1517.80702,0.04890
1516.31724,0.04286
1514.82745,0.04739
1513.33766,0.03922
1511.84787,0.03107
1510.35808,0.02163
1508.86829,0.02100
1507.37850,0.04413
1505.88872,0.00491
1504.39893,0.02238
1502.90914,0.02318
1501.41935,0.04335
1499.92956,0.03806
1498.43977,0.06004
1496.94999,0.10665
1495.46020,0.07685
1493.97041,0.15954
1492.48062,0.20272
1490.99083,0.21957
1489.50104,0.25402
1488.01125,0.29641
1486.52147,0.33883
1485.03168,0.38479
1483.54189,0.46680
1482.05210,0.52249
1480.56231,0.57468
1479.07252,0.68754
1477.58274,0.74155
1476.09295,0.79559
1474.60316,0.81715
1473.11337,0.93539
1471.62358,0.95789
1470.13379,0.91627
1468.64401,0.89226
1467.15422,0.85071
1465.66443,0.83334
1464.17464,0.81601
1462.68485,0.77278
1461.19506,0.71201
1459.70527,0.66269
1458.21549,0.63537
1456.72570,0.57292
1455.23591,0.52896
1453.74612,0.49557
1452.25633,0.46924
1450.76654,0.42185
1449.27676,0.36659
1447.78697,0.35001
1446.29718,0.32906
1444.80739,0.29980
1443.31760,0.27057
1441.82781,0.22423
1440.33802,0.20867
1438.84824,0.18172
1437.35845,0.17853
1435.86866,0.14988
1434.37887,0.12916
1432.88908,0.14802
1431.39929,0.17480
1429.90951,0.13836
1428.41972,0.09843
1426.92993,0.13146
1425.44014,0.15749
1423.95035,0.18179
1422.46056,0.20611
1420.97078,0.19444
1419.48099,0.21707
1417.99120,0.21513
1416.50141,0.22287
1415.01162,0.20693
1413.52183,0.26306
1412.03204,0.28056
1410.54226,0.23658
1409.05247,0.24360
1407.56268,0.26733
1406.07289,0.26035
1404.58310,0.26745
1403.09331,0.27457
1401.60353,0.27558
1400.11374,0.33197
1398.62395,0.36906
1397.13416,0.42551
1395.64437,0.44859
1394.15458,0.51037
1392.66479,0.53703
1391.17501,0.51540
1389.68522,0.52981
1388.19543,0.53547
1386.70564,0.54028
1385.21585,0.54512
1383.72606,0.52099
1382.23628,0.53028
1380.74649,0.55190
1379.25670,0.49360
1377.76691,0.49155
1376.27712,0.55631
1374.78733,0.64921
1373.29755,0.70172
1371.80776,0.80259
1370.31797,0.95972
1368.82818,1.08261
1367.33839,1.20553
1365.84860,1.43743
1364.35881,1.59204
1362.86903,1.73086
1361.37924,1.77921
1359.88945,1.82408
1358.39966,1.96738
1356.90987,2.00000
1355.42008,1.97642
1353.93030,1.82195
1352.44051,1.70310
1350.95072,1.58428
1349.46093,1.45714
1347.97114,1.29751
1346.48135,1.13529
1344.99156,1.02668
1343.50178,0.95413
1342.01199,0.80253
1340.52220,0.68874
1339.03241,0.62330
1337.54262,0.53857
1336.05283,0.52986
1334.56305,0.52118
1333.07326,0.47519
1331.58347,0.39144
1330.09368,0.37890
1328.60389,0.31718
1327.11410,0.26954
1325.62432,0.26148
1324.13453,0.25168
1322.64474,0.24016
1321.15495,0.24448
1319.66516,0.21720
1318.17537,0.18994
1316.68558,0.22159
1315.19580,0.19527
1313.70601,0.20764
1312.21622,0.17963
1310.72643,0.15603
1309.23664,0.22648
1307.74685,0.20470
1306.25707,0.20140
1304.76728,0.20692
1303.27749,0.21246
1301.78770,0.19870
1300.29791,0.14456
1298.80812,0.15019
1297.31834,0.13740
1295.82855,0.19932
1294.33876,0.23403
1292.84897,0.22133
1291.35918,0.22886
1289.86939,0.19556
1288.37960,0.16230
1286.88982,0.24284
1285.40003,0.21359
1283.91024,0.26959
1282.42045,0.25269
1280.93066,0.24022
1279.44087,0.24622
1277.95109,0.23908
1276.46130,0.22054
1274.97151,0.23059
1273.48172,0.24066
1271.99193,0.25472
1270.50214,0.30483
1269.01235,0.30313
1267.52257,0.30848
1266.03278,0.27521
1264.54299,0.35707
1263.05320,0.33088
1261.56341,0.37325
1260.07362,0.41566
1258.58384,0.40186
1257.09405,0.37403
1255.60426,0.41300
1254.11447,0.36063
1252.62468,0.37418
1251.13489,0.32099
1249.64511,0.34778
1248.15532,0.29728
1246.66553,0.28679
1245.17574,0.27632
1243.68595,0.24436
1242.19616,0.26514
1240.70637,0.20249
1239.21659,0.16534
1237.72680,0.12119
1236.23701,0.17284
1234.74722,0.13666
1233.25743,0.10929
1231.76764,0.08195
1230.27786,0.11790
1228.78807,0.09853
1227.29828,0.07567
1225.80849,0.06865
1224.31870,0.09330
1222.82891,0.06174
1221.33912,0.06184
1219.84934,0.06812
1218.35955,0.07443
1216.86976,0.03595
1215.37997,0.08713
1213.89018,0.07156
1212.40039,0.03932
1210.91061,0.04489
1209.42082,0.07158
1207.93103,0.05876
1206.44124,0.04597
1204.95145,0.02442
1203.46166,0.01169
1201.97188,0.03501
1200.48209,0.03903
1198.99230,0.06504
1197.50251,0.03660
1196.01272,0.02314
1194.52293,0.02595
1193.03314,0.02879
1191.54336,0.00311
1190.05357,0.02944
1188.56378,0.00747
1187.07399,0.01188
1185.58420,0.00491
1184.09441,0.01927
1182.60463,0.04727
1181.11484,0.07531
1179.62505,0.04055
1178.13526,0.02339
1176.64547,0.05547
1175.15568,0.07000
1173.66589,0.11179
1172.17611,0.03149
1170.68632,0.03732
1169.19653,0.04318
1167.70674,0.05786
1166.21695,0.00491
1164.72716,0.06072
1163.23738,0.03484
1161.74759,0.05205
1160.25780,0.05874
1158.76801,0.06766
1157.27822,0.07661
1155.78843,0.05615
1154.29865,0.06384
1152.80886,0.03729
1151.31907,0.09072
1149.82928,0.06686
1148.33949,0.07291
1146.84970,0.08030
1145.35991,0.08772
1143.87013,0.05431
1142.38034,0.05257
1140.89055,0.08336
1139.40076,0.13614
1137.91097,0.14854
1136.42118,0.16184
1134.93140,0.18791
1133.44161,0.21402
1131.95182,0.18084
1130.46203,0.22238
1128.97224,0.23319
1127.48245,0.29499
1125.99266,0.23908
1124.50288,0.30446
1123.01309,0.31275
1121.52330,0.32107
1120.03351,0.36544
1118.54372,0.37206
1117.05393,0.34005
1115.56415,0.32740
1114.07436,0.41055
1112.58457,0.40455
1111.09478,0.39857
1109.60499,0.39043
1108.11520,0.39989
1106.62542,0.46385
1105.13563,0.47512
1103.64584,0.54002
1102.15605,0.64888
1100.66626,0.64267
1099.17647,0.63648
1097.68668,0.63911
1096.19690,0.71206
1094.70711,0.71914
1093.21732,0.79742
1091.72753,0.75536
1090.23774,0.75594
1088.74795,0.75655
1087.25817,0.83494
1085.76838,0.87822
1084.27859,0.89605
1082.78880,1.02724
1081.29901,0.97132
1079.80922,0.96815
1078.31943,0.97379
1076.82965,0.97946
1075.33986,1.14507
1073.85007,1.11741
1072.36028,1.21015
1070.87049,1.18167
1069.38070,1.23757
1067.89092,1.20826
1066.40113,1.17899
1064.91134,1.19456
1063.42155,1.02740
1061.93176,0.95077
1060.44197,0.98223
1058.95219,0.84328
1057.46240,0.82472
1055.97261,0.80619
1054.48282,0.79472
1052.99303,0.71387
1051.50324,0.67346
1050.01345,0.54962
1048.52367,0.46534
1047.03388,0.45928
1045.54409,0.45326
1044.05430,0.42705
1042.56451,0.40966
1041.07472,0.35364
1039.58494,0.28447
1038.09515,0.20918
1036.60536,0.22002
1035.11557,0.23089
1033.62578,0.27078
1032.13599,0.23514
1030.64620,0.30321
1029.15642,0.31947
1027.66663,0.33224
1026.17684,0.34504
1024.68705,0.38950
1023.19726,0.52624
1021.70747,0.66301
1020.21769,0.84111
1018.72790,0.98058
1017.23811,1.07790
1015.74832,1.17525
1014.25853,1.45186
1012.76874,1.62835
1011.27896,1.69943
1009.78917,1.87860
1008.29938,1.99982
1006.80959,1.98004
1005.31980,1.96030
1003.83001,1.80484
1002.34022,1.77065
1000.85044,1.59943
999.36065,1.48799
997.87086,1.43324
996.38107,1.37852
994.89128,1.32955
993.40149,1.27445
991.91171,1.27297
990.42192,1.23638
988.93213,1.18576
987.44234,1.16109
985.95255,1.13645
984.46276,1.13424
982.97297,1.09077
981.48319,1.00163
979.99340,0.95295
978.50361,0.91922
977.01382,0.88553
975.52403,0.82023
974.03424,0.79099
972.54446,0.70642
971.05467,0.63418
969.56488,0.62699
968.07509,0.63432
966.58530,0.64168
965.09551,0.57395
963.60573,0.61169
962.11594,0.53874
960.62615,0.52382
959.13636,0.47817
957.64657,0.43254
956.15678,0.40277
954.66699,0.39323
953.17721,0.38635
951.68742,0.44540
950.19763,0.43859
948.70784,0.43180
947.21805,0.40395
945.72826,0.36383
944.23848,0.34044
942.74869,0.41635
941.25890,0.38159
939.76911,0.40880
938.27932,0.43604
936.78953,0.48484
935.29974,0.55738
933.80996,0.45775
932.32017,0.54178
930.83038,0.55291
929.34059,0.56406
927.85080,0.52078
926.36101,0.43974
924.87123,0.47119
923.38144,0.46138
921.89165,0.47268
920.40186,0.48401
918.91207,0.47428
917.42228,0.46371
915.93250,0.44789
914.44271,0.49360
912.95292,0.50376
911.46313,0.51394
909.97334,0.51405
908.48355,0.58800
906.99376,0.53018
905.50398,0.52247
904.01419,0.49853
902.52440,0.47462
901.03461,0.49072
899.54482,0.50421
898.05503,0.50631
896.56525,0.58664
895.07546,0.55584
893.58567,0.52508
892.09588,0.54223
890.60609,0.56117
889.11630,0.50018
887.62651,0.51566
886.13673,0.53951
884.64694,0.56339
883.15715,0.52800
881.66736,0.55150
880.17757,0.61018
878.68778,0.62891
877.19800,0.64766
875.70821,0.63438
874.21842,0.66857
872.72863,0.71860
871.23884,0.79942
869.74905,0.77131
868.25927,0.74323
866.76948,0.74945
865.27969,0.74515
863.78990,0.76724
862.30011,0.79112
860.81032,0.81810
859.32053,0.84511
857.83075,0.79176
856.34096,0.76567
854.85117,0.74136
853.36138,0.59144
851.87159,0.57291
850.38180,0.55440
848.89202,0.51440
847.40223,0.34703
845.91244,0.32992
844.42265,0.32823
842.93286,0.32656
841.44307,0.27879
839.95329,0.26356
838.46350,0.21937
836.97371,0.18399
835.48392,0.20531
833.99413,0.22666
832.50434,0.18961
831.01455,0.26329
829.52477,0.23860
828.03498,0.22624
826.54519,0.20160
825.05540,0.17699
823.56561,0.17087
822.07582,0.20343
820.58604,0.17452
819.09625,0.13948
817.60646,0.10448
816.11667,0.07302
814.62688,0.02401
813.13709,0.00491
811.64730,0.01172
810.15752,0.02120
808.66773,0.03070
807.17794,0.03497
805.68815,0.03838
804.19836,0.05852
802.70857,0.06858
801.21879,0.07867
799.72900,0.10855
798.23921,0.20700
796.74942,0.27297
795.25963,0.31305
793.76984,0.35316
792.28006,0.39373
790.79027,0.42906
789.30048,0.44070
787.81069,0.48224
786.32090,0.50799
784.83111,0.53378
783.34132,0.51653
781.85154,0.58894
780.36175,0.60778
778.87196,0.62138
777.38217,0.63500
775.89238,0.73037
774.40259,0.70715
772.91281,0.70329
771.42302,0.72099
769.93323,0.73871
768.44344,0.68925
766.95365,0.71625
765.46386,0.69145
763.97407,0.60166
762.48429,0.57384
760.99450,0.54604
759.50471,0.47215
758.01492,0.40268
756.52513,0.32358
755.03534,0.30513
753.54556,0.28671
752.05577,0.16727
750.56598,0.16472
749.07619,0.12003
747.58640,0.07404
746.09661,0.02809
744.60683,0.03444
743.11704,0.05751
741.62725,0.04635
740.13746,0.02599
738.64767,0.00566
737.15788,0.04027
735.66809,0.03537
734.17831,0.03138
732.68852,0.01776
731.19873,0.00416
729.70894,0.09954
728.21915,0.05349
726.72936,0.03998
725.23958,0.02562
723.74979,0.04336
722.26000,0.06113
720.77021,0.05125
719.28042,0.11344
717.79063,0.05090
716.30084,0.04682
714.81106,0.04276
713.32127,0.00491
711.83148,0.06888
710.34169,0.00987
708.85190,0.02206
707.36211,0.03428
705.87233,0.06234
704.38254,0.02717
702.89275,0.06408
701.40296,0.06060
699.91317,0.05714
698.42338,0.12225
696.93360,0.12413
695.44381,0.14624
693.95402,0.15520
692.46423,0.16419
690.97444,0.14686
689.48465,0.17699
687.99486,0.22473
686.50508,0.19738
685.01529,0.17005
683.52550,0.25653
682.03571,0.22970
680.54592,0.18006
679.05613,0.19238
677.56635,0.20474
676.07656,0.15166
674.58677,0.14343
673.09698,0.13786
671.60719,0.12265
670.11740,0.10747
668.62761,0.09936
667.13783,0.04030
665.64804,0.04894
664.15825,0.05760
662.66846,0.10055
661.17867,0.09082
659.68888,0.00643
658.19910,0.04860
656.70931,0.09079
655.21952,0.09083
653.72973,0.13660
652.23994,0.08047
650.75015,0.10301
649.26037,0.12558
647.77058,0.13631
646.28079,0.09084
644.79100,0.09637
643.30121,0.09972
641.81142,0.10310
640.32163,0.08674
638.83185,0.07744
637.34206,0.00491
635.85227,0.01933
634.36248,0.03378
632.87269,0.01399
631.38290,0.07683
629.89312,0.06061
628.40333,0.03564
626.91354,0.01070
625.42375,0.02269
623.93396,0.07160
622.44417,0.07838
620.95438,0.08518
619.46460,0.09113
617.97481,0.05846
616.48502,0.09873
614.99523,0.12147
613.50544,0.14423
612.01565,0.10551
610.52587,0.07210
609.03608,0.10198
607.54629,0.10904
606.05650,0.11613
604.56671,0.16982
603.07692,0.17960
601.58714,0.18458
600.09735,0.18959
598.60756,0.09930
597.11777,0.09602
595.62798,0.10683
594.13819,0.09174
592.64840,0.07669
591.15862,0.10603
589.66883,0.10114
588.17904,0.08573
586.68925,0.06904
585.19946,0.05237
583.70967,0.11700
582.21989,0.15531
580.73010,0.14004
579.24031,0.12481
577.75052,0.13069
576.26073,0.11815
574.77094,0.07400
573.28115,0.10457
571.79137,0.13517
570.30158,0.17370
568.81179,0.22017
567.32200,0.23416
565.83221,0.24818
564.34242,0.29650
562.85264,0.30267
561.36285,0.35719
559.87306,0.36385
558.38327,0.37055
556.89348,0.41198
555.40369,0.46046
553.91391,0.45407
552.42412,0.44770
550.93433,0.49715
549.44454,0.53257
547.95475,0.47928
546.46496,0.50905
544.97517,0.53885
543.48539,0.57614
541.99560,0.59590
540.50581,0.62051
539.01602,0.64515
537.52623,0.57888
536.03644,0.57327
534.54666,0.53606
533.05687,0.55247
531.56708,0.56890
530.07729,0.49927
528.58750,0.47447
527.09771,0.49626
525.60792,0.51809
524.11814,0.45384
522.62835,0.40983
521.13856,0.37726
519.64877,0.35703
518.15898,0.33683
516.66919,0.32368
515.17941,0.26839
513.68962,0.28298
512.19983,0.29759
510.71004,0.26348
509.22025,0.25575
507.73046,0.30691
506.24068,0.27639
504.75089,0.24591
503.26110,0.27607
501.77131,0.30978
500.28152,0.32155
498.79173,0.33335
497.30194,0.25556
495.81216,0.27972
494.32237,0.30435
492.83258,0.32901
491.34279,0.30756
489.85300,0.29318
488.36321,0.24192
486.87343,0.21661
485.38364,0.19133
483.89385,0.24911
482.40406,0.21026
480.91427,0.16925
479.42448,0.12827
477.93469,0.11851
476.44491,0.06397
474.95512,0.07799
473.46533,0.09203
471.97554,0.04461
470.48575,0.06750
468.99596,0.01574
467.50618,0.01408
466.01639,0.01246
464.52660,0.01262
463.03681,0.00491
461.54702,0.04605
460.05723,0.08722
458.56745,0.01420
457.07766,0.06415
455.58787,0.06975
454.09808,0.07539
452.60829,0.10609
451.11850,0.08850
449.62871,0.10389
448.13893,0.11930
446.64914,0.15363
445.15935,0.21084
443.66956,0.29444
442.17977,0.36708
440.68998,0.43974
439.20020,0.41623
437.71041,0.45513
436.22062,0.50856
434.73083,0.56201
433.24104,0.67920
431.75125,0.84034
430.26146,0.85830
428.77168,0.87628
427.28189,0.95580
425.79210,0.97297
424.30231,0.98708
422.81252,1.00123
421.32273,1.11425
419.83295,0.92242
418.34316,0.87295
416.85337,0.82351
415.36358,0.69327
413.87379,0.61050
412.38400,0.57389
410.89422,0.53731
409.40443,0.54601
407.91464,0.51695
406.42485,0.44663
404.93506,0.41016
403.44527,0.37372
401.95548,0.40189
400.46570,0.32553
398.97591,0.33970
397.48612,0.35390
395.99633,0.40415
394.50654,0.39907
393.01675,0.39798
391.52697,0.39692
390.03718,0.31900
388.54739,0.28769
387.05760,0.30955
385.56781,0.33145
384.07802,0.34503
382.58824,0.34018
381.09845,0.32131
379.60866,0.30246
378.11887,0.28541
376.62908,0.19809
375.13929,0.20481
373.64950,0.21156
372.15972,0.19286
370.66993,0.19440
369.18014,0.14939
367.69035,0.10442
366.20056,0.12362
364.71077,0.08222
363.22099,0.12256
361.73120,0.16293
360.24141,0.16818
358.75162,0.16555
357.26183,0.18492
355.77204,0.20432
354.28225,0.17542
352.79247,0.10877
351.30268,0.10936
349.81289,0.10999
348.32310,0.13392
346.83331,0.08496
345.34352,0.06502
343.85374,0.04511
342.36395,0.14315
340.87416,0.18323
339.38437,0.18644
337.89458,0.18967
336.40479,0.20173
334.91501,0.16548
333.42522,0.15475
331.93543,0.14404
330.44564,0.14479
328.95585,0.17456
327.46606,0.15647
325.97627,0.13841
324.48649,0.06459
322.99670,0.15455
321.50691,0.12109
320.01712,0.08766
318.52733,0.13554
317.03754,0.23352
315.54776,0.21951
314.05797,0.20552
312.56818,0.12611
311.07839,0.09593
309.58860,0.05041
308.09881,0.00491
306.60902,0.03437
305.11924,0.09901
303.62945,0.06483
302.13966,0.03068
300.64987,0.00491
299.16008,0.00491
