1778.52000,0.00000
1777.03021,0.05535
1775.54042,0.04139
1774.05063,0.04378
1772.56085,0.01866
1771.07106,0.01805
1769.58127,0.02360
1768.09148,0.03835
1766.60169,0.01744
1765.11190,0.04857
1763.62212,0.00325
1762.13233,0.04362
1760.64254,0.05038
1759.15275,0.02249
1757.66296,0.00381
1756.17317,0.01984
1754.68339,0.00122
1753.19360,0.02649
1751.70381,0.00590
1750.21402,0.06080
1748.72423,0.03008
1747.23444,0.04324
1745.74465,0.04419
1744.25487,0.05537
1742.76508,0.06046
1741.27529,0.06865
1739.78550,0.05953
1738.29571,0.05044
1736.80592,0.07402
1735.31614,0.00381
1733.82635,0.05116
1732.33656,0.02104
1730.84677,0.03786
1729.35698,0.04247
1727.86719,0.02468
1726.37740,0.01508
1724.88762,0.02285
1723.39783,0.04595
1721.90804,0.00381
1720.41825,0.04735
1718.92846,0.01240
1717.43867,0.04376
1715.94889,0.04151
1714.45910,0.05458
1712.96931,0.04117
1711.47952,0.06451
1709.98973,0.06442
1708.49994,0.01541
1707.01016,0.02865
1705.52037,0.04191
1704.03058,0.04807
1702.54079,0.09606
1701.05100,0.07577
1699.56121,0.08202
1698.07142,0.10564
1696.58164,0.10380
1695.09185,0.12850
1693.60206,0.13998
1692.11227,0.10764
1690.62248,0.13652
1689.13269,0.18684
1687.64291,0.17499
1686.15312,0.16725
1684.66333,0.20951
1683.17354,0.14576
1681.68375,0.16667
1680.19396,0.16007
1678.70417,0.18921
1677.21439,0.15515
1675.72460,0.20677
1674.23481,0.19215
1672.74502,0.13372
1671.25523,0.15383
1669.76544,0.16377
1668.27566,0.13500
1666.78587,0.12870
1665.29608,0.14078
1663.80629,0.15289
1662.31650,0.17728
1660.82671,0.18741
1659.33693,0.14354
1657.84714,0.09256
1656.35735,0.12420
1654.86756,0.15690
1653.37777,0.10602
1651.88798,0.04599
1650.39819,0.10529
1648.90841,0.12894
1647.41862,0.10571
1645.92883,0.09730
1644.43904,0.08893
1642.94925,0.07191
1641.45946,0.10592
1639.96968,0.08795
1638.47989,0.11488
1636.99010,0.13368
1635.50031,0.13824
1634.01052,0.16323
1632.52073,0.09035
1631.03094,0.14803
1629.54116,0.11805
1628.05137,0.12277
1626.56158,0.06430
1625.07179,0.14964
1623.58200,0.16771
1622.09221,0.16439
1620.60243,0.16009
1619.11264,0.11810
1617.62285,0.13119
1616.13306,0.11373
1614.64327,0.15239
1613.15348,0.17476
1611.66370,0.13088
1610.17391,0.11967
1608.68412,0.10135
1607.19433,0.09427
1605.70454,0.15351
1604.21475,0.15007
1602.72496,0.14666
1601.23518,0.09587
1599.74539,0.18889
1598.25560,0.17385
1596.76581,0.11805
1595.27602,0.15712
1593.78623,0.09935
1592.29645,0.08647
1590.80666,0.09301
1589.31687,0.09855
1587.82708,0.05926
1586.33729,0.08220
1584.84750,0.10416
1583.35771,0.03641
1581.86793,0.07067
1580.37814,0.10190
1578.88835,0.05770
1577.39856,0.09307
1575.90877,0.05913
1574.41898,0.00381
1572.92920,0.04113
1571.43941,0.03872
1569.94962,0.03990
1568.45983,0.04112
1566.97004,0.07959
1565.48025,0.02224
1563.99047,0.01692
1562.50068,0.06160
1561.01089,0.02780
1559.52110,0.05521
1558.03131,0.10610
1556.54152,0.07443
1555.05173,0.04789
1553.56195,0.04076
1552.07216,0.11728
1550.58237,0.06636
1549.09258,0.04199
1547.60279,0.02377
1546.11300,0.07695
1544.62322,0.06083
1543.13343,0.04169
1541.64364,0.02767
1540.15385,0.01573
1538.66406,0.00381
1537.17427,0.06946
1535.68448,0.04745
1534.19470,0.04179
1532.70491,0.05451
1531.21512,0.01526
1529.72533,0.01173
1528.23554,0.00415
1526.74575,0.03535
1525.25597,0.03090
1523.76618,0.02750
1522.27639,0.01291
1520.78660,0.03302
1519.29681,0.01034
1517.80702,0.05499
1516.31724,0.03441
1514.82745,0.01896
1513.33766,0.02496
1511.84787,0.03099
1510.35808,0.00034
1508.86829,0.05658
1507.37850,0.01905
1505.88872,0.02641
1504.39893,0.01137
1502.90914,0.06672
1501.41935,0.00381
1499.92956,0.03226
1498.43977,0.07196
1496.94999,0.10558
1495.46020,0.12494
1493.97041,0.14944
1492.48062,0.23108
1490.99083,0.23219
1489.50104,0.24556
1488.01125,0.29212
1486.52147,0.33870
1485.03168,0.38888
1483.54189,0.50537
1482.05210,0.54746
1480.56231,0.63241
1479.07252,0.80202
1477.58274,0.86052
1476.09295,0.91803
1474.60316,0.97252
1473.11337,0.99950
1471.62358,1.01530
1470.13379,1.03827
1468.64401,0.96847
1467.15422,0.95786
1465.66443,0.92739
1464.17464,0.89695
1462.68485,0.85787
1461.19506,0.78518
1459.70527,0.75534
1458.21549,0.75409
1456.72570,0.62439
1455.23591,0.59873
1453.74612,0.50071
1452.25633,0.46593
1450.76654,0.47096
1449.27676,0.42809
1447.78697,0.44542
1446.29718,0.42709
1444.80739,0.39502
1443.31760,0.36299
1441.82781,0.24278
1440.33802,0.21030
1438.84824,0.17174
1437.35845,0.17093
1435.86866,0.19871
1434.37887,0.16432
1432.88908,0.16157
1431.39929,0.24553
1429.90951,0.20307
1428.41972,0.17594
1426.92993,0.22839
1425.44014,0.24517
1423.95035,0.25332
1422.46056,0.26150
1420.97078,0.24677
1419.48099,0.20147
1417.99120,0.15622
1416.50141,0.25477
1415.01162,0.25750
1413.52183,0.27759
1412.03204,0.23858
1410.54226,0.30259
1409.05247,0.17492
1407.56268,0.23797
1406.07289,0.26741
1404.58310,0.27903
1403.09331,0.29068
1401.60353,0.26515
1400.11374,0.35385
1398.62395,0.38446
1397.13416,0.40287
1395.64437,0.42946
1394.15458,0.49178
1392.66479,0.52456
1391.17501,0.57878
1389.68522,0.51170
1388.19543,0.52825
1386.70564,0.51119
1385.21585,0.49417
1383.72606,0.48941
1382.23628,0.51221
1380.74649,0.49018
1379.25670,0.52834
1377.76691,0.57979
1376.27712,0.60986
1374.78733,0.59408
1373.29755,0.71292
1371.80776,0.81956
1370.31797,0.90584
1368.82818,1.00949
1367.33839,1.11317
1365.84860,1.28520
1364.35881,1.47154
1362.86903,1.68136
1361.37924,1.74336
1359.88945,1.83088
1358.39966,1.78077
1356.90987,1.88161
1355.42008,1.81016
1353.93030,1.73363
1352.44051,1.68060
1350.95072,1.62759
1349.46093,1.58277
1347.97114,1.33609
1346.48135,1.07720
1344.99156,0.88156
1343.50178,0.85522
1342.01199,0.87685
1340.52220,0.66295
1339.03241,0.68464
1337.54262,0.59521
1336.05283,0.53691
1334.56305,0.47864
1333.07326,0.41786
1331.58347,0.36221
1330.09368,0.39632
1328.60389,0.36011
1327.11410,0.36777
1325.62432,0.30001
1324.13453,0.31794
1322.64474,0.28491
1321.15495,0.32737
1319.66516,0.32398
1318.17537,0.32062
1316.68558,0.32646
1315.19580,0.30685
1313.70601,0.18326
1312.21622,0.18614
1310.72643,0.20639
1309.23664,0.20220
1307.74685,0.18785
1306.25707,0.20004
1304.76728,0.19543
1303.27749,0.19086
1301.78770,0.20620
1300.29791,0.17875
1298.80812,0.23086
1297.31834,0.23304
1295.82855,0.26993
1294.33876,0.22935
1292.84897,0.20103
1291.35918,0.21048
1289.86939,0.21282
1288.37960,0.21519
1286.88982,0.19312
1285.40003,0.23329
1283.91024,0.24799
1282.42045,0.30046
1280.93066,0.24385
1279.44087,0.32187
1277.95109,0.28674
1276.46130,0.30262
1274.97151,0.28590
1273.48172,0.26922
1271.99193,0.35250
1270.50214,0.36239
1269.01235,0.35906
1267.52257,0.35474
1266.03278,0.37594
1264.54299,0.42369
1263.05320,0.47045
1261.56341,0.45402
1260.07362,0.43762
1258.58384,0.49060
1257.09405,0.46304
1255.60426,0.50181
1254.11447,0.49777
1252.62468,0.47847
1251.13489,0.43168
1249.64511,0.39001
1248.15532,0.31268
1246.66553,0.32308
1245.17574,0.33352
1243.68595,0.25934
1242.19616,0.26168
1240.70637,0.27425
1239.21659,0.30214
1237.72680,0.20159
1236.23701,0.18366
1234.74722,0.19227
1233.25743,0.17390
1231.76764,0.15556
1230.27786,0.14285
1228.78807,0.12814
1227.29828,0.17363
1225.80849,0.09576
1224.31870,0.05157
1222.82891,0.10735
1221.33912,0.11319
1219.84934,0.11141
1218.35955,0.10967
1216.86976,0.18393
1215.37997,0.14809
1213.89018,0.12452
1212.40039,0.06835
1210.91061,0.03771
1209.42082,0.07542
1207.93103,0.10500
1206.44124,0.13461
1204.95145,0.12347
1203.46166,0.05729
1201.97188,0.04723
1200.48209,0.08615
1198.99230,0.02925
1197.50251,0.05293
1196.01272,0.03178
1194.52293,0.02086
1193.03314,0.00997
1191.54336,0.01339
1190.05357,0.02806
1188.56378,0.06213
1187.07399,0.00243
1185.58420,0.06954
1184.09441,0.05612
1182.60463,0.07028
1181.11484,0.08446
1179.62505,0.06502
1178.13526,0.03338
1176.64547,0.00381
1175.15568,0.06943
1173.66589,0.03821
1172.17611,0.06208
1170.68632,0.05335
1169.19653,0.04466
1167.70674,0.04517
1166.21695,0.06611
1164.72716,0.02794
1163.23738,0.01835
1161.74759,0.07406
1160.25780,0.01355
1158.76801,0.01630
1157.27822,0.01907
1155.78843,0.04125
1154.29865,0.06857
1152.80886,0.05002
1151.31907,0.02743
1149.82928,0.08034
1148.33949,0.04761
1146.84970,0.03073
1145.35991,0.01387
1143.87013,0.03019
1142.38034,0.10059
1140.89055,0.06700
1139.40076,0.09973
1137.91097,0.09068
1136.42118,0.17548
1134.93140,0.16803
1133.44161,0.16061
1131.95182,0.21491
1130.46203,0.29983
1128.97224,0.35114
1127.48245,0.28419
1125.99266,0.29069
1124.50288,0.32476
1123.01309,0.32776
1121.52330,0.33079
1120.03351,0.39758
1118.54372,0.43381
1117.05393,0.48435
1115.56415,0.45641
1114.07436,0.45399
1112.58457,0.42764
1111.09478,0.40132
1109.60499,0.46731
1108.11520,0.55679
1106.62542,0.55249
1105.13563,0.61450
1103.64584,0.60721
1102.15605,0.75086
1100.66626,0.74209
1099.17647,0.73336
1097.68668,0.70682
1096.19690,0.82001
1094.70711,0.79863
1093.21732,0.87415
1091.72753,0.85589
1090.23774,0.92332
1088.74795,0.99078
1087.25817,0.97669
1085.76838,0.97590
1084.27859,1.03427
1082.78880,1.06515
1081.29901,1.13583
1079.80922,1.09029
1078.31943,1.15644
1076.82965,1.22263
1075.33986,1.22715
1073.85007,1.29901
1072.36028,1.28830
1070.87049,1.19605
1069.38070,1.34040
1067.89092,1.32316
1066.40113,1.30595
1064.91134,1.28317
1063.42155,1.25429
1061.93176,1.03375
1060.44197,1.03247
1058.95219,0.92008
1057.46240,0.91785
1055.97261,0.91565
1054.48282,0.84822
1052.99303,0.78388
1051.50324,0.67675
1050.01345,0.58902
1048.52367,0.62675
1047.03388,0.57222
1045.54409,0.51773
1044.05430,0.60858
1042.56451,0.51387
1041.07472,0.40696
1039.58494,0.35004
1038.09515,0.32171
1036.60536,0.32349
1035.11557,0.32530
1033.62578,0.36539
1032.13599,0.32699
1030.64620,0.31513
1029.15642,0.35531
1027.66663,0.36442
1026.17684,0.37356
1024.68705,0.47706
1023.19726,0.57957
1021.70747,0.80141
1020.21769,0.89684
1018.72790,1.03208
1017.23811,1.16377
1015.74832,1.29550
1014.25853,1.53892
1012.76874,1.71201
1011.27896,1.96773
1009.78917,1.99405
1008.29938,2.00000
1006.80959,1.98355
1005.31980,1.96714
1003.83001,1.84165
1002.34022,1.87016
1000.85044,1.69681
999.36065,1.55407
997.87086,1.49703
996.38107,1.44002
994.89128,1.54517
993.40149,1.51779
991.91171,1.45374
990.42192,1.41826
988.93213,1.39710
987.44234,1.37444
985.95255,1.35181
984.46276,1.25630
982.97297,1.20773
981.48319,1.26320
979.99340,1.10253
978.50361,1.05864
977.01382,1.01479
975.52403,0.97556
974.03424,1.00060
972.54446,0.93186
971.05467,0.92943
969.56488,0.90868
968.07509,0.89408
966.58530,0.87951
965.09551,0.80379
963.60573,0.73830
962.11594,0.74320
960.62615,0.63494
959.13636,0.60982
957.64657,0.58474
956.15678,0.63055
954.66699,0.63561
953.17721,0.59788
951.68742,0.57853
950.19763,0.55666
948.70784,0.53482
947.21805,0.54412
945.72826,0.53407
944.23848,0.52202
942.74869,0.56098
941.25890,0.56327
939.76911,0.59873
938.27932,0.63422
936.78953,0.71104
935.29974,0.68592
933.80996,0.62514
932.32017,0.69594
930.83038,0.74331
929.34059,0.79072
927.85080,0.73109
926.36101,0.66028
924.87123,0.65578
923.38144,0.62683
921.89165,0.61577
920.40186,0.60473
918.91207,0.61769
917.42228,0.70512
915.93250,0.63963
914.44271,0.72202
912.95292,0.73307
911.46313,0.74415
909.97334,0.69612
908.48355,0.78272
906.99376,0.71639
905.50398,0.62359
904.01419,0.65420
902.52440,0.68485
901.03461,0.63497
899.54482,0.77478
898.05503,0.73109
896.56525,0.74860
895.07546,0.75442
893.58567,0.76027
892.09588,0.74117
890.60609,0.78329
889.11630,0.80606
887.62651,0.79726
886.13673,0.78185
884.64694,0.76648
883.15715,0.81997
881.66736,0.80212
880.17757,0.79959
878.68778,0.83584
877.19800,0.87212
875.70821,0.86255
874.21842,0.86321
872.72863,0.92610
871.23884,0.93600
869.74905,0.94593
868.25927,0.95589
866.76948,0.95976
865.27969,1.02383
863.78990,1.13076
862.30011,1.03378
860.81032,1.02351
859.32053,1.01327
857.83075,0.95105
856.34096,0.90212
854.85117,0.91645
853.36138,0.85637
851.87159,0.82538
850.38180,0.79443
848.89202,0.70589
847.40223,0.59699
845.91244,0.53707
844.42265,0.48330
842.93286,0.42956
841.44307,0.46559
839.95329,0.38438
838.46350,0.33583
836.97371,0.30975
835.48392,0.37344
833.99413,0.43716
832.50434,0.36529
831.01455,0.36177
829.52477,0.39091
828.03498,0.34055
826.54519,0.31316
825.05540,0.28580
823.56561,0.24369
822.07582,0.25464
820.58604,0.25950
819.09625,0.20882
817.60646,0.15817
816.11667,0.12438
814.62688,0.17933
813.13709,0.10991
811.64730,0.00381
810.15752,0.02518
808.66773,0.04658
807.17794,0.07668
805.68815,0.10172
804.19836,0.09313
802.70857,0.11874
801.21879,0.14438
799.72900,0.23072
798.23921,0.28345
796.74942,0.35252
795.25963,0.41040
793.76984,0.46832
792.28006,0.46509
790.79027,0.58629
789.30048,0.62391
787.81069,0.72886
786.32090,0.73290
784.83111,0.73696
783.34132,0.78898
781.85154,0.74621
780.36175,0.79829
778.87196,0.78260
777.38217,0.76694
775.89238,0.84461
774.40259,0.90295
772.91281,0.92460
771.42302,0.93150
769.93323,0.93843
768.44344,0.94590
766.95365,0.89835
765.46386,0.97114
763.97407,0.83086
762.48429,0.78798
760.99450,0.74514
759.50471,0.60291
758.01492,0.53922
756.52513,0.54491
755.03534,0.44764
753.54556,0.35040
752.05577,0.24504
750.56598,0.21721
749.07619,0.15167
747.58640,0.13155
746.09661,0.11146
744.60683,0.11332
743.11704,0.08361
741.62725,0.07228
740.13746,0.05537
738.64767,0.03850
737.15788,0.00381
735.66809,0.02122
734.17831,0.03458
732.68852,0.05510
731.19873,0.07566
729.70894,0.03711
728.21915,0.10362
726.72936,0.03046
725.23958,0.07052
723.74979,0.07747
722.26000,0.08446
720.77021,0.06649
719.28042,0.04550
717.79063,0.02555
716.30084,0.02349
714.81106,0.02145
713.32127,0.03118
711.83148,0.04399
710.34169,0.00381
708.85190,0.01030
707.36211,0.01682
705.87233,0.02234
704.38254,0.01975
702.89275,0.05389
701.40296,0.07838
699.91317,0.10290
698.42338,0.16977
696.93360,0.11635
695.44381,0.17104
693.95402,0.16612
692.46423,0.16123
690.97444,0.14872
689.48465,0.23312
687.99486,0.25534
686.50508,0.24395
685.01529,0.23259
683.52550,0.32629
682.03571,0.21608
680.54592,0.20787
679.05613,0.19154
677.56635,0.17524
676.07656,0.16407
674.58677,0.20494
673.09698,0.07555
671.60719,0.11291
670.11740,0.15030
668.62761,0.07301
667.13783,0.07936
665.64804,0.08371
664.15825,0.08809
662.66846,0.14247
661.17867,0.07859
659.68888,0.09326
658.19910,0.12020
656.70931,0.14717
655.21952,0.07119
653.72973,0.08904
652.23994,0.06411
650.75015,0.08050
649.26037,0.09692
647.77058,0.09145
646.28079,0.04217
644.79100,0.12548
643.30121,0.07677
641.81142,0.02809
640.32163,0.08498
638.83185,0.09092
637.34206,0.01430
635.85227,0.02080
634.36248,0.02733
632.87269,0.00381
631.38290,0.10827
629.89312,0.07306
628.40333,0.06236
626.91354,0.05168
625.42375,0.06654
623.93396,0.14464
622.44417,0.12998
620.95438,0.11536
619.46460,0.11606
617.97481,0.10660
616.48502,0.06556
614.99523,0.06177
613.50544,0.05801
612.01565,0.05071
610.52587,0.11483
609.03608,0.17592
607.54629,0.16923
606.05650,0.16257
604.56671,0.22783
603.07692,0.15852
601.58714,0.18204
600.09735,0.20559
598.60756,0.15983
597.11777,0.07637
595.62798,0.13775
594.13819,0.12675
592.64840,0.11579
591.15862,0.06917
589.66883,0.12558
588.17904,0.15754
586.68925,0.12019
585.19946,0.08288
583.70967,0.07210
582.21989,0.13784
580.73010,0.16486
579.24031,0.19192
577.75052,0.20167
576.26073,0.18392
574.77094,0.25084
573.28115,0.23468
571.79137,0.21855
570.30158,0.24682
568.81179,0.32814
567.32200,0.30905
565.83221,0.28999
564.34242,0.28881
562.85264,0.42736
561.36285,0.46193
559.87306,0.46850
558.38327,0.47509
556.89348,0.53831
555.40369,0.49245
553.91391,0.51903
552.42412,0.54563
550.93433,0.55494
549.44454,0.61424
547.95475,0.81327
546.46496,0.75689
544.97517,0.70055
543.48539,0.79465
541.99560,0.75724
540.50581,0.77186
539.01602,0.78652
537.52623,0.77673
536.03644,0.66705
534.54666,0.77255
533.05687,0.76286
531.56708,0.75320
530.07729,0.65690
528.58750,0.64221
527.09771,0.61429
525.60792,0.58640
524.11814,0.48207
522.62835,0.54806
521.13856,0.46928
519.64877,0.45835
518.15898,0.44745
516.66919,0.41466
515.17941,0.44206
513.68962,0.41595
512.19983,0.38988
510.71004,0.34600
509.22025,0.28583
507.73046,0.29708
506.24068,0.35067
504.75089,0.40430
503.26110,0.45234
501.77131,0.38010
500.28152,0.38946
498.79173,0.39886
497.30194,0.34302
495.81216,0.41672
494.32237,0.44151
492.83258,0.46633
491.34279,0.38921
489.85300,0.48649
488.36321,0.38598
486.87343,0.34413
485.38364,0.30232
483.89385,0.27430
482.40406,0.33299
480.91427,0.28669
479.42448,0.24041
477.93469,0.19009
476.44491,0.24279
474.95512,0.16551
473.46533,0.08826
471.97554,0.11250
470.48575,0.09497
468.99596,0.11520
467.50618,0.05949
466.01639,0.00381
464.52660,0.05118
463.03681,0.04454
461.54702,0.05425
460.05723,0.06399
458.56745,0.06662
457.07766,0.11517
455.58787,0.12551
454.09808,0.13588
452.60829,0.23755
451.11850,0.24034
449.62871,0.26509
448.13893,0.28987
446.64914,0.27338
445.15935,0.34971
443.66956,0.45973
442.17977,0.48616
440.68998,0.51263
439.20020,0.57686
437.71041,0.71657
436.22062,0.77271
434.73083,0.82887
433.24104,0.94217
431.75125,1.06264
430.26146,1.12247
428.77168,1.18233
427.28189,1.17441
425.79210,1.30724
424.30231,1.31519
422.81252,1.32317
421.32273,1.25114
419.83295,1.19852
418.34316,1.16224
416.85337,1.12599
415.36358,0.77571
413.87379,0.75482
412.38400,0.68910
410.89422,0.62340
409.40443,0.63014
407.91464,0.63385
406.42485,0.50504
404.93506,0.49301
403.44527,0.48101
401.95548,0.54705
400.46570,0.48770
398.97591,0.51760
397.48612,0.54754
395.99633,0.51582
394.50654,0.55346
393.01675,0.50957
391.52697,0.46570
390.03718,0.42187
388.54739,0.36074
387.05760,0.38529
385.56781,0.40987
384.07802,0.42225
382.58824,0.33982
381.09845,0.28649
379.60866,0.23320
378.11887,0.31300
376.62908,0.22561
375.13929,0.20606
373.64950,0.18654
372.15972,0.16552
370.66993,0.20877
369.18014,0.17303
367.69035,0.13732
366.20056,0.05627
364.71077,0.18225
363.22099,0.18488
361.73120,0.18753
360.24141,0.08519
358.75162,0.08384
357.26183,0.12942
355.77204,0.17503
354.28225,0.07078
352.79247,0.03692
351.30268,0.05101
349.81289,0.06514
348.32310,0.01914
346.83331,0.00988
345.34352,0.03439
343.85374,0.05894
342.36395,0.02131
340.87416,0.19582
339.38437,0.13276
337.89458,0.06974
336.40479,0.09139
334.91501,0.05086
333.42522,0.03229
331.93543,0.01375
330.44564,0.07325
328.95585,0.11443
327.46606,0.07152
325.97627,0.02863
324.48649,0.01408
322.99670,0.02301
321.50691,0.02636
320.01712,0.02975
318.52733,0.12442
317.03754,0.07536
315.54776,0.07119
314.05797,0.06705
312.56818,0.05479
311.07839,0.00381
309.58860,0.01257
308.09881,0.02136
306.60902,0.03987
305.11924,0.09920
303.62945,0.05659
302.13966,0.01401
300.64987,0.01909
299.16008,0.00381
