1778.52000,0.02859
1777.03021,0.04514
1775.54042,0.05358
1774.05063,0.04501
1772.56085,0.03425
1771.07106,0.01093
1769.58127,0.01800
1768.09148,0.02732
1766.60169,0.04852
1765.11190,0.04013
1763.62212,0.00511
1762.13233,0.05824
1760.64254,0.03587
1759.15275,0.03278
1757.66296,0.03787
1756.17317,0.02447
1754.68339,0.01480
1753.19360,0.02072
1751.70381,0.00000
1750.21402,0.00301
1748.72423,0.01494
1747.23444,0.02838
1745.74465,0.02407
1744.25487,0.02572
1742.76508,0.03703
1741.27529,0.04318
1739.78550,0.01529
1738.29571,0.02002
1736.80592,0.02552
1735.31614,0.01031
1733.82635,0.00920
1732.33656,0.03256
1730.84677,0.03966
1729.35698,0.05197
1727.86719,0.03691
1726.37740,0.04188
1724.88762,0.02614
1723.39783,0.02301
1721.90804,0.00511
1720.41825,0.02678
1718.92846,0.01812
1717.43867,0.02060
1715.94889,0.04162
1714.45910,0.04194
1712.96931,0.04895
1711.47952,0.02784
1709.98973,0.04750
1708.49994,0.05016
1707.01016,0.04432
1705.52037,0.03852
1704.03058,0.07015
1702.54079,0.10106
1701.05100,0.10460
1699.56121,0.09781
1698.07142,0.13029
1696.58164,0.11097
1695.09185,0.13536
1693.60206,0.12054
1692.11227,0.15166
1690.62248,0.17022
1689.13269,0.18066
1687.64291,0.14004
1686.15312,0.16757
1684.66333,0.14330
1683.17354,0.16793
1681.68375,0.18593
1680.19396,0.16618
1678.70417,0.18942
1677.21439,0.17937
1675.72460,0.16490
1674.23481,0.15934
1672.74502,0.15752
1671.25523,0.13795
1669.76544,0.15989
1668.27566,0.17223
1666.78587,0.14164
1665.29608,0.14959
1663.80629,0.13906
1662.31650,0.14633
1660.82671,0.14327
1659.33693,0.15430
1657.84714,0.14092
1656.35735,0.15202
1654.86756,0.16610
1653.37777,0.13134
1651.88798,0.11438
1650.39819,0.18631
1648.90841,0.11905
1647.41862,0.09477
1645.92883,0.09644
1644.43904,0.09815
1642.94925,0.11024
1641.45946,0.10682
1639.96968,0.11379
1638.47989,0.13709
1636.99010,0.10043
1635.50031,0.09860
1634.01052,0.14346
1632.52073,0.07801
1631.03094,0.10885
1629.54116,0.13084
1628.05137,0.14842
1626.56158,0.13863
1625.07179,0.15478
1623.58200,0.16134
1622.09221,0.15682
1620.60243,0.16121
1619.11264,0.15082
1617.62285,0.17527
1616.13306,0.16272
1614.64327,0.11909
1613.15348,0.13549
1611.66370,0.13858
1610.17391,0.13207
1608.68412,0.14040
1607.19433,0.12506
1605.70454,0.16456
1604.21475,0.14817
1602.72496,0.13181
1601.23518,0.15362
1599.74539,0.13325
1598.25560,0.10476
1596.76581,0.10815
1595.27602,0.07972
1593.78623,0.08612
1592.29645,0.12144
1590.80666,0.09902
1589.31687,0.03887
1587.82708,0.06613
1586.33729,0.08231
1584.84750,0.08222
1583.35771,0.06884
1581.86793,0.04734
1580.37814,0.07697
1578.88835,0.07108
1577.39856,0.07041
1575.90877,0.04014
1574.41898,0.01064
1572.92920,0.06337
1571.43941,0.04356
1569.94962,0.02748
1568.45983,0.01143
1566.97004,0.03762
1565.48025,0.03200
1563.99047,0.03159
1562.50068,0.02158
1561.01089,0.05011
1559.52110,0.05867
1558.03131,0.02580
1556.54152,0.04331
1555.05173,0.04085
1553.56195,0.04361
1552.07216,0.06417
1550.58237,0.03885
1549.09258,0.06021
1547.60279,0.02828
1546.11300,0.04229
1544.62322,0.04819
1543.13343,0.06449
1541.64364,0.03934
1540.15385,0.04088
1538.66406,0.04245
1537.17427,0.07442
1535.68448,0.04346
1534.19470,0.03328
1532.70491,0.03200
1531.21512,0.02706
1529.72533,0.00511
1528.23554,0.02766
1526.74575,0.06580
1525.25597,0.03139
1523.76618,0.04440
1522.27639,0.04338
1520.78660,0.01794
1519.29681,0.00957
1517.80702,0.00937
1516.31724,0.02388
1514.82745,0.03619
1513.33766,0.03484
1511.84787,0.03351
1510.35808,0.05109
1508.86829,0.02798
1507.37850,0.03081
1505.88872,0.03071
1504.39893,0.01509
1502.90914,0.01875
1501.41935,0.04540
1499.92956,0.05949
1498.43977,0.04917
1496.94999,0.05518
1495.46020,0.11675
1493.97041,0.14132
1492.48062,0.14964
1490.99083,0.18390
1489.50104,0.27299
1488.01125,0.30065
1486.52147,0.32833
1485.03168,0.46195
1483.54189,0.46822
1482.05210,0.51080
1480.56231,0.61340
1479.07252,0.74121
1477.58274,0.76019
1476.09295,0.79771
1474.60316,0.86710
1473.11337,0.92837
1471.62358,0.96376
1470.13379,0.92882
1468.64401,0.89613
1467.15422,0.86718
1465.66443,0.85640
1464.17464,0.84564
1462.68485,0.75012
1461.19506,0.74499
1459.70527,0.67396
1458.21549,0.61630
1456.72570,0.57645
1455.23591,0.55217
1453.74612,0.51608
1452.25633,0.44965
1450.76654,0.47656
1449.27676,0.42500
1447.78697,0.37791
1446.29718,0.34937
1444.80739,0.30753
1443.31760,0.26571
1441.82781,0.21060
1440.33802,0.19772
1438.84824,0.21228
1437.35845,0.16466
1435.86866,0.14373
1434.37887,0.14505
1432.88908,0.14713
1431.39929,0.15147
1429.90951,0.13510
1428.41972,0.14468
1426.92993,0.15577
1425.44014,0.13060
1423.95035,0.15249
1422.46056,0.17441
1420.97078,0.15303
1419.48099,0.18426
1417.99120,0.16591
1416.50141,0.22757
1415.01162,0.20334
1413.52183,0.26802
1412.03204,0.24164
1410.54226,0.19603
1409.05247,0.20599
1407.56268,0.21969
1406.07289,0.19194
1404.58310,0.20459
1403.09331,0.21726
1401.60353,0.21182
1400.11374,0.30712
1398.62395,0.30841
1397.13416,0.29787
1395.64437,0.34883
1394.15458,0.39019
1392.66479,0.36123
1391.17501,0.38191
1389.68522,0.34338
1388.19543,0.39375
1386.70564,0.40193
1385.21585,0.41015
1383.72606,0.42283
1382.23628,0.38297
1380.74649,0.37868
1379.25670,0.35739
1377.76691,0.36797
1376.27712,0.40598
1374.78733,0.45217
1373.29755,0.53542
1371.80776,0.61944
1370.31797,0.68201
1368.82818,0.79867
1367.33839,0.91536
1365.84860,1.08762
1364.35881,1.26361
1362.86903,1.31152
1361.37924,1.41204
1359.88945,1.46074
1358.39966,1.51614
1356.90987,1.52269
1355.42008,1.49743
1353.93030,1.41517
1352.44051,1.32258
1350.95072,1.23001
1349.46093,1.16709
1347.97114,0.96202
1346.48135,0.85103
1344.99156,0.78006
1343.50178,0.71282
1342.01199,0.64487
1340.52220,0.55399
1339.03241,0.49128
1337.54262,0.41453
1336.05283,0.42001
1334.56305,0.42553
1333.07326,0.37997
1331.58347,0.38406
1330.09368,0.40077
1328.60389,0.31901
1327.11410,0.28987
1325.62432,0.28075
1324.13453,0.22574
1322.64474,0.21964
1321.15495,0.24985
1319.66516,0.24455
1318.17537,0.23928
1316.68558,0.21849
1315.19580,0.19698
1313.70601,0.16736
1312.21622,0.12740
1310.72643,0.16671
1309.23664,0.15791
1307.74685,0.19654
1306.25707,0.17299
1304.76728,0.17058
1303.27749,0.16819
1301.78770,0.20842
1300.29791,0.18573
1298.80812,0.14455
1297.31834,0.19006
1295.82855,0.18819
1294.33876,0.17376
1292.84897,0.17714
1291.35918,0.17610
1289.86939,0.17694
1288.37960,0.17781
1286.88982,0.19390
1285.40003,0.25371
1283.91024,0.27503
1282.42045,0.25640
1280.93066,0.21039
1279.44087,0.27698
1277.95109,0.22733
1276.46130,0.21252
1274.97151,0.21662
1273.48172,0.22075
1271.99193,0.25712
1270.50214,0.28538
1269.01235,0.31663
1267.52257,0.37901
1266.03278,0.34663
1264.54299,0.32242
1263.05320,0.37823
1261.56341,0.39407
1260.07362,0.40995
1258.58384,0.41030
1257.09405,0.38179
1255.60426,0.40516
1254.11447,0.36635
1252.62468,0.34238
1251.13489,0.31696
1249.64511,0.31453
1248.15532,0.27806
1246.66553,0.29642
1245.17574,0.31481
1243.68595,0.29176
1242.19616,0.30872
1240.70637,0.25907
1239.21659,0.18871
1237.72680,0.17763
1236.23701,0.17175
1234.74722,0.14592
1233.25743,0.13529
1231.76764,0.12469
1230.27786,0.16485
1228.78807,0.11914
1227.29828,0.11715
1225.80849,0.07223
1224.31870,0.07845
1222.82891,0.08025
1221.33912,0.03172
1219.84934,0.04876
1218.35955,0.06582
1216.86976,0.09885
1215.37997,0.12819
1213.89018,0.12721
1212.40039,0.06701
1210.91061,0.08756
1209.42082,0.06222
1207.93103,0.04839
1206.44124,0.03459
1204.95145,0.07748
1203.46166,0.06189
1201.97188,0.05003
1200.48209,0.04190
1198.99230,0.05232
1197.50251,0.03240
1196.01272,0.00511
1194.52293,0.02303
1193.03314,0.04098
1191.54336,0.00602
1190.05357,0.04937
1188.56378,0.01499
1187.07399,0.00656
1185.58420,0.03069
1184.09441,0.03633
1182.60463,0.02163
1181.11484,0.00696
1179.62505,0.02548
1178.13526,0.05736
1176.64547,0.06631
1175.15568,0.10566
1173.66589,0.07320
1172.17611,0.05113
1170.68632,0.04761
1169.19653,0.04412
1167.70674,0.00437
1166.21695,0.07707
1164.72716,0.06983
1163.23738,0.04632
1161.74759,0.05320
1160.25780,0.03123
1158.76801,0.02743
1157.27822,0.02366
1155.78843,0.04548
1154.29865,0.00511
1152.80886,0.02531
1151.31907,0.06256
1149.82928,0.07097
1148.33949,0.08829
1146.84970,0.08491
1145.35991,0.08155
1143.87013,0.10785
1142.38034,0.06678
1140.89055,0.12128
1139.40076,0.12693
1137.91097,0.20370
1136.42118,0.23459
1134.93140,0.23218
1133.44161,0.22981
1131.95182,0.24671
1130.46203,0.28957
1128.97224,0.26654
1127.48245,0.27761
1125.99266,0.31759
1124.50288,0.29391
1123.01309,0.30618
1121.52330,0.31848
1120.03351,0.38598
1118.54372,0.34465
1117.05393,0.39221
1115.56415,0.39537
1114.07436,0.44077
1112.58457,0.43880
1111.09478,0.43687
1109.60499,0.43052
1108.11520,0.51084
1106.62542,0.53121
1105.13563,0.61308
1103.64584,0.67202
1102.15605,0.72728
1100.66626,0.74629
1099.17647,0.76532
1097.68668,0.73032
1096.19690,0.82570
1094.70711,0.84038
1093.21732,0.92026
1091.72753,0.90537
1090.23774,0.88460
1088.74795,0.86385
1087.25817,0.90163
1085.76838,0.97499
1084.27859,1.04394
1082.78880,1.12403
1081.29901,1.18563
1079.80922,1.18431
1078.31943,1.15822
1076.82965,1.13215
1075.33986,1.19905
1073.85007,1.20970
1072.36028,1.23815
1070.87049,1.31551
1069.38070,1.42771
1067.89092,1.37257
1066.40113,1.31745
1064.91134,1.27200
1063.42155,1.16658
1061.93176,1.09823
1060.44197,1.05953
1058.95219,1.01271
1057.46240,0.95703
1055.97261,0.90138
1054.48282,0.85539
1052.99303,0.76425
1051.50324,0.71758
1050.01345,0.69093
1048.52367,0.58507
1047.03388,0.57293
1045.54409,0.56081
1044.05430,0.54687
1042.56451,0.49075
1041.07472,0.45909
1039.58494,0.42302
1038.09515,0.35588
1036.60536,0.33061
1035.11557,0.30537
1033.62578,0.27016
1032.13599,0.30607
1030.64620,0.30721
1029.15642,0.35059
1027.66663,0.37807
1026.17684,0.40559
1024.68705,0.47868
1023.19726,0.58808
1021.70747,0.77602
1020.21769,0.90548
1018.72790,1.12977
1017.23811,1.22929
1015.74832,1.32885
1014.25853,1.54952
1012.76874,1.79021
1011.27896,1.87023
1009.78917,1.98139
1008.29938,2.00000
1006.80959,1.95940
1005.31980,1.91882
1003.83001,1.78200
1002.34022,1.81851
1000.85044,1.66249
999.36065,1.61093
997.87086,1.55235
996.38107,1.49381
994.89128,1.49418
993.40149,1.44125
991.91171,1.49055
990.42192,1.49174
988.93213,1.47963
987.44234,1.41238
985.95255,1.34516
984.46276,1.41090
982.97297,1.30782
981.48319,1.35288
979.99340,1.28985
978.50361,1.25054
977.01382,1.21127
975.52403,1.21054
974.03424,1.10837
972.54446,1.05956
971.05467,0.98264
969.56488,0.97091
968.07509,0.92737
966.58530,0.88386
965.09551,0.88777
963.60573,0.91468
962.11594,0.87422
960.62615,0.79972
959.13636,0.74747
957.64657,0.69525
956.15678,0.72674
954.66699,0.67384
953.17721,0.63133
951.68742,0.62292
950.19763,0.60344
948.70784,0.58398
947.21805,0.60454
945.72826,0.58588
944.23848,0.61390
942.74869,0.65973
941.25890,0.70411
939.76911,0.71964
938.27932,0.73519
936.78953,0.79002
935.29974,0.71529
933.80996,0.69612
932.32017,0.74808
930.83038,0.77860
929.34059,0.80914
927.85080,0.83305
926.36101,0.82440
924.87123,0.76098
923.38144,0.72276
921.89165,0.71531
920.40186,0.70789
918.91207,0.67940
917.42228,0.75535
915.93250,0.72173
914.44271,0.81403
912.95292,0.80639
911.46313,0.79878
909.97334,0.79416
908.48355,0.87769
906.99376,0.87461
905.50398,0.85008
904.01419,0.83558
902.52440,0.82111
901.03461,0.81592
899.54482,0.85816
898.05503,0.87896
896.56525,0.86127
895.07546,0.87694
893.58567,0.89264
892.09588,0.88911
890.60609,0.90931
889.11630,0.88437
887.62651,0.86760
886.13673,0.86456
884.64694,0.86155
883.15715,0.86783
881.66736,0.83636
880.17757,0.82270
878.68778,0.83833
877.19800,0.85398
875.70821,0.84855
874.21842,0.87722
872.72863,0.95702
871.23884,0.99834
869.74905,1.02970
868.25927,1.06108
866.76948,0.97955
865.27969,0.99211
863.78990,0.98766
862.30011,1.00990
860.81032,0.98737
859.32053,0.96486
857.83075,0.92276
856.34096,0.97400
854.85117,0.88012
853.36138,0.79812
851.87159,0.75059
850.38180,0.70308
848.89202,0.59969
847.40223,0.54003
845.91244,0.42781
844.42265,0.42152
842.93286,0.41526
841.44307,0.38830
839.95329,0.36877
838.46350,0.28484
836.97371,0.27056
835.48392,0.29000
833.99413,0.30947
832.50434,0.30194
831.01455,0.28184
829.52477,0.28992
828.03498,0.28174
826.54519,0.24692
825.05540,0.21214
823.56561,0.19515
822.07582,0.19227
820.58604,0.16350
819.09625,0.13846
817.60646,0.11345
816.11667,0.06625
814.62688,0.08721
813.13709,0.02230
811.64730,0.03814
810.15752,0.03623
808.66773,0.03436
807.17794,0.00511
805.68815,0.03068
804.19836,0.14292
802.70857,0.14225
801.21879,0.14162
799.72900,0.18285
798.23921,0.27596
796.74942,0.37872
795.25963,0.43523
793.76984,0.49177
792.28006,0.50945
790.79027,0.60641
789.30048,0.59157
787.81069,0.65303
786.32090,0.65343
784.83111,0.65386
783.34132,0.69098
781.85154,0.79922
780.36175,0.76086
778.87196,0.75585
777.38217,0.75088
775.89238,0.87701
774.40259,0.92541
772.91281,0.96792
771.42302,0.99009
769.93323,1.01229
768.44344,0.94899
766.95365,0.93311
765.46386,0.96095
763.97407,0.84367
762.48429,0.78900
760.99450,0.73436
759.50471,0.62532
758.01492,0.47557
756.52513,0.44064
755.03534,0.41093
753.54556,0.38125
752.05577,0.23828
750.56598,0.19681
749.07619,0.14870
747.58640,0.12802
746.09661,0.10737
744.60683,0.09415
743.11704,0.07134
741.62725,0.07003
740.13746,0.04283
738.64767,0.01566
737.15788,0.04037
735.66809,0.00511
734.17831,0.06667
732.68852,0.04975
731.19873,0.03287
729.70894,0.08415
728.21915,0.06732
726.72936,0.05275
725.23958,0.08782
723.74979,0.06257
722.26000,0.03734
720.77021,0.04214
719.28042,0.01142
717.79063,0.03998
716.30084,0.04375
714.81106,0.04756
713.32127,0.00511
711.83148,0.00698
710.34169,0.02665
708.85190,0.01709
707.36211,0.00757
705.87233,0.00511
704.38254,0.04548
702.89275,0.03997
701.40296,0.03633
699.91317,0.03273
698.42338,0.03841
696.93360,0.08930
695.44381,0.06394
693.95402,0.08711
692.46423,0.11031
690.97444,0.15095
689.48465,0.14866
687.99486,0.16048
686.50508,0.16528
685.01529,0.17012
683.52550,0.21979
682.03571,0.20803
680.54592,0.19110
679.05613,0.19088
677.56635,0.19068
676.07656,0.13163
674.58677,0.10446
673.09698,0.07806
671.60719,0.08353
670.11740,0.08903
668.62761,0.07457
667.13783,0.05273
665.64804,0.06610
664.15825,0.07949
662.66846,0.02886
661.17867,0.04639
659.68888,0.04987
658.19910,0.06968
656.70931,0.08952
655.21952,0.08791
653.72973,0.07744
652.23994,0.08552
650.75015,0.09622
649.26037,0.10695
647.77058,0.12845
646.28079,0.08406
644.79100,0.06563
643.30121,0.04611
641.81142,0.02662
640.32163,0.01642
638.83185,0.07142
637.34206,0.06794
635.85227,0.04487
634.36248,0.02183
632.87269,0.00511
631.38290,0.05265
629.89312,0.07356
628.40333,0.07006
626.91354,0.06659
625.42375,0.01724
623.93396,0.11380
622.44417,0.09043
620.95438,0.06708
619.46460,0.03932
617.97481,0.10268
616.48502,0.10978
614.99523,0.10136
613.50544,0.09298
612.01565,0.11794
610.52587,0.14664
609.03608,0.13686
607.54629,0.13822
606.05650,0.13960
604.56671,0.17286
603.07692,0.19208
601.58714,0.18319
600.09735,0.17433
598.60756,0.12180
597.11777,0.12262
595.62798,0.09311
594.13819,0.12102
592.64840,0.14897
591.15862,0.11584
589.66883,0.10644
588.17904,0.12077
586.68925,0.10995
585.19946,0.09916
583.70967,0.13506
582.21989,0.11988
580.73010,0.14473
579.24031,0.16960
577.75052,0.16192
576.26073,0.17797
574.77094,0.17997
573.28115,0.20497
571.79137,0.22999
570.30158,0.18765
568.81179,0.28679
567.32200,0.31449
565.83221,0.34222
564.34242,0.34295
562.85264,0.37482
561.36285,0.38894
559.87306,0.43826
558.38327,0.48762
556.89348,0.56033
555.40369,0.56568
553.91391,0.62031
552.42412,0.67497
550.93433,0.63449
549.44454,0.62071
547.95475,0.61436
546.46496,0.62174
544.97517,0.62915
543.48539,0.66880
541.99560,0.71663
540.50581,0.76375
539.01602,0.81089
537.52623,0.75513
536.03644,0.69347
534.54666,0.67110
533.05687,0.68170
531.56708,0.69234
530.07729,0.63302
528.58750,0.56633
527.09771,0.57965
525.60792,0.59299
524.11814,0.59526
522.62835,0.55831
521.13856,0.55841
519.64877,0.49708
518.15898,0.43577
516.66919,0.47077
515.17941,0.37620
513.68962,0.37312
512.19983,0.37007
510.71004,0.41186
509.22025,0.35888
507.73046,0.41923
506.24068,0.43074
504.75089,0.44228
503.26110,0.43829
501.77131,0.40694
500.28152,0.41893
498.79173,0.43096
497.30194,0.43524
495.81216,0.36919
494.32237,0.35687
492.83258,0.34457
491.34279,0.37637
489.85300,0.36598
488.36321,0.28528
486.87343,0.28532
485.38364,0.28539
483.89385,0.24920
482.40406,0.17972
480.91427,0.14248
479.42448,0.10527
477.93469,0.12549
476.44491,0.10648
474.95512,0.11416
473.46533,0.12188
471.97554,0.08222
470.48575,0.05741
468.99596,0.08743
467.50618,0.08156
466.01639,0.07572
464.52660,0.00511
463.03681,0.09978
461.54702,0.09710
460.05723,0.09444
458.56745,0.08330
457.07766,0.08329
455.58787,0.13812
454.09808,0.19298
452.60829,0.21084
451.11850,0.19392
449.62871,0.20517
448.13893,0.21645
446.64914,0.26997
445.15935,0.43165
443.66956,0.47042
442.17977,0.52292
440.68998,0.57545
439.20020,0.55729
437.71041,0.64505
436.22062,0.68582
434.73083,0.72662
433.24104,0.89223
431.75125,0.97568
430.26146,1.03656
428.77168,1.09747
427.28189,1.21877
425.79210,1.20383
424.30231,1.22373
422.81252,1.24366
421.32273,1.25843
419.83295,1.06884
418.34316,1.00221
416.85337,0.93561
415.36358,0.80017
413.87379,0.78769
412.38400,0.72525
410.89422,0.66284
409.40443,0.64601
407.91464,0.62846
406.42485,0.59984
404.93506,0.57235
403.44527,0.54490
401.95548,0.53339
400.46570,0.50933
398.97591,0.49418
397.48612,0.47907
395.99633,0.50693
394.50654,0.50150
393.01675,0.52165
391.52697,0.54183
390.03718,0.44465
388.54739,0.38158
387.05760,0.36592
385.56781,0.35030
384.07802,0.38211
382.58824,0.39542
381.09845,0.36878
379.60866,0.34217
378.11887,0.30226
376.62908,0.30162
375.13929,0.24177
373.64950,0.18195
372.15972,0.15252
370.66993,0.15793
369.18014,0.14523
367.69035,0.13255
366.20056,0.08399
364.71077,0.06804
363.22099,0.09025
361.73120,0.11250
360.24141,0.14774
358.75162,0.04378
357.26183,0.06797
355.77204,0.09219
354.28225,0.10607
352.79247,0.05332
351.30268,0.04801
349.81289,0.04272
348.32310,0.01302
346.83331,0.02527
345.34352,0.02310
343.85374,0.02097
342.36395,0.05996
340.87416,0.06344
339.38437,0.06435
337.89458,0.06530
336.40479,0.08219
334.91501,0.08357
333.42522,0.06201
331.93543,0.04049
330.44564,0.09157
328.95585,0.09380
327.46606,0.07903
325.97627,0.06429
324.48649,0.03847
322.99670,0.03489
321.50691,0.03717
320.01712,0.03948
318.52733,0.08848
317.03754,0.15750
315.54776,0.14361
314.05797,0.12974
312.56818,0.06333
311.07839,0.11766
309.58860,0.08722
308.09881,0.05681
306.60902,0.04383
305.11924,0.06643
303.62945,0.05648
302.13966,0.01758
300.64987,0.00511
299.16008,0.00511
