1778.52000,0.06979
1777.03021,0.07049
1775.54042,0.05427
1774.05063,0.02232
1772.56085,0.05581
1771.07106,0.05663
1769.58127,0.04536
1768.09148,0.02686
1766.60169,0.07743
1765.11190,0.03597
1763.62212,0.00059
1762.13233,0.06457
1760.64254,0.04985
1759.15275,0.08361
1757.66296,0.04956
1756.17317,0.05915
1754.68339,0.02638
1753.19360,0.05541
1751.70381,0.03480
1750.21402,0.02997
1748.72423,0.01791
1747.23444,0.00224
1745.74465,0.04110
1744.25487,0.03639
1742.76508,0.02323
1741.27529,0.04765
1739.78550,0.04909
1738.29571,0.05418
1736.80592,0.04356
1735.31614,0.05114
1733.82635,0.04543
1732.33656,0.02520
1730.84677,0.03650
1729.35698,0.00059
1727.86719,0.03645
1726.37740,0.02509
1724.88762,0.02104
1723.39783,0.04971
1721.90804,0.02270
1720.41825,0.05022
1718.92846,0.02690
1717.43867,0.06296
1715.94889,0.01790
1714.45910,0.01525
1712.96931,0.03323
1711.47952,0.04155
1709.98973,0.02204
1708.49994,0.03769
1707.01016,0.04428
1705.52037,0.05090
1704.03058,0.07511
1702.54079,0.02062
1701.05100,0.07759
1699.56121,0.08857
1698.07142,0.10321
1696.58164,0.10698
1695.09185,0.09382
1693.60206,0.14731
1692.11227,0.10513
1690.62248,0.14899
1689.13269,0.12989
1687.64291,0.09628
1686.15312,0.18263
1684.66333,0.12485
1683.17354,0.14342
1681.68375,0.14506
1680.19396,0.12977
1678.70417,0.13994
1677.21439,0.14530
1675.72460,0.16160
1674.23481,0.13068
1672.74502,0.12280
1671.25523,0.13312
1669.76544,0.15438
1668.27566,0.14901
1666.78587,0.16790
1665.29608,0.16502
1663.80629,0.10523
1662.31650,0.15692
1660.82671,0.15533
1659.33693,0.11865
1657.84714,0.15952
1656.35735,0.10230
1654.86756,0.08994
1653.37777,0.07760
1651.88798,0.10526
1650.39819,0.10630
1648.90841,0.12918
1647.41862,0.13634
1645.92883,0.10779
1644.43904,0.07928
1642.94925,0.11802
1641.45946,0.11561
1639.96968,0.14350
1638.47989,0.12540
1636.99010,0.14730
1635.50031,0.10988
1634.01052,0.08339
1632.52073,0.13202
1631.03094,0.12739
1629.54116,0.13611
1628.05137,0.13275
1626.56158,0.12579
1625.07179,0.14187
1623.58200,0.20885
1622.09221,0.13050
1620.60243,0.16605
1619.11264,0.12411
1617.62285,0.16335
1616.13306,0.11783
1614.64327,0.10019
1613.15348,0.14073
1611.66370,0.11831
1610.17391,0.15649
1608.68412,0.15472
1607.19433,0.13239
1605.70454,0.13916
1604.21475,0.11568
1602.72496,0.09222
1601.23518,0.13300
1599.74539,0.13383
1598.25560,0.12863
1596.76581,0.10166
1595.27602,0.12560
1593.78623,0.11322
1592.29645,0.11299
1590.80666,0.07523
1589.31687,0.08111
1587.82708,0.07612
1586.33729,0.13294
1584.84750,0.03474
1583.35771,0.09888
1581.86793,0.08674
1580.37814,0.05282
1578.88835,0.08677
1577.39856,0.08683
1575.90877,0.10388
1574.41898,0.03616
1572.92920,0.04237
1571.43941,0.06435
1569.94962,0.03246
1568.45983,0.00059
1566.97004,0.05067
1565.48025,0.00993
1563.99047,0.02615
1562.50068,0.05693
1561.01089,0.05868
1559.52110,0.05803
1558.03131,0.05983
1556.54152,0.03380
1555.05173,0.01507
1553.56195,0.00364
1552.07216,0.04189
1550.58237,0.03900
1549.09258,0.03976
1547.60279,0.01391
1546.11300,0.15040
1544.62322,0.14641
1543.13343,0.11944
1541.64364,0.08643
1540.15385,0.06678
1538.66406,0.04716
1537.17427,0.02152
1535.68448,0.03587
1534.19470,0.00059
1532.70491,0.00355
1531.21512,0.03682
1529.72533,0.05073
1528.23554,0.01623
1526.74575,0.03384
1525.25597,0.01998
1523.76618,0.00979
1522.27639,0.02870
1520.78660,0.07428
1519.29681,0.01330
1517.80702,0.02503
1516.31724,0.04769
1514.82745,0.06311
1513.33766,0.03617
1511.84787,0.00925
1510.35808,0.05626
1508.86829,0.04272
1507.37850,0.04618
1505.88872,0.00000
1504.39893,0.00059
1502.90914,0.03612
1501.41935,0.03049
1499.92956,0.08789
1498.43977,0.10654
1496.94999,0.10948
1495.46020,0.10276
1493.97041,0.20388
1492.48062,0.16693
1490.99083,0.25600
1489.50104,0.25424
1488.01125,0.29248
1486.52147,0.33076
1485.03168,0.45022
1483.54189,0.52125
1482.05210,0.56204
1480.56231,0.68643
1479.07252,0.77936
1477.58274,0.90018
1476.09295,0.96289
1474.60316,0.94810
1473.11337,1.05931
1471.62358,1.08213
1470.13379,1.09287
1468.64401,1.03581
1467.15422,0.98846
1465.66443,0.94720
1464.17464,0.90597
1462.68485,0.87930
1461.19506,0.88779
1459.70527,0.83211
1458.21549,0.72559
1456.72570,0.65422
1455.23591,0.58531
1453.74612,0.54186
1452.25633,0.39790
1450.76654,0.44173
1449.27676,0.45408
1447.78697,0.39380
1446.29718,0.42317
1444.80739,0.38535
1443.31760,0.34756
1441.82781,0.28618
1440.33802,0.23209
1438.84824,0.16834
1437.35845,0.21849
1435.86866,0.21779
1434.37887,0.13717
1432.88908,0.12563
1431.39929,0.19406
1429.90951,0.24072
1428.41972,0.21472
1426.92993,0.22510
1425.44014,0.17979
1423.95035,0.21748
1422.46056,0.25520
1420.97078,0.27538
1419.48099,0.23382
1417.99120,0.27466
1416.50141,0.24769
1415.01162,0.26194
1413.52183,0.25562
1412.03204,0.33170
1410.54226,0.22854
1409.05247,0.25744
1407.56268,0.33724
1406.07289,0.33592
1404.58310,0.30495
1403.09331,0.27400
1401.60353,0.36725
1400.11374,0.37452
1398.62395,0.43270
1397.13416,0.45820
1395.64437,0.44375
1394.15458,0.53836
1392.66479,0.55183
1391.17501,0.52657
1389.68522,0.55707
1388.19543,0.53550
1386.70564,0.54304
1385.21585,0.55060
1383.72606,0.61634
1382.23628,0.53675
1380.74649,0.54925
1379.25670,0.56541
1377.76691,0.58160
1376.27712,0.62569
1374.78733,0.71704
1373.29755,0.72605
1371.80776,0.81867
1370.31797,0.96462
1368.82818,1.05366
1367.33839,1.14274
1365.84860,1.31905
1364.35881,1.52084
1362.86903,1.62817
1361.37924,1.78762
1359.88945,1.92166
1358.39966,1.90189
1356.90987,1.95605
1355.42008,1.88425
1353.93030,1.88880
1352.44051,1.80495
1350.95072,1.72114
1349.46093,1.64946
1347.97114,1.37795
1346.48135,1.18763
1344.99156,1.01308
1343.50178,0.93062
1342.01199,0.80943
1340.52220,0.69796
1339.03241,0.72824
1337.54262,0.58654
1336.05283,0.56782
1334.56305,0.54913
1333.07326,0.54561
1331.58347,0.43431
1330.09368,0.40420
1328.60389,0.36201
1327.11410,0.38647
1325.62432,0.36129
1324.13453,0.34099
1322.64474,0.32072
1321.15495,0.34893
1319.66516,0.32871
1318.17537,0.30853
1316.68558,0.29564
1315.19580,0.29005
1313.70601,0.30508
1312.21622,0.25231
1310.72643,0.23106
1309.23664,0.22438
1307.74685,0.17654
1306.25707,0.23654
1304.76728,0.24629
1303.27749,0.25608
1301.78770,0.21805
1300.29791,0.16430
1298.80812,0.18690
1297.31834,0.21557
1295.82855,0.26609
1294.33876,0.26696
1292.84897,0.26424
1291.35918,0.27123
1289.86939,0.24555
1288.37960,0.21989
1286.88982,0.27058
1285.40003,0.28375
1283.91024,0.27393
1282.42045,0.32471
1280.93066,0.29678
1279.44087,0.30522
1277.95109,0.31732
1276.46130,0.30159
1274.97151,0.30527
1273.48172,0.30898
1271.99193,0.34422
1270.50214,0.39038
1269.01235,0.35905
1267.52257,0.38348
1266.03278,0.43094
1264.54299,0.39485
1263.05320,0.40967
1261.56341,0.42513
1260.07362,0.44061
1258.58384,0.46763
1257.09405,0.49831
1255.60426,0.48663
1254.11447,0.46407
1252.62468,0.47304
1251.13489,0.47235
1249.64511,0.42081
1248.15532,0.33660
1246.66553,0.31782
1245.17574,0.29908
1243.68595,0.26825
1242.19616,0.25925
1240.70637,0.25876
1239.21659,0.20985
1237.72680,0.23728
1236.23701,0.21145
1234.74722,0.16020
1233.25743,0.13927
1231.76764,0.11836
1230.27786,0.14715
1228.78807,0.17476
1227.29828,0.20118
1225.80849,0.14648
1224.31870,0.14874
1222.82891,0.14739
1221.33912,0.11943
1219.84934,0.11208
1218.35955,0.10477
1216.86976,0.06720
1215.37997,0.13989
1213.89018,0.16900
1212.40039,0.15575
1210.91061,0.10982
1209.42082,0.11116
1207.93103,0.10526
1206.44124,0.09939
1204.95145,0.03541
1203.46166,0.05382
1201.97188,0.10618
1200.48209,0.05077
1198.99230,0.07048
1197.50251,0.00059
1196.01272,0.06630
1194.52293,0.04120
1193.03314,0.01612
1191.54336,0.07344
1190.05357,0.05691
1188.56378,0.06826
1187.07399,0.03361
1185.58420,0.01958
1184.09441,0.05645
1182.60463,0.05944
1181.11484,0.06246
1179.62505,0.02069
1178.13526,0.04436
1176.64547,0.02082
1175.15568,0.05908
1173.66589,0.01864
1172.17611,0.02062
1170.68632,0.01234
1169.19653,0.00408
1167.70674,0.03644
1166.21695,0.02400
1164.72716,0.02977
1163.23738,0.02708
1161.74759,0.01594
1160.25780,0.01695
1158.76801,0.03010
1157.27822,0.04328
1155.78843,0.02741
1154.29865,0.05761
1152.80886,0.03454
1151.31907,0.00059
1149.82928,0.06845
1148.33949,0.07578
1146.84970,0.06435
1145.35991,0.05296
1143.87013,0.05916
1142.38034,0.05086
1140.89055,0.09951
1139.40076,0.11791
1137.91097,0.15936
1136.42118,0.13058
1134.93140,0.15997
1133.44161,0.18939
1131.95182,0.24791
1130.46203,0.28344
1128.97224,0.25844
1127.48245,0.26618
1125.99266,0.28242
1124.50288,0.33625
1123.01309,0.35376
1121.52330,0.37130
1120.03351,0.37434
1118.54372,0.39315
1117.05393,0.38534
1115.56415,0.44055
1114.07436,0.39525
1112.58457,0.44326
1111.09478,0.49129
1109.60499,0.39884
1108.11520,0.52566
1106.62542,0.53986
1105.13563,0.60981
1103.64584,0.67495
1102.15605,0.72558
1100.66626,0.73263
1099.17647,0.73971
1097.68668,0.74561
1096.19690,0.82543
1094.70711,0.81927
1093.21732,0.87008
1091.72753,0.90395
1090.23774,0.92938
1088.74795,0.95484
1087.25817,0.95367
1085.76838,1.04339
1084.27859,1.02654
1082.78880,1.06786
1081.29901,1.03895
1079.80922,1.06943
1078.31943,1.10418
1076.82965,1.13895
1075.33986,1.22766
1073.85007,1.26916
1072.36028,1.18107
1070.87049,1.23959
1069.38070,1.32115
1067.89092,1.32097
1066.40113,1.32082
1064.91134,1.24985
1063.42155,1.19828
1061.93176,1.11767
1060.44197,0.97531
1058.95219,0.91293
1057.46240,0.89237
1055.97261,0.87184
1054.48282,0.86284
1052.99303,0.76424
1051.50324,0.70927
1050.01345,0.61315
1048.52367,0.58368
1047.03388,0.55787
1045.54409,0.53209
1044.05430,0.51361
1042.56451,0.50001
1041.07472,0.41981
1039.58494,0.33964
1038.09515,0.24860
1036.60536,0.27327
1035.11557,0.29796
1033.62578,0.28938
1032.13599,0.23116
1030.64620,0.30137
1029.15642,0.35828
1027.66663,0.35345
1026.17684,0.34864
1024.68705,0.40443
1023.19726,0.50386
1021.70747,0.61543
1020.21769,0.80334
1018.72790,1.01913
1017.23811,1.14472
1015.74832,1.27034
1014.25853,1.37721
1012.76874,1.56890
1011.27896,1.80059
1009.78917,1.90755
1008.29938,2.00000
1006.80959,1.95379
1005.31980,1.90760
1003.83001,1.72881
1002.34022,1.72327
1000.85044,1.57240
999.36065,1.50634
997.87086,1.44759
996.38107,1.38886
994.89128,1.43071
993.40149,1.50286
991.91171,1.42605
990.42192,1.41105
988.93213,1.29796
987.44234,1.29029
985.95255,1.28264
984.46276,1.29683
982.97297,1.10997
981.48319,1.12059
979.99340,1.07793
978.50361,1.06922
977.01382,1.06054
975.52403,1.05794
974.03424,0.91124
972.54446,0.89901
971.05467,0.93042
969.56488,0.90856
968.07509,0.85160
966.58530,0.79468
965.09551,0.78623
963.60573,0.76086
962.11594,0.72340
960.62615,0.68476
959.13636,0.67098
957.64657,0.65723
956.15678,0.58597
954.66699,0.52444
953.17721,0.50775
951.68742,0.47534
950.19763,0.47809
948.70784,0.48087
947.21805,0.44976
945.72826,0.50832
944.23848,0.39490
942.74869,0.49107
941.25890,0.48673
939.76911,0.52360
938.27932,0.56050
936.78953,0.61681
935.29974,0.65377
933.80996,0.56115
932.32017,0.68417
930.83038,0.69699
929.34059,0.70984
927.85080,0.61855
926.36101,0.61208
924.87123,0.57415
923.38144,0.61255
921.89165,0.59527
920.40186,0.57801
918.91207,0.64073
917.42228,0.64897
915.93250,0.62938
914.44271,0.64253
912.95292,0.60422
911.46313,0.56595
909.97334,0.67245
908.48355,0.66875
906.99376,0.71475
905.50398,0.69052
904.01419,0.67359
902.52440,0.65669
901.03461,0.59015
899.54482,0.72956
898.05503,0.69458
896.56525,0.75290
895.07546,0.73432
893.58567,0.71578
892.09588,0.72331
890.60609,0.67636
889.11630,0.72513
887.62651,0.63705
886.13673,0.65136
884.64694,0.66570
883.15715,0.62980
881.66736,0.71627
880.17757,0.71555
878.68778,0.73182
877.19800,0.74813
875.70821,0.76567
874.21842,0.78445
872.72863,0.83233
871.23884,0.83664
869.74905,0.83613
868.25927,0.83565
866.76948,0.91393
865.27969,0.84083
863.78990,0.85861
862.30011,0.86431
860.81032,0.86882
859.32053,0.87336
857.83075,0.79071
856.34096,0.77593
854.85117,0.76360
853.36138,0.69195
851.87159,0.65000
850.38180,0.60809
848.89202,0.61647
847.40223,0.44924
845.91244,0.42376
844.42265,0.42314
842.93286,0.42256
841.44307,0.38021
839.95329,0.26764
838.46350,0.28591
836.97371,0.19036
835.48392,0.21172
833.99413,0.23311
832.50434,0.23818
831.01455,0.26508
829.52477,0.28596
828.03498,0.18694
826.54519,0.17760
825.05540,0.16828
823.56561,0.17958
822.07582,0.14246
820.58604,0.19864
819.09625,0.17187
817.60646,0.14514
816.11667,0.03667
814.62688,0.09781
813.13709,0.05481
811.64730,0.02153
810.15752,0.03249
808.66773,0.04348
807.17794,0.00059
805.68815,0.00906
804.19836,0.05996
802.70857,0.09453
801.21879,0.12913
799.72900,0.14620
798.23921,0.20569
796.74942,0.31609
795.25963,0.34838
793.76984,0.38071
792.28006,0.42094
790.79027,0.58475
789.30048,0.65289
787.81069,0.65081
786.32090,0.62999
784.83111,0.60920
783.34132,0.65323
781.85154,0.71911
780.36175,0.69658
778.87196,0.70619
777.38217,0.71582
775.89238,0.82178
774.40259,0.83450
772.91281,0.79638
771.42302,0.81219
769.93323,0.82802
768.44344,0.88205
766.95365,0.88280
765.46386,0.89691
763.97407,0.82626
762.48429,0.73867
760.99450,0.65112
759.50471,0.50424
758.01492,0.48337
756.52513,0.41287
755.03534,0.34966
753.54556,0.28648
752.05577,0.20637
750.56598,0.22925
749.07619,0.19038
747.58640,0.15882
746.09661,0.12728
744.60683,0.06912
743.11704,0.05217
741.62725,0.04010
740.13746,0.04320
738.64767,0.04633
737.15788,0.06584
735.66809,0.00059
734.17831,0.06746
732.68852,0.04895
731.19873,0.03048
729.70894,0.02717
728.21915,0.01905
726.72936,0.08606
725.23958,0.06468
723.74979,0.07058
722.26000,0.07650
720.77021,0.08186
719.28042,0.04605
717.79063,0.02360
716.30084,0.01208
714.81106,0.00059
713.32127,0.03931
711.83148,0.01386
710.34169,0.03931
708.85190,0.02785
707.36211,0.01641
705.87233,0.01167
704.38254,0.01907
702.89275,0.05557
701.40296,0.07272
699.91317,0.08990
698.42338,0.13497
696.93360,0.14736
695.44381,0.19491
693.95402,0.22856
692.46423,0.26223
690.97444,0.22629
689.48465,0.16373
687.99486,0.19689
686.50508,0.22402
685.01529,0.25119
683.52550,0.20933
682.03571,0.17236
680.54592,0.16084
679.05613,0.16935
677.56635,0.17788
676.07656,0.16404
674.58677,0.09935
673.09698,0.14128
671.60719,0.11904
670.11740,0.09684
668.62761,0.14491
667.13783,0.06099
665.64804,0.07339
664.15825,0.08583
662.66846,0.06982
661.17867,0.02114
659.68888,0.05486
658.19910,0.05651
656.70931,0.05819
655.21952,0.07624
653.72973,0.06890
652.23994,0.05189
650.75015,0.07185
649.26037,0.09185
647.77058,0.11853
646.28079,0.11254
644.79100,0.12354
643.30121,0.12972
641.81142,0.13593
640.32163,0.11067
638.83185,0.05517
637.34206,0.03240
635.85227,0.03388
634.36248,0.03539
632.87269,0.00059
631.38290,0.05050
629.89312,0.03865
628.40333,0.05954
626.91354,0.08046
625.42375,0.08566
623.93396,0.09452
622.44417,0.09070
620.95438,0.08690
619.46460,0.05467
617.97481,0.12664
616.48502,0.09810
614.99523,0.09564
613.50544,0.09320
612.01565,0.09382
610.52587,0.14413
609.03608,0.11937
607.54629,0.12977
606.05650,0.14020
604.56671,0.22697
603.07692,0.15509
601.58714,0.17045
600.09735,0.18584
598.60756,0.11647
597.11777,0.15857
595.62798,0.14013
594.13819,0.12778
592.64840,0.11546
591.15862,0.08015
589.66883,0.10180
588.17904,0.08109
586.68925,0.07858
585.19946,0.07609
583.70967,0.06637
582.21989,0.10028
580.73010,0.09486
579.24031,0.08946
577.75052,0.17555
576.26073,0.18414
574.77094,0.13583
573.28115,0.16629
571.79137,0.19677
570.30158,0.23213
568.81179,0.22997
567.32200,0.25570
565.83221,0.28145
564.34242,0.29028
562.85264,0.40089
561.36285,0.45096
559.87306,0.43565
558.38327,0.42037
556.89348,0.47779
555.40369,0.45409
553.91391,0.49946
552.42412,0.54486
550.93433,0.55032
549.44454,0.56550
547.95475,0.63885
546.46496,0.65409
544.97517,0.66935
543.48539,0.73189
541.99560,0.74358
540.50581,0.71896
539.01602,0.69437
537.52623,0.64074
536.03644,0.68162
534.54666,0.69830
533.05687,0.71502
531.56708,0.73176
530.07729,0.60438
528.58750,0.51217
527.09771,0.52476
525.60792,0.53738
524.11814,0.49491
522.62835,0.45490
521.13856,0.44156
519.64877,0.41796
518.15898,0.39439
516.66919,0.42475
515.17941,0.35096
513.68962,0.31840
512.19983,0.28586
510.71004,0.28605
509.22025,0.27537
507.73046,0.30227
506.24068,0.33829
504.75089,0.37434
503.26110,0.39527
501.77131,0.36415
500.28152,0.36333
498.79173,0.36255
497.30194,0.30729
495.81216,0.39015
494.32237,0.34948
492.83258,0.30884
491.34279,0.30215
489.85300,0.37422
488.36321,0.30097
486.87343,0.25621
485.38364,0.21148
483.89385,0.23401
482.40406,0.17177
480.91427,0.16347
479.42448,0.15520
477.93469,0.07972
476.44491,0.06242
474.95512,0.06756
473.46533,0.07273
471.97554,0.09913
470.48575,0.04076
468.99596,0.00059
467.50618,0.02698
466.01639,0.05340
464.52660,0.07743
463.03681,0.06757
461.54702,0.07833
460.05723,0.08913
458.56745,0.05392
457.07766,0.12897
455.58787,0.13015
454.09808,0.13137
452.60829,0.11445
451.11850,0.14843
449.62871,0.18426
448.13893,0.22012
446.64914,0.25782
445.15935,0.37793
443.66956,0.33938
442.17977,0.41411
440.68998,0.48888
439.20020,0.58972
437.71041,0.68211
436.22062,0.75090
434.73083,0.81973
433.24104,0.88314
431.75125,1.01804
430.26146,1.05849
428.77168,1.09897
427.28189,1.17339
425.79210,1.22847
424.30231,1.24481
422.81252,1.26118
421.32273,1.34177
419.83295,1.27705
418.34316,1.20690
416.85337,1.13678
415.36358,0.88196
413.87379,0.71803
412.38400,0.70493
410.89422,0.69186
409.40443,0.69153
407.91464,0.65853
406.42485,0.59528
404.93506,0.56355
403.44527,0.53185
401.95548,0.57286
400.46570,0.51457
398.97591,0.50416
397.48612,0.49377
395.99633,0.52036
394.50654,0.53244
393.01675,0.49126
391.52697,0.45010
390.03718,0.43199
388.54739,0.48659
387.05760,0.47702
385.56781,0.46747
384.07802,0.45311
382.58824,0.34430
381.09845,0.32636
379.60866,0.30846
378.11887,0.26393
376.62908,0.20248
375.13929,0.22342
373.64950,0.24440
372.15972,0.23754
370.66993,0.22102
369.18014,0.21422
367.69035,0.20745
366.20056,0.14015
364.71077,0.20370
363.22099,0.19399
361.73120,0.18431
360.24141,0.12439
358.75162,0.15413
357.26183,0.16089
355.77204,0.16768
354.28225,0.10546
352.79247,0.11231
351.30268,0.08467
349.81289,0.05705
348.32310,0.06641
346.83331,0.07701
345.34352,0.06281
343.85374,0.04864
342.36395,0.12494
340.87416,0.18309
339.38437,0.16194
337.89458,0.14082
336.40479,0.10822
334.91501,0.04658
333.42522,0.05583
331.93543,0.06511
330.44564,0.08835
328.95585,0.17218
327.46606,0.12098
325.97627,0.06981
324.48649,0.10905
322.99670,0.10108
321.50691,0.11192
320.01712,0.12279
318.52733,0.10643
317.03754,0.08525
315.54776,0.04291
314.05797,0.00059
312.56818,0.05302
311.07839,0.07883
309.58860,0.06227
308.09881,0.04574
306.60902,0.05104
305.11924,0.00792
303.62945,0.03085
302.13966,0.04205
300.64987,0.00059
299.16008,0.00059
