1778.52000,0.03762
1777.03021,0.10467
1775.54042,0.05066
1774.05063,0.05123
1772.56085,0.04093
1771.07106,0.03938
1769.58127,0.00624
1768.09148,0.02985
1766.60169,0.02950
1765.11190,0.04555
1763.62212,0.05290
1762.13233,0.03956
1760.64254,0.07098
1759.15275,0.03261
1757.66296,0.05210
1756.17317,0.04762
1754.68339,0.03663
1753.19360,0.03004
1751.70381,0.03548
1750.21402,0.03332
1748.72423,0.02029
1747.23444,0.03237
1745.74465,0.03904
1744.25487,0.06319
1742.76508,0.06229
1741.27529,0.05161
1739.78550,0.04968
1738.29571,0.08706
1736.80592,0.06012
1735.31614,0.03975
1733.82635,0.06960
1732.33656,0.01439
1730.84677,0.05412
1729.35698,0.00989
1727.86719,0.00169
1726.37740,0.00360
1724.88762,0.05026
1723.39783,0.07732
1721.90804,0.00624
1720.41825,0.05860
1718.92846,0.02591
1717.43867,0.03907
1715.94889,0.05990
1714.45910,0.03277
1712.96931,0.06021
1711.47952,0.03969
1709.98973,0.07374
1708.49994,0.07947
1707.01016,0.08686
1705.52037,0.09429
1704.03058,0.06958
1702.54079,0.07653
1701.05100,0.07806
1699.56121,0.11235
1698.07142,0.09541
1696.58164,0.07850
1695.09185,0.10962
1693.60206,0.09169
1692.11227,0.13814
1690.62248,0.17155
1689.13269,0.12972
1687.64291,0.12065
1686.15312,0.14760
1684.66333,0.16696
1683.17354,0.14599
1681.68375,0.14905
1680.19396,0.17942
1678.70417,0.18146
1677.21439,0.13008
1675.72460,0.13546
1674.23481,0.10597
1672.74502,0.13432
1671.25523,0.13653
1669.76544,0.15077
1668.27566,0.13560
1666.78587,0.10191
1665.29608,0.08135
1663.80629,0.18190
1662.31650,0.15922
1660.82671,0.15185
1659.33693,0.11615
1657.84714,0.11102
1656.35735,0.08412
1654.86756,0.13688
1653.37777,0.13295
1651.88798,0.10396
1650.39819,0.12737
1648.90841,0.12899
1647.41862,0.10229
1645.92883,0.09307
1644.43904,0.08389
1642.94925,0.09547
1641.45946,0.12781
1639.96968,0.10345
1638.47989,0.09114
1636.99010,0.10830
1635.50031,0.07314
1634.01052,0.11438
1632.52073,0.13055
1631.03094,0.12713
1629.54116,0.12483
1628.05137,0.16184
1626.56158,0.13452
1625.07179,0.12577
1623.58200,0.17161
1622.09221,0.13893
1620.60243,0.11393
1619.11264,0.14459
1617.62285,0.17420
1616.13306,0.11766
1614.64327,0.12661
1613.15348,0.14323
1611.66370,0.14352
1610.17391,0.11984
1608.68412,0.11692
1607.19433,0.12822
1605.70454,0.12646
1604.21475,0.10892
1602.72496,0.09142
1601.23518,0.12685
1599.74539,0.14159
1598.25560,0.15963
1596.76581,0.14062
1595.27602,0.13801
1593.78623,0.12344
1592.29645,0.11544
1590.80666,0.11074
1589.31687,0.11918
1587.82708,0.09710
1586.33729,0.08814
1584.84750,0.13049
1583.35771,0.11615
1581.86793,0.07567
1580.37814,0.10721
1578.88835,0.12351
1577.39856,0.10385
1575.90877,0.02096
1574.41898,0.05591
1572.92920,0.05380
1571.43941,0.05500
1569.94962,0.03061
1568.45983,0.00624
1566.97004,0.08916
1565.48025,0.01831
1563.99047,0.09911
1562.50068,0.05887
1561.01089,0.08848
1559.52110,0.13884
1558.03131,0.08997
1556.54152,0.07605
1555.05173,0.05125
1553.56195,0.07229
1552.07216,0.04320
1550.58237,0.11231
1549.09258,0.05383
1547.60279,0.08810
1546.11300,0.07332
1544.62322,0.07384
1543.13343,0.05149
1541.64364,0.04445
1540.15385,0.03744
1538.66406,0.03046
1537.17427,0.05188
1535.68448,0.00680
1534.19470,0.06319
1532.70491,0.07380
1531.21512,0.03209
1529.72533,0.05150
1528.23554,0.06439
1526.74575,0.05769
1525.25597,0.05538
1523.76618,0.02256
1522.27639,0.06286
1520.78660,0.06065
1519.29681,0.06066
1517.80702,0.03562
1516.31724,0.00624
1514.82745,0.06198
1513.33766,0.06976
1511.84787,0.07757
1510.35808,0.06578
1508.86829,0.08565
1507.37850,0.03575
1505.88872,0.02188
1504.39893,0.03531
1502.90914,0.00624
1501.41935,0.03972
1499.92956,0.03942
1498.43977,0.10679
1496.94999,0.05202
1495.46020,0.11945
1493.97041,0.11929
1492.48062,0.16388
1490.99083,0.17033
1489.50104,0.19427
1488.01125,0.22860
1486.52147,0.26296
1485.03168,0.36554
1483.54189,0.39834
1482.05210,0.36354
1480.56231,0.52294
1479.07252,0.62674
1477.58274,0.69458
1476.09295,0.74391
1474.60316,0.68201
1473.11337,0.76304
1471.62358,0.81465
1470.13379,0.84012
1468.64401,0.70636
1467.15422,0.76789
1465.66443,0.73510
1464.17464,0.70234
1462.68485,0.69198
1461.19506,0.62165
1459.70527,0.62990
1458.21549,0.52692
1456.72570,0.51779
1455.23591,0.48250
1453.74612,0.42762
1452.25633,0.42186
1450.76654,0.42049
1449.27676,0.37553
1447.78697,0.38405
1446.29718,0.33806
1444.80739,0.31065
1443.31760,0.28328
1441.82781,0.21558
1440.33802,0.10209
1438.84824,0.08791
1437.35845,0.16757
1435.86866,0.17309
1434.37887,0.14482
1432.88908,0.18204
1431.39929,0.17130
1429.90951,0.12023
1428.41972,0.08338
1426.92993,0.13055
1425.44014,0.12867
1423.95035,0.14918
1422.46056,0.16973
1420.97078,0.13741
1419.48099,0.15966
1417.99120,0.11541
1416.50141,0.18136
1415.01162,0.15572
1413.52183,0.23919
1412.03204,0.12853
1410.54226,0.17499
1409.05247,0.20184
1407.56268,0.21454
1406.07289,0.17820
1404.58310,0.19697
1403.09331,0.21578
1401.60353,0.22098
1400.11374,0.19895
1398.62395,0.23695
1397.13416,0.24334
1395.64437,0.29341
1394.15458,0.33478
1392.66479,0.36309
1391.17501,0.29436
1389.68522,0.31074
1388.19543,0.29880
1386.70564,0.30325
1385.21585,0.30774
1383.72606,0.31880
1382.23628,0.29936
1380.74649,0.29958
1379.25670,0.36311
1377.76691,0.34595
1376.27712,0.36918
1374.78733,0.41208
1373.29755,0.43539
1371.80776,0.52962
1370.31797,0.56390
1368.82818,0.63966
1367.33839,0.71546
1365.84860,0.84474
1364.35881,1.05041
1362.86903,1.18521
1361.37924,1.27096
1359.88945,1.34147
1358.39966,1.32475
1356.90987,1.33642
1355.42008,1.39285
1353.93030,1.33587
1352.44051,1.29256
1350.95072,1.24928
1349.46093,1.16622
1347.97114,1.09302
1346.48135,0.86604
1344.99156,0.66963
1343.50178,0.62707
1342.01199,0.57472
1340.52220,0.54750
1339.03241,0.40141
1337.54262,0.43861
1336.05283,0.42567
1334.56305,0.41276
1333.07326,0.38243
1331.58347,0.28560
1330.09368,0.25207
1328.60389,0.27420
1327.11410,0.25928
1325.62432,0.20948
1324.13453,0.25572
1322.64474,0.29217
1321.15495,0.33520
1319.66516,0.31063
1318.17537,0.28609
1316.68558,0.19505
1315.19580,0.20876
1313.70601,0.13415
1312.21622,0.13375
1310.72643,0.14320
1309.23664,0.10359
1307.74685,0.15565
1306.25707,0.17284
1304.76728,0.15733
1303.27749,0.14186
1301.78770,0.14715
1300.29791,0.13502
1298.80812,0.19492
1297.31834,0.21558
1295.82855,0.18610
1294.33876,0.17847
1292.84897,0.17087
1291.35918,0.19821
1289.86939,0.18359
1288.37960,0.16901
1286.88982,0.09282
1285.40003,0.24792
1283.91024,0.20453
1282.42045,0.17754
1280.93066,0.22802
1279.44087,0.28945
1277.95109,0.27128
1276.46130,0.29569
1274.97151,0.29068
1273.48172,0.28570
1271.99193,0.23604
1270.50214,0.27476
1269.01235,0.27534
1267.52257,0.34140
1266.03278,0.33441
1264.54299,0.32746
1263.05320,0.40344
1261.56341,0.40909
1260.07362,0.41478
1258.58384,0.36324
1257.09405,0.40227
1255.60426,0.40751
1254.11447,0.36262
1252.62468,0.36575
1251.13489,0.41364
1249.64511,0.30339
1248.15532,0.26736
1246.66553,0.29517
1245.17574,0.32301
1243.68595,0.22708
1242.19616,0.29918
1240.70637,0.26004
1239.21659,0.23947
1237.72680,0.20040
1236.23701,0.19736
1234.74722,0.14090
1233.25743,0.10030
1231.76764,0.05973
1230.27786,0.14081
1228.78807,0.19139
1227.29828,0.17765
1225.80849,0.06249
1224.31870,0.07826
1222.82891,0.05916
1221.33912,0.10773
1219.84934,0.10779
1218.35955,0.10788
1216.86976,0.13146
1215.37997,0.12562
1213.89018,0.17981
1212.40039,0.14458
1210.91061,0.06249
1209.42082,0.05787
1207.93103,0.05057
1206.44124,0.04330
1204.95145,0.13259
1203.46166,0.06267
1201.97188,0.05277
1200.48209,0.06036
1198.99230,0.07016
1197.50251,0.03309
1196.01272,0.08441
1194.52293,0.07469
1193.03314,0.06499
1191.54336,0.00624
1190.05357,0.07011
1188.56378,0.07728
1187.07399,0.02995
1185.58420,0.05247
1184.09441,0.06629
1182.60463,0.07415
1181.11484,0.08204
1179.62505,0.00870
1178.13526,0.04338
1176.64547,0.03774
1175.15568,0.04195
1173.66589,0.07782
1172.17611,0.04719
1170.68632,0.05968
1169.19653,0.07221
1167.70674,0.08858
1166.21695,0.06900
1164.72716,0.03854
1163.23738,0.05720
1161.74759,0.04753
1160.25780,0.03680
1158.76801,0.04357
1157.27822,0.05036
1155.78843,0.06155
1154.29865,0.00624
1152.80886,0.04253
1151.31907,0.01341
1149.82928,0.07377
1148.33949,0.07308
1146.84970,0.06697
1145.35991,0.06089
1143.87013,0.12357
1142.38034,0.09465
1140.89055,0.08758
1139.40076,0.13836
1137.91097,0.08882
1136.42118,0.12221
1134.93140,0.15237
1133.44161,0.18256
1131.95182,0.21605
1130.46203,0.25612
1128.97224,0.19588
1127.48245,0.24038
1125.99266,0.25547
1124.50288,0.28041
1123.01309,0.30920
1121.52330,0.33802
1120.03351,0.35106
1118.54372,0.37177
1117.05393,0.35215
1115.56415,0.37402
1114.07436,0.41228
1112.58457,0.41677
1111.09478,0.42128
1109.60499,0.34729
1108.11520,0.44023
1106.62542,0.40122
1105.13563,0.50950
1103.64584,0.60363
1102.15605,0.63344
1100.66626,0.68455
1099.17647,0.73570
1097.68668,0.69798
1096.19690,0.71374
1094.70711,0.69900
1093.21732,0.78573
1091.72753,0.85505
1090.23774,0.80222
1088.74795,0.74943
1087.25817,0.86357
1085.76838,0.91993
1084.27859,0.91633
1082.78880,0.90622
1081.29901,0.99540
1079.80922,0.97772
1078.31943,1.02280
1076.82965,1.06791
1075.33986,1.14196
1073.85007,1.18441
1072.36028,1.10035
1070.87049,1.13524
1069.38070,1.16579
1067.89092,1.18165
1066.40113,1.19754
1064.91134,1.19983
1063.42155,1.13126
1061.93176,1.00381
1060.44197,0.94839
1058.95219,0.84610
1057.46240,0.84583
1055.97261,0.84560
1054.48282,0.80668
1052.99303,0.72961
1051.50324,0.60567
1050.01345,0.52976
1048.52367,0.53460
1047.03388,0.57221
1045.54409,0.60985
1044.05430,0.55262
1042.56451,0.37543
1041.07472,0.33136
1039.58494,0.27641
1038.09515,0.30004
1036.60536,0.31279
1035.11557,0.32558
1033.62578,0.30676
1032.13599,0.27816
1030.64620,0.24414
1029.15642,0.38578
1027.66663,0.38292
1026.17684,0.38009
1024.68705,0.43893
1023.19726,0.54798
1021.70747,0.68324
1020.21769,0.85345
1018.72790,1.02696
1017.23811,1.11487
1015.74832,1.20282
1014.25853,1.48551
1012.76874,1.75078
1011.27896,1.89392
1009.78917,2.00000
1008.29938,1.87813
1006.80959,1.84193
1005.31980,1.80576
1003.83001,1.71235
1002.34022,1.68552
1000.85044,1.66854
999.36065,1.62433
997.87086,1.53651
996.38107,1.44873
994.89128,1.37516
993.40149,1.43798
991.91171,1.49102
990.42192,1.33683
988.93213,1.24594
987.44234,1.21345
985.95255,1.18099
984.46276,1.23311
982.97297,1.20126
981.48319,1.03964
979.99340,1.10713
978.50361,1.06393
977.01382,1.02077
975.52403,0.95419
974.03424,0.97709
972.54446,0.93348
971.05467,0.89972
969.56488,0.92054
968.07509,0.88740
966.58530,0.85429
965.09551,0.90248
963.60573,0.81326
962.11594,0.78298
960.62615,0.64474
959.13636,0.62216
957.64657,0.59962
956.15678,0.54111
954.66699,0.54590
953.17721,0.63363
951.68742,0.55996
950.19763,0.56322
948.70784,0.56651
947.21805,0.49184
945.72826,0.50884
944.23848,0.50296
942.74869,0.52548
941.25890,0.57748
939.76911,0.61261
938.27932,0.64778
936.78953,0.62353
935.29974,0.67348
933.80996,0.70057
932.32017,0.75932
930.83038,0.74120
929.34059,0.72312
927.85080,0.70343
926.36101,0.70560
924.87123,0.57253
923.38144,0.52895
921.89165,0.55576
920.40186,0.58260
918.91207,0.67330
917.42228,0.64948
915.93250,0.69443
914.44271,0.66632
912.95292,0.65788
911.46313,0.64947
909.97334,0.73600
908.48355,0.77566
906.99376,0.67573
905.50398,0.64128
904.01419,0.62431
902.52440,0.60738
901.03461,0.65485
899.54482,0.70016
898.05503,0.81205
896.56525,0.90980
895.07546,0.88703
893.58567,0.86431
892.09588,0.76908
890.60609,0.77751
889.11630,0.73034
887.62651,0.77592
886.13673,0.76428
884.64694,0.75266
883.15715,0.70563
881.66736,0.82662
880.17757,0.81892
878.68778,0.82108
877.19800,0.82327
875.70821,0.75895
874.21842,0.81356
872.72863,0.89658
871.23884,0.86727
869.74905,0.87126
868.25927,0.87529
866.76948,0.94535
865.27969,1.01762
863.78990,0.99721
862.30011,0.97792
860.81032,0.93957
859.32053,0.90126
857.83075,0.86790
856.34096,0.88038
854.85117,0.86998
853.36138,0.85090
851.87159,0.75821
850.38180,0.66556
848.89202,0.65640
847.40223,0.49128
845.91244,0.47127
844.42265,0.47147
842.93286,0.47171
841.44307,0.36672
839.95329,0.35558
838.46350,0.28992
836.97371,0.28866
835.48392,0.32834
833.99413,0.36805
832.50434,0.32217
831.01455,0.24905
829.52477,0.21851
828.03498,0.25454
826.54519,0.22406
825.05540,0.19362
823.56561,0.24066
822.07582,0.19937
820.58604,0.18540
819.09625,0.19927
817.60646,0.21317
816.11667,0.13384
814.62688,0.14073
813.13709,0.09419
811.64730,0.00624
810.15752,0.00694
808.66773,0.00768
807.17794,0.05809
805.68815,0.12598
804.19836,0.19827
802.70857,0.17297
801.21879,0.14770
799.72900,0.22227
798.23921,0.29687
796.74942,0.40533
795.25963,0.40528
793.76984,0.40527
792.28006,0.46801
790.79027,0.60824
789.30048,0.64051
787.81069,0.71862
786.32090,0.71878
784.83111,0.71897
783.34132,0.76009
781.85154,0.70199
780.36175,0.72683
778.87196,0.72715
777.38217,0.72751
775.89238,0.76445
774.40259,0.88759
772.91281,0.84605
771.42302,0.90981
769.93323,0.97361
768.44344,0.91145
766.95365,0.93222
765.46386,0.98794
763.97407,0.94115
762.48429,0.81204
760.99450,0.68296
759.50471,0.59373
758.01492,0.56017
756.52513,0.54300
755.03534,0.45060
753.54556,0.35824
752.05577,0.26372
750.56598,0.21506
749.07619,0.10752
747.58640,0.13092
746.09661,0.15435
744.60683,0.09273
743.11704,0.12059
741.62725,0.08631
740.13746,0.07769
738.64767,0.06911
737.15788,0.01530
735.66809,0.00624
734.17831,0.07731
732.68852,0.09006
731.19873,0.10284
729.70894,0.14348
728.21915,0.14378
726.72936,0.06994
725.23958,0.08341
723.74979,0.10945
722.26000,0.13552
720.77021,0.08364
719.28042,0.06124
717.79063,0.05960
716.30084,0.03290
714.81106,0.00624
713.32127,0.03106
711.83148,0.04719
710.34169,0.04808
708.85190,0.04683
707.36211,0.04561
705.87233,0.00624
704.38254,0.02383
702.89275,0.10799
701.40296,0.10983
699.91317,0.11170
698.42338,0.12397
696.93360,0.11337
695.44381,0.16498
693.95402,0.11190
692.46423,0.05885
690.97444,0.23601
689.48465,0.18085
687.99486,0.23263
686.50508,0.25553
685.01529,0.27847
683.52550,0.20599
682.03571,0.20445
680.54592,0.14731
679.05613,0.17911
677.56635,0.21094
676.07656,0.23790
674.58677,0.14708
673.09698,0.14684
671.60719,0.11881
670.11740,0.09082
668.62761,0.07322
667.13783,0.09929
665.64804,0.11176
664.15825,0.12426
662.66846,0.16352
661.17867,0.14937
659.68888,0.12761
658.19910,0.13698
656.70931,0.14637
655.21952,0.10617
653.72973,0.07801
652.23994,0.00624
650.75015,0.05478
649.26037,0.10335
647.77058,0.11923
646.28079,0.09369
644.79100,0.12382
643.30121,0.07763
641.81142,0.03146
640.32163,0.08569
638.83185,0.11050
637.34206,0.01863
635.85227,0.01242
634.36248,0.00624
632.87269,0.01142
631.38290,0.08863
629.89312,0.06770
628.40333,0.04134
626.91354,0.01502
625.42375,0.06619
623.93396,0.15120
622.44417,0.16862
620.95438,0.18607
619.46460,0.15992
617.97481,0.05962
616.48502,0.06627
614.99523,0.04458
613.50544,0.02293
612.01565,0.05804
610.52587,0.04627
609.03608,0.18616
607.54629,0.14228
606.05650,0.09844
604.56671,0.21444
603.07692,0.19411
601.58714,0.20655
600.09735,0.21902
598.60756,0.11916
597.11777,0.04989
595.62798,0.02537
594.13819,0.04179
592.64840,0.05825
591.15862,0.08183
589.66883,0.06181
588.17904,0.13891
586.68925,0.12114
585.19946,0.10340
583.70967,0.08679
582.21989,0.10294
580.73010,0.13439
579.24031,0.16587
577.75052,0.10795
576.26073,0.10896
574.77094,0.15363
573.28115,0.16726
571.79137,0.18091
570.30158,0.17224
568.81179,0.16033
567.32200,0.19645
565.83221,0.23261
564.34242,0.31788
562.85264,0.39992
561.36285,0.50489
559.87306,0.45937
558.38327,0.41388
556.89348,0.42188
555.40369,0.41027
553.91391,0.49033
552.42412,0.57042
550.93433,0.63200
549.44454,0.64998
547.95475,0.74545
546.46496,0.74713
544.97517,0.74886
543.48539,0.75170
541.99560,0.67713
540.50581,0.65386
539.01602,0.63063
537.52623,0.62707
536.03644,0.57009
534.54666,0.66695
533.05687,0.69621
531.56708,0.72550
530.07729,0.65993
528.58750,0.58785
527.09771,0.53543
525.60792,0.48305
524.11814,0.43398
522.62835,0.48747
521.13856,0.44937
519.64877,0.41840
518.15898,0.38746
516.66919,0.47927
515.17941,0.35513
513.68962,0.38156
512.19983,0.40802
510.71004,0.30907
509.22025,0.31379
507.73046,0.32072
506.24068,0.36313
504.75089,0.40558
503.26110,0.39952
501.77131,0.37059
500.28152,0.37005
498.79173,0.36955
497.30194,0.23818
495.81216,0.32719
494.32237,0.35570
492.83258,0.38424
491.34279,0.44281
489.85300,0.43487
488.36321,0.39752
486.87343,0.36619
485.38364,0.33491
483.89385,0.20821
482.40406,0.26916
480.91427,0.24125
479.42448,0.21337
477.93469,0.12062
476.44491,0.05299
474.95512,0.06721
473.46533,0.08146
471.97554,0.19174
470.48575,0.10025
468.99596,0.09606
467.50618,0.10172
466.01639,0.10741
464.52660,0.00624
463.03681,0.03450
461.54702,0.06444
460.05723,0.09440
458.56745,0.14568
457.07766,0.13044
455.58787,0.15615
454.09808,0.18189
452.60829,0.20711
451.11850,0.18220
449.62871,0.23040
448.13893,0.27864
446.64914,0.26691
445.15935,0.40794
443.66956,0.44428
442.17977,0.43156
440.68998,0.41888
439.20020,0.56877
437.71041,0.64342
436.22062,0.76938
434.73083,0.89536
433.24104,0.86322
431.75125,1.01000
430.26146,1.08210
428.77168,1.15422
427.28189,1.15494
425.79210,1.20041
424.30231,1.16192
422.81252,1.12347
421.32273,1.06650
419.83295,1.00084
418.34316,0.92158
416.85337,0.84236
415.36358,0.78226
413.87379,0.68728
412.38400,0.65179
410.89422,0.61633
409.40443,0.61963
407.91464,0.60879
406.42485,0.45617
404.93506,0.45903
403.44527,0.46192
401.95548,0.44030
400.46570,0.54634
398.97591,0.55478
397.48612,0.56327
395.99633,0.56905
394.50654,0.55742
393.01675,0.51364
391.52697,0.46990
390.03718,0.34492
388.54739,0.41742
387.05760,0.46049
385.56781,0.50361
384.07802,0.49876
382.58824,0.35540
381.09845,0.36807
379.60866,0.38078
378.11887,0.31825
376.62908,0.20557
375.13929,0.18075
373.64950,0.15595
372.15972,0.24955
370.66993,0.18064
369.18014,0.18376
367.69035,0.18692
366.20056,0.12357
364.71077,0.13334
363.22099,0.13224
361.73120,0.13116
360.24141,0.14649
358.75162,0.10403
357.26183,0.12161
355.77204,0.13922
354.28225,0.12304
352.79247,0.07418
351.30268,0.04716
349.81289,0.02018
348.32310,0.06850
346.83331,0.05141
345.34352,0.07689
343.85374,0.10240
342.36395,0.10286
340.87416,0.11754
339.38437,0.11752
337.89458,0.11753
336.40479,0.01123
334.91501,0.00624
333.42522,0.12099
331.93543,0.23578
330.44564,0.19298
328.95585,0.17966
327.46606,0.16310
325.97627,0.14658
324.48649,0.00901
322.99670,0.05740
321.50691,0.08837
320.01712,0.11937
318.52733,0.24640
317.03754,0.20875
315.54776,0.15095
314.05797,0.09318
312.56818,-0.00000
311.07839,0.06175
309.58860,0.07172
308.09881,0.08172
306.60902,0.06830
305.11924,0.08000
303.62945,0.06938
302.13966,0.05879
300.64987,0.00624
299.16008,0.00624
