1778.52000,0.02988
1777.03021,0.03596
1775.54042,0.03131
1774.05063,0.04985
1772.56085,0.00887
1771.07106,0.01342
1769.58127,0.02957
1768.09148,0.02343
1766.60169,0.02972
1765.11190,0.03109
1763.62212,0.02918
1762.13233,0.04053
1760.64254,0.01966
1759.15275,0.04183
1757.66296,0.06817
1756.17317,0.03581
1754.68339,0.00928
1753.19360,0.02745
1751.70381,0.00511
1750.21402,0.00349
1748.72423,0.02009
1747.23444,0.01688
1745.74465,0.02032
1744.25487,0.03040
1742.76508,0.06699
1741.27529,0.07713
1739.78550,0.07904
1738.29571,0.05865
1736.80592,0.02920
1735.31614,0.00887
1733.82635,0.03981
1732.33656,0.03853
1730.84677,0.07036
1729.35698,0.04351
1727.86719,0.03074
1726.37740,0.04117
1724.88762,0.05658
1723.39783,0.03316
1721.90804,0.04120
1720.41825,0.01702
1718.92846,0.04663
1717.43867,0.02664
1715.94889,0.03398
1714.45910,0.06038
1712.96931,0.02064
1711.47952,0.04379
1709.98973,0.07276
1708.49994,0.10094
1707.01016,0.10682
1705.52037,0.11273
1704.03058,0.12529
1702.54079,0.11886
1701.05100,0.13645
1699.56121,0.15572
1698.07142,0.17999
1696.58164,0.19105
1695.09185,0.19140
1693.60206,0.25960
1692.11227,0.26745
1690.62248,0.26790
1689.13269,0.24686
1687.64291,0.27136
1686.15312,0.31408
1684.66333,0.28322
1683.17354,0.27307
1681.68375,0.32085
1680.19396,0.28595
1678.70417,0.29822
1677.21439,0.28489
1675.72460,0.26911
1674.23481,0.31043
1672.74502,0.30382
1671.25523,0.29888
1669.76544,0.28737
1668.27566,0.30814
1666.78587,0.23879
1665.29608,0.26211
1663.80629,0.33426
1662.31650,0.29230
1660.82671,0.27353
1659.33693,0.22750
1657.84714,0.21293
1656.35735,0.21080
1654.86756,0.22938
1653.37777,0.20250
1651.88798,0.21039
1650.39819,0.22080
1648.90841,0.23868
1647.41862,0.20449
1645.92883,0.18025
1644.43904,0.15604
1642.94925,0.14841
1641.45946,0.16314
1639.96968,0.15806
1638.47989,0.15714
1636.99010,0.19844
1635.50031,0.11239
1634.01052,0.13142
1632.52073,0.14552
1631.03094,0.10671
1629.54116,0.16388
1628.05137,0.16236
1626.56158,0.15095
1625.07179,0.22310
1623.58200,0.23491
1622.09221,0.23848
1620.60243,0.19990
1619.11264,0.18947
1617.62285,0.23780
1616.13306,0.19932
1614.64327,0.21380
1613.15348,0.20267
1611.66370,0.16925
1610.17391,0.19044
1608.68412,0.19099
1607.19433,0.14774
1605.70454,0.16241
1604.21475,0.17133
1602.72496,0.18028
1601.23518,0.17685
1599.74539,0.18669
1598.25560,0.11799
1596.76581,0.14278
1595.27602,0.15520
1593.78623,0.15028
1592.29645,0.11975
1590.80666,0.10745
1589.31687,0.11007
1587.82708,0.10528
1586.33729,0.10052
1584.84750,0.10737
1583.35771,0.06711
1581.86793,0.08560
1580.37814,0.08842
1578.88835,0.09871
1577.39856,0.06436
1575.90877,0.05817
1574.41898,0.08427
1572.92920,0.06988
1571.43941,0.07867
1569.94962,0.05896
1568.45983,0.03928
1566.97004,0.04569
1565.48025,0.03642
1563.99047,0.05695
1562.50068,0.00887
1561.01089,0.04408
1559.52110,0.09008
1558.03131,0.06167
1556.54152,0.06969
1555.05173,0.09014
1553.56195,0.11228
1552.07216,0.08483
1550.58237,0.14095
1549.09258,0.09123
1547.60279,0.08372
1546.11300,0.09775
1544.62322,0.08700
1543.13343,0.06718
1541.64364,0.03912
1540.15385,0.04542
1538.66406,0.05176
1537.17427,0.07259
1535.68448,0.04797
1534.19470,0.07798
1532.70491,0.03440
1531.21512,0.02890
1529.72533,0.04080
1528.23554,0.00310
1526.74575,0.03053
1525.25597,0.06874
1523.76618,0.05653
1522.27639,0.04683
1520.78660,0.01400
1519.29681,0.03084
1517.80702,0.03033
1516.31724,0.01828
1514.82745,0.04844
1513.33766,0.02984
1511.84787,0.01127
1510.35808,0.03183
1508.86829,0.03174
1507.37850,0.04740
1505.88872,0.03745
1504.39893,0.04242
1502.90914,0.01931
1501.41935,0.06653
1499.92956,0.07325
1498.43977,0.00887
1496.94999,0.10845
1495.46020,0.18573
1493.97041,0.18281
1492.48062,0.18488
1490.99083,0.20270
1489.50104,0.25447
1488.01125,0.28766
1486.52147,0.32088
1485.03168,0.36033
1483.54189,0.50073
1482.05210,0.53032
1480.56231,0.65755
1479.07252,0.80300
1477.58274,0.79712
1476.09295,0.85249
1474.60316,0.83592
1473.11337,0.92774
1471.62358,0.97079
1470.13379,1.01636
1468.64401,0.97428
1467.15422,1.02653
1465.66443,1.00850
1464.17464,0.99051
1462.68485,0.90141
1461.19506,0.94635
1459.70527,0.85483
1458.21549,0.84359
1456.72570,0.75214
1455.23591,0.78314
1453.74612,0.76868
1452.25633,0.68146
1450.76654,0.65218
1449.27676,0.70977
1447.78697,0.76326
1446.29718,0.66790
1444.80739,0.62468
1443.31760,0.58150
1441.82781,0.47714
1440.33802,0.36537
1438.84824,0.30904
1437.35845,0.30403
1435.86866,0.31642
1434.37887,0.27839
1432.88908,0.30243
1431.39929,0.27769
1429.90951,0.30923
1428.41972,0.27299
1426.92993,0.28143
1425.44014,0.29736
1423.95035,0.26865
1422.46056,0.23997
1420.97078,0.29156
1419.48099,0.29686
1417.99120,0.33031
1416.50141,0.48042
1415.01162,0.44776
1413.52183,0.45981
1412.03204,0.42639
1410.54226,0.42692
1409.05247,0.37207
1407.56268,0.33958
1406.07289,0.31787
1404.58310,0.30612
1403.09331,0.29440
1401.60353,0.34806
1400.11374,0.38438
1398.62395,0.43810
1397.13416,0.48523
1395.64437,0.47946
1394.15458,0.47621
1392.66479,0.47464
1391.17501,0.45656
1389.68522,0.39799
1388.19543,0.44201
1386.70564,0.42609
1385.21585,0.41021
1383.72606,0.38154
1382.23628,0.42982
1380.74649,0.37558
1379.25670,0.40986
1377.76691,0.46403
1376.27712,0.39251
1374.78733,0.48810
1373.29755,0.52417
1371.80776,0.52305
1370.31797,0.68986
1368.82818,0.78889
1367.33839,0.88794
1365.84860,0.96056
1364.35881,1.21105
1362.86903,1.32261
1361.37924,1.43420
1359.88945,1.47717
1358.39966,1.50612
1356.90987,1.50035
1355.42008,1.48883
1353.93030,1.50878
1352.44051,1.45638
1350.95072,1.40401
1349.46093,1.30826
1347.97114,1.18193
1346.48135,0.99277
1344.99156,0.90456
1343.50178,0.85525
1342.01199,0.74724
1340.52220,0.61198
1339.03241,0.61404
1337.54262,0.52351
1336.05283,0.52812
1334.56305,0.53276
1333.07326,0.52503
1331.58347,0.55207
1330.09368,0.52456
1328.60389,0.45406
1327.11410,0.47210
1325.62432,0.43558
1324.13453,0.37097
1322.64474,0.38662
1321.15495,0.44449
1319.66516,0.42588
1318.17537,0.40731
1316.68558,0.35774
1315.19580,0.36777
1313.70601,0.32737
1312.21622,0.32588
1310.72643,0.27148
1309.23664,0.30231
1307.74685,0.27031
1306.25707,0.29128
1304.76728,0.28912
1303.27749,0.28699
1301.78770,0.27911
1300.29791,0.30848
1298.80812,0.25847
1297.31834,0.27632
1295.82855,0.32729
1294.33876,0.27987
1292.84897,0.31436
1291.35918,0.24466
1289.86939,0.26309
1288.37960,0.28154
1286.88982,0.30293
1285.40003,0.39713
1283.91024,0.43678
1282.42045,0.40532
1280.93066,0.40037
1279.44087,0.43597
1277.95109,0.40709
1276.46130,0.38487
1274.97151,0.39245
1273.48172,0.40006
1271.99193,0.44409
1270.50214,0.43192
1269.01235,0.45782
1267.52257,0.48293
1266.03278,0.47499
1264.54299,0.54400
1263.05320,0.50635
1261.56341,0.55681
1260.07362,0.60731
1258.58384,0.63509
1257.09405,0.61493
1255.60426,0.59481
1254.11447,0.54494
1252.62468,0.54721
1251.13489,0.49575
1249.64511,0.46665
1248.15532,0.45413
1246.66553,0.46397
1245.17574,0.47385
1243.68595,0.48789
1242.19616,0.44820
1240.70637,0.45983
1239.21659,0.34659
1237.72680,0.35580
1236.23701,0.34519
1234.74722,0.30070
1233.25743,0.25665
1231.76764,0.21264
1230.27786,0.22532
1228.78807,0.23472
1227.29828,0.19783
1225.80849,0.20978
1224.31870,0.21100
1222.82891,0.17587
1221.33912,0.15069
1219.84934,0.12720
1218.35955,0.10374
1216.86976,0.14317
1215.37997,0.19338
1213.89018,0.23454
1212.40039,0.18722
1210.91061,0.20279
1209.42082,0.16464
1207.93103,0.16373
1206.44124,0.16286
1204.95145,0.15209
1203.46166,0.12482
1201.97188,0.08021
1200.48209,0.12413
1198.99230,0.13334
1197.50251,0.08717
1196.01272,0.01291
1194.52293,0.03049
1193.03314,0.04810
1191.54336,0.03763
1190.05357,0.02222
1188.56378,0.01925
1187.07399,0.00887
1185.58420,0.01013
1184.09441,0.02797
1182.60463,0.02888
1181.11484,0.02983
1179.62505,0.07919
1178.13526,0.02354
1176.64547,0.09612
1175.15568,0.08438
1173.66589,0.15868
1172.17611,0.11888
1170.68632,0.09192
1169.19653,0.06500
1167.70674,0.02695
1166.21695,0.04186
1164.72716,0.03695
1163.23738,0.00809
1161.74759,0.03068
1160.25780,0.04503
1158.76801,0.03129
1157.27822,0.01758
1155.78843,0.00887
1154.29865,0.02447
1152.80886,0.08146
1151.31907,0.05246
1149.82928,0.07064
1148.33949,0.07562
1146.84970,0.08270
1145.35991,0.08981
1143.87013,0.03119
1142.38034,0.01479
1140.89055,0.14979
1139.40076,0.09127
1137.91097,0.13204
1136.42118,0.22825
1134.93140,0.29638
1133.44161,0.36454
1131.95182,0.36904
1130.46203,0.37854
1128.97224,0.36739
1127.48245,0.33063
1125.99266,0.29391
1124.50288,0.27541
1123.01309,0.31236
1121.52330,0.34935
1120.03351,0.30117
1118.54372,0.35724
1117.05393,0.43403
1115.56415,0.42151
1114.07436,0.37594
1112.58457,0.39451
1111.09478,0.41311
1109.60499,0.43050
1108.11520,0.56951
1106.62542,0.55553
1105.13563,0.53166
1103.64584,0.60377
1102.15605,0.64779
1100.66626,0.68563
1099.17647,0.72351
1097.68668,0.77755
1096.19690,0.76297
1094.70711,0.76662
1093.21732,0.83564
1091.72753,0.88402
1090.23774,0.85261
1088.74795,0.82124
1087.25817,0.88626
1085.76838,0.94634
1084.27859,1.00894
1082.78880,0.96653
1081.29901,1.04987
1079.80922,1.14151
1078.31943,1.12318
1076.82965,1.10488
1075.33986,1.14617
1073.85007,1.08989
1072.36028,1.04439
1070.87049,1.12382
1069.38070,1.13132
1067.89092,1.15375
1066.40113,1.17620
1064.91134,1.09199
1063.42155,1.09631
1061.93176,0.98404
1060.44197,0.99009
1058.95219,1.02593
1057.46240,0.96835
1055.97261,0.91080
1054.48282,0.88885
1052.99303,0.72301
1051.50324,0.74082
1050.01345,0.63212
1048.52367,0.57721
1047.03388,0.55459
1045.54409,0.53200
1044.05430,0.59629
1042.56451,0.56302
1041.07472,0.49669
1039.58494,0.53709
1038.09515,0.47661
1036.60536,0.45959
1035.11557,0.44261
1033.62578,0.35245
1032.13599,0.31526
1030.64620,0.35586
1029.15642,0.39483
1027.66663,0.37469
1026.17684,0.35459
1024.68705,0.44576
1023.19726,0.55268
1021.70747,0.70596
1020.21769,0.78978
1018.72790,0.95470
1017.23811,1.07540
1015.74832,1.19613
1014.25853,1.35948
1012.76874,1.66679
1011.27896,1.76156
1009.78917,1.98953
1008.29938,2.00000
1006.80959,1.92903
1005.31980,1.85810
1003.83001,1.65527
1002.34022,1.52112
1000.85044,1.50777
999.36065,1.40346
997.87086,1.38479
996.38107,1.36616
994.89128,1.32398
993.40149,1.36703
991.91171,1.24634
990.42192,1.30848
988.93213,1.21515
987.44234,1.15494
985.95255,1.09476
984.46276,1.15785
982.97297,1.12585
981.48319,1.18322
979.99340,1.09587
978.50361,1.07886
977.01382,1.06188
975.52403,1.06561
974.03424,1.01313
972.54446,0.96813
971.05467,0.91654
969.56488,0.86746
968.07509,0.84571
966.58530,0.82400
965.09551,0.79983
963.60573,0.74427
962.11594,0.78220
960.62615,0.79783
959.13636,0.74650
957.64657,0.69520
956.15678,0.66957
954.66699,0.66796
953.17721,0.66059
951.68742,0.66152
950.19763,0.65588
948.70784,0.65026
947.21805,0.63309
945.72826,0.60190
944.23848,0.59390
942.74869,0.68683
941.25890,0.64664
939.76911,0.66106
938.27932,0.67552
936.78953,0.74046
935.29974,0.76656
933.80996,0.76127
932.32017,0.78826
930.83038,0.83389
929.34059,0.87956
927.85080,0.82890
926.36101,0.81467
924.87123,0.79219
923.38144,0.72591
921.89165,0.70226
920.40186,0.67864
918.91207,0.68773
917.42228,0.76219
915.93250,0.71675
914.44271,0.76232
912.95292,0.77112
911.46313,0.77995
909.97334,0.74952
908.48355,0.77455
906.99376,0.77644
905.50398,0.79905
904.01419,0.78405
902.52440,0.76909
901.03461,0.77360
899.54482,0.76904
898.05503,0.82902
896.56525,0.84769
895.07546,0.83371
893.58567,0.81977
892.09588,0.75830
890.60609,0.88379
889.11630,0.88855
887.62651,0.82883
886.13673,0.82869
884.64694,0.82859
883.15715,0.85829
881.66736,0.74990
880.17757,0.77884
878.68778,0.80409
877.19800,0.82937
875.70821,0.74096
874.21842,0.82462
872.72863,0.88267
871.23884,0.87706
869.74905,0.92856
868.25927,0.98009
866.76948,0.94563
865.27969,0.87647
863.78990,0.88508
862.30011,0.91027
860.81032,0.93591
859.32053,0.96157
857.83075,0.97528
856.34096,0.96586
854.85117,0.85970
853.36138,0.75771
851.87159,0.71364
850.38180,0.66961
848.89202,0.63471
847.40223,0.42946
845.91244,0.35905
844.42265,0.37057
842.93286,0.38211
841.44307,0.39038
839.95329,0.39868
838.46350,0.39957
836.97371,0.29131
835.48392,0.32742
833.99413,0.36356
832.50434,0.35713
831.01455,0.29615
829.52477,0.28317
828.03498,0.32563
826.54519,0.28294
825.05540,0.24028
823.56561,0.14968
822.07582,0.14762
820.58604,0.12242
819.09625,0.10843
817.60646,0.09446
816.11667,0.05530
814.62688,0.07986
813.13709,0.03415
811.64730,0.01081
810.15752,0.00982
808.66773,0.00887
807.17794,0.04059
805.68815,0.10790
804.19836,0.12232
802.70857,0.10864
801.21879,0.09499
799.72900,0.12274
798.23921,0.23074
796.74942,0.30569
795.25963,0.32981
793.76984,0.35396
792.28006,0.36201
790.79027,0.45363
789.30048,0.40881
787.81069,0.45832
786.32090,0.48676
784.83111,0.51524
783.34132,0.54581
781.85154,0.51191
780.36175,0.56240
778.87196,0.55172
777.38217,0.54106
775.89238,0.64045
774.40259,0.68611
772.91281,0.72683
771.42302,0.80977
769.93323,0.89275
768.44344,0.86740
766.95365,0.80404
765.46386,0.78703
763.97407,0.74937
762.48429,0.70719
760.99450,0.66505
759.50471,0.58862
758.01492,0.46424
756.52513,0.35644
755.03534,0.31029
753.54556,0.26417
752.05577,0.23587
750.56598,0.17700
749.07619,0.06935
747.58640,0.09491
746.09661,0.12050
744.60683,0.06092
743.11704,0.03199
741.62725,0.00887
740.13746,0.01938
738.64767,0.02992
737.15788,0.05456
735.66809,0.04449
734.17831,0.02453
732.68852,0.04719
731.19873,0.06989
729.70894,0.06904
728.21915,0.06078
726.72936,0.06662
725.23958,0.06918
723.74979,0.06185
722.26000,0.05455
720.77021,0.03322
719.28042,0.08305
717.79063,0.04938
716.30084,0.04469
714.81106,0.04003
713.32127,0.02134
711.83148,0.02088
710.34169,0.00887
708.85190,0.01496
707.36211,0.02109
705.87233,0.01731
704.38254,0.07147
702.89275,0.07852
701.40296,0.08312
699.91317,0.08775
698.42338,0.10316
696.93360,0.08966
695.44381,0.14484
693.95402,0.15538
692.46423,0.16596
690.97444,0.12364
689.48465,0.15496
687.99486,0.15819
686.50508,0.17097
685.01529,0.18377
683.52550,0.18048
682.03571,0.11602
680.54592,0.12024
679.05613,0.14393
677.56635,0.16765
676.07656,0.10910
674.58677,0.11427
673.09698,0.07978
671.60719,0.07840
670.11740,0.07705
668.62761,0.05093
667.13783,0.08934
665.64804,0.08437
664.15825,0.07943
662.66846,0.07742
661.17867,0.07047
659.68888,0.04123
658.19910,0.05792
656.70931,0.07464
655.21952,0.10587
653.72973,0.15037
652.23994,0.16678
650.75015,0.17743
649.26037,0.18811
647.77058,0.18890
646.28079,0.21288
644.79100,0.13019
643.30121,0.13066
641.81142,0.13116
640.32163,0.00887
638.83185,0.03511
637.34206,0.06800
635.85227,0.04178
634.36248,0.01559
632.87269,0.00887
631.38290,0.03642
629.89312,0.08054
628.40333,0.08581
626.91354,0.09112
625.42375,0.08488
623.93396,0.03650
622.44417,0.05679
620.95438,0.07712
619.46460,0.06108
617.97481,0.08643
616.48502,0.07046
614.99523,0.06197
613.50544,0.05350
612.01565,0.03846
610.52587,0.05404
609.03608,0.08538
607.54629,0.09317
606.05650,0.10100
604.56671,0.06378
603.07692,0.08945
601.58714,0.12053
600.09735,0.15164
598.60756,0.11373
597.11777,0.13870
595.62798,0.09340
594.13819,0.07998
592.64840,0.06659
591.15862,0.09748
589.66883,0.08788
588.17904,0.02041
586.68925,0.04478
585.19946,0.06918
583.70967,0.11595
582.21989,0.10071
580.73010,0.12563
579.24031,0.15057
577.75052,0.14618
576.26073,0.15424
574.77094,0.15322
573.28115,0.13777
571.79137,0.12235
570.30158,0.14872
568.81179,0.15776
567.32200,0.19909
565.83221,0.24045
564.34242,0.27110
562.85264,0.28854
561.36285,0.30104
559.87306,0.34584
558.38327,0.39067
556.89348,0.35365
555.40369,0.48622
553.91391,0.51336
552.42412,0.54054
550.93433,0.62523
549.44454,0.52303
547.95475,0.58214
546.46496,0.59001
544.97517,0.59791
543.48539,0.58764
541.99560,0.52944
540.50581,0.56473
539.01602,0.60005
537.52623,0.56179
536.03644,0.63357
534.54666,0.48123
533.05687,0.49807
531.56708,0.51494
530.07729,0.48346
528.58750,0.44622
527.09771,0.45947
525.60792,0.47275
524.11814,0.43312
522.62835,0.40924
521.13856,0.47059
519.64877,0.41741
518.15898,0.36427
516.66919,0.35293
515.17941,0.32921
513.68962,0.31627
512.19983,0.30337
510.71004,0.36081
509.22025,0.28428
507.73046,0.31945
506.24068,0.33852
504.75089,0.35762
503.26110,0.35732
501.77131,0.34713
500.28152,0.35309
498.79173,0.35909
497.30194,0.39365
495.81216,0.31494
494.32237,0.31110
492.83258,0.30730
491.34279,0.31635
489.85300,0.35770
488.36321,0.23944
486.87343,0.26513
485.38364,0.29085
483.89385,0.22562
482.40406,0.20675
480.91427,0.12215
479.42448,0.03758
477.93469,0.00887
476.44491,0.03422
474.95512,0.09352
473.46533,0.15285
471.97554,0.10469
470.48575,0.06152
468.99596,0.08786
467.50618,0.09314
466.01639,0.09846
464.52660,0.00000
463.03681,0.00183
461.54702,0.04546
460.05723,0.08913
458.56745,0.01083
457.07766,0.05403
455.58787,0.08113
454.09808,0.10827
452.60829,0.13998
451.11850,0.16511
449.62871,0.16877
448.13893,0.17246
446.64914,0.29942
445.15935,0.39333
443.66956,0.48066
442.17977,0.45718
440.68998,0.43374
439.20020,0.47401
437.71041,0.50522
436.22062,0.53192
434.73083,0.55864
433.24104,0.69251
431.75125,0.78919
430.26146,0.81766
428.77168,0.84617
427.28189,0.90821
425.79210,0.93554
424.30231,0.95504
422.81252,0.97458
421.32273,1.13351
419.83295,1.05014
418.34316,0.98499
416.85337,0.91988
415.36358,0.66374
413.87379,0.53996
412.38400,0.54029
410.89422,0.54064
409.40443,0.50050
407.91464,0.50754
406.42485,0.46498
404.93506,0.47415
403.44527,0.48335
401.95548,0.37141
400.46570,0.33394
398.97591,0.31926
397.48612,0.30460
395.99633,0.29866
394.50654,0.30102
393.01675,0.35056
391.52697,0.40013
390.03718,0.32650
388.54739,0.20327
387.05760,0.19876
385.56781,0.19428
384.07802,0.23905
382.58824,0.20197
381.09845,0.22075
379.60866,0.23956
378.11887,0.27784
376.62908,0.20698
375.13929,0.18825
373.64950,0.16956
372.15972,0.14924
370.66993,0.08678
369.18014,0.08100
367.69035,0.07525
366.20056,0.05672
364.71077,0.07048
363.22099,0.11652
361.73120,0.16260
360.24141,0.17480
358.75162,0.13409
357.26183,0.15380
355.77204,0.17353
354.28225,0.10729
352.79247,0.15107
351.30268,0.13824
349.81289,0.12543
348.32310,0.19082
346.83331,0.14706
345.34352,0.10665
343.85374,0.06626
342.36395,0.11568
340.87416,0.08822
339.38437,0.13563
337.89458,0.18309
336.40479,0.18136
334.91501,0.14988
333.42522,0.10644
331.93543,0.06304
330.44564,0.14911
328.95585,0.18476
327.46606,0.21589
325.97627,0.24706
324.48649,0.12317
322.99670,0.09361
321.50691,0.12335
320.01712,0.15312
318.52733,0.23090
317.03754,0.23427
315.54776,0.18225
314.05797,0.13027
312.56818,0.16185
311.07839,0.18024
309.58860,0.16350
308.09881,0.14680
306.60902,0.11896
305.11924,0.10191
303.62945,0.12376
302.13966,0.10062
300.64987,0.00887
299.16008,0.00887
