1778.52000,0.11462
1777.03021,0.10181
1775.54042,0.11865
1774.05063,0.05853
1772.56085,0.09618
1771.07106,0.05835
1769.58127,0.03833
1768.09148,0.00798
1766.60169,0.07244
1765.11190,0.12806
1763.62212,0.06822
1762.13233,0.09133
1760.64254,0.05526
1759.15275,0.10363
1757.66296,0.12983
1756.17317,0.01539
1754.68339,0.04907
1753.19360,0.03689
1751.70381,0.02030
1750.21402,0.04521
1748.72423,0.06424
1747.23444,0.09516
1745.74465,0.05207
1744.25487,0.04901
1742.76508,0.02673
1741.27529,0.12148
1739.78550,0.06670
1738.29571,0.10378
1736.80592,0.07278
1735.31614,0.04477
1733.82635,0.05235
1732.33656,0.07181
1730.84677,0.06022
1729.35698,0.05903
1727.86719,0.07121
1726.37740,0.07306
1724.88762,0.03496
1723.39783,0.12130
1721.90804,0.08032
1720.41825,0.08085
1718.92846,0.09770
1717.43867,0.00798
1715.94889,0.06325
1714.45910,0.11115
1712.96931,0.10133
1711.47952,0.07823
1709.98973,0.12181
1708.49994,0.09731
1707.01016,0.10246
1705.52037,0.10765
1704.03058,0.06550
1702.54079,0.07817
1701.05100,0.12347
1699.56121,0.08143
1698.07142,0.15642
1696.58164,0.16185
1695.09185,0.14362
1693.60206,0.09138
1692.11227,0.15468
1690.62248,0.19728
1689.13269,0.14071
1687.64291,0.19080
1686.15312,0.18614
1684.66333,0.22002
1683.17354,0.22432
1681.68375,0.22274
1680.19396,0.12939
1678.70417,0.19008
1677.21439,0.18713
1675.72460,0.14572
1674.23481,0.16951
1672.74502,0.12374
1671.25523,0.17130
1669.76544,0.14634
1668.27566,0.19842
1666.78587,0.21204
1665.29608,0.15314
1663.80629,0.14166
1662.31650,0.11542
1660.82671,0.18547
1659.33693,0.13561
1657.84714,0.11985
1656.35735,0.14855
1654.86756,0.11362
1653.37777,0.13499
1651.88798,0.13124
1650.39819,0.16898
1648.90841,0.22305
1647.41862,0.12168
1645.92883,0.13363
1644.43904,0.14562
1642.94925,0.08583
1641.45946,0.10159
1639.96968,0.10259
1638.47989,0.14361
1636.99010,0.17135
1635.50031,0.15914
1634.01052,0.12031
1632.52073,0.15853
1631.03094,0.13459
1629.54116,0.13883
1628.05137,0.18753
1626.56158,0.13113
1625.07179,0.19028
1623.58200,0.19023
1622.09221,0.16356
1620.60243,0.19765
1619.11264,0.16959
1617.62285,0.19043
1616.13306,0.15503
1614.64327,0.13153
1613.15348,0.19839
1611.66370,0.15127
1610.17391,0.14565
1608.68412,0.12527
1607.19433,0.11825
1605.70454,0.16162
1604.21475,0.14283
1602.72496,0.12408
1601.23518,0.16608
1599.74539,0.11928
1598.25560,0.15988
1596.76581,0.10279
1595.27602,0.11533
1593.78623,0.14865
1592.29645,0.05613
1590.80666,0.15320
1589.31687,0.05040
1587.82708,0.06463
1586.33729,0.06704
1584.84750,0.08727
1583.35771,0.09568
1581.86793,0.11895
1580.37814,0.06821
1578.88835,0.09600
1577.39856,0.05423
1575.90877,0.12651
1574.41898,0.08334
1572.92920,0.10832
1571.43941,0.10817
1569.94962,0.07844
1568.45983,0.04875
1566.97004,0.02058
1565.48025,0.03835
1563.99047,0.09911
1562.50068,0.02811
1561.01089,0.01195
1559.52110,0.08319
1558.03131,0.09968
1556.54152,0.08807
1555.05173,0.11204
1553.56195,0.06201
1552.07216,0.06385
1550.58237,0.00798
1549.09258,0.02191
1547.60279,0.09066
1546.11300,0.08690
1544.62322,0.05800
1543.13343,0.16834
1541.64364,0.05363
1540.15385,0.05447
1538.66406,0.05534
1537.17427,0.10956
1535.68448,0.07053
1534.19470,0.08041
1532.70491,0.00000
1531.21512,0.03446
1529.72533,0.06452
1528.23554,0.01465
1526.74575,0.06403
1525.25597,0.06459
1523.76618,0.08148
1522.27639,0.08063
1520.78660,0.09019
1519.29681,0.00798
1517.80702,0.04189
1516.31724,0.04622
1514.82745,0.04763
1513.33766,0.04390
1511.84787,0.04020
1510.35808,0.06246
1508.86829,0.03145
1507.37850,0.10414
1505.88872,0.03766
1504.39893,0.03935
1502.90914,0.02775
1501.41935,0.02655
1499.92956,0.04760
1498.43977,0.00798
1496.94999,0.12185
1495.46020,0.18541
1493.97041,0.22236
1492.48062,0.19122
1490.99083,0.25194
1489.50104,0.30381
1488.01125,0.32018
1486.52147,0.33659
1485.03168,0.42412
1483.54189,0.54723
1482.05210,0.56376
1480.56231,0.72248
1479.07252,0.76574
1477.58274,0.90530
1476.09295,0.94272
1474.60316,0.92538
1473.11337,0.90661
1471.62358,0.91897
1470.13379,0.95950
1468.64401,0.89938
1467.15422,0.91038
1465.66443,0.88514
1464.17464,0.85994
1462.68485,0.83107
1461.19506,0.71340
1459.70527,0.69202
1458.21549,0.63513
1456.72570,0.55904
1455.23591,0.53185
1453.74612,0.50174
1452.25633,0.44057
1450.76654,0.38981
1449.27676,0.40868
1447.78697,0.45129
1446.29718,0.37103
1444.80739,0.34116
1443.31760,0.31132
1441.82781,0.21637
1440.33802,0.17329
1438.84824,0.11247
1437.35845,0.18941
1435.86866,0.14200
1434.37887,0.15387
1432.88908,0.12579
1431.39929,0.17475
1429.90951,0.19414
1428.41972,0.19875
1426.92993,0.08939
1425.44014,0.10001
1423.95035,0.13806
1422.46056,0.17615
1420.97078,0.10841
1419.48099,0.25394
1417.99120,0.17590
1416.50141,0.18676
1415.01162,0.25096
1413.52183,0.24116
1412.03204,0.23141
1410.54226,0.27055
1409.05247,0.24755
1407.56268,0.21569
1406.07289,0.17351
1404.58310,0.12249
1403.09331,0.07150
1401.60353,0.13162
1400.11374,0.25841
1398.62395,0.30972
1397.13416,0.36107
1395.64437,0.33397
1394.15458,0.36022
1392.66479,0.37911
1391.17501,0.32548
1389.68522,0.42441
1388.19543,0.42268
1386.70564,0.39212
1385.21585,0.36160
1383.72606,0.39109
1382.23628,0.39692
1380.74649,0.39540
1379.25670,0.41316
1377.76691,0.34951
1376.27712,0.36735
1374.78733,0.47704
1373.29755,0.46979
1371.80776,0.52921
1370.31797,0.57238
1368.82818,0.70888
1367.33839,0.84542
1365.84860,0.98052
1364.35881,1.13195
1362.86903,1.29082
1361.37924,1.33867
1359.88945,1.42506
1358.39966,1.52778
1356.90987,1.48393
1355.42008,1.41643
1353.93030,1.42006
1352.44051,1.36226
1350.95072,1.30451
1349.46093,1.17942
1347.97114,1.00402
1346.48135,0.87160
1344.99156,0.78809
1343.50178,0.64243
1342.01199,0.56640
1340.52220,0.50078
1339.03241,0.39077
1337.54262,0.40371
1336.05283,0.37597
1334.56305,0.34826
1333.07326,0.36576
1331.58347,0.46919
1330.09368,0.28241
1328.60389,0.28226
1327.11410,0.26438
1325.62432,0.28356
1324.13453,0.26871
1322.64474,0.21837
1321.15495,0.29394
1319.66516,0.23627
1318.17537,0.17864
1316.68558,0.19657
1315.19580,0.19381
1313.70601,0.18813
1312.21622,0.19878
1310.72643,0.13690
1309.23664,0.19797
1307.74685,0.10508
1306.25707,0.11292
1304.76728,0.16078
1303.27749,0.20869
1301.78770,0.19147
1300.29791,0.11803
1298.80812,0.18974
1297.31834,0.18597
1295.82855,0.12301
1294.33876,0.14005
1292.84897,0.13936
1291.35918,0.11650
1289.86939,0.16402
1288.37960,0.21157
1286.88982,0.21400
1285.40003,0.18981
1283.91024,0.25896
1282.42045,0.31482
1280.93066,0.20634
1279.44087,0.28301
1277.95109,0.29012
1276.46130,0.26173
1274.97151,0.25558
1273.48172,0.24948
1271.99193,0.26860
1270.50214,0.21371
1269.01235,0.24178
1267.52257,0.33653
1266.03278,0.30693
1264.54299,0.37363
1263.05320,0.37965
1261.56341,0.39904
1260.07362,0.41846
1258.58384,0.43793
1257.09405,0.41449
1255.60426,0.39257
1254.11447,0.36181
1252.62468,0.30887
1251.13489,0.24117
1249.64511,0.21052
1248.15532,0.23915
1246.66553,0.21820
1245.17574,0.19730
1243.68595,0.21864
1242.19616,0.29333
1240.70637,0.24071
1239.21659,0.15111
1237.72680,0.14299
1236.23701,0.19266
1234.74722,0.07207
1233.25743,0.09961
1231.76764,0.12719
1230.27786,0.11187
1228.78807,0.09065
1227.29828,0.09762
1225.80849,0.06168
1224.31870,0.08649
1222.82891,0.12615
1221.33912,0.07552
1219.84934,0.10934
1218.35955,0.14319
1216.86976,0.06899
1215.37997,0.10736
1213.89018,0.11172
1212.40039,0.11908
1210.91061,0.13980
1209.42082,0.14872
1207.93103,0.09030
1206.44124,0.03192
1204.95145,0.11943
1203.46166,0.04262
1201.97188,0.03989
1200.48209,0.09199
1198.99230,0.12931
1197.50251,0.12374
1196.01272,0.05452
1194.52293,0.05199
1193.03314,0.04949
1191.54336,0.04407
1190.05357,0.09941
1188.56378,0.05853
1187.07399,0.04582
1185.58420,0.00798
1184.09441,0.00831
1182.60463,0.00861
1181.11484,0.00895
1179.62505,0.06602
1178.13526,0.14387
1176.64547,0.13290
1175.15568,0.15306
1173.66589,0.20881
1172.17611,0.14169
1170.68632,0.10792
1169.19653,0.07420
1167.70674,0.09012
1166.21695,0.00687
1164.72716,0.10549
1163.23738,0.10049
1161.74759,0.04963
1160.25780,0.07136
1158.76801,0.07019
1157.27822,0.06905
1155.78843,0.00798
1154.29865,0.11435
1152.80886,0.04010
1151.31907,0.04141
1149.82928,0.12865
1148.33949,0.12115
1146.84970,0.13591
1145.35991,0.15071
1143.87013,0.19812
1142.38034,0.12859
1140.89055,0.11388
1139.40076,0.09330
1137.91097,0.10829
1136.42118,0.18404
1134.93140,0.24575
1133.44161,0.30751
1131.95182,0.42779
1130.46203,0.38375
1128.97224,0.29088
1127.48245,0.33576
1125.99266,0.33182
1124.50288,0.36197
1123.01309,0.33072
1121.52330,0.29949
1120.03351,0.33717
1118.54372,0.40746
1117.05393,0.52963
1115.56415,0.52152
1114.07436,0.51641
1112.58457,0.48616
1111.09478,0.45596
1109.60499,0.49835
1108.11520,0.61927
1106.62542,0.65434
1105.13563,0.68944
1103.64584,0.70386
1102.15605,0.65464
1100.66626,0.70097
1099.17647,0.74734
1097.68668,0.84040
1096.19690,0.80614
1094.70711,0.80007
1093.21732,0.86955
1091.72753,0.91389
1090.23774,0.87313
1088.74795,0.83241
1087.25817,0.89613
1085.76838,0.96581
1084.27859,1.08735
1082.78880,1.08751
1081.29901,1.21210
1079.80922,1.18124
1078.31943,1.18966
1076.82965,1.19812
1075.33986,1.33026
1073.85007,1.26550
1072.36028,1.15784
1070.87049,1.11389
1069.38070,1.20769
1067.89092,1.27488
1066.40113,1.34210
1064.91134,1.18873
1063.42155,1.15238
1061.93176,1.14569
1060.44197,1.10645
1058.95219,1.02876
1057.46240,0.97257
1055.97261,0.91643
1054.48282,0.87735
1052.99303,0.80278
1051.50324,0.72083
1050.01345,0.63301
1048.52367,0.45786
1047.03388,0.45822
1045.54409,0.45862
1044.05430,0.43907
1042.56451,0.46842
1041.07472,0.47413
1039.58494,0.39546
1038.09515,0.35830
1036.60536,0.35375
1035.11557,0.34925
1033.62578,0.17745
1032.13599,0.19671
1030.64620,0.23527
1029.15642,0.34642
1027.66663,0.33249
1026.17684,0.31859
1024.68705,0.40913
1023.19726,0.50712
1021.70747,0.61254
1020.21769,0.84832
1018.72790,0.95087
1017.23811,1.12675
1015.74832,1.30267
1014.25853,1.51788
1012.76874,1.78199
1011.27896,1.90546
1009.78917,1.91495
1008.29938,2.00000
1006.80959,1.93775
1005.31980,1.87554
1003.83001,1.76524
1002.34022,1.76900
1000.85044,1.80242
999.36065,1.64337
997.87086,1.54730
996.38107,1.45126
994.89128,1.48484
993.40149,1.42961
991.91171,1.42180
990.42192,1.37553
988.93213,1.45517
987.44234,1.36307
985.95255,1.27101
984.46276,1.29450
982.97297,1.23658
981.48319,1.26903
979.99340,1.21711
978.50361,1.16597
977.01382,1.11487
975.52403,1.09713
974.03424,1.09572
972.54446,0.98476
971.05467,0.90939
969.56488,0.85182
968.07509,0.83132
966.58530,0.81085
965.09551,0.70750
963.60573,0.66045
962.11594,0.70082
960.62615,0.67310
959.13636,0.66468
957.64657,0.65629
956.15678,0.56058
954.66699,0.59522
953.17721,0.49810
951.68742,0.44545
950.19763,0.48687
948.70784,0.52833
947.21805,0.51578
945.72826,0.40405
944.23848,0.48931
942.74869,0.48428
941.25890,0.50595
939.76911,0.53357
938.27932,0.56124
936.78953,0.73258
935.29974,0.76773
933.80996,0.68593
932.32017,0.73301
930.83038,0.76902
929.34059,0.80506
927.85080,0.76489
926.36101,0.67292
924.87123,0.59728
923.38144,0.60461
921.89165,0.51203
920.40186,0.41948
918.91207,0.53206
917.42228,0.66393
915.93250,0.67590
914.44271,0.60942
912.95292,0.64516
911.46313,0.68094
909.97334,0.76266
908.48355,0.72892
906.99376,0.69818
905.50398,0.62750
904.01419,0.63164
902.52440,0.63581
901.03461,0.65261
899.54482,0.83234
898.05503,0.77667
896.56525,0.76545
895.07546,0.72318
893.58567,0.68095
892.09588,0.75130
890.60609,0.77874
889.11630,0.71885
887.62651,0.74193
886.13673,0.77098
884.64694,0.80006
883.15715,0.71219
881.66736,0.72507
880.17757,0.71576
878.68778,0.74500
877.19800,0.77428
875.70821,0.63775
874.21842,0.80926
872.72863,0.91566
871.23884,0.96139
869.74905,0.94274
868.25927,0.92412
866.76948,0.94035
865.27969,0.85296
863.78990,0.93886
862.30011,0.97890
860.81032,0.97603
859.32053,0.97321
857.83075,0.92895
856.34096,0.94398
854.85117,0.87463
853.36138,0.78607
851.87159,0.76049
850.38180,0.73494
848.89202,0.59468
847.40223,0.46185
845.91244,0.29797
844.42265,0.30812
842.93286,0.31832
841.44307,0.30411
839.95329,0.29291
838.46350,0.31285
836.97371,0.20399
835.48392,0.21216
833.99413,0.22037
832.50434,0.27452
831.01455,0.30649
829.52477,0.26299
828.03498,0.24470
826.54519,0.22349
825.05540,0.20231
823.56561,0.11454
822.07582,0.05643
820.58604,0.16272
819.09625,0.10395
817.60646,0.04521
816.11667,0.00798
814.62688,0.15365
813.13709,0.05948
811.64730,0.02753
810.15752,0.02968
808.66773,0.03187
807.17794,0.11111
805.68815,0.15484
804.19836,0.21194
802.70857,0.22910
801.21879,0.24629
799.72900,0.24872
798.23921,0.28080
796.74942,0.43287
795.25963,0.45171
793.76984,0.47058
792.28006,0.67756
790.79027,0.65801
789.30048,0.62073
787.81069,0.65013
786.32090,0.69511
784.83111,0.74014
783.34132,0.67636
781.85154,0.81105
780.36175,0.76216
778.87196,0.78439
777.38217,0.80666
775.89238,0.85414
774.40259,0.86020
772.91281,0.94922
771.42302,0.98423
769.93323,1.01928
768.44344,1.01809
766.95365,0.92958
765.46386,0.84258
763.97407,0.82078
762.48429,0.77754
760.99450,0.73435
759.50471,0.55718
758.01492,0.53850
756.52513,0.46506
755.03534,0.40796
753.54556,0.35089
752.05577,0.32644
750.56598,0.17912
749.07619,0.16808
747.58640,0.17929
746.09661,0.19054
744.60683,0.18849
743.11704,0.02805
741.62725,0.07347
740.13746,0.07895
738.64767,0.08447
737.15788,0.04117
735.66809,0.10452
734.17831,0.00798
732.68852,0.06556
731.19873,0.12317
729.70894,0.09049
728.21915,0.04157
726.72936,0.10374
725.23958,0.17336
723.74979,0.16824
722.26000,0.16315
720.77021,0.11146
719.28042,0.00798
717.79063,0.08599
716.30084,0.12184
714.81106,0.15772
713.32127,0.09221
711.83148,0.03859
710.34169,0.02350
708.85190,0.01734
707.36211,0.01122
705.87233,0.10435
704.38254,0.00798
702.89275,0.04619
701.40296,0.10887
699.91317,0.17159
698.42338,0.11958
696.93360,0.15054
695.44381,0.16081
693.95402,0.20221
692.46423,0.24366
690.97444,0.20370
689.48465,0.27483
687.99486,0.24088
686.50508,0.21880
685.01529,0.19677
683.52550,0.26214
682.03571,0.25203
680.54592,0.16348
679.05613,0.20898
677.56635,0.25452
676.07656,0.15572
674.58677,0.13988
673.09698,0.03375
671.60719,0.08019
670.11740,0.12667
668.62761,0.04435
667.13783,0.00798
665.64804,0.02791
664.15825,0.04787
662.66846,0.09305
661.17867,0.05534
659.68888,0.11689
658.19910,0.12294
656.70931,0.12903
655.21952,0.06927
653.72973,0.11765
652.23994,0.16458
650.75015,0.13603
649.26037,0.10752
647.77058,0.17531
646.28079,0.21648
644.79100,0.15995
643.30121,0.09014
641.81142,0.02036
640.32163,0.06909
638.83185,0.07343
637.34206,0.03043
635.85227,0.02449
634.36248,0.01859
632.87269,0.07196
631.38290,0.13129
629.89312,0.13142
628.40333,0.07459
626.91354,0.01780
625.42375,0.07284
623.93396,0.00798
622.44417,0.03964
620.95438,0.07135
619.46460,0.19268
617.97481,0.08896
616.48502,0.15854
614.99523,0.10526
613.50544,0.05201
612.01565,0.16169
610.52587,0.16035
609.03608,0.18422
607.54629,0.16149
606.05650,0.13879
604.56671,0.15390
603.07692,0.13795
601.58714,0.15461
600.09735,0.17132
598.60756,0.12439
597.11777,0.17227
595.62798,0.17428
594.13819,0.14894
592.64840,0.12364
591.15862,0.06061
589.66883,0.09240
588.17904,0.08425
586.68925,0.05910
585.19946,0.03400
583.70967,0.24216
582.21989,0.16752
580.73010,0.18622
579.24031,0.20496
577.75052,0.24742
576.26073,0.26772
574.77094,0.15626
573.28115,0.17960
571.79137,0.20297
570.30158,0.17604
568.81179,0.25576
567.32200,0.32368
565.83221,0.39164
564.34242,0.45075
562.85264,0.44622
561.36285,0.45951
559.87306,0.44321
558.38327,0.42696
556.89348,0.51292
555.40369,0.54117
553.91391,0.57539
552.42412,0.60964
550.93433,0.69576
549.44454,0.69307
547.95475,0.71707
546.46496,0.75666
544.97517,0.79629
543.48539,0.85299
541.99560,0.82977
540.50581,0.80288
539.01602,0.77603
537.52623,0.77810
536.03644,0.69432
534.54666,0.66389
533.05687,0.68977
531.56708,0.71568
530.07729,0.62910
528.58750,0.63436
527.09771,0.59746
525.60792,0.56060
524.11814,0.61930
522.62835,0.38335
521.13856,0.57095
519.64877,0.51499
518.15898,0.45908
516.66919,0.38914
515.17941,0.47472
513.68962,0.40042
512.19983,0.32615
510.71004,0.33337
509.22025,0.35099
507.73046,0.38198
506.24068,0.44855
504.75089,0.51515
503.26110,0.40410
501.77131,0.41007
500.28152,0.36204
498.79173,0.31404
497.30194,0.45784
495.81216,0.44917
494.32237,0.42202
492.83258,0.39491
491.34279,0.38339
489.85300,0.47704
488.36321,0.37823
486.87343,0.37497
485.38364,0.37175
483.89385,0.30267
482.40406,0.28694
480.91427,0.16834
479.42448,0.04977
477.93469,0.03564
476.44491,0.09856
474.95512,0.15114
473.46533,0.20377
471.97554,0.10095
470.48575,0.10034
468.99596,0.12939
467.50618,0.07037
466.01639,0.01139
464.52660,0.00798
463.03681,0.04267
461.54702,0.03519
460.05723,0.02775
458.56745,0.01369
457.07766,0.13886
455.58787,0.14560
454.09808,0.15239
452.60829,0.20660
451.11850,0.02392
449.62871,0.10857
448.13893,0.19325
446.64914,0.35128
445.15935,0.49750
443.66956,0.56527
442.17977,0.59681
440.68998,0.62838
439.20020,0.72293
437.71041,0.64870
436.22062,0.74185
434.73083,0.83503
433.24104,0.93714
431.75125,1.08519
430.26146,1.14962
428.77168,1.21408
427.28189,1.35781
425.79210,1.38015
424.30231,1.32257
422.81252,1.26503
421.32273,1.61178
419.83295,1.31739
418.34316,1.24663
416.85337,1.17592
415.36358,0.87720
413.87379,0.80953
412.38400,0.82038
410.89422,0.83126
409.40443,0.70448
407.91464,0.71248
406.42485,0.78124
404.93506,0.76415
403.44527,0.74710
401.95548,0.76415
400.46570,0.58280
398.97591,0.60067
397.48612,0.61857
395.99633,0.55582
394.50654,0.56269
393.01675,0.65698
391.52697,0.75130
390.03718,0.65464
388.54739,0.49583
387.05760,0.46736
385.56781,0.43894
384.07802,0.41055
382.58824,0.49327
381.09845,0.51234
379.60866,0.53146
378.11887,0.37440
376.62908,0.38323
375.13929,0.32399
373.64950,0.26478
372.15972,0.35962
370.66993,0.21904
369.18014,0.18587
367.69035,0.15273
366.20056,0.18553
364.71077,0.09398
363.22099,0.15425
361.73120,0.21456
360.24141,0.21198
358.75162,0.12799
357.26183,0.13511
355.77204,0.14227
354.28225,0.13096
352.79247,0.22483
351.30268,0.16917
349.81289,0.11356
348.32310,0.19273
346.83331,0.14608
345.34352,0.07799
343.85374,0.00995
342.36395,0.07748
340.87416,0.11100
339.38437,0.19120
337.89458,0.27145
336.40479,0.33470
334.91501,0.22621
333.42522,0.16738
331.93543,0.10858
330.44564,0.07426
328.95585,0.22359
327.46606,0.19527
325.97627,0.16699
324.48649,0.17576
322.99670,0.20679
321.50691,0.18899
320.01712,0.17123
318.52733,0.04837
317.03754,0.18808
315.54776,0.21380
314.05797,0.23956
312.56818,0.10988
311.07839,0.20828
309.58860,0.17049
308.09881,0.13273
306.60902,0.17202
305.11924,0.22467
303.62945,0.15149
302.13966,0.07836
300.64987,0.00798
299.16008,0.00798
