1778.52000,0.01155
1777.03021,0.01273
1775.54042,0.03088
1774.05063,0.03326
1772.56085,0.03229
1771.07106,0.00538
1769.58127,0.02480
1768.09148,0.03749
1766.60169,0.05924
1765.11190,0.00650
1763.62212,0.02268
1762.13233,0.05357
1760.64254,0.06982
1759.15275,0.08611
1757.66296,0.05952
1756.17317,0.07023
1754.68339,0.02564
1753.19360,0.07933
1751.70381,0.07547
1750.21402,0.03550
1748.72423,0.03736
1747.23444,0.00650
1745.74465,0.06919
1744.25487,0.08110
1742.76508,0.11676
1741.27529,0.11180
1739.78550,0.06735
1738.29571,0.08279
1736.80592,0.08471
1735.31614,0.04827
1733.82635,0.05817
1732.33656,0.08618
1730.84677,0.06791
1729.35698,0.05195
1727.86719,0.11393
1726.37740,0.07771
1724.88762,0.05169
1723.39783,0.00650
1721.90804,0.05297
1720.41825,0.03060
1718.92846,0.01729
1717.43867,0.06274
1715.94889,0.03822
1714.45910,0.08261
1712.96931,0.08977
1711.47952,0.08342
1709.98973,0.04887
1708.49994,0.08099
1707.01016,0.10241
1705.52037,0.12386
1704.03058,0.13576
1702.54079,0.09235
1701.05100,0.15739
1699.56121,0.12648
1698.07142,0.13626
1696.58164,0.14720
1695.09185,0.18528
1693.60206,0.18952
1692.11227,0.19266
1690.62248,0.20939
1689.13269,0.20018
1687.64291,0.24296
1686.15312,0.23382
1684.66333,0.24843
1683.17354,0.27776
1681.68375,0.21001
1680.19396,0.23376
1678.70417,0.17625
1677.21439,0.27122
1675.72460,0.26233
1674.23481,0.22299
1672.74502,0.20175
1671.25523,0.21329
1669.76544,0.25423
1668.27566,0.24665
1666.78587,0.23911
1665.29608,0.20901
1663.80629,0.23203
1662.31650,0.23475
1660.82671,0.21831
1659.33693,0.24144
1657.84714,0.21265
1656.35735,0.16131
1654.86756,0.18680
1653.37777,0.16715
1651.88798,0.17464
1650.39819,0.20023
1648.90841,0.12648
1647.41862,0.10246
1645.92883,0.12365
1644.43904,0.14486
1642.94925,0.16951
1641.45946,0.17047
1639.96968,0.10936
1638.47989,0.14766
1636.99010,0.14873
1635.50031,0.18597
1634.01052,0.18259
1632.52073,0.13860
1631.03094,0.11158
1629.54116,0.14558
1628.05137,0.10620
1626.56158,0.13575
1625.07179,0.20825
1623.58200,0.18706
1622.09221,0.17945
1620.60243,0.24189
1619.11264,0.23774
1617.62285,0.15909
1616.13306,0.17082
1614.64327,0.13290
1613.15348,0.17745
1611.66370,0.13395
1610.17391,0.15034
1608.68412,0.12498
1607.19433,0.14257
1605.70454,0.15003
1604.21475,0.18125
1602.72496,0.21249
1601.23518,0.14440
1599.74539,0.14636
1598.25560,0.09302
1596.76581,0.10069
1595.27602,0.13550
1593.78623,0.16245
1592.29645,0.08328
1590.80666,0.13513
1589.31687,0.08201
1587.82708,0.10683
1586.33729,0.11137
1584.84750,0.08997
1583.35771,0.01552
1581.86793,0.09809
1580.37814,0.06663
1578.88835,0.06795
1577.39856,0.08851
1575.90877,0.05829
1574.41898,0.05633
1572.92920,0.02731
1571.43941,0.04801
1569.94962,0.04786
1568.45983,0.04774
1566.97004,0.07871
1565.48025,0.05551
1563.99047,0.05945
1562.50068,0.07810
1561.01089,0.01210
1559.52110,0.03760
1558.03131,0.05410
1556.54152,0.10000
1555.05173,0.07931
1553.56195,0.09931
1552.07216,0.03803
1550.58237,0.10779
1549.09258,0.06804
1547.60279,0.04301
1546.11300,0.09029
1544.62322,0.05855
1543.13343,0.11268
1541.64364,0.06069
1540.15385,0.03358
1538.66406,0.00650
1537.17427,0.06718
1535.68448,0.10531
1534.19470,0.00910
1532.70491,0.08689
1531.21512,0.05179
1529.72533,0.04947
1528.23554,0.02686
1526.74575,0.02010
1525.25597,0.03031
1523.76618,0.10718
1522.27639,0.00793
1520.78660,0.03848
1519.29681,0.02390
1517.80702,0.06920
1516.31724,0.03888
1514.82745,0.02101
1513.33766,0.03424
1511.84787,0.04750
1510.35808,0.02636
1508.86829,0.02557
1507.37850,0.04289
1505.88872,0.02073
1504.39893,0.00650
1502.90914,0.03863
1501.41935,0.02562
1499.92956,0.05330
1498.43977,0.02455
1496.94999,0.09973
1495.46020,0.14559
1493.97041,0.20729
1492.48062,0.25774
1490.99083,0.25627
1489.50104,0.31808
1488.01125,0.34717
1486.52147,0.37630
1485.03168,0.51501
1483.54189,0.54760
1482.05210,0.57458
1480.56231,0.64789
1479.07252,0.80368
1477.58274,0.83867
1476.09295,0.89854
1474.60316,1.01378
1473.11337,1.09743
1471.62358,1.11450
1470.13379,1.15983
1468.64401,1.18713
1467.15422,1.05862
1465.66443,1.07639
1464.17464,1.09419
1462.68485,0.97935
1461.19506,0.94019
1459.70527,0.89882
1458.21549,0.81005
1456.72570,0.81392
1455.23591,0.78281
1453.74612,0.70431
1452.25633,0.66989
1450.76654,0.63324
1449.27676,0.63955
1447.78697,0.62330
1446.29718,0.54498
1444.80739,0.53558
1443.31760,0.52621
1441.82781,0.41299
1440.33802,0.33594
1438.84824,0.30749
1437.35845,0.24745
1435.86866,0.27214
1434.37887,0.25734
1432.88908,0.22790
1431.39929,0.29109
1429.90951,0.29447
1428.41972,0.26739
1426.92993,0.30585
1425.44014,0.29691
1423.95035,0.28688
1422.46056,0.27688
1420.97078,0.36968
1419.48099,0.34733
1417.99120,0.39391
1416.50141,0.40325
1415.01162,0.34939
1413.52183,0.34864
1412.03204,0.29034
1410.54226,0.30998
1409.05247,0.28337
1407.56268,0.23759
1406.07289,0.22234
1404.58310,0.26076
1403.09331,0.29922
1401.60353,0.37893
1400.11374,0.29946
1398.62395,0.31374
1397.13416,0.29531
1395.64437,0.34920
1394.15458,0.37150
1392.66479,0.31930
1391.17501,0.30214
1389.68522,0.41489
1388.19543,0.38312
1386.70564,0.37341
1385.21585,0.36374
1383.72606,0.30159
1382.23628,0.26093
1380.74649,0.19095
1379.25670,0.20344
1377.76691,0.22387
1376.27712,0.31435
1374.78733,0.31679
1373.29755,0.39492
1371.80776,0.41210
1370.31797,0.50611
1368.82818,0.55725
1367.33839,0.60841
1365.84860,0.73528
1364.35881,0.89493
1362.86903,0.98573
1361.37924,0.88572
1359.88945,0.90545
1358.39966,1.05508
1356.90987,1.14602
1355.42008,1.13649
1353.93030,1.03892
1352.44051,1.02156
1350.95072,1.00423
1349.46093,1.04115
1347.97114,0.90419
1346.48135,0.79663
1344.99156,0.75347
1343.50178,0.74761
1342.01199,0.70678
1340.52220,0.60049
1339.03241,0.53263
1337.54262,0.49982
1336.05283,0.48454
1334.56305,0.46930
1333.07326,0.49305
1331.58347,0.49313
1330.09368,0.49324
1328.60389,0.42111
1327.11410,0.39984
1325.62432,0.41135
1324.13453,0.40595
1322.64474,0.38479
1321.15495,0.33655
1319.66516,0.34143
1318.17537,0.34634
1316.68558,0.36709
1315.19580,0.40144
1313.70601,0.27094
1312.21622,0.29745
1310.72643,0.26866
1309.23664,0.35284
1307.74685,0.31170
1306.25707,0.31915
1304.76728,0.31253
1303.27749,0.30594
1301.78770,0.28640
1300.29791,0.27479
1298.80812,0.31292
1297.31834,0.24718
1295.82855,0.28763
1294.33876,0.28973
1292.84897,0.37655
1291.35918,0.38210
1289.86939,0.36397
1288.37960,0.34588
1286.88982,0.31540
1285.40003,0.30528
1283.91024,0.38103
1282.42045,0.35630
1280.93066,0.40276
1279.44087,0.40181
1277.95109,0.44269
1276.46130,0.39891
1274.97151,0.39243
1273.48172,0.38599
1271.99193,0.42701
1270.50214,0.52791
1269.01235,0.53852
1267.52257,0.49946
1266.03278,0.50901
1264.54299,0.56037
1263.05320,0.52481
1261.56341,0.56551
1260.07362,0.60625
1258.58384,0.64647
1257.09405,0.64606
1255.60426,0.60955
1254.11447,0.59340
1252.62468,0.62698
1251.13489,0.60187
1249.64511,0.58470
1248.15532,0.54837
1246.66553,0.53183
1245.17574,0.51534
1243.68595,0.36731
1242.19616,0.44066
1240.70637,0.48130
1239.21659,0.38420
1237.72680,0.35828
1236.23701,0.30078
1234.74722,0.34269
1233.25743,0.32365
1231.76764,0.30465
1230.27786,0.22809
1228.78807,0.20238
1227.29828,0.26367
1225.80849,0.18157
1224.31870,0.16161
1222.82891,0.22187
1221.33912,0.11955
1219.84934,0.14827
1218.35955,0.17701
1216.86976,0.20354
1215.37997,0.27640
1213.89018,0.26912
1212.40039,0.21557
1210.91061,0.22981
1209.42082,0.21699
1207.93103,0.17146
1206.44124,0.12595
1204.95145,0.18100
1203.46166,0.08362
1201.97188,0.10372
1200.48209,0.11144
1198.99230,0.08645
1197.50251,0.10214
1196.01272,0.09076
1194.52293,0.07604
1193.03314,0.06135
1191.54336,0.07267
1190.05357,0.03659
1188.56378,0.03556
1187.07399,0.04811
1185.58420,0.00650
1184.09441,0.04456
1182.60463,0.08322
1181.11484,0.12191
1179.62505,0.07199
1178.13526,0.05712
1176.64547,0.13827
1175.15568,0.10088
1173.66589,0.12112
1172.17611,0.09848
1170.68632,0.09451
1169.19653,0.09058
1167.70674,0.04659
1166.21695,0.06588
1164.72716,0.08972
1163.23738,0.05261
1161.74759,0.02457
1160.25780,0.05078
1158.76801,0.06573
1157.27822,0.08071
1155.78843,0.05056
1154.29865,0.10062
1152.80886,0.14281
1151.31907,0.13422
1149.82928,0.07937
1148.33949,0.15329
1146.84970,0.15384
1145.35991,0.15443
1143.87013,0.05003
1142.38034,0.08569
1140.89055,0.17221
1139.40076,0.24409
1137.91097,0.23469
1136.42118,0.26485
1134.93140,0.28770
1133.44161,0.31060
1131.95182,0.36571
1130.46203,0.24582
1128.97224,0.31116
1127.48245,0.29185
1125.99266,0.34823
1124.50288,0.36287
1123.01309,0.40069
1121.52330,0.43855
1120.03351,0.51427
1118.54372,0.53921
1117.05393,0.49982
1115.56415,0.41078
1114.07436,0.50923
1112.58457,0.54109
1111.09478,0.57298
1109.60499,0.50440
1108.11520,0.63123
1106.62542,0.58757
1105.13563,0.68284
1103.64584,0.84253
1102.15605,0.90512
1100.66626,0.91242
1099.17647,0.91976
1097.68668,0.91470
1096.19690,0.91759
1094.70711,0.95891
1093.21732,1.01495
1091.72753,1.06989
1090.23774,1.10398
1088.74795,1.13810
1087.25817,1.11974
1085.76838,1.23129
1084.27859,1.19494
1082.78880,1.32462
1081.29901,1.37078
1079.80922,1.25887
1078.31943,1.29381
1076.82965,1.32878
1075.33986,1.30167
1073.85007,1.30735
1072.36028,1.30064
1070.87049,1.36286
1069.38070,1.46802
1067.89092,1.49869
1066.40113,1.52939
1064.91134,1.42010
1063.42155,1.35036
1061.93176,1.29647
1060.44197,1.23246
1058.95219,1.04426
1057.46240,1.08364
1055.97261,1.12306
1054.48282,1.00724
1052.99303,0.97163
1051.50324,0.95413
1050.01345,0.88472
1048.52367,0.71370
1047.03388,0.68276
1045.54409,0.65184
1044.05430,0.71921
1042.56451,0.58674
1041.07472,0.51754
1039.58494,0.47209
1038.09515,0.35666
1036.60536,0.34403
1035.11557,0.33143
1033.62578,0.48262
1032.13599,0.39556
1030.64620,0.50052
1029.15642,0.55244
1027.66663,0.50558
1026.17684,0.45875
1024.68705,0.57176
1023.19726,0.74465
1021.70747,0.86902
1020.21769,0.95164
1018.72790,1.02187
1017.23811,1.19942
1015.74832,1.37701
1014.25853,1.53204
1012.76874,1.65436
1011.27896,1.80721
1009.78917,1.90815
1008.29938,1.94137
1006.80959,1.97067
1005.31980,2.00000
1003.83001,1.84812
1002.34022,1.83292
1000.85044,1.66756
999.36065,1.55531
997.87086,1.50577
996.38107,1.45627
994.89128,1.50223
993.40149,1.57420
991.91171,1.68121
990.42192,1.64370
988.93213,1.51476
987.44234,1.50726
985.95255,1.49979
984.46276,1.51437
982.97297,1.51319
981.48319,1.48267
979.99340,1.35959
978.50361,1.39408
977.01382,1.42861
975.52403,1.47164
974.03424,1.39726
972.54446,1.20209
971.05467,1.27346
969.56488,1.23871
968.07509,1.19327
966.58530,1.14787
965.09551,1.17421
963.60573,1.12041
962.11594,0.99437
960.62615,1.09873
959.13636,1.02923
957.64657,0.95976
956.15678,0.97276
954.66699,0.95305
953.17721,0.86110
951.68742,0.88098
950.19763,0.92010
948.70784,0.95926
947.21805,0.83922
945.72826,0.75083
944.23848,0.83075
942.74869,0.92425
941.25890,0.85517
939.76911,0.85388
938.27932,0.85263
936.78953,1.06711
935.29974,1.13707
933.80996,0.94282
932.32017,0.99591
930.83038,0.97056
929.34059,0.94524
927.85080,1.03345
926.36101,1.01442
924.87123,1.01123
923.38144,0.93354
921.89165,0.92929
920.40186,0.92507
918.91207,1.02140
917.42228,0.99806
915.93250,0.95443
914.44271,1.01473
912.95292,1.00956
911.46313,1.00443
909.97334,1.01967
908.48355,1.09705
906.99376,1.11913
905.50398,1.09607
904.01419,1.04877
902.52440,1.00151
901.03461,1.09261
899.54482,1.01098
898.05503,0.97906
896.56525,1.10642
895.07546,1.15362
893.58567,1.20087
892.09588,1.11037
890.60609,1.13171
889.11630,1.10453
887.62651,1.04577
886.13673,1.02938
884.64694,1.01304
883.15715,1.08876
881.66736,1.05837
880.17757,0.98510
878.68778,0.98188
877.19800,0.97869
875.70821,1.02975
874.21842,0.95888
872.72863,1.00211
871.23884,1.07811
869.74905,1.09544
868.25927,1.11279
866.76948,1.04662
865.27969,1.07421
863.78990,1.05441
862.30011,1.05271
860.81032,1.09057
859.32053,1.12847
857.83075,1.02411
856.34096,1.02481
854.85117,1.00861
853.36138,0.85015
851.87159,0.82047
850.38180,0.79082
848.89202,0.64038
847.40223,0.48658
845.91244,0.47398
844.42265,0.43431
842.93286,0.39468
841.44307,0.34040
839.95329,0.37537
838.46350,0.25341
836.97371,0.32685
835.48392,0.30772
833.99413,0.28863
832.50434,0.32716
831.01455,0.40526
829.52477,0.44387
828.03498,0.31650
826.54519,0.28347
825.05540,0.25048
823.56561,0.16614
822.07582,0.21057
820.58604,0.22793
819.09625,0.17532
817.60646,0.12273
816.11667,0.08939
814.62688,0.12270
813.13709,0.03974
811.64730,0.00650
810.15752,0.02692
808.66773,0.04738
807.17794,0.04190
805.68815,0.13358
804.19836,0.09881
802.70857,0.12392
801.21879,0.14908
799.72900,0.17201
798.23921,0.23676
796.74942,0.35010
795.25963,0.40250
793.76984,0.45493
792.28006,0.52434
790.79027,0.55765
789.30048,0.68924
787.81069,0.64808
786.32090,0.70860
784.83111,0.76915
783.34132,0.69987
781.85154,0.78986
780.36175,0.74662
778.87196,0.74916
777.38217,0.75173
775.89238,0.83960
774.40259,1.02236
772.91281,0.90929
771.42302,0.92837
769.93323,0.94750
768.44344,0.84582
766.95365,0.94971
765.46386,0.97572
763.97407,0.92497
762.48429,0.84094
760.99450,0.75695
759.50471,0.60241
758.01492,0.55068
756.52513,0.47187
755.03534,0.40496
753.54556,0.33808
752.05577,0.25826
750.56598,0.20105
749.07619,0.15743
747.58640,0.13531
746.09661,0.11321
744.60683,0.09229
743.11704,0.08834
741.62725,0.00650
740.13746,0.05337
738.64767,0.10028
737.15788,0.07269
735.66809,0.01239
734.17831,0.05488
732.68852,0.04039
731.19873,0.02593
729.70894,0.11370
728.21915,0.07165
726.72936,0.07367
725.23958,0.12089
723.74979,0.11508
722.26000,0.10930
720.77021,0.10808
719.28042,0.12270
717.79063,0.07976
716.30084,0.08994
714.81106,0.10015
713.32127,0.00650
711.83148,0.05644
710.34169,0.10528
708.85190,0.10335
707.36211,0.10145
705.87233,0.08716
704.38254,0.10565
702.89275,0.07450
701.40296,0.08685
699.91317,0.09925
698.42338,0.10208
696.93360,0.15237
695.44381,0.23771
693.95402,0.22879
692.46423,0.21990
690.97444,0.19016
689.48465,0.14916
687.99486,0.16240
686.50508,0.19318
685.01529,0.22400
683.52550,0.26332
682.03571,0.29364
680.54592,0.24721
679.05613,0.25671
677.56635,0.26625
676.07656,0.23573
674.58677,0.07990
673.09698,0.18722
671.60719,0.17432
670.11740,0.16145
668.62761,0.15482
667.13783,0.16969
665.64804,0.14620
664.15825,0.12274
662.66846,0.08238
661.17867,0.08949
659.68888,0.13050
658.19910,0.16930
656.70931,0.20813
655.21952,0.22893
653.72973,0.17749
652.23994,0.16335
650.75015,0.19216
649.26037,0.22101
647.77058,0.18552
646.28079,0.12974
644.79100,0.14288
643.30121,0.12500
641.81142,0.10716
640.32163,0.10234
638.83185,0.14273
637.34206,0.07022
635.85227,0.04857
634.36248,0.02695
632.87269,0.00650
631.38290,0.11013
629.89312,0.10765
628.40333,0.10068
626.91354,0.09376
625.42375,0.09928
623.93396,0.06193
622.44417,0.06528
620.95438,0.06865
619.46460,0.12514
617.97481,0.07438
616.48502,0.20660
614.99523,0.23158
613.50544,0.25659
612.01565,0.19920
610.52587,0.22654
609.03608,0.11501
607.54629,0.13508
606.05650,0.15519
604.56671,0.20977
603.07692,0.21357
601.58714,0.23548
600.09735,0.25742
598.60756,0.18567
597.11777,0.16929
595.62798,0.09309
594.13819,0.13494
592.64840,0.17682
591.15862,0.07588
589.66883,0.09356
588.17904,0.15644
586.68925,0.16402
585.19946,0.17163
583.70967,0.13750
582.21989,0.26602
580.73010,0.23930
579.24031,0.21262
577.75052,0.21815
576.26073,0.19098
574.77094,0.21917
573.28115,0.21804
571.79137,0.21694
570.30158,0.27799
568.81179,0.40908
567.32200,0.41261
565.83221,0.41617
564.34242,0.36217
562.85264,0.37823
561.36285,0.45417
559.87306,0.51886
558.38327,0.58358
556.89348,0.64494
555.40369,0.67699
553.91391,0.68874
552.42412,0.70052
550.93433,0.67395
549.44454,0.68016
547.95475,0.60171
546.46496,0.69438
544.97517,0.78709
543.48539,0.77537
541.99560,0.78063
540.50581,0.77689
539.01602,0.77319
537.52623,0.78533
536.03644,0.68006
534.54666,0.69453
533.05687,0.71412
531.56708,0.73374
530.07729,0.67604
528.58750,0.66920
527.09771,0.60819
525.60792,0.54721
524.11814,0.65792
522.62835,0.59927
521.13856,0.61180
519.64877,0.58597
518.15898,0.56018
516.66919,0.45989
515.17941,0.35963
513.68962,0.35484
512.19983,0.35008
510.71004,0.48031
509.22025,0.42988
507.73046,0.41902
506.24068,0.44150
504.75089,0.46403
503.26110,0.36180
501.77131,0.35898
500.28152,0.37427
498.79173,0.38959
497.30194,0.37333
495.81216,0.34355
494.32237,0.38157
492.83258,0.41962
491.34279,0.46335
489.85300,0.38629
488.36321,0.23021
486.87343,0.25259
485.38364,0.27501
483.89385,0.24439
482.40406,0.21606
480.91427,0.17760
479.42448,0.13918
477.93469,0.10983
476.44491,0.12794
474.95512,0.12238
473.46533,0.11685
471.97554,0.03682
470.48575,0.01556
468.99596,0.10612
467.50618,0.08323
466.01639,0.06037
464.52660,0.00650
463.03681,0.08502
461.54702,0.13139
460.05723,0.17779
458.56745,0.06783
457.07766,0.15552
455.58787,0.18284
454.09808,0.21018
452.60829,0.25733
451.11850,0.17691
449.62871,0.21396
448.13893,0.25105
446.64914,0.36384
445.15935,0.37841
443.66956,0.51951
442.17977,0.57537
440.68998,0.63127
439.20020,0.65954
437.71041,0.70591
436.22062,0.73312
434.73083,0.76037
433.24104,1.00560
431.75125,1.02050
430.26146,1.05576
428.77168,1.09105
427.28189,1.20995
425.79210,1.30177
424.30231,1.28128
422.81252,1.26081
421.32273,1.27483
419.83295,1.27420
418.34316,1.19229
416.85337,1.11042
415.36358,0.98568
413.87379,0.80790
412.38400,0.75437
410.89422,0.70087
409.40443,0.64854
407.91464,0.74193
406.42485,0.72129
404.93506,0.64309
403.44527,0.56493
401.95548,0.54440
400.46570,0.57472
398.97591,0.55483
397.48612,0.53497
395.99633,0.57669
394.50654,0.60151
393.01675,0.60434
391.52697,0.60721
390.03718,0.56325
388.54739,0.44704
387.05760,0.42122
385.56781,0.39543
384.07802,0.46454
382.58824,0.39930
381.09845,0.37870
379.60866,0.35814
378.11887,0.41045
376.62908,0.29453
375.13929,0.32998
373.64950,0.36546
372.15972,0.29030
370.66993,0.23212
369.18014,0.18131
367.69035,0.13054
366.20056,0.13345
364.71077,0.14543
363.22099,0.15010
361.73120,0.15481
360.24141,0.19286
358.75162,0.11690
357.26183,0.13696
355.77204,0.15705
354.28225,0.15798
352.79247,0.00650
351.30268,0.01604
349.81289,0.02563
348.32310,0.10978
346.83331,0.03699
345.34352,0.06023
343.85374,0.08351
342.36395,0.08198
340.87416,0.09968
339.38437,0.09257
337.89458,0.08550
336.40479,0.16090
334.91501,0.07146
333.42522,0.07804
331.93543,0.08466
330.44564,0.08341
328.95585,0.10027
327.46606,0.06803
325.97627,0.03584
324.48649,0.00650
322.99670,0.05987
321.50691,0.06529
320.01712,0.07074
318.52733,0.08131
317.03754,0.13257
315.54776,0.10424
314.05797,0.07596
312.56818,0.08441
311.07839,0.09742
309.58860,0.08222
308.09881,0.06707
306.60902,-0.00000
305.11924,0.04477
303.62945,0.04327
302.13966,0.04180
300.64987,0.00650
299.16008,0.00650
