1778.52000,0.05172
1777.03021,0.06537
1775.54042,0.04835
1774.05063,0.06616
1772.56085,0.04306
1771.07106,0.05275
1769.58127,0.02152
1768.09148,0.00568
1766.60169,0.04104
1765.11190,0.06620
1763.62212,0.06478
1762.13233,0.06339
1760.64254,0.08249
1759.15275,0.02897
1757.66296,0.05633
1756.17317,0.02334
1754.68339,0.05485
1753.19360,0.03932
1751.70381,0.03917
1750.21402,0.04416
1748.72423,0.05840
1747.23444,0.01434
1745.74465,0.07980
1744.25487,0.03887
1742.76508,0.04402
1741.27529,0.02771
1739.78550,0.03804
1738.29571,0.05659
1736.80592,0.05981
1735.31614,0.04874
1733.82635,0.08069
1732.33656,0.04000
1730.84677,0.04642
1729.35698,0.01092
1727.86719,0.00000
1726.37740,0.02952
1724.88762,0.00995
1723.39783,0.04772
1721.90804,0.04356
1720.41825,0.06706
1718.92846,0.05580
1717.43867,0.00568
1715.94889,0.06484
1714.45910,0.05853
1712.96931,0.05942
1711.47952,0.07466
1709.98973,0.03467
1708.49994,0.06533
1707.01016,0.06480
1705.52037,0.06430
1704.03058,0.05821
1702.54079,0.05522
1701.05100,0.10956
1699.56121,0.10561
1698.07142,0.11704
1696.58164,0.11314
1695.09185,0.10724
1693.60206,0.13103
1692.11227,0.10881
1690.62248,0.16338
1689.13269,0.16680
1687.64291,0.14979
1686.15312,0.15123
1684.66333,0.15679
1683.17354,0.16341
1681.68375,0.14652
1680.19396,0.15116
1678.70417,0.17936
1677.21439,0.17484
1675.72460,0.19492
1674.23481,0.15465
1672.74502,0.14101
1671.25523,0.17653
1669.76544,0.18854
1668.27566,0.15044
1666.78587,0.13693
1665.29608,0.15722
1663.80629,0.12842
1662.31650,0.17436
1660.82671,0.13846
1659.33693,0.12715
1657.84714,0.15476
1656.35735,0.11690
1654.86756,0.12922
1653.37777,0.12315
1651.88798,0.13144
1650.39819,0.07734
1648.90841,0.16346
1647.41862,0.08997
1645.92883,0.10760
1644.43904,0.12525
1642.94925,0.13167
1641.45946,0.14632
1639.96968,0.08834
1638.47989,0.13783
1636.99010,0.15052
1635.50031,0.11412
1634.01052,0.16167
1632.52073,0.12431
1631.03094,0.12586
1629.54116,0.12233
1628.05137,0.12395
1626.56158,0.16858
1625.07179,0.18970
1623.58200,0.19346
1622.09221,0.17575
1620.60243,0.15706
1619.11264,0.16909
1617.62285,0.13306
1616.13306,0.14209
1614.64327,0.13989
1613.15348,0.15717
1611.66370,0.16424
1610.17391,0.13962
1608.68412,0.17029
1607.19433,0.13959
1605.70454,0.14986
1604.21475,0.11871
1602.72496,0.08759
1601.23518,0.11228
1599.74539,0.17486
1598.25560,0.15663
1596.76581,0.11693
1595.27602,0.10592
1593.78623,0.09188
1592.29645,0.07581
1590.80666,0.08639
1589.31687,0.08267
1587.82708,0.08716
1586.33729,0.05996
1584.84750,0.05019
1583.35771,0.11414
1581.86793,0.08294
1580.37814,0.05382
1578.88835,0.10966
1577.39856,0.06832
1575.90877,0.09251
1574.41898,0.03895
1572.92920,0.06218
1571.43941,0.03017
1569.94962,0.02838
1568.45983,0.02663
1566.97004,0.04691
1565.48025,0.02730
1563.99047,0.00568
1562.50068,0.02073
1561.01089,0.03683
1559.52110,0.05398
1558.03131,0.07116
1556.54152,0.05870
1555.05173,0.06571
1553.56195,0.01237
1552.07216,0.04912
1550.58237,0.04804
1549.09258,0.04289
1547.60279,0.02754
1546.11300,0.08898
1544.62322,0.12179
1543.13343,0.06253
1541.64364,0.02581
1540.15385,0.01573
1538.66406,0.00568
1537.17427,0.02856
1535.68448,0.03408
1534.19470,0.03962
1532.70491,0.04315
1531.21512,0.04466
1529.72533,0.02676
1528.23554,0.00889
1526.74575,0.01869
1525.25597,0.01418
1523.76618,0.02915
1522.27639,0.01243
1520.78660,0.01928
1519.29681,0.00568
1517.80702,0.02051
1516.31724,0.03025
1514.82745,0.01239
1513.33766,0.02525
1511.84787,0.03815
1510.35808,0.03983
1508.86829,0.03642
1507.37850,0.05453
1505.88872,0.01024
1504.39893,0.03865
1502.90914,0.00568
1501.41935,0.03143
1499.92956,0.04390
1498.43977,0.06459
1496.94999,0.10885
1495.46020,0.12449
1493.97041,0.17494
1492.48062,0.24488
1490.99083,0.23298
1489.50104,0.34391
1488.01125,0.38170
1486.52147,0.41952
1485.03168,0.49165
1483.54189,0.51163
1482.05210,0.58178
1480.56231,0.65093
1479.07252,0.82962
1477.58274,0.91726
1476.09295,1.01925
1474.60316,1.01588
1473.11337,1.08826
1471.62358,1.12895
1470.13379,1.10417
1468.64401,1.08250
1467.15422,1.03936
1465.66443,1.02901
1464.17464,1.01868
1462.68485,0.89684
1461.19506,0.90193
1459.70527,0.80676
1458.21549,0.73004
1456.72570,0.66461
1455.23591,0.63707
1453.74612,0.54612
1452.25633,0.50841
1450.76654,0.43901
1449.27676,0.44639
1447.78697,0.43333
1446.29718,0.39165
1444.80739,0.35922
1443.31760,0.32681
1441.82781,0.27089
1440.33802,0.22627
1438.84824,0.21851
1437.35845,0.16679
1435.86866,0.14784
1434.37887,0.21590
1432.88908,0.18473
1431.39929,0.19657
1429.90951,0.24324
1428.41972,0.14463
1426.92993,0.15861
1425.44014,0.19923
1423.95035,0.23732
1422.46056,0.27544
1420.97078,0.18516
1419.48099,0.19521
1417.99120,0.20221
1416.50141,0.23585
1415.01162,0.16617
1413.52183,0.29094
1412.03204,0.22951
1410.54226,0.29090
1409.05247,0.26432
1407.56268,0.26642
1406.07289,0.26241
1404.58310,0.25332
1403.09331,0.24426
1401.60353,0.32221
1400.11374,0.32958
1398.62395,0.40043
1397.13416,0.39354
1395.64437,0.47366
1394.15458,0.43613
1392.66479,0.45696
1391.17501,0.45326
1389.68522,0.43527
1388.19543,0.43675
1386.70564,0.44286
1385.21585,0.44901
1383.72606,0.47412
1382.23628,0.41329
1380.74649,0.44358
1379.25670,0.48106
1377.76691,0.56872
1376.27712,0.52951
1374.78733,0.57732
1373.29755,0.62925
1371.80776,0.70986
1370.31797,0.84986
1368.82818,0.91416
1367.33839,0.97850
1365.84860,1.07561
1364.35881,1.21676
1362.86903,1.46845
1361.37924,1.56464
1359.88945,1.65573
1358.39966,1.64247
1356.90987,1.70498
1355.42008,1.61913
1353.93030,1.45860
1352.44051,1.46133
1350.95072,1.46409
1349.46093,1.41623
1347.97114,1.24457
1346.48135,0.99312
1344.99156,0.91977
1343.50178,0.79528
1342.01199,0.73324
1340.52220,0.67942
1339.03241,0.56730
1337.54262,0.55141
1336.05283,0.52940
1334.56305,0.50743
1333.07326,0.43023
1331.58347,0.39092
1330.09368,0.37723
1328.60389,0.32775
1327.11410,0.34072
1325.62432,0.29335
1324.13453,0.34016
1322.64474,0.30513
1321.15495,0.33665
1319.66516,0.31345
1318.17537,0.29028
1316.68558,0.29938
1315.19580,0.30237
1313.70601,0.26240
1312.21622,0.13140
1310.72643,0.16518
1309.23664,0.17954
1307.74685,0.28400
1306.25707,0.18893
1304.76728,0.19213
1303.27749,0.19537
1301.78770,0.20375
1300.29791,0.18146
1298.80812,0.20116
1297.31834,0.26387
1295.82855,0.30103
1294.33876,0.28296
1292.84897,0.24548
1291.35918,0.24384
1289.86939,0.22535
1288.37960,0.20689
1286.88982,0.20535
1285.40003,0.25500
1283.91024,0.27706
1282.42045,0.27663
1280.93066,0.33866
1279.44087,0.33624
1277.95109,0.34409
1276.46130,0.24760
1274.97151,0.27188
1273.48172,0.29620
1271.99193,0.31441
1270.50214,0.36437
1269.01235,0.34170
1267.52257,0.38047
1266.03278,0.42643
1264.54299,0.45400
1263.05320,0.45705
1261.56341,0.45245
1260.07362,0.44788
1258.58384,0.53595
1257.09405,0.53809
1255.60426,0.52594
1254.11447,0.50870
1252.62468,0.54879
1251.13489,0.48557
1249.64511,0.38758
1248.15532,0.35818
1246.66553,0.30783
1245.17574,0.25752
1243.68595,0.30906
1242.19616,0.31561
1240.70637,0.27306
1239.21659,0.27864
1237.72680,0.26583
1236.23701,0.21110
1234.74722,0.15742
1233.25743,0.13857
1231.76764,0.11974
1230.27786,0.18691
1228.78807,0.17838
1227.29828,0.15862
1225.80849,0.16653
1224.31870,0.12535
1222.82891,0.10773
1221.33912,0.09833
1219.84934,0.08692
1218.35955,0.07553
1216.86976,0.09693
1215.37997,0.20227
1213.89018,0.19507
1212.40039,0.08659
1210.91061,0.14495
1209.42082,0.08360
1207.93103,0.08472
1206.44124,0.08586
1204.95145,0.10648
1203.46166,0.02991
1201.97188,0.09459
1200.48209,0.08460
1198.99230,0.08999
1197.50251,0.06164
1196.01272,0.03639
1194.52293,0.03573
1193.03314,0.03511
1191.54336,0.03451
1190.05357,0.05544
1188.56378,0.08355
1187.07399,0.08203
1185.58420,0.06006
1184.09441,0.04837
1182.60463,0.08275
1181.11484,0.11716
1179.62505,0.09021
1178.13526,0.09296
1176.64547,0.00568
1175.15568,0.05636
1173.66589,0.11422
1172.17611,0.09844
1170.68632,0.09036
1169.19653,0.08231
1167.70674,0.08197
1166.21695,0.12259
1164.72716,0.07831
1163.23738,0.08420
1161.74759,0.02872
1160.25780,0.09710
1158.76801,0.07750
1157.27822,0.05793
1155.78843,0.11309
1154.29865,0.08335
1152.80886,0.09457
1151.31907,0.09764
1149.82928,0.15191
1148.33949,0.14787
1146.84970,0.13364
1145.35991,0.11943
1143.87013,0.13186
1142.38034,0.15456
1140.89055,0.17421
1139.40076,0.20209
1137.91097,0.17166
1136.42118,0.16992
1134.93140,0.21630
1133.44161,0.26272
1131.95182,0.33578
1130.46203,0.38840
1128.97224,0.36429
1127.48245,0.33408
1125.99266,0.36121
1124.50288,0.32185
1123.01309,0.35979
1121.52330,0.39775
1120.03351,0.40249
1118.54372,0.48094
1117.05393,0.53588
1115.56415,0.50694
1114.07436,0.51999
1112.58457,0.51976
1111.09478,0.51957
1109.60499,0.50610
1108.11520,0.61444
1106.62542,0.62969
1105.13563,0.70432
1103.64584,0.80969
1102.15605,0.80661
1100.66626,0.80253
1099.17647,0.79849
1097.68668,0.87123
1096.19690,0.92558
1094.70711,0.92368
1093.21732,0.92897
1091.72753,1.04481
1090.23774,1.03942
1088.74795,1.03406
1087.25817,1.07018
1085.76838,1.15442
1084.27859,1.19060
1082.78880,1.19303
1081.29901,1.20573
1079.80922,1.15502
1078.31943,1.19848
1076.82965,1.24198
1075.33986,1.36328
1073.85007,1.43753
1072.36028,1.32762
1070.87049,1.43366
1069.38070,1.42000
1067.89092,1.40739
1066.40113,1.39482
1064.91134,1.41502
1063.42155,1.34009
1061.93176,1.25188
1060.44197,1.15244
1058.95219,1.04997
1057.46240,1.03809
1055.97261,1.02624
1054.48282,0.95865
1052.99303,0.97808
1051.50324,0.77343
1050.01345,0.69774
1048.52367,0.67633
1047.03388,0.67285
1045.54409,0.66941
1044.05430,0.60715
1042.56451,0.49581
1041.07472,0.43668
1039.58494,0.39806
1038.09515,0.34206
1036.60536,0.36950
1035.11557,0.39697
1033.62578,0.42499
1032.13599,0.33637
1030.64620,0.29895
1029.15642,0.44065
1027.66663,0.41301
1026.17684,0.38541
1024.68705,0.49445
1023.19726,0.56669
1021.70747,0.75152
1020.21769,0.84325
1018.72790,1.07727
1017.23811,1.15883
1015.74832,1.24043
1014.25853,1.46942
1012.76874,1.69435
1011.27896,1.73408
1009.78917,2.00000
1008.29938,1.95179
1006.80959,1.92305
1005.31980,1.89434
1003.83001,1.71216
1002.34022,1.82780
1000.85044,1.72858
999.36065,1.57412
997.87086,1.54557
996.38107,1.51704
994.89128,1.46297
993.40149,1.48056
991.91171,1.57902
990.42192,1.51275
988.93213,1.42298
987.44234,1.37264
985.95255,1.32233
984.46276,1.29201
982.97297,1.26683
981.48319,1.30616
979.99340,1.18792
978.50361,1.17716
977.01382,1.16644
975.52403,1.13220
974.03424,1.07140
972.54446,1.03825
971.05467,0.99285
969.56488,0.98944
968.07509,0.97327
966.58530,0.95713
965.09551,0.93130
963.60573,0.91369
962.11594,0.85006
960.62615,0.78646
959.13636,0.74591
957.64657,0.70540
956.15678,0.66031
954.66699,0.67153
953.17721,0.64390
951.68742,0.65212
950.19763,0.64297
948.70784,0.63385
947.21805,0.65240
945.72826,0.63720
944.23848,0.59440
942.74869,0.57108
941.25890,0.57644
939.76911,0.64733
938.27932,0.71825
936.78953,0.72370
935.29974,0.70361
933.80996,0.81350
932.32017,0.79961
930.83038,0.82105
929.34059,0.84252
927.85080,0.82565
926.36101,0.73410
924.87123,0.71729
923.38144,0.65855
921.89165,0.64999
920.40186,0.64145
918.91207,0.76292
917.42228,0.78514
915.93250,0.86880
914.44271,0.75908
912.95292,0.76452
911.46313,0.76999
909.97334,0.85070
908.48355,0.85776
906.99376,0.82495
905.50398,0.78807
904.01419,0.75020
902.52440,0.71236
901.03461,0.76256
899.54482,0.80972
898.05503,0.82006
896.56525,0.90720
895.07546,0.89253
893.58567,0.87790
892.09588,0.85665
890.60609,0.80269
889.11630,0.87769
887.62651,0.79308
886.13673,0.77963
884.64694,0.76621
883.15715,0.76356
881.66736,0.80904
880.17757,0.82795
878.68778,0.83512
877.19800,0.84232
875.70821,0.85517
874.21842,0.86192
872.72863,1.01095
871.23884,0.94203
869.74905,0.92022
868.25927,0.89844
866.76948,0.99335
865.27969,0.99516
863.78990,1.07888
862.30011,1.02959
860.81032,0.99415
859.32053,0.95873
857.83075,0.88702
856.34096,0.88493
854.85117,0.87673
853.36138,0.84605
851.87159,0.82460
850.38180,0.80319
848.89202,0.70915
847.40223,0.59672
845.91244,0.50275
844.42265,0.47788
842.93286,0.45304
841.44307,0.37859
839.95329,0.32772
838.46350,0.34544
836.97371,0.35705
835.48392,0.35079
833.99413,0.34455
832.50434,0.33784
831.01455,0.37823
829.52477,0.32859
828.03498,0.27694
826.54519,0.28570
825.05540,0.29449
823.56561,0.23167
822.07582,0.28350
820.58604,0.19209
819.09625,0.19026
817.60646,0.18846
816.11667,0.13603
814.62688,0.14606
813.13709,0.00568
811.64730,0.01480
810.15752,0.02752
808.66773,0.04028
807.17794,0.04335
805.68815,0.04849
804.19836,0.16828
802.70857,0.17041
801.21879,0.17258
799.72900,0.25869
798.23921,0.37656
796.74942,0.42589
795.25963,0.43073
793.76984,0.43561
792.28006,0.53416
790.79027,0.63887
789.30048,0.69654
787.81069,0.67750
786.32090,0.69890
784.83111,0.72034
783.34132,0.69627
781.85154,0.70088
780.36175,0.77102
778.87196,0.74039
777.38217,0.70979
775.89238,0.82709
774.40259,0.89326
772.91281,0.88066
771.42302,0.88804
769.93323,0.89546
768.44344,0.97403
766.95365,0.88685
765.46386,0.89794
763.97407,0.85483
762.48429,0.80100
760.99450,0.74720
759.50471,0.66632
758.01492,0.56090
756.52513,0.51078
755.03534,0.43408
753.54556,0.35741
752.05577,0.25723
750.56598,0.26249
749.07619,0.15010
747.58640,0.12574
746.09661,0.10142
744.60683,0.15080
743.11704,0.10914
741.62725,0.06649
740.13746,0.09652
738.64767,0.12659
737.15788,0.02058
735.66809,0.00568
734.17831,0.05009
732.68852,0.08173
731.19873,0.11340
729.70894,0.16199
728.21915,0.08167
726.72936,0.16101
725.23958,0.12271
723.74979,0.15505
722.26000,0.18742
720.77021,0.11237
719.28042,0.13866
717.79063,0.06980
716.30084,0.08797
714.81106,0.10617
713.32127,0.00568
711.83148,0.12314
710.34169,0.05847
708.85190,0.06138
707.36211,0.06431
705.87233,0.12663
704.38254,0.07334
702.89275,0.16028
701.40296,0.14185
699.91317,0.12345
698.42338,0.16648
696.93360,0.17167
695.44381,0.23830
693.95402,0.21849
692.46423,0.19870
690.97444,0.23677
689.48465,0.22370
687.99486,0.24648
686.50508,0.24575
685.01529,0.24505
683.52550,0.30681
682.03571,0.28366
680.54592,0.18789
679.05613,0.21699
677.56635,0.24612
676.07656,0.18728
674.58677,0.24513
673.09698,0.13928
671.60719,0.14602
670.11740,0.15279
668.62761,0.06647
667.13783,0.07229
665.64804,0.07915
664.15825,0.08605
662.66846,0.09093
661.17867,0.08868
659.68888,0.19391
658.19910,0.15130
656.70931,0.10872
655.21952,0.14241
653.72973,0.04207
652.23994,0.11266
650.75015,0.12137
649.26037,0.13011
647.77058,0.06878
646.28079,0.08628
644.79100,0.09256
643.30121,0.07277
641.81142,0.05301
640.32163,0.14329
638.83185,0.05554
637.34206,0.00568
635.85227,0.01108
634.36248,0.01651
632.87269,0.05932
631.38290,0.03155
629.89312,0.10308
628.40333,0.08970
626.91354,0.07635
625.42375,0.04257
623.93396,0.11115
622.44417,0.13371
620.95438,0.15630
619.46460,0.18097
617.97481,0.13301
616.48502,0.10146
614.99523,0.09142
613.50544,0.08142
612.01565,0.13592
610.52587,0.10347
609.03608,0.16110
607.54629,0.18397
606.05650,0.20687
604.56671,0.26868
603.07692,0.17294
601.58714,0.20616
600.09735,0.23942
598.60756,0.16525
597.11777,0.17708
595.62798,0.13368
594.13819,0.11640
592.64840,0.09915
591.15862,0.09269
589.66883,0.10057
588.17904,0.10542
586.68925,0.12207
585.19946,0.13875
583.70967,0.14062
582.21989,0.07907
580.73010,0.13064
579.24031,0.18223
577.75052,0.21083
576.26073,0.16783
574.77094,0.23436
573.28115,0.19039
571.79137,0.14646
570.30158,0.23457
568.81179,0.32476
567.32200,0.33618
565.83221,0.34763
564.34242,0.39185
562.85264,0.42690
561.36285,0.49371
559.87306,0.47407
558.38327,0.45446
556.89348,0.47838
555.40369,0.51767
553.91391,0.55291
552.42412,0.58817
550.93433,0.61426
549.44454,0.70177
547.95475,0.73713
546.46496,0.72340
544.97517,0.70970
543.48539,0.84339
541.99560,0.83895
540.50581,0.79669
539.01602,0.75446
537.52623,0.72249
536.03644,0.70079
534.54666,0.76815
533.05687,0.75623
531.56708,0.74434
530.07729,0.73708
528.58750,0.64799
527.09771,0.61982
525.60792,0.59168
524.11814,0.49450
522.62835,0.51196
521.13856,0.47009
519.64877,0.46254
518.15898,0.45502
516.66919,0.43679
515.17941,0.41142
513.68962,0.38762
512.19983,0.36386
510.71004,0.33756
509.22025,0.27343
507.73046,0.29324
506.24068,0.32332
504.75089,0.35343
503.26110,0.44395
501.77131,0.41374
500.28152,0.38869
498.79173,0.36366
497.30194,0.30489
495.81216,0.29425
494.32237,0.37063
492.83258,0.44704
491.34279,0.44570
489.85300,0.46588
488.36321,0.38172
486.87343,0.30270
485.38364,0.22371
483.89385,0.28291
482.40406,0.29813
480.91427,0.23254
479.42448,0.16698
477.93469,0.12089
476.44491,0.14852
474.95512,0.13473
473.46533,0.12097
471.97554,0.08217
470.48575,0.09661
468.99596,0.00568
467.50618,0.01402
466.01639,0.02238
464.52660,0.04818
463.03681,0.02693
461.54702,0.04050
460.05723,0.05410
458.56745,0.06262
457.07766,0.07015
455.58787,0.12324
454.09808,0.17637
452.60829,0.18297
451.11850,0.18959
449.62871,0.21365
448.13893,0.23773
446.64914,0.29255
445.15935,0.40572
443.66956,0.38283
442.17977,0.39629
440.68998,0.40978
439.20020,0.58551
437.71041,0.67837
436.22062,0.74005
434.73083,0.80177
433.24104,0.89984
431.75125,1.07367
430.26146,1.11808
428.77168,1.16252
427.28189,1.16350
425.79210,1.26377
424.30231,1.24691
422.81252,1.23007
421.32273,1.26596
419.83295,1.18011
418.34316,1.16439
416.85337,1.14870
415.36358,0.88590
413.87379,0.77050
412.38400,0.71806
410.89422,0.66565
409.40443,0.57081
407.91464,0.64177
406.42485,0.53062
404.93506,0.54996
403.44527,0.56934
401.95548,0.56880
400.46570,0.46186
398.97591,0.51305
397.48612,0.56428
395.99633,0.53111
394.50654,0.57780
393.01675,0.55851
391.52697,0.53925
390.03718,0.50722
388.54739,0.46193
387.05760,0.48779
385.56781,0.51368
384.07802,0.51146
382.58824,0.38954
381.09845,0.37254
379.60866,0.35557
378.11887,0.31151
376.62908,0.29000
375.13929,0.26034
373.64950,0.23070
372.15972,0.15197
370.66993,0.18585
369.18014,0.15374
367.69035,0.12167
366.20056,0.16587
364.71077,0.13335
363.22099,0.13770
361.73120,0.14208
360.24141,0.07486
358.75162,0.04860
357.26183,0.07559
355.77204,0.10260
354.28225,0.12863
352.79247,0.07793
351.30268,0.05848
349.81289,0.03906
348.32310,0.12865
346.83331,0.05557
345.34352,0.03061
343.85374,0.00568
342.36395,0.12433
340.87416,0.08132
339.38437,0.10997
337.89458,0.13866
336.40479,0.04150
334.91501,0.01191
333.42522,0.01357
331.93543,0.01526
330.44564,0.02363
328.95585,0.03101
327.46606,0.02972
325.97627,0.02846
324.48649,0.01342
322.99670,0.08622
321.50691,0.08435
320.01712,0.08251
318.52733,0.08070
317.03754,0.15362
315.54776,0.11657
314.05797,0.07954
312.56818,0.04511
311.07839,0.05573
309.58860,0.03262
308.09881,0.00953
306.60902,0.00387
305.11924,0.00918
303.62945,0.01605
302.13966,0.02246
300.64987,0.00996
299.16008,0.00568
