1778.52000,0.00691
1777.03021,0.04304
1775.54042,0.06950
1774.05063,0.04499
1772.56085,0.00473
1771.07106,0.01913
1769.58127,0.03356
1768.09148,0.05409
1766.60169,0.04431
1765.11190,0.05761
1763.62212,0.03453
1762.13233,0.05518
1760.64254,0.02609
1759.15275,0.05408
1757.66296,0.06754
1756.17317,0.04340
1754.68339,0.05084
1753.19360,0.04861
1751.70381,0.02698
1750.21402,0.03695
1748.72423,0.07365
1747.23444,0.01690
1745.74465,0.06076
1744.25487,0.02088
1742.76508,0.10729
1741.27529,0.05776
1739.78550,0.02768
1738.29571,0.05347
1736.80592,0.06716
1735.31614,0.05538
1733.82635,0.01814
1732.33656,0.04891
1730.84677,0.05179
1729.35698,0.02435
1727.86719,0.01879
1726.37740,0.03148
1724.88762,0.04905
1723.39783,0.00473
1721.90804,0.06976
1720.41825,0.06198
1718.92846,0.02023
1717.43867,0.02587
1715.94889,0.05702
1714.45910,0.05058
1712.96931,0.03930
1711.47952,0.01592
1709.98973,0.08847
1708.49994,0.07243
1707.01016,0.06917
1705.52037,0.06594
1704.03058,0.11190
1702.54079,0.10691
1701.05100,0.11166
1699.56121,0.08002
1698.07142,0.13582
1696.58164,0.07874
1695.09185,0.12610
1693.60206,0.09579
1692.11227,0.14200
1690.62248,0.14089
1689.13269,0.15923
1687.64291,0.17275
1686.15312,0.21179
1684.66333,0.20108
1683.17354,0.16370
1681.68375,0.16520
1680.19396,0.13395
1678.70417,0.20106
1677.21439,0.18444
1675.72460,0.14599
1674.23481,0.19863
1672.74502,0.17602
1671.25523,0.13160
1669.76544,0.17218
1668.27566,0.14967
1666.78587,0.16361
1665.29608,0.15329
1663.80629,0.15515
1662.31650,0.16311
1660.82671,0.12253
1659.33693,0.15119
1657.84714,0.12160
1656.35735,0.14789
1654.86756,0.10743
1653.37777,0.12771
1651.88798,0.11038
1650.39819,0.12951
1648.90841,0.13531
1647.41862,0.13749
1645.92883,0.11846
1644.43904,0.09947
1642.94925,0.13331
1641.45946,0.07856
1639.96968,0.14402
1638.47989,0.11361
1636.99010,0.12936
1635.50031,0.14029
1634.01052,0.17309
1632.52073,0.15494
1631.03094,0.13682
1629.54116,0.12966
1628.05137,0.12738
1626.56158,0.14091
1625.07179,0.16297
1623.58200,0.17171
1622.09221,0.14770
1620.60243,0.14192
1619.11264,0.17746
1617.62285,0.19603
1616.13306,0.17092
1614.64327,0.17134
1613.15348,0.17665
1611.66370,0.12492
1610.17391,0.12301
1608.68412,0.13568
1607.19433,0.18724
1605.70454,0.12350
1604.21475,0.14052
1602.72496,0.15756
1601.23518,0.14976
1599.74539,0.13833
1598.25560,0.14394
1596.76581,0.16657
1595.27602,0.13824
1593.78623,0.13180
1592.29645,0.08168
1590.80666,0.05344
1589.31687,0.08593
1587.82708,0.09296
1586.33729,0.09760
1584.84750,0.12047
1583.35771,0.12394
1581.86793,0.09346
1580.37814,0.07514
1578.88835,0.03015
1577.39856,0.12237
1575.90877,0.07744
1574.41898,0.08231
1572.92920,0.06657
1571.43941,0.00473
1569.94962,0.04220
1568.45983,0.07969
1566.97004,0.05045
1565.48025,0.03823
1563.99047,0.02482
1562.50068,0.04301
1561.01089,0.06609
1559.52110,0.08070
1558.03131,0.06863
1556.54152,0.05659
1555.05173,0.06886
1553.56195,0.04596
1552.07216,0.03522
1550.58237,0.05973
1549.09258,0.04662
1547.60279,0.07847
1546.11300,0.09820
1544.62322,0.08762
1543.13343,0.04186
1541.64364,0.03862
1540.15385,0.05787
1538.66406,0.07714
1537.17427,0.06428
1535.68448,0.06966
1534.19470,0.03622
1532.70491,0.03923
1531.21512,0.04469
1529.72533,0.03077
1528.23554,0.00473
1526.74575,0.01239
1525.25597,0.06501
1523.76618,0.08366
1522.27639,0.05256
1520.78660,0.05064
1519.29681,0.03903
1517.80702,0.08450
1516.31724,0.09724
1514.82745,0.05172
1513.33766,0.04812
1511.84787,0.04455
1510.35808,0.07804
1508.86829,0.00473
1507.37850,0.04250
1505.88872,0.04753
1504.39893,0.07930
1502.90914,0.03947
1501.41935,0.08829
1499.92956,0.09708
1498.43977,0.12532
1496.94999,0.10868
1495.46020,0.17947
1493.97041,0.17988
1492.48062,0.22888
1490.99083,0.21114
1489.50104,0.31605
1488.01125,0.33783
1486.52147,0.35963
1485.03168,0.40757
1483.54189,0.50410
1482.05210,0.55696
1480.56231,0.64019
1479.07252,0.74652
1477.58274,0.84196
1476.09295,0.87915
1474.60316,0.88359
1473.11337,1.03375
1471.62358,0.98969
1470.13379,0.95780
1468.64401,0.95630
1467.15422,0.95482
1465.66443,0.94063
1464.17464,0.92646
1462.68485,0.81703
1461.19506,0.78896
1459.70527,0.74757
1458.21549,0.68557
1456.72570,0.59690
1455.23591,0.50218
1453.74612,0.48640
1452.25633,0.49373
1450.76654,0.45737
1449.27676,0.42226
1447.78697,0.42118
1446.29718,0.44683
1444.80739,0.39238
1443.31760,0.33797
1441.82781,0.31151
1440.33802,0.20859
1438.84824,0.17491
1437.35845,0.17646
1435.86866,0.18290
1434.37887,0.19786
1432.88908,0.20436
1431.39929,0.15261
1429.90951,0.21138
1428.41972,0.21068
1426.92993,0.21608
1425.44014,0.20695
1423.95035,0.22759
1422.46056,0.24825
1420.97078,0.22828
1419.48099,0.25205
1417.99120,0.25520
1416.50141,0.22075
1415.01162,0.26525
1413.52183,0.29156
1412.03204,0.25113
1410.54226,0.29935
1409.05247,0.31119
1407.56268,0.31334
1406.07289,0.30702
1404.58310,0.30377
1403.09331,0.30055
1401.60353,0.37323
1400.11374,0.34882
1398.62395,0.41064
1397.13416,0.43850
1395.64437,0.50523
1394.15458,0.52465
1392.66479,0.55988
1391.17501,0.52837
1389.68522,0.54302
1388.19543,0.56013
1386.70564,0.51900
1385.21585,0.47789
1383.72606,0.51816
1382.23628,0.54025
1380.74649,0.52837
1379.25670,0.53473
1377.76691,0.60790
1376.27712,0.61311
1374.78733,0.60742
1373.29755,0.71588
1371.80776,0.76367
1370.31797,0.90376
1368.82818,1.01535
1367.33839,1.12696
1365.84860,1.24043
1364.35881,1.47290
1362.86903,1.75397
1361.37924,1.81532
1359.88945,1.85485
1358.39966,1.81186
1356.90987,1.88059
1355.42008,1.90200
1353.93030,1.80204
1352.44051,1.76706
1350.95072,1.73211
1349.46093,1.59339
1347.97114,1.30538
1346.48135,1.13880
1344.99156,0.93097
1343.50178,0.83364
1342.01199,0.74971
1340.52220,0.75078
1339.03241,0.58556
1337.54262,0.56363
1336.05283,0.55508
1334.56305,0.54656
1333.07326,0.48101
1331.58347,0.44463
1330.09368,0.40221
1328.60389,0.36953
1327.11410,0.32110
1325.62432,0.31155
1324.13453,0.28503
1322.64474,0.29132
1321.15495,0.31706
1319.66516,0.30156
1318.17537,0.28609
1316.68558,0.25365
1315.19580,0.26737
1313.70601,0.22528
1312.21622,0.24392
1310.72643,0.22010
1309.23664,0.16839
1307.74685,0.22354
1306.25707,0.23623
1304.76728,0.21070
1303.27749,0.18521
1301.78770,0.19192
1300.29791,0.19745
1298.80812,0.21879
1297.31834,0.15274
1295.82855,0.24456
1294.33876,0.21864
1292.84897,0.19882
1291.35918,0.26887
1289.86939,0.23211
1288.37960,0.19539
1286.88982,0.24125
1285.40003,0.23736
1283.91024,0.28813
1282.42045,0.26610
1280.93066,0.23559
1279.44087,0.28160
1277.95109,0.27301
1276.46130,0.26809
1274.97151,0.30083
1273.48172,0.33361
1271.99193,0.31664
1270.50214,0.28877
1269.01235,0.31435
1267.52257,0.41159
1266.03278,0.35832
1264.54299,0.39491
1263.05320,0.39026
1261.56341,0.42267
1260.07362,0.45511
1258.58384,0.44326
1257.09405,0.43752
1255.60426,0.42816
1254.11447,0.46618
1252.62468,0.43746
1251.13489,0.41120
1249.64511,0.34247
1248.15532,0.27135
1246.66553,0.27310
1245.17574,0.27488
1243.68595,0.32040
1242.19616,0.25425
1240.70637,0.26583
1239.21659,0.23131
1237.72680,0.13369
1236.23701,0.20607
1234.74722,0.15585
1233.25743,0.15241
1231.76764,0.14900
1230.27786,0.16929
1228.78807,0.14469
1227.29828,0.11405
1225.80849,0.08587
1224.31870,0.13541
1222.82891,0.15828
1221.33912,0.14476
1219.84934,0.12459
1218.35955,0.10445
1216.86976,0.08980
1215.37997,0.13103
1213.89018,0.14194
1212.40039,0.05697
1210.91061,0.08615
1209.42082,0.12021
1207.93103,0.12578
1206.44124,0.13137
1204.95145,0.09390
1203.46166,0.11109
1201.97188,0.04940
1200.48209,0.00473
1198.99230,0.10391
1197.50251,0.04044
1196.01272,0.04498
1194.52293,0.05077
1193.03314,0.05659
1191.54336,0.04787
1190.05357,0.08895
1188.56378,0.05115
1187.07399,0.04495
1185.58420,0.03514
1184.09441,0.04235
1182.60463,0.04959
1181.11484,0.05687
1179.62505,0.07145
1178.13526,0.00473
1176.64547,0.04941
1175.15568,0.06255
1173.66589,0.07573
1172.17611,0.05615
1170.68632,0.07181
1169.19653,0.08751
1167.70674,0.07166
1166.21695,0.09349
1164.72716,0.07042
1163.23738,0.04010
1161.74759,0.04137
1160.25780,0.02932
1158.76801,0.02034
1157.27822,0.01138
1155.78843,0.01278
1154.29865,0.03362
1152.80886,0.00473
1151.31907,0.07591
1149.82928,0.05850
1148.33949,0.12124
1146.84970,0.09418
1145.35991,0.06715
1143.87013,0.06685
1142.38034,0.08844
1140.89055,0.05421
1139.40076,0.13777
1137.91097,0.13274
1136.42118,0.13503
1134.93140,0.15312
1133.44161,0.17125
1131.95182,0.25617
1130.46203,0.31564
1128.97224,0.23187
1127.48245,0.28290
1125.99266,0.30117
1124.50288,0.34376
1123.01309,0.31839
1121.52330,0.29305
1120.03351,0.28717
1118.54372,0.37479
1117.05393,0.48308
1115.56415,0.42751
1114.07436,0.36348
1112.58457,0.38020
1111.09478,0.39695
1109.60499,0.45198
1108.11520,0.53010
1106.62542,0.48685
1105.13563,0.52619
1103.64584,0.67967
1102.15605,0.70328
1100.66626,0.68686
1099.17647,0.67047
1097.68668,0.66382
1096.19690,0.72883
1094.70711,0.71981
1093.21732,0.79823
1091.72753,0.86698
1090.23774,0.83802
1088.74795,0.80909
1087.25817,0.83421
1085.76838,0.93585
1084.27859,1.01324
1082.78880,1.11373
1081.29901,1.09648
1079.80922,1.01128
1078.31943,1.06512
1076.82965,1.11898
1075.33986,1.19655
1073.85007,1.24744
1072.36028,1.14661
1070.87049,1.21455
1069.38070,1.25461
1067.89092,1.26556
1066.40113,1.27653
1064.91134,1.26205
1063.42155,1.18932
1061.93176,1.08505
1060.44197,0.94561
1058.95219,0.85597
1057.46240,0.86410
1055.97261,0.87225
1054.48282,0.76935
1052.99303,0.79031
1051.50324,0.68140
1050.01345,0.60894
1048.52367,0.57414
1047.03388,0.56548
1045.54409,0.55684
1044.05430,0.50757
1042.56451,0.44497
1041.07472,0.31078
1039.58494,0.31380
1038.09515,0.30106
1036.60536,0.32478
1035.11557,0.34853
1033.62578,0.26790
1032.13599,0.28078
1030.64620,0.32769
1029.15642,0.39404
1027.66663,0.39791
1026.17684,0.40181
1024.68705,0.48889
1023.19726,0.53959
1021.70747,0.69108
1020.21769,0.86324
1018.72790,1.05850
1017.23811,1.16880
1015.74832,1.27913
1014.25853,1.48905
1012.76874,1.69656
1011.27896,1.78392
1009.78917,1.95872
1008.29938,2.00000
1006.80959,1.97940
1005.31980,1.95883
1003.83001,1.81324
1002.34022,1.85222
1000.85044,1.75890
999.36065,1.48350
997.87086,1.46429
996.38107,1.44512
994.89128,1.44297
993.40149,1.42506
991.91171,1.34527
990.42192,1.32622
988.93213,1.21978
987.44234,1.19411
985.95255,1.16846
984.46276,1.14224
982.97297,1.14276
981.48319,1.09475
979.99340,1.02855
978.50361,0.98667
977.01382,0.94481
975.52403,0.92849
974.03424,0.85027
972.54446,0.78180
971.05467,0.80198
969.56488,0.78699
968.07509,0.73742
966.58530,0.68789
965.09551,0.75554
963.60573,0.69331
962.11594,0.62384
960.62615,0.53861
959.13636,0.51897
957.64657,0.49936
956.15678,0.46642
954.66699,0.48451
953.17721,0.46256
951.68742,0.42971
950.19763,0.46428
948.70784,0.49887
947.21805,0.46005
945.72826,0.40547
944.23848,0.37520
942.74869,0.36317
941.25890,0.48715
939.76911,0.52192
938.27932,0.55672
936.78953,0.53753
935.29974,0.54508
933.80996,0.60243
932.32017,0.66831
930.83038,0.66199
929.34059,0.65570
927.85080,0.62455
926.36101,0.58250
924.87123,0.50285
923.38144,0.59562
921.89165,0.56094
920.40186,0.52630
918.91207,0.50383
917.42228,0.59308
915.93250,0.58402
914.44271,0.56649
912.95292,0.57206
911.46313,0.57766
909.97334,0.64520
908.48355,0.62901
906.99376,0.60314
905.50398,0.59429
904.01419,0.57333
902.52440,0.55240
901.03461,0.64198
899.54482,0.68667
898.05503,0.64519
896.56525,0.70087
895.07546,0.65459
893.58567,0.60835
892.09588,0.66169
890.60609,0.67378
889.11630,0.65312
887.62651,0.58393
886.13673,0.59064
884.64694,0.59739
883.15715,0.63998
881.66736,0.72388
880.17757,0.71675
878.68778,0.72544
877.19800,0.73416
875.70821,0.81696
874.21842,0.71891
872.72863,0.78720
871.23884,0.79118
869.74905,0.80309
868.25927,0.81502
866.76948,0.82880
865.27969,0.90939
863.78990,0.91959
862.30011,0.82785
860.81032,0.81504
859.32053,0.80227
857.83075,0.78952
856.34096,0.71732
854.85117,0.70464
853.36138,0.69805
851.87159,0.68785
850.38180,0.67769
848.89202,0.60199
847.40223,0.43164
845.91244,0.35965
844.42265,0.35870
842.93286,0.35779
841.44307,0.27739
839.95329,0.30993
838.46350,0.23202
836.97371,0.24761
835.48392,0.26324
833.99413,0.27890
832.50434,0.21568
831.01455,0.28238
829.52477,0.28114
828.03498,0.18644
826.54519,0.18525
825.05540,0.18409
823.56561,0.14412
822.07582,0.14909
820.58604,0.17109
819.09625,0.13788
817.60646,0.10469
816.11667,0.06972
814.62688,0.08577
813.13709,0.00473
811.64730,0.01657
810.15752,0.03877
808.66773,0.06099
807.17794,0.00373
805.68815,0.06924
804.19836,0.13722
802.70857,0.14148
801.21879,0.14578
799.72900,0.14586
798.23921,0.18967
796.74942,0.25415
795.25963,0.28649
793.76984,0.31886
792.28006,0.43927
790.79027,0.49173
789.30048,0.56607
787.81069,0.57367
786.32090,0.59041
784.83111,0.60718
783.34132,0.61730
781.85154,0.63109
780.36175,0.63520
778.87196,0.61688
777.38217,0.59859
775.89238,0.69262
774.40259,0.75513
772.91281,0.77760
771.42302,0.80435
769.93323,0.83112
768.44344,0.83669
766.95365,0.76215
765.46386,0.82727
763.97407,0.72244
762.48429,0.67228
760.99450,0.62215
759.50471,0.53077
758.01492,0.46249
756.52513,0.45008
755.03534,0.37093
753.54556,0.29181
752.05577,0.24065
750.56598,0.20165
749.07619,0.15662
747.58640,0.14985
746.09661,0.14312
744.60683,0.10788
743.11704,0.05326
741.62725,0.00473
740.13746,0.02802
738.64767,0.05135
737.15788,0.02614
735.66809,0.02039
734.17831,0.02074
732.68852,0.03205
731.19873,0.04338
729.70894,0.07903
728.21915,0.07343
726.72936,0.00473
725.23958,0.08434
723.74979,0.11604
722.26000,0.14776
720.77021,0.15948
719.28042,0.13359
717.79063,0.09074
716.30084,0.08373
714.81106,0.07675
713.32127,0.00000
711.83148,0.05378
710.34169,0.02504
708.85190,0.02789
707.36211,0.03077
705.87233,0.04218
704.38254,0.03419
702.89275,0.07601
701.40296,0.10329
699.91317,0.13060
698.42338,0.09117
696.93360,0.12704
695.44381,0.10831
693.95402,0.13149
692.46423,0.15471
690.97444,0.17613
689.48465,0.15752
687.99486,0.21178
686.50508,0.20961
685.01529,0.20748
683.52550,0.22055
682.03571,0.21423
680.54592,0.16788
679.05613,0.16647
677.56635,0.16510
676.07656,0.13947
674.58677,0.18551
673.09698,0.15508
671.60719,0.13076
670.11740,0.10647
668.62761,0.08707
667.13783,0.13568
665.64804,0.11451
664.15825,0.09337
662.66846,0.10444
661.17867,0.04876
659.68888,0.08902
658.19910,0.10200
656.70931,0.11500
655.21952,0.14322
653.72973,0.13989
652.23994,0.14995
650.75015,0.13030
649.26037,0.11068
647.77058,0.10383
646.28079,0.12858
644.79100,0.08902
643.30121,0.10230
641.81142,0.11560
640.32163,0.11134
638.83185,0.06946
637.34206,0.05676
635.85227,0.03073
634.36248,0.00473
632.87269,0.12342
631.38290,0.09038
629.89312,0.08409
628.40333,0.07843
626.91354,0.07280
625.42375,0.10302
623.93396,0.12112
622.44417,0.13076
620.95438,0.14043
619.46460,0.11492
617.97481,0.08701
616.48502,0.07977
614.99523,0.09624
613.50544,0.11273
612.01565,0.10558
610.52587,0.12881
609.03608,0.12415
607.54629,0.12377
606.05650,0.12342
604.56671,0.16619
603.07692,0.17258
601.58714,0.18264
600.09735,0.19272
598.60756,0.10086
597.11777,0.14379
595.62798,0.14547
594.13819,0.13504
592.64840,0.12463
591.15862,0.11305
589.66883,0.15248
588.17904,0.13610
586.68925,0.13614
585.19946,0.13621
583.70967,0.12841
582.21989,0.11094
580.73010,0.09410
579.24031,0.07729
577.75052,0.09876
576.26073,0.13603
574.77094,0.17212
573.28115,0.18154
571.79137,0.19098
570.30158,0.19681
568.81179,0.16747
567.32200,0.20614
565.83221,0.24484
564.34242,0.31756
562.85264,0.30169
561.36285,0.31255
559.87306,0.33741
558.38327,0.36230
556.89348,0.34291
555.40369,0.41945
553.91391,0.43775
552.42412,0.45609
550.93433,0.50844
549.44454,0.58753
547.95475,0.58289
546.46496,0.59648
544.97517,0.61011
543.48539,0.60555
541.99560,0.63745
540.50581,0.62142
539.01602,0.60542
537.52623,0.57307
536.03644,0.56623
534.54666,0.59342
533.05687,0.60000
531.56708,0.60661
530.07729,0.51613
528.58750,0.47789
527.09771,0.49673
525.60792,0.51560
524.11814,0.39974
522.62835,0.45752
521.13856,0.40000
519.64877,0.38318
518.15898,0.36639
516.66919,0.32110
515.17941,0.31347
513.68962,0.31376
512.19983,0.31409
510.71004,0.24464
509.22025,0.28448
507.73046,0.32070
506.24068,0.33511
504.75089,0.34955
503.26110,0.31424
501.77131,0.36758
500.28152,0.33779
498.79173,0.30804
497.30194,0.36269
495.81216,0.39308
494.32237,0.38709
492.83258,0.38113
491.34279,0.31814
489.85300,0.36808
488.36321,0.28087
486.87343,0.28656
485.38364,0.29228
483.89385,0.21972
482.40406,0.20669
480.91427,0.20582
479.42448,0.20498
477.93469,0.13498
476.44491,0.09899
474.95512,0.07821
473.46533,0.05747
471.97554,0.05435
470.48575,0.04884
468.99596,0.07249
467.50618,0.05186
466.01639,0.03127
464.52660,0.06958
463.03681,0.00473
461.54702,0.02084
460.05723,0.03698
458.56745,0.12842
457.07766,0.07420
455.58787,0.10864
454.09808,0.14311
452.60829,0.18854
451.11850,0.18300
449.62871,0.16233
448.13893,0.14168
446.64914,0.19694
445.15935,0.32021
443.66956,0.39981
442.17977,0.40599
440.68998,0.41220
439.20020,0.47854
437.71041,0.50362
436.22062,0.57791
434.73083,0.65222
433.24104,0.73203
431.75125,0.82401
430.26146,0.89902
428.77168,0.97407
427.28189,0.96659
425.79210,0.94214
424.30231,0.93593
422.81252,0.92976
421.32273,1.00131
419.83295,0.94541
418.34316,0.89077
416.85337,0.83615
415.36358,0.71115
413.87379,0.55947
412.38400,0.50312
410.89422,0.44680
409.40443,0.51252
407.91464,0.48600
406.42485,0.40732
404.93506,0.41303
403.44527,0.41878
401.95548,0.45187
400.46570,0.39758
398.97591,0.38157
397.48612,0.36558
395.99633,0.37451
394.50654,0.35919
393.01675,0.38579
391.52697,0.41241
390.03718,0.34134
388.54739,0.34921
387.05760,0.37471
385.56781,0.40024
384.07802,0.27587
382.58824,0.25472
381.09845,0.23421
379.60866,0.21372
378.11887,0.26672
376.62908,0.17649
375.13929,0.16885
373.64950,0.16123
372.15972,0.23377
370.66993,0.22379
369.18014,0.17620
367.69035,0.12864
366.20056,0.17703
364.71077,0.17202
363.22099,0.13973
361.73120,0.10746
360.24141,0.15232
358.75162,0.13408
357.26183,0.15533
355.77204,0.17660
354.28225,0.12203
352.79247,0.09177
351.30268,0.10281
349.81289,0.11389
348.32310,0.05822
346.83331,0.11488
345.34352,0.08720
343.85374,0.05955
342.36395,0.10294
340.87416,0.08931
339.38437,0.06296
337.89458,0.03664
336.40479,0.08501
334.91501,0.00473
333.42522,0.08293
331.93543,0.16117
330.44564,0.11317
328.95585,0.11863
327.46606,0.11986
325.97627,0.12112
324.48649,0.06718
322.99670,0.05948
321.50691,0.09065
320.01712,0.12186
318.52733,0.17130
317.03754,0.10180
315.54776,0.08757
314.05797,0.07337
312.56818,0.03917
311.07839,0.05963
309.58860,0.03216
308.09881,0.00473
306.60902,0.04481
305.11924,0.11042
303.62945,0.10018
302.13966,0.08997
300.64987,0.01363
299.16008,0.00473
