1778.52000,0.01697
1777.03021,0.06988
1775.54042,0.07093
1774.05063,0.04288
1772.56085,0.04763
1771.07106,0.00963
1769.58127,0.02263
1768.09148,0.04022
1766.60169,0.03144
1765.11190,0.02815
1763.62212,0.03126
1762.13233,0.05534
1760.64254,0.03848
1759.15275,0.02894
1757.66296,0.05493
1756.17317,0.02177
1754.68339,0.03417
1753.19360,0.03567
1751.70381,0.04448
1750.21402,0.00963
1748.72423,0.01990
1747.23444,0.03021
1745.74465,0.04236
1744.25487,0.04999
1742.76508,0.05766
1741.27529,0.03622
1739.78550,0.05760
1738.29571,0.05716
1736.80592,0.03581
1735.31614,0.04362
1733.82635,0.03963
1732.33656,0.02383
1730.84677,0.06087
1729.35698,0.00963
1727.86719,0.04491
1726.37740,0.04290
1724.88762,0.02544
1723.39783,0.04898
1721.90804,0.02520
1720.41825,0.04698
1718.92846,0.05695
1717.43867,0.03964
1715.94889,0.03420
1714.45910,0.03607
1712.96931,0.07165
1711.47952,0.05537
1709.98973,0.04913
1708.49994,0.06842
1707.01016,0.06406
1705.52037,0.05974
1704.03058,0.06091
1702.54079,0.06848
1701.05100,0.08791
1699.56121,0.08644
1698.07142,0.07134
1696.58164,0.09268
1695.09185,0.12043
1693.60206,0.12636
1692.11227,0.15416
1690.62248,0.13648
1689.13269,0.17163
1687.64291,0.15674
1686.15312,0.17557
1684.66333,0.13707
1683.17354,0.15777
1681.68375,0.14937
1680.19396,0.17560
1678.70417,0.10900
1677.21439,0.14348
1675.72460,0.11517
1674.23481,0.18066
1672.74502,0.13512
1671.25523,0.12056
1669.76544,0.16520
1668.27566,0.12430
1666.78587,0.16081
1665.29608,0.12361
1663.80629,0.15654
1662.31650,0.11849
1660.82671,0.11870
1659.33693,0.12077
1657.84714,0.14380
1656.35735,0.09586
1654.86756,0.09801
1653.37777,0.08927
1651.88798,0.08693
1650.39819,0.14562
1648.90841,0.11694
1647.41862,0.09376
1645.92883,0.09063
1644.43904,0.08753
1642.94925,0.09994
1641.45946,0.09690
1639.96968,0.10755
1638.47989,0.15646
1636.99010,0.08797
1635.50031,0.07868
1634.01052,0.15408
1632.52073,0.11936
1631.03094,0.12564
1629.54116,0.11191
1628.05137,0.10277
1626.56158,0.18014
1625.07179,0.13192
1623.58200,0.16929
1622.09221,0.14480
1620.60243,0.11214
1619.11264,0.15324
1617.62285,0.14431
1616.13306,0.14542
1614.64327,0.15112
1613.15348,0.13044
1611.66370,0.14439
1610.17391,0.11467
1608.68412,0.14961
1607.19433,0.13634
1605.70454,0.15678
1604.21475,0.14948
1602.72496,0.14222
1601.23518,0.14545
1599.74539,0.14598
1598.25560,0.17294
1596.76581,0.13075
1595.27602,0.08039
1593.78623,0.15660
1592.29645,0.10084
1590.80666,0.04966
1589.31687,0.08590
1587.82708,0.07666
1586.33729,0.07109
1584.84750,0.08193
1583.35771,0.07187
1581.86793,0.07549
1580.37814,0.06912
1578.88835,0.08555
1577.39856,0.04374
1575.90877,0.07844
1574.41898,0.05035
1572.92920,0.06416
1571.43941,0.02976
1569.94962,0.04044
1568.45983,0.05116
1566.97004,0.05963
1565.48025,0.07451
1563.99047,0.03388
1562.50068,0.07158
1561.01089,0.04831
1559.52110,0.05329
1558.03131,0.07832
1556.54152,0.00963
1555.05173,0.04630
1553.56195,0.09119
1552.07216,0.06783
1550.58237,0.06454
1549.09258,0.05399
1547.60279,0.09627
1546.11300,0.11673
1544.62322,0.08715
1543.13343,0.13407
1541.64364,0.10456
1540.15385,0.07371
1538.66406,0.04288
1537.17427,0.07081
1535.68448,0.07509
1534.19470,0.04026
1532.70491,0.00000
1531.21512,0.02975
1529.72533,0.02859
1528.23554,0.05294
1526.74575,0.04455
1525.25597,0.01980
1523.76618,0.03605
1522.27639,0.02229
1520.78660,0.02767
1519.29681,0.01124
1517.80702,0.02305
1516.31724,0.05675
1514.82745,0.05497
1513.33766,0.03228
1511.84787,0.00963
1510.35808,0.03119
1508.86829,0.04914
1507.37850,0.01888
1505.88872,0.03416
1504.39893,0.01579
1502.90914,0.02476
1501.41935,0.03558
1499.92956,0.02822
1498.43977,0.06095
1496.94999,0.03909
1495.46020,0.08553
1493.97041,0.11471
1492.48062,0.17304
1490.99083,0.19500
1489.50104,0.29163
1488.01125,0.31683
1486.52147,0.34206
1485.03168,0.39599
1483.54189,0.49274
1482.05210,0.52307
1480.56231,0.61442
1479.07252,0.74039
1477.58274,0.69616
1476.09295,0.82037
1474.60316,0.83992
1473.11337,0.89319
1471.62358,0.83269
1470.13379,0.91241
1468.64401,0.87291
1467.15422,0.81523
1465.66443,0.79764
1464.17464,0.78008
1462.68485,0.75071
1461.19506,0.71591
1459.70527,0.66111
1458.21549,0.57721
1456.72570,0.57254
1455.23591,0.53331
1453.74612,0.46498
1452.25633,0.40578
1450.76654,0.37574
1449.27676,0.37213
1447.78697,0.37310
1446.29718,0.31675
1444.80739,0.29275
1443.31760,0.26878
1441.82781,0.25075
1440.33802,0.16630
1438.84824,0.15198
1437.35845,0.15043
1435.86866,0.13708
1434.37887,0.15744
1432.88908,0.09408
1431.39929,0.16547
1429.90951,0.15588
1428.41972,0.15087
1426.92993,0.15044
1425.44014,0.13639
1423.95035,0.15423
1422.46056,0.17210
1420.97078,0.11170
1419.48099,0.16696
1417.99120,0.17217
1416.50141,0.24751
1415.01162,0.21272
1413.52183,0.21257
1412.03204,0.23155
1410.54226,0.24420
1409.05247,0.25505
1407.56268,0.23134
1406.07289,0.19492
1404.58310,0.20996
1403.09331,0.22503
1401.60353,0.20053
1400.11374,0.30442
1398.62395,0.33278
1397.13416,0.39121
1395.64437,0.41235
1394.15458,0.38436
1392.66479,0.44834
1391.17501,0.39947
1389.68522,0.43803
1388.19543,0.49300
1386.70564,0.47244
1385.21585,0.45191
1383.72606,0.52700
1382.23628,0.47558
1380.74649,0.48609
1379.25670,0.51393
1377.76691,0.50903
1376.27712,0.55058
1374.78733,0.56394
1373.29755,0.63742
1371.80776,0.66723
1370.31797,0.87550
1368.82818,0.96545
1367.33839,1.05543
1365.84860,1.27927
1364.35881,1.46581
1362.86903,1.62780
1361.37924,1.71153
1359.88945,1.75796
1358.39966,1.78349
1356.90987,1.84728
1355.42008,1.75179
1353.93030,1.73007
1352.44051,1.67743
1350.95072,1.62481
1349.46093,1.44205
1347.97114,1.22199
1346.48135,1.03201
1344.99156,0.87482
1343.50178,0.79414
1342.01199,0.69254
1340.52220,0.62922
1339.03241,0.51403
1337.54262,0.45349
1336.05283,0.45216
1334.56305,0.45085
1333.07326,0.41316
1331.58347,0.40737
1330.09368,0.38613
1328.60389,0.31757
1327.11410,0.26999
1325.62432,0.27433
1324.13453,0.24137
1322.64474,0.24213
1321.15495,0.20559
1319.66516,0.22461
1318.17537,0.24366
1316.68558,0.22269
1315.19580,0.15987
1313.70601,0.20268
1312.21622,0.19090
1310.72643,0.17551
1309.23664,0.17927
1307.74685,0.16849
1306.25707,0.12588
1304.76728,0.14656
1303.27749,0.16728
1301.78770,0.17301
1300.29791,0.13780
1298.80812,0.15087
1297.31834,0.11207
1295.82855,0.15433
1294.33876,0.14929
1292.84897,0.15337
1291.35918,0.15385
1289.86939,0.17256
1288.37960,0.19130
1286.88982,0.24921
1285.40003,0.24070
1283.91024,0.25771
1282.42045,0.24744
1280.93066,0.28272
1279.44087,0.26613
1277.95109,0.26688
1276.46130,0.26947
1274.97151,0.24478
1273.48172,0.22013
1271.99193,0.25467
1270.50214,0.27741
1269.01235,0.30382
1267.52257,0.30387
1266.03278,0.30849
1264.54299,0.36503
1263.05320,0.32784
1261.56341,0.35713
1260.07362,0.38646
1258.58384,0.42582
1257.09405,0.38238
1255.60426,0.40451
1254.11447,0.39208
1252.62468,0.35782
1251.13489,0.33544
1249.64511,0.34949
1248.15532,0.32352
1246.66553,0.30942
1245.17574,0.29534
1243.68595,0.25126
1242.19616,0.26182
1240.70637,0.23054
1239.21659,0.23206
1237.72680,0.17171
1236.23701,0.19878
1234.74722,0.16853
1233.25743,0.13330
1231.76764,0.09810
1230.27786,0.09070
1228.78807,0.13886
1227.29828,0.13607
1225.80849,0.12420
1224.31870,0.12966
1222.82891,0.09783
1221.33912,0.06694
1219.84934,0.07795
1218.35955,0.08900
1216.86976,0.06183
1215.37997,0.08386
1213.89018,0.09044
1212.40039,0.08977
1210.91061,0.08640
1209.42082,0.06030
1207.93103,0.05107
1206.44124,0.04187
1204.95145,0.03588
1203.46166,0.06635
1201.97188,0.02219
1200.48209,0.06181
1198.99230,0.05868
1197.50251,0.06104
1196.01272,0.02337
1194.52293,0.01532
1193.03314,0.00730
1191.54336,0.03265
1190.05357,0.01251
1188.56378,0.04520
1187.07399,0.00965
1185.58420,0.00963
1184.09441,0.03118
1182.60463,0.05049
1181.11484,0.06983
1179.62505,0.03412
1178.13526,0.05216
1176.64547,0.05384
1175.15568,0.06647
1173.66589,0.07640
1172.17611,0.09000
1170.68632,0.06767
1169.19653,0.04537
1167.70674,0.01901
1166.21695,0.07461
1164.72716,0.06651
1163.23738,0.05116
1161.74759,0.01399
1160.25780,0.00963
1158.76801,0.03604
1157.27822,0.06248
1155.78843,0.02021
1154.29865,0.03078
1152.80886,0.02408
1151.31907,0.01104
1149.82928,0.02261
1148.33949,0.01054
1146.84970,0.03400
1145.35991,0.05750
1143.87013,0.05553
1142.38034,0.06087
1140.89055,0.07717
1139.40076,0.04708
1137.91097,0.14537
1136.42118,0.18087
1134.93140,0.18591
1133.44161,0.19098
1131.95182,0.24570
1130.46203,0.33503
1128.97224,0.31061
1127.48245,0.30351
1125.99266,0.26002
1124.50288,0.27665
1123.01309,0.26509
1121.52330,0.25356
1120.03351,0.29030
1118.54372,0.37533
1117.05393,0.37481
1115.56415,0.38707
1114.07436,0.34382
1112.58457,0.36661
1111.09478,0.38942
1109.60499,0.40726
1108.11520,0.46337
1106.62542,0.48399
1105.13563,0.48918
1103.64584,0.54901
1102.15605,0.55972
1100.66626,0.63145
1099.17647,0.70320
1097.68668,0.61386
1096.19690,0.65473
1094.70711,0.75753
1093.21732,0.76750
1091.72753,0.80573
1090.23774,0.80893
1088.74795,0.81217
1087.25817,0.82409
1085.76838,0.83603
1084.27859,0.91355
1082.78880,0.98655
1081.29901,1.00951
1079.80922,1.04160
1078.31943,1.04823
1076.82965,1.05489
1075.33986,1.07706
1073.85007,1.10745
1072.36028,1.09600
1070.87049,1.09277
1069.38070,1.17514
1067.89092,1.23159
1066.40113,1.28808
1064.91134,1.17481
1063.42155,1.13532
1061.93176,0.99662
1060.44197,0.99997
1058.95219,0.86862
1057.46240,0.86020
1055.97261,0.85180
1054.48282,0.76242
1052.99303,0.64120
1051.50324,0.62743
1050.01345,0.62917
1048.52367,0.52352
1047.03388,0.48936
1045.54409,0.45523
1044.05430,0.52627
1042.56451,0.46080
1041.07472,0.41538
1039.58494,0.39274
1038.09515,0.34010
1036.60536,0.29841
1035.11557,0.25675
1033.62578,0.26975
1032.13599,0.19537
1030.64620,0.16382
1029.15642,0.30162
1027.66663,0.30881
1026.17684,0.31604
1024.68705,0.41751
1023.19726,0.48079
1021.70747,0.60417
1020.21769,0.78949
1018.72790,0.99577
1017.23811,1.13199
1015.74832,1.26824
1014.25853,1.51012
1012.76874,1.68648
1011.27896,1.78459
1009.78917,1.90639
1008.29938,2.00000
1006.80959,1.96619
1005.31980,1.93242
1003.83001,1.81856
1002.34022,1.70018
1000.85044,1.52265
999.36065,1.42709
997.87086,1.37753
996.38107,1.32800
994.89128,1.33540
993.40149,1.28821
991.91171,1.29112
990.42192,1.26310
988.93213,1.25423
987.44234,1.21626
985.95255,1.17832
984.46276,1.06030
982.97297,1.11710
981.48319,1.04374
979.99340,1.01138
978.50361,1.00955
977.01382,1.00775
975.52403,0.90356
974.03424,0.88589
972.54446,0.77994
971.05467,0.75596
969.56488,0.70196
968.07509,0.69806
966.58530,0.69419
965.09551,0.55562
963.60573,0.58277
962.11594,0.57171
960.62615,0.50150
959.13636,0.49323
957.64657,0.48499
956.15678,0.44401
954.66699,0.45221
953.17721,0.41949
951.68742,0.41501
950.19763,0.38461
948.70784,0.35425
947.21805,0.38445
945.72826,0.32911
944.23848,0.37667
942.74869,0.41971
941.25890,0.40634
939.76911,0.45717
938.27932,0.50804
936.78953,0.52298
935.29974,0.53066
933.80996,0.52745
932.32017,0.59801
930.83038,0.58849
929.34059,0.57900
927.85080,0.58501
926.36101,0.59833
924.87123,0.60168
923.38144,0.52949
921.89165,0.51924
920.40186,0.50901
918.91207,0.45785
917.42228,0.47500
915.93250,0.51039
914.44271,0.53943
912.95292,0.50978
911.46313,0.48016
909.97334,0.53205
908.48355,0.53117
906.99376,0.54671
905.50398,0.52495
904.01419,0.54146
902.52440,0.55799
901.03461,0.57638
899.54482,0.59024
898.05503,0.59048
896.56525,0.56982
895.07546,0.58013
893.58567,0.59047
892.09588,0.58628
890.60609,0.64311
889.11630,0.65627
887.62651,0.63670
886.13673,0.67222
884.64694,0.70778
883.15715,0.61182
881.66736,0.60056
880.17757,0.62573
878.68778,0.65094
877.19800,0.67618
875.70821,0.63863
874.21842,0.70126
872.72863,0.76937
871.23884,0.84206
869.74905,0.88020
868.25927,0.91836
866.76948,0.88737
865.27969,0.86004
863.78990,0.85642
862.30011,0.92565
860.81032,0.91754
859.32053,0.90945
857.83075,0.85861
856.34096,0.81144
854.85117,0.73425
853.36138,0.72083
851.87159,0.68376
850.38180,0.64672
848.89202,0.57148
847.40223,0.39977
845.91244,0.34917
844.42265,0.32772
842.93286,0.30631
841.44307,0.32043
839.95329,0.27996
838.46350,0.28959
836.97371,0.24918
835.48392,0.22200
833.99413,0.19485
832.50434,0.21189
831.01455,0.27447
829.52477,0.29247
828.03498,0.23767
826.54519,0.23389
825.05540,0.23013
823.56561,0.18726
822.07582,0.15807
820.58604,0.13893
819.09625,0.11345
817.60646,0.08799
816.11667,0.10080
814.62688,0.08451
813.13709,0.01180
811.64730,0.02926
810.15752,0.01943
808.66773,0.00963
807.17794,0.03560
805.68815,0.05795
804.19836,0.05485
802.70857,0.09593
801.21879,0.13704
799.72900,0.11400
798.23921,0.20661
796.74942,0.31745
795.25963,0.34730
793.76984,0.37718
792.28006,0.44078
790.79027,0.49256
789.30048,0.51980
787.81069,0.43783
786.32090,0.48652
784.83111,0.53525
783.34132,0.58445
781.85154,0.63551
780.36175,0.64563
778.87196,0.65761
777.38217,0.66961
775.89238,0.69439
774.40259,0.78292
772.91281,0.72673
771.42302,0.77117
769.93323,0.81564
768.44344,0.78049
766.95365,0.71896
765.46386,0.68569
763.97407,0.74803
762.48429,0.66838
760.99450,0.58877
759.50471,0.48916
758.01492,0.43237
756.52513,0.35375
755.03534,0.32933
753.54556,0.30495
752.05577,0.23280
750.56598,0.20619
749.07619,0.07857
747.58640,0.07342
746.09661,0.06830
744.60683,0.07186
743.11704,0.05086
741.62725,0.01534
740.13746,0.02991
738.64767,0.04451
737.15788,0.04093
735.66809,0.03375
734.17831,0.02113
732.68852,0.04359
731.19873,0.06608
729.70894,0.01349
728.21915,0.02375
726.72936,0.06135
725.23958,0.06894
723.74979,0.04196
722.26000,0.01502
720.77021,0.05183
719.28042,0.07410
717.79063,0.04997
716.30084,0.05456
714.81106,0.05917
713.32127,0.01055
711.83148,0.04239
710.34169,0.00963
708.85190,0.01550
707.36211,0.02140
705.87233,0.06603
704.38254,0.06880
702.89275,0.04521
701.40296,0.05351
699.91317,0.06184
698.42338,0.04471
696.93360,0.12137
695.44381,0.12615
693.95402,0.15371
692.46423,0.18131
690.97444,0.19801
689.48465,0.17924
687.99486,0.20055
686.50508,0.21279
685.01529,0.22506
683.52550,0.26285
682.03571,0.17504
680.54592,0.17192
679.05613,0.19842
677.56635,0.22495
676.07656,0.19097
674.58677,0.16795
673.09698,0.09033
671.60719,0.12244
670.11740,0.15458
668.62761,0.07614
667.13783,0.05873
665.64804,0.08550
664.15825,0.11230
662.66846,0.03398
661.17867,0.04400
659.68888,0.06861
658.19910,0.07232
656.70931,0.07605
655.21952,0.11714
653.72973,0.08725
652.23994,0.08834
650.75015,0.08901
649.26037,0.08971
647.77058,0.14824
646.28079,0.06661
644.79100,0.07059
643.30121,0.07960
641.81142,0.08864
640.32163,0.06084
638.83185,0.01395
637.34206,0.05257
635.85227,0.03841
634.36248,0.02428
632.87269,0.03294
631.38290,0.07168
629.89312,0.06492
628.40333,0.03726
626.91354,0.00963
625.42375,0.10279
623.93396,0.04668
622.44417,0.04250
620.95438,0.03834
619.46460,0.04787
617.97481,0.10932
616.48502,0.04517
614.99523,0.05843
613.50544,0.07172
612.01565,0.11963
610.52587,0.14573
609.03608,0.09356
607.54629,0.10743
606.05650,0.12132
604.56671,0.10111
603.07692,0.17833
601.58714,0.17001
600.09735,0.16172
598.60756,0.09975
597.11777,0.08424
595.62798,0.09243
594.13819,0.07561
592.64840,0.05882
591.15862,0.08258
589.66883,0.04537
588.17904,0.06736
586.68925,0.06435
585.19946,0.06136
583.70967,0.07525
582.21989,0.04183
580.73010,0.06443
579.24031,0.08706
577.75052,0.09469
576.26073,0.12967
574.77094,0.11552
573.28115,0.12734
571.79137,0.13919
570.30158,0.14515
568.81179,0.24583
567.32200,0.22909
565.83221,0.21239
564.34242,0.25215
562.85264,0.26919
561.36285,0.29992
559.87306,0.31929
558.38327,0.33870
556.89348,0.42413
555.40369,0.40035
553.91391,0.43851
552.42412,0.47669
550.93433,0.56316
549.44454,0.47760
547.95475,0.53317
546.46496,0.52186
544.97517,0.51058
543.48539,0.51436
541.99560,0.58735
540.50581,0.56887
539.01602,0.55043
537.52623,0.58528
536.03644,0.55825
534.54666,0.55583
533.05687,0.51384
531.56708,0.47187
530.07729,0.41219
528.58750,0.47179
527.09771,0.45769
525.60792,0.44361
524.11814,0.37040
522.62835,0.39188
521.13856,0.35514
519.64877,0.32662
518.15898,0.29813
516.66919,0.34522
515.17941,0.24578
513.68962,0.24560
512.19983,0.24545
510.71004,0.21438
509.22025,0.24706
507.73046,0.25792
506.24068,0.29340
504.75089,0.32890
503.26110,0.33803
501.77131,0.29530
500.28152,0.32725
498.79173,0.35923
497.30194,0.35301
495.81216,0.31404
494.32237,0.31653
492.83258,0.31904
491.34279,0.34571
489.85300,0.23859
488.36321,0.24620
486.87343,0.20787
485.38364,0.16956
483.89385,0.14995
482.40406,0.12309
480.91427,0.07623
479.42448,0.02940
477.93469,0.01901
476.44491,0.03050
474.95512,0.03474
473.46533,0.03901
471.97554,0.00963
470.48575,0.02356
468.99596,0.02568
467.50618,0.02510
466.01639,0.02456
464.52660,0.01767
463.03681,0.00443
461.54702,0.01985
460.05723,0.03529
458.56745,0.03437
457.07766,0.08082
455.58787,0.06631
454.09808,0.05183
452.60829,0.12932
451.11850,0.11308
449.62871,0.10688
448.13893,0.10071
446.64914,0.14920
445.15935,0.31423
443.66956,0.37188
442.17977,0.38859
440.68998,0.40533
439.20020,0.46033
437.71041,0.50626
436.22062,0.55086
434.73083,0.59548
433.24104,0.73072
431.75125,0.80954
430.26146,0.83514
428.77168,0.86077
427.28189,0.91783
425.79210,0.96127
424.30231,1.02795
422.81252,1.09467
421.32273,1.11908
419.83295,1.02609
418.34316,0.95224
416.85337,0.87842
415.36358,0.65352
413.87379,0.58887
412.38400,0.54017
410.89422,0.49151
409.40443,0.48612
407.91464,0.51626
406.42485,0.48544
404.93506,0.48560
403.44527,0.48580
401.95548,0.39771
400.46570,0.38431
398.97591,0.36274
397.48612,0.34121
395.99633,0.39526
394.50654,0.34556
393.01675,0.36644
391.52697,0.38736
390.03718,0.37689
388.54739,0.34825
387.05760,0.30189
385.56781,0.25556
384.07802,0.25978
382.58824,0.26676
381.09845,0.25648
379.60866,0.24622
378.11887,0.25967
376.62908,0.24310
375.13929,0.25570
373.64950,0.26832
372.15972,0.23910
370.66993,0.07973
369.18014,0.09563
367.69035,0.11156
366.20056,0.00963
364.71077,0.02174
363.22099,0.07076
361.73120,0.11980
360.24141,0.15294
358.75162,0.11056
357.26183,0.14149
355.77204,0.17244
354.28225,0.11649
352.79247,0.08333
351.30268,0.07068
349.81289,0.05806
348.32310,0.11602
346.83331,0.13123
345.34352,0.07591
343.85374,0.02062
342.36395,0.05171
340.87416,0.08010
339.38437,0.10397
337.89458,0.12787
336.40479,0.19640
334.91501,0.15299
333.42522,0.12145
331.93543,0.08993
330.44564,0.12217
328.95585,0.11347
327.46606,0.12074
325.97627,0.12803
324.48649,0.03476
322.99670,0.02758
321.50691,0.05456
320.01712,0.08157
318.52733,0.05717
317.03754,0.14933
315.54776,0.14137
314.05797,0.13345
312.56818,0.08824
311.07839,0.05033
309.58860,0.04523
308.09881,0.04016
306.60902,0.00963
305.11924,0.04671
303.62945,0.04331
302.13966,0.03994
300.64987,0.02067
299.16008,0.00963
