1778.52000,0.03225
1777.03021,0.06044
1775.54042,0.04753
1774.05063,0.01460
1772.56085,0.00977
1771.07106,0.02704
1769.58127,0.04234
1768.09148,0.00551
1766.60169,0.02387
1765.11190,0.05029
1763.62212,0.01957
1762.13233,0.02298
1760.64254,0.00335
1759.15275,0.02788
1757.66296,0.04241
1756.17317,0.00782
1754.68339,0.05952
1753.19360,0.02299
1751.70381,0.00654
1750.21402,0.01119
1748.72423,0.00584
1747.23444,0.01657
1745.74465,0.04337
1744.25487,0.02206
1742.76508,0.03789
1741.27529,0.03569
1739.78550,0.04857
1738.29571,0.06549
1736.80592,0.03831
1735.31614,0.00816
1733.82635,0.03921
1732.33656,0.06628
1730.84677,0.01314
1729.35698,0.05331
1727.86719,0.04837
1726.37740,0.00335
1724.88762,0.04632
1723.39783,0.01309
1721.90804,0.02202
1720.41825,0.03399
1718.92846,0.04599
1717.43867,0.06002
1715.94889,0.05001
1714.45910,0.03602
1712.96931,0.07622
1711.47952,0.04122
1709.98973,0.03334
1708.49994,0.06059
1707.01016,0.07132
1705.52037,0.08208
1704.03058,0.09036
1702.54079,0.09466
1701.05100,0.10400
1699.56121,0.10937
1698.07142,0.12780
1696.58164,0.11717
1695.09185,0.12864
1693.60206,0.15618
1692.11227,0.13361
1690.62248,0.18629
1689.13269,0.17280
1687.64291,0.19545
1686.15312,0.19406
1684.66333,0.14356
1683.17354,0.20140
1681.68375,0.16599
1680.19396,0.20183
1678.70417,0.18053
1677.21439,0.18232
1675.72460,0.16108
1674.23481,0.15591
1672.74502,0.18087
1671.25523,0.19883
1669.76544,0.18172
1668.27566,0.16162
1666.78587,0.13855
1665.29608,0.13256
1663.80629,0.20182
1662.31650,0.18285
1660.82671,0.15589
1659.33693,0.16305
1657.84714,0.11609
1656.35735,0.11128
1654.86756,0.12756
1653.37777,0.14387
1651.88798,0.11809
1650.39819,0.08732
1648.90841,0.11375
1647.41862,0.07301
1645.92883,0.07493
1644.43904,0.07688
1642.94925,0.09941
1641.45946,0.12699
1639.96968,0.10847
1638.47989,0.08897
1636.99010,0.11062
1635.50031,0.13832
1634.01052,0.14800
1632.52073,0.13464
1631.03094,0.13735
1629.54116,0.11302
1628.05137,0.14889
1626.56158,0.14467
1625.07179,0.19966
1623.58200,0.16742
1622.09221,0.15928
1620.60243,0.13612
1619.11264,0.14509
1617.62285,0.16212
1616.13306,0.12902
1614.64327,0.11602
1613.15348,0.16121
1611.66370,0.13121
1610.17391,0.12732
1608.68412,0.16258
1607.19433,0.15774
1605.70454,0.10480
1604.21475,0.12259
1602.72496,0.14041
1601.23518,0.11965
1599.74539,0.08187
1598.25560,0.13237
1596.76581,0.16185
1595.27602,0.12816
1593.78623,0.10454
1592.29645,0.12508
1590.80666,0.07644
1589.31687,0.06895
1587.82708,0.05748
1586.33729,0.07413
1584.84750,0.08980
1583.35771,0.07741
1581.86793,0.08612
1580.37814,0.06377
1578.88835,0.08156
1577.39856,0.07632
1575.90877,0.04102
1574.41898,0.05689
1572.92920,0.06177
1571.43941,0.00850
1569.94962,0.03049
1568.45983,0.05250
1566.97004,0.04546
1565.48025,0.03845
1563.99047,0.02946
1562.50068,0.02351
1561.01089,0.08378
1559.52110,0.04780
1558.03131,0.06501
1556.54152,0.04413
1555.05173,0.06341
1553.56195,0.04460
1552.07216,0.03284
1550.58237,0.04518
1549.09258,0.05153
1547.60279,0.05089
1546.11300,0.09040
1544.62322,0.04368
1543.13343,0.06319
1541.64364,0.05264
1540.15385,0.04112
1538.66406,0.02963
1537.17427,0.02218
1535.68448,0.01776
1534.19470,0.05651
1532.70491,0.00000
1531.21512,0.02777
1529.72533,0.02247
1528.23554,0.03425
1526.74575,0.03604
1525.25597,0.05590
1523.76618,0.04771
1522.27639,0.08770
1520.78660,0.00335
1519.29681,0.03571
1517.80702,0.03902
1516.31724,0.04939
1514.82745,0.04473
1513.33766,0.06267
1511.84787,0.08065
1510.35808,0.08009
1508.86829,0.00335
1507.37850,0.02367
1505.88872,0.01896
1504.39893,0.02229
1502.90914,0.02164
1501.41935,0.03206
1499.92956,0.07961
1498.43977,0.09811
1496.94999,0.10460
1495.46020,0.12416
1493.97041,0.16983
1492.48062,0.19346
1490.99083,0.17701
1489.50104,0.27391
1488.01125,0.28760
1486.52147,0.30132
1485.03168,0.38929
1483.54189,0.44519
1482.05210,0.53322
1480.56231,0.64234
1479.07252,0.73645
1477.58274,0.80851
1476.09295,0.87760
1474.60316,0.91764
1473.11337,0.93664
1471.62358,0.96069
1470.13379,0.96170
1468.64401,0.94769
1467.15422,0.89861
1465.66443,0.86461
1464.17464,0.83063
1462.68485,0.82076
1461.19506,0.75074
1459.70527,0.72186
1458.21549,0.64789
1456.72570,0.61206
1455.23591,0.55419
1453.74612,0.48833
1452.25633,0.48668
1450.76654,0.43091
1449.27676,0.44637
1447.78697,0.42075
1446.29718,0.43627
1444.80739,0.39215
1443.31760,0.34806
1441.82781,0.28043
1440.33802,0.21885
1438.84824,0.20844
1437.35845,0.18002
1435.86866,0.21079
1434.37887,0.20148
1432.88908,0.20624
1431.39929,0.20401
1429.90951,0.18075
1428.41972,0.18158
1426.92993,0.24363
1425.44014,0.20140
1423.95035,0.18728
1422.46056,0.17319
1420.97078,0.26344
1419.48099,0.24439
1417.99120,0.17924
1416.50141,0.22645
1415.01162,0.24661
1413.52183,0.30792
1412.03204,0.28200
1410.54226,0.22703
1409.05247,0.22023
1407.56268,0.27063
1406.07289,0.27692
1404.58310,0.29278
1403.09331,0.30866
1401.60353,0.34012
1400.11374,0.35857
1398.62395,0.41717
1397.13416,0.40759
1395.64437,0.41008
1394.15458,0.48582
1392.66479,0.51244
1391.17501,0.48594
1389.68522,0.47451
1388.19543,0.44505
1386.70564,0.45575
1385.21585,0.46647
1383.72606,0.46820
1382.23628,0.50004
1380.74649,0.45670
1379.25670,0.50966
1377.76691,0.53959
1376.27712,0.57456
1374.78733,0.58048
1373.29755,0.65663
1371.80776,0.75788
1370.31797,0.87822
1368.82818,0.95446
1367.33839,1.03073
1365.84860,1.11907
1364.35881,1.44012
1362.86903,1.57364
1361.37924,1.76337
1359.88945,1.74751
1358.39966,1.84502
1356.90987,1.81720
1355.42008,1.69011
1353.93030,1.70045
1352.44051,1.68374
1350.95072,1.66707
1349.46093,1.49296
1347.97114,1.36802
1346.48135,1.10973
1344.99156,0.95577
1343.50178,0.90714
1342.01199,0.77831
1340.52220,0.69264
1339.03241,0.57791
1337.54262,0.56451
1336.05283,0.54412
1334.56305,0.52376
1333.07326,0.41316
1331.58347,0.43097
1330.09368,0.38663
1328.60389,0.32025
1327.11410,0.31207
1325.62432,0.30191
1324.13453,0.33993
1322.64474,0.34989
1321.15495,0.36691
1319.66516,0.34885
1318.17537,0.33082
1316.68558,0.33187
1315.19580,0.28081
1313.70601,0.25785
1312.21622,0.19079
1310.72643,0.24813
1309.23664,0.17311
1307.74685,0.20845
1306.25707,0.15154
1304.76728,0.17189
1303.27749,0.19227
1301.78770,0.20465
1300.29791,0.18397
1298.80812,0.17134
1297.31834,0.23897
1295.82855,0.21437
1294.33876,0.26100
1292.84897,0.19533
1291.35918,0.18787
1289.86939,0.21252
1288.37960,0.23721
1286.88982,0.20777
1285.40003,0.24254
1283.91024,0.28136
1282.42045,0.23095
1280.93066,0.25277
1279.44087,0.28466
1277.95109,0.29351
1276.46130,0.25524
1274.97151,0.27819
1273.48172,0.30117
1271.99193,0.28205
1270.50214,0.35122
1269.01235,0.35624
1267.52257,0.35426
1266.03278,0.34128
1264.54299,0.42361
1263.05320,0.41570
1261.56341,0.41234
1260.07362,0.40901
1258.58384,0.43629
1257.09405,0.46261
1255.60426,0.41774
1254.11447,0.43208
1252.62468,0.45246
1251.13489,0.43677
1249.64511,0.40105
1248.15532,0.31521
1246.66553,0.29860
1245.17574,0.28203
1243.68595,0.28253
1242.19616,0.27103
1240.70637,0.26457
1239.21659,0.24811
1237.72680,0.16448
1236.23701,0.25039
1234.74722,0.19490
1233.25743,0.16904
1231.76764,0.14320
1230.27786,0.14999
1228.78807,0.21197
1227.29828,0.10548
1225.80849,0.12339
1224.31870,0.11625
1222.82891,0.09511
1221.33912,0.03989
1219.84934,0.05341
1218.35955,0.06695
1216.86976,0.11111
1215.37997,0.15430
1213.89018,0.15640
1212.40039,0.09234
1210.91061,0.05639
1209.42082,0.06359
1207.93103,0.07383
1206.44124,0.08410
1204.95145,0.12249
1203.46166,0.06562
1201.97188,0.05492
1200.48209,0.08236
1198.99230,0.06469
1197.50251,0.04405
1196.01272,0.10969
1194.52293,0.07206
1193.03314,0.03446
1191.54336,0.04202
1190.05357,0.04258
1188.56378,0.05121
1187.07399,0.05986
1185.58420,0.00335
1184.09441,0.08358
1182.60463,0.07609
1181.11484,0.06862
1179.62505,0.09679
1178.13526,0.06783
1176.64547,0.06095
1175.15568,0.02603
1173.66589,0.04428
1172.17611,0.03048
1170.68632,0.03626
1169.19653,0.04207
1167.70674,0.02334
1166.21695,0.09190
1164.72716,0.02609
1163.23738,0.02349
1161.74759,0.01090
1160.25780,0.00335
1158.76801,0.03052
1157.27822,0.05772
1155.78843,0.00472
1154.29865,0.06006
1152.80886,0.03921
1151.31907,0.01839
1149.82928,0.07583
1148.33949,0.05607
1146.84970,0.07345
1145.35991,0.09086
1143.87013,0.04411
1142.38034,0.09869
1140.89055,0.07306
1139.40076,0.11667
1137.91097,0.10113
1136.42118,0.10167
1134.93140,0.13332
1133.44161,0.16501
1131.95182,0.21779
1130.46203,0.26759
1128.97224,0.23017
1127.48245,0.31312
1125.99266,0.25770
1124.50288,0.29358
1123.01309,0.32297
1121.52330,0.35239
1120.03351,0.33921
1118.54372,0.44642
1117.05393,0.35006
1115.56415,0.44930
1114.07436,0.40415
1112.58457,0.38259
1111.09478,0.36107
1109.60499,0.36715
1108.11520,0.49262
1106.62542,0.45363
1105.13563,0.45680
1103.64584,0.57333
1102.15605,0.62068
1100.66626,0.65854
1099.17647,0.69643
1097.68668,0.66063
1096.19690,0.69807
1094.70711,0.76363
1093.21732,0.80113
1091.72753,0.85471
1090.23774,0.85366
1088.74795,0.85264
1087.25817,0.83611
1085.76838,0.91187
1084.27859,0.96059
1082.78880,0.97724
1081.29901,1.02601
1079.80922,0.97251
1078.31943,1.02185
1076.82965,1.07121
1075.33986,1.13615
1073.85007,1.19109
1072.36028,1.24105
1070.87049,1.17870
1069.38070,1.20966
1067.89092,1.23463
1066.40113,1.25963
1064.91134,1.14625
1063.42155,1.08406
1061.93176,0.96974
1060.44197,0.93267
1058.95219,0.82443
1057.46240,0.82002
1055.97261,0.81564
1054.48282,0.79775
1052.99303,0.72974
1051.50324,0.63268
1050.01345,0.61187
1048.52367,0.56201
1047.03388,0.54778
1045.54409,0.53357
1044.05430,0.53996
1042.56451,0.43907
1041.07472,0.32015
1039.58494,0.26344
1038.09515,0.27697
1036.60536,0.28050
1035.11557,0.28405
1033.62578,0.26056
1032.13599,0.32034
1030.64620,0.26783
1029.15642,0.32466
1027.66663,0.35996
1026.17684,0.39529
1024.68705,0.43115
1023.19726,0.60544
1021.70747,0.69652
1020.21769,0.81772
1018.72790,0.97907
1017.23811,1.10835
1015.74832,1.23766
1014.25853,1.50641
1012.76874,1.65885
1011.27896,1.81332
1009.78917,1.81939
1008.29938,2.00000
1006.80959,1.93141
1005.31980,1.86285
1003.83001,1.77576
1002.34022,1.67867
1000.85044,1.57961
999.36065,1.49462
997.87086,1.44877
996.38107,1.40295
994.89128,1.40631
993.40149,1.34250
991.91171,1.40408
990.42192,1.37844
988.93213,1.21643
987.44234,1.17230
985.95255,1.12819
984.46276,1.08261
982.97297,1.02603
981.48319,1.02062
979.99340,1.00622
978.50361,0.95073
977.01382,0.89527
975.52403,0.91907
974.03424,0.84863
972.54446,0.78924
971.05467,0.81112
969.56488,0.77186
968.07509,0.74215
966.58530,0.71247
965.09551,0.67931
963.60573,0.69533
962.11594,0.69833
960.62615,0.60609
959.13636,0.55148
957.64657,0.49691
956.15678,0.48599
954.66699,0.51021
953.17721,0.52844
951.68742,0.46947
950.19763,0.45215
948.70784,0.43486
947.21805,0.45321
945.72826,0.41642
944.23848,0.45689
942.74869,0.42618
941.25890,0.49580
939.76911,0.52533
938.27932,0.55488
936.78953,0.53934
935.29974,0.56795
933.80996,0.59158
932.32017,0.61022
930.83038,0.62789
929.34059,0.64559
927.85080,0.62320
926.36101,0.63795
924.87123,0.54241
923.38144,0.58229
921.89165,0.56654
920.40186,0.55082
918.91207,0.54666
917.42228,0.57463
915.93250,0.59560
914.44271,0.56345
912.95292,0.59652
911.46313,0.62962
909.97334,0.65874
908.48355,0.69892
906.99376,0.61175
905.50398,0.62692
904.01419,0.58645
902.52440,0.54601
901.03461,0.52316
899.54482,0.63272
898.05503,0.62396
896.56525,0.72054
895.07546,0.71585
893.58567,0.71120
892.09588,0.62934
890.60609,0.70699
889.11630,0.73151
887.62651,0.63670
886.13673,0.63170
884.64694,0.62672
883.15715,0.67041
881.66736,0.68505
880.17757,0.68868
878.68778,0.70689
877.19800,0.72512
875.70821,0.75091
874.21842,0.78776
872.72863,0.76146
871.23884,0.79435
869.74905,0.81173
868.25927,0.82915
866.76948,0.89021
865.27969,0.88211
863.78990,0.88106
862.30011,0.86198
860.81032,0.88505
859.32053,0.90816
857.83075,0.85808
856.34096,0.78296
854.85117,0.78008
853.36138,0.74312
851.87159,0.67110
850.38180,0.59910
848.89202,0.55121
847.40223,0.45520
845.91244,0.43745
844.42265,0.39366
842.93286,0.34989
841.44307,0.29211
839.95329,0.32664
838.46350,0.26290
836.97371,0.29849
835.48392,0.33561
833.99413,0.37276
832.50434,0.26401
831.01455,0.29470
829.52477,0.27026
828.03498,0.21475
826.54519,0.20290
825.05540,0.19109
823.56561,0.17479
822.07582,0.16554
820.58604,0.18239
819.09625,0.16317
817.60646,0.14398
816.11667,0.11078
814.62688,0.12074
813.13709,0.00335
811.64730,0.00298
810.15752,0.01429
808.66773,0.02562
807.17794,0.04902
805.68815,0.04738
804.19836,0.07084
802.70857,0.08179
801.21879,0.09277
799.72900,0.14540
798.23921,0.23217
796.74942,0.27282
795.25963,0.33357
793.76984,0.39435
792.28006,0.34784
790.79027,0.41669
789.30048,0.49962
787.81069,0.60164
786.32090,0.57380
784.83111,0.54600
783.34132,0.57488
781.85154,0.59177
780.36175,0.60367
778.87196,0.63214
777.38217,0.66065
775.89238,0.67264
774.40259,0.71675
772.91281,0.79098
771.42302,0.80105
769.93323,0.81115
768.44344,0.87644
766.95365,0.69002
765.46386,0.82157
763.97407,0.69539
762.48429,0.64897
760.99450,0.60258
759.50471,0.47448
758.01492,0.44370
756.52513,0.45507
755.03534,0.38172
753.54556,0.30840
752.05577,0.20753
750.56598,0.14079
749.07619,0.17036
747.58640,0.14581
746.09661,0.12128
744.60683,0.09477
743.11704,0.04623
741.62725,0.04587
740.13746,0.05706
738.64767,0.06829
737.15788,0.00783
735.66809,0.01961
734.17831,0.00335
732.68852,0.04099
731.19873,0.07865
729.70894,0.04013
728.21915,0.06582
726.72936,0.07048
725.23958,0.06414
723.74979,0.05833
722.26000,0.05254
720.77021,0.06334
719.28042,0.02502
717.79063,0.01381
716.30084,0.03974
714.81106,0.06570
713.32127,0.10072
711.83148,0.04048
710.34169,0.00335
708.85190,0.02056
707.36211,0.03780
705.87233,0.03902
704.38254,0.05030
702.89275,0.05460
701.40296,0.07496
699.91317,0.09536
698.42338,0.13785
696.93360,0.13223
695.44381,0.16375
693.95402,0.16873
692.46423,0.17373
690.97444,0.15820
689.48465,0.17178
687.99486,0.21448
686.50508,0.21007
685.01529,0.20569
683.52550,0.23243
682.03571,0.19602
680.54592,0.18571
679.05613,0.16190
677.56635,0.13811
676.07656,0.17302
674.58677,0.19292
673.09698,0.12158
671.60719,0.12499
670.11740,0.12843
668.62761,0.07022
667.13783,0.08826
665.64804,0.09229
664.15825,0.09635
662.66846,0.12150
661.17867,0.11660
659.68888,0.05154
658.19910,0.04770
656.70931,0.04388
655.21952,0.06918
653.72973,0.11357
652.23994,0.08777
650.75015,0.07806
649.26037,0.06838
647.77058,0.07176
646.28079,0.06113
644.79100,0.07761
643.30121,0.04046
641.81142,0.00335
640.32163,0.07348
638.83185,0.10352
637.34206,0.03731
635.85227,0.02479
634.36248,0.01230
632.87269,0.00335
631.38290,0.07299
629.89312,0.03032
628.40333,0.02931
626.91354,0.02833
625.42375,0.03691
623.93396,0.03850
622.44417,0.07171
620.95438,0.10495
619.46460,0.15476
617.97481,0.10833
616.48502,0.09903
614.99523,0.07572
613.50544,0.05244
612.01565,0.10642
610.52587,0.07818
609.03608,0.13824
607.54629,0.12511
606.05650,0.11200
604.56671,0.17114
603.07692,0.12200
601.58714,0.15612
600.09735,0.19028
598.60756,0.13520
597.11777,0.09420
595.62798,0.11540
594.13819,0.10204
592.64840,0.08870
591.15862,0.09194
589.66883,0.09220
588.17904,0.10955
586.68925,0.10686
585.19946,0.10420
583.70967,0.12063
582.21989,0.08995
580.73010,0.10042
579.24031,0.11092
577.75052,0.08033
576.26073,0.09691
574.77094,0.14160
573.28115,0.12113
571.79137,0.10068
570.30158,0.19661
568.81179,0.19127
567.32200,0.21254
565.83221,0.23384
564.34242,0.29880
562.85264,0.29157
561.36285,0.34355
559.87306,0.32184
558.38327,0.30016
556.89348,0.36727
555.40369,0.42137
553.91391,0.44742
552.42412,0.47349
550.93433,0.50462
549.44454,0.54680
547.95475,0.50577
546.46496,0.54049
544.97517,0.57524
543.48539,0.59950
541.99560,0.60271
540.50581,0.60696
539.01602,0.61124
537.52623,0.56140
536.03644,0.55571
534.54666,0.57612
533.05687,0.62164
531.56708,0.66719
530.07729,0.61749
528.58750,0.55378
527.09771,0.50263
525.60792,0.45152
524.11814,0.42200
522.62835,0.42058
521.13856,0.47136
519.64877,0.45697
518.15898,0.44261
516.66919,0.36409
515.17941,0.35079
513.68962,0.34053
512.19983,0.33030
510.71004,0.29202
509.22025,0.24975
507.73046,0.27472
506.24068,0.29620
504.75089,0.31771
503.26110,0.38990
501.77131,0.29964
500.28152,0.31522
498.79173,0.33084
497.30194,0.27276
495.81216,0.28091
494.32237,0.30163
492.83258,0.32237
491.34279,0.39480
489.85300,0.30779
488.36321,0.21981
486.87343,0.21911
485.38364,0.21844
483.89385,0.25390
482.40406,0.28940
480.91427,0.24419
479.42448,0.19901
477.93469,0.06509
476.44491,0.09870
474.95512,0.09573
473.46533,0.09280
471.97554,0.08838
470.48575,0.08299
468.99596,0.09770
467.50618,0.09136
466.01639,0.08506
464.52660,0.08481
463.03681,0.00335
461.54702,0.04479
460.05723,0.08626
458.56745,0.05053
457.07766,0.07902
455.58787,0.11557
454.09808,0.15214
452.60829,0.20178
451.11850,0.17323
449.62871,0.15222
448.13893,0.13124
446.64914,0.23316
445.15935,0.27994
443.66956,0.32474
442.17977,0.34802
440.68998,0.37132
439.20020,0.40618
437.71041,0.60656
436.22062,0.67057
434.73083,0.73461
433.24104,0.76659
431.75125,0.84272
430.26146,0.90284
428.77168,0.96298
427.28189,0.92688
425.79210,1.09540
424.30231,1.06487
422.81252,1.03437
421.32273,1.12776
419.83295,0.97345
418.34316,0.94505
416.85337,0.91667
415.36358,0.72535
413.87379,0.69252
412.38400,0.60004
410.89422,0.50759
409.40443,0.53603
407.91464,0.48326
406.42485,0.40244
404.93506,0.43197
403.44527,0.46153
401.95548,0.41690
400.46570,0.42947
398.97591,0.41498
397.48612,0.40053
395.99633,0.46334
394.50654,0.47502
393.01675,0.44662
391.52697,0.41824
390.03718,0.34677
388.54739,0.31144
387.05760,0.33480
385.56781,0.35820
384.07802,0.37411
382.58824,0.27370
381.09845,0.27462
379.60866,0.27557
378.11887,0.28758
376.62908,0.15519
375.13929,0.17278
373.64950,0.19039
372.15972,0.16441
370.66993,0.14949
369.18014,0.13861
367.69035,0.12776
366.20056,0.09488
364.71077,0.06303
363.22099,0.10843
361.73120,0.15387
360.24141,0.12411
358.75162,0.10943
357.26183,0.13489
355.77204,0.16038
354.28225,0.04550
352.79247,0.09713
351.30268,0.09212
349.81289,0.08714
348.32310,0.07868
346.83331,0.01810
345.34352,0.04158
343.85374,0.06509
342.36395,0.10669
340.87416,0.06005
339.38437,0.07312
337.89458,0.08622
336.40479,0.13696
334.91501,0.09646
333.42522,0.07304
331.93543,0.04965
330.44564,0.07744
328.95585,0.12933
327.46606,0.12458
325.97627,0.11986
324.48649,0.03845
322.99670,0.11359
321.50691,0.10000
320.01712,0.08644
318.52733,0.09347
317.03754,0.11257
315.54776,0.06449
314.05797,0.01645
312.56818,0.09080
311.07839,0.06789
309.58860,0.04902
308.09881,0.03018
306.60902,0.00335
305.11924,0.11499
303.62945,0.07021
302.13966,0.02545
300.64987,0.05701
299.16008,0.00335
