1778.52000,0.01763
1777.03021,0.03146
1775.54042,0.03723
1774.05063,0.07057
1772.56085,0.04561
1771.07106,0.02148
1769.58127,0.04114
1768.09148,0.00411
1766.60169,0.02707
1765.11190,0.02494
1763.62212,0.02447
1762.13233,0.05562
1760.64254,0.03576
1759.15275,0.04671
1757.66296,0.04312
1756.17317,0.04522
1754.68339,0.02224
1753.19360,0.02926
1751.70381,0.01687
1750.21402,0.01018
1748.72423,0.02378
1747.23444,0.00581
1745.74465,0.00812
1744.25487,0.05099
1742.76508,0.04850
1741.27529,0.05577
1739.78550,0.07279
1738.29571,0.02745
1736.80592,0.06317
1735.31614,0.00411
1733.82635,0.03320
1732.33656,0.01532
1730.84677,0.02826
1729.35698,0.03313
1727.86719,0.02101
1726.37740,0.01622
1724.88762,0.03982
1723.39783,0.02941
1721.90804,0.01985
1720.41825,0.04353
1718.92846,0.01215
1717.43867,0.02374
1715.94889,0.02970
1714.45910,0.01704
1712.96931,0.03926
1711.47952,0.05664
1709.98973,0.02301
1708.49994,0.04532
1707.01016,0.03119
1705.52037,0.01710
1704.03058,0.07029
1702.54079,0.06760
1701.05100,0.08114
1699.56121,0.10849
1698.07142,0.11562
1696.58164,0.09279
1695.09185,0.12023
1693.60206,0.17606
1692.11227,0.16386
1690.62248,0.14763
1689.13269,0.15494
1687.64291,0.14039
1686.15312,0.18908
1684.66333,0.17136
1683.17354,0.19094
1681.68375,0.15706
1680.19396,0.15888
1678.70417,0.15505
1677.21439,0.13261
1675.72460,0.15963
1674.23481,0.16400
1672.74502,0.15543
1671.25523,0.17444
1669.76544,0.16755
1668.27566,0.16960
1666.78587,0.12225
1665.29608,0.14381
1663.80629,0.12813
1662.31650,0.13760
1660.82671,0.11711
1659.33693,0.14771
1657.84714,0.13134
1656.35735,0.12472
1654.86756,0.12623
1653.37777,0.12777
1651.88798,0.11233
1650.39819,0.13825
1648.90841,0.14231
1647.41862,0.10508
1645.92883,0.10475
1644.43904,0.10445
1642.94925,0.10783
1641.45946,0.14446
1639.96968,0.13006
1638.47989,0.09220
1636.99010,0.13460
1635.50031,0.12516
1634.01052,0.12223
1632.52073,0.12015
1631.03094,0.09864
1629.54116,0.11850
1628.05137,0.13433
1626.56158,0.14047
1625.07179,0.14745
1623.58200,0.14635
1622.09221,0.15825
1620.60243,0.17018
1619.11264,0.19106
1617.62285,0.15767
1616.13306,0.13080
1614.64327,0.13718
1613.15348,0.14926
1611.66370,0.11356
1610.17391,0.14272
1608.68412,0.15327
1607.19433,0.15980
1605.70454,0.15177
1604.21475,0.14418
1602.72496,0.13662
1601.23518,0.11896
1599.74539,0.15887
1598.25560,0.12344
1596.76581,0.08805
1595.27602,0.11588
1593.78623,0.06677
1592.29645,0.08495
1590.80666,0.06507
1589.31687,0.08087
1587.82708,0.11373
1586.33729,0.11987
1584.84750,0.08552
1583.35771,0.08524
1581.86793,0.03718
1580.37814,0.06289
1578.88835,0.07567
1577.39856,0.08685
1575.90877,0.06322
1574.41898,0.05826
1572.92920,0.05495
1571.43941,0.03141
1569.94962,0.03140
1568.45983,0.03142
1566.97004,0.01283
1565.48025,0.00886
1563.99047,0.00411
1562.50068,0.04847
1561.01089,0.03209
1559.52110,0.03356
1558.03131,0.05614
1556.54152,0.01553
1555.05173,0.05032
1553.56195,0.00411
1552.07216,0.04648
1550.58237,0.05079
1549.09258,0.03569
1547.60279,0.09030
1546.11300,0.07364
1544.62322,0.06754
1543.13343,0.07930
1541.64364,0.06839
1540.15385,0.04334
1538.66406,0.01832
1537.17427,0.01480
1535.68448,0.03400
1534.19470,0.02974
1532.70491,0.02145
1531.21512,0.02048
1529.72533,0.01711
1528.23554,0.00000
1526.74575,0.02586
1525.25597,0.03312
1523.76618,0.06391
1522.27639,0.06393
1520.78660,0.02752
1519.29681,0.00411
1517.80702,0.04943
1516.31724,0.02672
1514.82745,0.03159
1513.33766,0.02068
1511.84787,0.00981
1510.35808,0.03827
1508.86829,0.03353
1507.37850,0.02801
1505.88872,0.00470
1504.39893,0.00411
1502.90914,0.02132
1501.41935,0.04262
1499.92956,0.04532
1498.43977,0.05695
1496.94999,0.08401
1495.46020,0.14838
1493.97041,0.15605
1492.48062,0.21319
1490.99083,0.23307
1489.50104,0.29594
1488.01125,0.33574
1486.52147,0.37558
1485.03168,0.46608
1483.54189,0.56391
1482.05210,0.55238
1480.56231,0.68431
1479.07252,0.82923
1477.58274,0.82751
1476.09295,0.88497
1474.60316,0.97731
1473.11337,0.98136
1471.62358,1.06403
1470.13379,1.02114
1468.64401,0.97746
1467.15422,0.90951
1465.66443,0.89709
1464.17464,0.88470
1462.68485,0.91165
1461.19506,0.81626
1459.70527,0.77601
1458.21549,0.73741
1456.72570,0.62266
1455.23591,0.63841
1453.74612,0.54156
1452.25633,0.54197
1450.76654,0.48894
1449.27676,0.52831
1447.78697,0.47452
1446.29718,0.45317
1444.80739,0.40998
1443.31760,0.36682
1441.82781,0.29533
1440.33802,0.21414
1438.84824,0.21725
1437.35845,0.18961
1435.86866,0.15551
1434.37887,0.20247
1432.88908,0.16600
1431.39929,0.19115
1429.90951,0.18310
1428.41972,0.16455
1426.92993,0.18735
1425.44014,0.21748
1423.95035,0.19578
1422.46056,0.17411
1420.97078,0.15976
1419.48099,0.24835
1417.99120,0.27377
1416.50141,0.27328
1415.01162,0.25419
1413.52183,0.28537
1412.03204,0.31739
1410.54226,0.26436
1409.05247,0.26402
1407.56268,0.22726
1406.07289,0.28857
1404.58310,0.25632
1403.09331,0.22410
1401.60353,0.29360
1400.11374,0.32587
1398.62395,0.41326
1397.13416,0.40182
1395.64437,0.39771
1394.15458,0.47547
1392.66479,0.46007
1391.17501,0.48846
1389.68522,0.45935
1388.19543,0.45214
1386.70564,0.46401
1385.21585,0.47591
1383.72606,0.49878
1382.23628,0.42525
1380.74649,0.52030
1379.25670,0.45493
1377.76691,0.48521
1376.27712,0.51795
1374.78733,0.53857
1373.29755,0.59893
1371.80776,0.68119
1370.31797,0.81210
1368.82818,0.87822
1367.33839,0.94437
1365.84860,1.18395
1364.35881,1.34092
1362.86903,1.51736
1361.37924,1.57471
1359.88945,1.65884
1358.39966,1.64737
1356.90987,1.74047
1355.42008,1.71610
1353.93030,1.72256
1352.44051,1.64315
1350.95072,1.56377
1349.46093,1.35558
1347.97114,1.22034
1346.48135,1.01383
1344.99156,0.92404
1343.50178,0.81564
1342.01199,0.70970
1340.52220,0.61756
1339.03241,0.56030
1337.54262,0.51604
1336.05283,0.52650
1334.56305,0.53699
1333.07326,0.47175
1331.58347,0.43409
1330.09368,0.40456
1328.60389,0.37344
1327.11410,0.32938
1325.62432,0.35181
1324.13453,0.27540
1322.64474,0.30193
1321.15495,0.36658
1319.66516,0.36401
1318.17537,0.36146
1316.68558,0.29493
1315.19580,0.30460
1313.70601,0.24623
1312.21622,0.23002
1310.72643,0.24789
1309.23664,0.20257
1307.74685,0.26506
1306.25707,0.21495
1304.76728,0.18998
1303.27749,0.16505
1301.78770,0.24549
1300.29791,0.24897
1298.80812,0.22575
1297.31834,0.28845
1295.82855,0.24908
1294.33876,0.24134
1292.84897,0.20852
1291.35918,0.26729
1289.86939,0.25397
1288.37960,0.24068
1286.88982,0.28009
1285.40003,0.28064
1283.91024,0.29661
1282.42045,0.34098
1280.93066,0.27679
1279.44087,0.30987
1277.95109,0.30732
1276.46130,0.29022
1274.97151,0.28652
1273.48172,0.28286
1271.99193,0.32986
1270.50214,0.33881
1269.01235,0.35590
1267.52257,0.37220
1266.03278,0.40799
1264.54299,0.43570
1263.05320,0.40185
1261.56341,0.47014
1260.07362,0.53845
1258.58384,0.47553
1257.09405,0.50906
1255.60426,0.47293
1254.11447,0.44494
1252.62468,0.46722
1251.13489,0.38094
1249.64511,0.40247
1248.15532,0.37703
1246.66553,0.36053
1245.17574,0.34407
1243.68595,0.34951
1242.19616,0.33634
1240.70637,0.31510
1239.21659,0.29228
1237.72680,0.22410
1236.23701,0.20619
1234.74722,0.26368
1233.25743,0.22192
1231.76764,0.18020
1230.27786,0.18592
1228.78807,0.13494
1227.29828,0.15935
1225.80849,0.18460
1224.31870,0.14343
1222.82891,0.12337
1221.33912,0.14385
1219.84934,0.13640
1218.35955,0.12898
1216.86976,0.06609
1215.37997,0.14666
1213.89018,0.15675
1212.40039,0.16931
1210.91061,0.10978
1209.42082,0.13212
1207.93103,0.12248
1206.44124,0.11288
1204.95145,0.07696
1203.46166,0.06863
1201.97188,0.07087
1200.48209,0.08853
1198.99230,0.09163
1197.50251,0.08261
1196.01272,0.07767
1194.52293,0.06466
1193.03314,0.05168
1191.54336,0.07438
1190.05357,0.08091
1188.56378,0.06397
1187.07399,0.00411
1185.58420,0.05666
1184.09441,0.05251
1182.60463,0.05447
1181.11484,0.05646
1179.62505,0.05646
1178.13526,0.03299
1176.64547,0.09544
1175.15568,0.06797
1173.66589,0.12319
1172.17611,0.11767
1170.68632,0.10812
1169.19653,0.09860
1167.70674,0.04698
1166.21695,0.02942
1164.72716,0.04106
1163.23738,0.05031
1161.74759,0.08794
1160.25780,0.05591
1158.76801,0.03000
1157.27822,0.00411
1155.78843,0.01634
1154.29865,0.04725
1152.80886,0.04658
1151.31907,0.11239
1149.82928,0.12637
1148.33949,0.14118
1146.84970,0.12726
1145.35991,0.11338
1143.87013,0.09587
1142.38034,0.06948
1140.89055,0.11119
1139.40076,0.15617
1137.91097,0.20929
1136.42118,0.19680
1134.93140,0.24997
1133.44161,0.30317
1131.95182,0.28105
1130.46203,0.35214
1128.97224,0.36330
1127.48245,0.28616
1125.99266,0.32169
1124.50288,0.32402
1123.01309,0.32801
1121.52330,0.33202
1120.03351,0.35876
1118.54372,0.40740
1117.05393,0.42285
1115.56415,0.46102
1114.07436,0.41009
1112.58457,0.43090
1111.09478,0.45173
1109.60499,0.44789
1108.11520,0.54455
1106.62542,0.50025
1105.13563,0.60670
1103.64584,0.71723
1102.15605,0.75486
1100.66626,0.77347
1099.17647,0.79212
1097.68668,0.78528
1096.19690,0.81978
1094.70711,0.83812
1093.21732,0.91888
1091.72753,0.92187
1090.23774,0.92531
1088.74795,0.92877
1087.25817,0.97643
1085.76838,1.00547
1084.27859,1.07588
1082.78880,1.16495
1081.29901,1.22407
1079.80922,1.22650
1078.31943,1.22045
1076.82965,1.21443
1075.33986,1.24369
1073.85007,1.24138
1072.36028,1.23423
1070.87049,1.29275
1069.38070,1.33753
1067.89092,1.39206
1066.40113,1.44662
1064.91134,1.32699
1063.42155,1.21225
1061.93176,1.13644
1060.44197,1.05093
1058.95219,1.03920
1057.46240,1.00764
1055.97261,0.97611
1054.48282,0.87128
1052.99303,0.83211
1051.50324,0.76947
1050.01345,0.68337
1048.52367,0.67509
1047.03388,0.60444
1045.54409,0.53382
1044.05430,0.58559
1042.56451,0.48748
1041.07472,0.50285
1039.58494,0.43640
1038.09515,0.43805
1036.60536,0.39759
1035.11557,0.35717
1033.62578,0.34838
1032.13599,0.26831
1030.64620,0.30252
1029.15642,0.42428
1027.66663,0.40062
1026.17684,0.37698
1024.68705,0.43482
1023.19726,0.55913
1021.70747,0.71264
1020.21769,0.87753
1018.72790,1.06028
1017.23811,1.18228
1015.74832,1.30431
1014.25853,1.61518
1012.76874,1.74618
1011.27896,1.81968
1009.78917,1.99531
1008.29938,2.00000
1006.80959,1.99175
1005.31980,1.98353
1003.83001,1.90646
1002.34022,1.79377
1000.85044,1.71595
999.36065,1.55956
997.87086,1.52678
996.38107,1.49402
994.89128,1.48520
993.40149,1.47074
991.91171,1.43443
990.42192,1.41922
988.93213,1.41781
987.44234,1.39253
985.95255,1.36728
984.46276,1.34895
982.97297,1.25528
981.48319,1.28968
979.99340,1.16772
978.50361,1.17624
977.01382,1.18480
975.52403,1.11965
974.03424,1.08938
972.54446,0.94163
971.05467,0.93734
969.56488,0.88690
968.07509,0.86039
966.58530,0.83391
965.09551,0.79328
963.60573,0.78509
962.11594,0.74776
960.62615,0.68048
959.13636,0.65983
957.64657,0.63920
956.15678,0.59470
954.66699,0.57048
953.17721,0.60465
951.68742,0.54970
950.19763,0.58311
948.70784,0.61655
947.21805,0.57061
945.72826,0.50525
944.23848,0.54445
942.74869,0.57640
941.25890,0.58730
939.76911,0.62740
938.27932,0.66754
936.78953,0.69554
935.29974,0.75114
933.80996,0.76705
932.32017,0.75220
930.83038,0.74427
929.34059,0.73637
927.85080,0.71270
926.36101,0.71985
924.87123,0.70921
923.38144,0.68644
921.89165,0.65843
920.40186,0.63046
918.91207,0.59076
917.42228,0.60538
915.93250,0.66137
914.44271,0.68416
912.95292,0.67537
911.46313,0.66662
909.97334,0.73974
908.48355,0.74644
906.99376,0.76047
905.50398,0.69430
904.01419,0.67273
902.52440,0.65119
901.03461,0.74232
899.54482,0.77108
898.05503,0.70831
896.56525,0.78737
895.07546,0.76558
893.58567,0.74382
892.09588,0.71601
890.60609,0.79357
889.11630,0.76420
887.62651,0.77376
886.13673,0.79631
884.64694,0.81889
883.15715,0.74183
881.66736,0.73530
880.17757,0.74258
878.68778,0.73124
877.19800,0.71994
875.70821,0.73217
874.21842,0.77522
872.72863,0.89123
871.23884,0.95217
869.74905,0.94183
868.25927,0.93151
866.76948,0.93501
865.27969,0.93934
863.78990,0.89590
862.30011,0.93919
860.81032,0.93308
859.32053,0.92701
857.83075,0.90070
856.34096,0.86794
854.85117,0.82549
853.36138,0.72796
851.87159,0.70340
850.38180,0.67886
848.89202,0.53605
847.40223,0.43216
845.91244,0.34856
844.42265,0.35251
842.93286,0.35649
841.44307,0.29810
839.95329,0.30133
838.46350,0.30620
836.97371,0.22117
835.48392,0.23664
833.99413,0.25214
832.50434,0.23526
831.01455,0.26136
829.52477,0.26479
828.03498,0.29905
826.54519,0.24097
825.05540,0.18291
823.56561,0.16945
822.07582,0.16656
820.58604,0.10859
819.09625,0.11710
817.60646,0.12564
816.11667,0.09208
814.62688,0.11364
813.13709,0.03152
811.64730,0.03369
810.15752,0.01889
808.66773,0.00411
807.17794,0.05268
805.68815,0.06239
804.19836,0.12966
802.70857,0.15361
801.21879,0.17759
799.72900,0.14204
798.23921,0.22483
796.74942,0.41785
795.25963,0.43709
793.76984,0.45636
792.28006,0.49227
790.79027,0.57115
789.30048,0.55283
787.81069,0.58721
786.32090,0.57584
784.83111,0.56449
783.34132,0.66946
781.85154,0.71287
780.36175,0.72471
778.87196,0.75360
777.38217,0.78252
775.89238,0.73773
774.40259,0.77886
772.91281,0.88485
771.42302,0.87337
769.93323,0.86193
768.44344,0.80270
766.95365,0.76943
765.46386,0.79049
763.97407,0.74188
762.48429,0.71600
760.99450,0.69015
759.50471,0.61733
758.01492,0.50726
756.52513,0.45152
755.03534,0.37717
753.54556,0.30284
752.05577,0.26907
750.56598,0.21669
749.07619,0.17811
747.58640,0.16630
746.09661,0.15453
744.60683,0.05608
743.11704,0.10594
741.62725,0.06266
740.13746,0.05100
738.64767,0.03938
737.15788,0.03831
735.66809,0.01297
734.17831,0.08166
732.68852,0.07178
731.19873,0.06192
729.70894,0.06830
728.21915,0.04068
726.72936,0.06982
725.23958,0.12815
723.74979,0.11966
722.26000,0.11120
720.77021,0.05942
719.28042,0.08790
717.79063,0.11316
716.30084,0.10765
714.81106,0.10218
713.32127,0.06919
711.83148,0.07756
710.34169,0.00411
708.85190,0.02623
707.36211,0.04838
705.87233,0.06448
704.38254,0.08952
702.89275,0.09515
701.40296,0.09311
699.91317,0.09110
698.42338,0.06927
696.93360,0.11796
695.44381,0.16588
693.95402,0.18627
692.46423,0.20669
690.97444,0.23282
689.48465,0.16417
687.99486,0.20818
686.50508,0.18943
685.01529,0.17070
683.52550,0.21805
682.03571,0.20546
680.54592,0.18642
679.05613,0.19455
677.56635,0.20272
676.07656,0.20160
674.58677,0.12352
673.09698,0.09977
671.60719,0.08982
670.11740,0.07991
668.62761,0.08218
667.13783,0.06827
665.64804,0.05480
664.15825,0.04135
662.66846,0.08102
661.17867,0.07939
659.68888,0.05266
658.19910,0.07014
656.70931,0.08764
655.21952,0.07154
653.72973,0.09032
652.23994,0.09616
650.75015,0.10932
649.26037,0.12252
647.77058,0.11953
646.28079,0.14981
644.79100,0.02534
643.30121,0.03865
641.81142,0.05200
640.32163,0.04917
638.83185,0.02692
637.34206,0.04845
635.85227,0.02627
634.36248,0.00411
632.87269,0.03987
631.38290,0.03596
629.89312,0.03937
628.40333,0.03512
626.91354,0.03089
625.42375,0.03764
623.93396,0.07358
622.44417,0.05162
620.95438,0.02969
619.46460,0.08193
617.97481,0.05884
616.48502,0.08926
614.99523,0.09136
613.50544,0.09348
612.01565,0.02189
610.52587,0.13347
609.03608,0.11137
607.54629,0.11848
606.05650,0.12561
604.56671,0.14088
603.07692,0.14646
601.58714,0.14801
600.09735,0.14959
598.60756,0.09124
597.11777,0.08803
595.62798,0.09375
594.13819,0.09870
592.64840,0.10367
591.15862,0.07221
589.66883,0.12506
588.17904,0.02802
586.68925,0.05054
585.19946,0.07309
583.70967,0.05556
582.21989,0.05912
580.73010,0.08338
579.24031,0.10767
577.75052,0.14536
576.26073,0.10610
574.77094,0.13575
573.28115,0.18163
571.79137,0.22754
570.30158,0.20218
568.81179,0.24572
567.32200,0.27957
565.83221,0.31345
564.34242,0.40975
562.85264,0.33916
561.36285,0.36341
559.87306,0.37998
558.38327,0.39659
556.89348,0.45577
555.40369,0.57819
553.91391,0.58881
552.42412,0.59946
550.93433,0.61419
549.44454,0.62004
547.95475,0.60323
546.46496,0.60914
544.97517,0.61508
543.48539,0.61943
541.99560,0.66351
540.50581,0.66266
539.01602,0.66183
537.52623,0.67764
536.03644,0.61813
534.54666,0.65588
533.05687,0.61425
531.56708,0.57265
530.07729,0.55945
528.58750,0.56815
527.09771,0.56999
525.60792,0.57187
524.11814,0.57823
522.62835,0.52060
521.13856,0.45653
519.64877,0.42489
518.15898,0.39329
516.66919,0.33903
515.17941,0.29776
513.68962,0.30433
512.19983,0.31093
510.71004,0.33458
509.22025,0.32585
507.73046,0.36090
506.24068,0.37978
504.75089,0.39869
503.26110,0.40304
501.77131,0.34827
500.28152,0.36889
498.79173,0.38954
497.30194,0.38915
495.81216,0.33774
494.32237,0.33660
492.83258,0.33549
491.34279,0.29632
489.85300,0.28555
488.36321,0.29750
486.87343,0.28922
485.38364,0.28096
483.89385,0.23466
482.40406,0.19162
480.91427,0.10972
479.42448,0.02785
477.93469,0.06837
476.44491,0.07083
474.95512,0.08102
473.46533,0.09125
471.97554,0.02735
470.48575,0.05506
468.99596,0.11763
467.50618,0.08219
466.01639,0.04678
464.52660,0.00411
463.03681,0.01633
461.54702,0.04235
460.05723,0.06841
458.56745,0.06046
457.07766,0.08495
455.58787,0.11434
454.09808,0.14375
452.60829,0.14484
451.11850,0.11921
449.62871,0.17019
448.13893,0.22120
446.64914,0.28318
445.15935,0.42866
443.66956,0.45099
442.17977,0.48753
440.68998,0.52411
439.20020,0.54086
437.71041,0.61518
436.22062,0.63118
434.73083,0.64721
433.24104,0.87558
431.75125,0.94840
430.26146,0.97627
428.77168,1.00417
427.28189,1.09895
425.79210,1.13867
424.30231,1.15410
422.81252,1.16956
421.32273,1.22719
419.83295,1.13170
418.34316,1.06136
416.85337,0.99105
415.36358,0.80165
413.87379,0.67062
412.38400,0.65348
410.89422,0.63637
409.40443,0.63346
407.91464,0.67921
406.42485,0.57183
404.93506,0.53377
403.44527,0.49574
401.95548,0.48650
400.46570,0.37844
398.97591,0.36683
397.48612,0.35526
395.99633,0.42880
394.50654,0.42295
393.01675,0.44996
391.52697,0.47699
390.03718,0.42019
388.54739,0.35288
387.05760,0.32126
385.56781,0.28966
384.07802,0.30186
382.58824,0.31084
381.09845,0.30770
379.60866,0.30459
378.11887,0.28854
376.62908,0.29603
375.13929,0.24844
373.64950,0.20088
372.15972,0.16794
370.66993,0.11152
369.18014,0.08310
367.69035,0.05470
366.20056,0.04538
364.71077,0.04986
363.22099,0.04101
361.73120,0.03218
360.24141,0.09672
358.75162,0.15642
357.26183,0.15781
355.77204,0.15924
354.28225,0.10964
352.79247,0.05602
351.30268,0.03606
349.81289,0.01613
348.32310,0.04363
346.83331,0.03227
345.34352,0.02620
343.85374,0.02017
342.36395,0.09236
340.87416,0.02926
339.38437,0.06059
337.89458,0.09195
336.40479,0.07432
334.91501,0.06563
333.42522,0.09019
331.93543,0.11478
330.44564,0.05919
328.95585,0.14705
327.46606,0.14377
325.97627,0.14053
324.48649,0.09316
322.99670,0.01664
321.50691,0.04193
320.01712,0.06726
318.52733,0.14488
317.03754,0.09936
315.54776,0.12599
314.05797,0.15265
312.56818,0.12667
311.07839,0.09261
309.58860,0.06872
308.09881,0.04485
306.60902,0.01575
305.11924,0.03449
303.62945,0.03057
302.13966,0.01020
300.64987,0.00411
299.16008,0.00411
