1778.52000,0.04634
1777.03021,0.02828
1775.54042,0.00664
1774.05063,0.03199
1772.56085,0.03931
1771.07106,0.06112
1769.58127,0.03963
1768.09148,0.03863
1766.60169,0.06416
1765.11190,0.05602
1763.62212,0.02624
1762.13233,0.06512
1760.64254,0.04144
1759.15275,0.10085
1757.66296,0.08807
1756.17317,0.01033
1754.68339,0.01568
1753.19360,0.01866
1751.70381,0.00363
1750.21402,0.03601
1748.72423,0.04557
1747.23444,0.03108
1745.74465,0.02988
1744.25487,0.09491
1742.76508,0.10220
1741.27529,0.09268
1739.78550,0.06995
1738.29571,0.04725
1736.80592,0.08117
1735.31614,0.01161
1733.82635,0.04140
1732.33656,0.04474
1730.84677,0.02886
1729.35698,0.05755
1727.86719,0.07786
1726.37740,0.05005
1724.88762,0.02348
1723.39783,0.00898
1721.90804,0.02341
1720.41825,0.01621
1718.92846,0.00664
1717.43867,0.01571
1715.94889,0.07177
1714.45910,0.04961
1712.96931,0.05037
1711.47952,0.06681
1709.98973,0.06523
1708.49994,0.07091
1707.01016,0.05676
1705.52037,0.04265
1704.03058,0.05686
1702.54079,0.12167
1701.05100,0.18169
1699.56121,0.15749
1698.07142,0.18028
1696.58164,0.21152
1695.09185,0.17299
1693.60206,0.18505
1692.11227,0.24168
1690.62248,0.25501
1689.13269,0.21662
1687.64291,0.21800
1686.15312,0.21098
1684.66333,0.24010
1683.17354,0.28732
1681.68375,0.35263
1680.19396,0.30363
1678.70417,0.24864
1677.21439,0.23702
1675.72460,0.28803
1674.23481,0.31380
1672.74502,0.20479
1671.25523,0.25952
1669.76544,0.31188
1668.27566,0.32095
1666.78587,0.23616
1665.29608,0.27057
1663.80629,0.26289
1662.31650,0.28293
1660.82671,0.20791
1659.33693,0.24247
1657.84714,0.23373
1656.35735,0.23225
1654.86756,0.22478
1653.37777,0.16319
1651.88798,0.19913
1650.39819,0.22187
1648.90841,0.21335
1647.41862,0.13143
1645.92883,0.13562
1644.43904,0.13985
1642.94925,0.14230
1641.45946,0.13516
1639.96968,0.13889
1638.47989,0.17516
1636.99010,0.12600
1635.50031,0.17197
1634.01052,0.16622
1632.52073,0.16050
1631.03094,0.16204
1629.54116,0.16723
1628.05137,0.17366
1626.56158,0.16929
1625.07179,0.21671
1623.58200,0.30269
1622.09221,0.24065
1620.60243,0.21236
1619.11264,0.25993
1617.62285,0.19559
1616.13306,0.24805
1614.64327,0.21869
1613.15348,0.19057
1611.66370,0.16129
1610.17391,0.20065
1608.68412,0.17385
1607.19433,0.08689
1605.70454,0.10831
1604.21475,0.14240
1602.72496,0.17652
1601.23518,0.20166
1599.74539,0.14618
1598.25560,0.09194
1596.76581,0.10154
1595.27602,0.09793
1593.78623,0.14732
1592.29645,0.10767
1590.80666,0.10658
1589.31687,0.07061
1587.82708,0.12135
1586.33729,0.16008
1584.84750,0.06645
1583.35771,0.10646
1581.86793,0.06707
1580.37814,0.09873
1578.88835,0.10033
1577.39856,0.10077
1575.90877,0.08078
1574.41898,0.04397
1572.92920,0.11312
1571.43941,0.03787
1569.94962,0.02224
1568.45983,0.00664
1566.97004,0.05696
1565.48025,0.04351
1563.99047,0.05177
1562.50068,0.02876
1561.01089,0.04793
1559.52110,0.12490
1558.03131,0.12006
1556.54152,0.05989
1555.05173,0.10086
1553.56195,0.11780
1552.07216,0.10709
1550.58237,0.08076
1549.09258,0.07734
1547.60279,0.09081
1546.11300,0.13802
1544.62322,0.11666
1543.13343,0.14227
1541.64364,0.06802
1540.15385,0.07083
1538.66406,0.07369
1537.17427,0.09343
1535.68448,0.05422
1534.19470,0.05598
1532.70491,0.00000
1531.21512,0.06256
1529.72533,0.02284
1528.23554,0.03491
1526.74575,0.00369
1525.25597,0.04232
1523.76618,0.06053
1522.27639,0.04266
1520.78660,0.02723
1519.29681,0.01785
1517.80702,0.02416
1516.31724,0.00764
1514.82745,0.03763
1513.33766,0.06044
1511.84787,0.08328
1510.35808,0.01949
1508.86829,0.03759
1507.37850,0.04609
1505.88872,0.06306
1504.39893,0.00664
1502.90914,0.05755
1501.41935,0.08201
1499.92956,0.07642
1498.43977,0.06845
1496.94999,0.14839
1495.46020,0.16939
1493.97041,0.23977
1492.48062,0.24881
1490.99083,0.30963
1489.50104,0.32475
1488.01125,0.38806
1486.52147,0.45140
1485.03168,0.50876
1483.54189,0.61551
1482.05210,0.63202
1480.56231,0.78578
1479.07252,0.87338
1477.58274,0.88398
1476.09295,0.89220
1474.60316,0.95944
1473.11337,1.16033
1471.62358,1.09283
1470.13379,1.18065
1468.64401,1.18785
1467.15422,1.12528
1465.66443,1.11269
1464.17464,1.10014
1462.68485,1.00277
1461.19506,1.01376
1459.70527,0.91285
1458.21549,0.86253
1456.72570,0.83391
1455.23591,0.76200
1453.74612,0.80808
1452.25633,0.71457
1450.76654,0.74749
1449.27676,0.80692
1447.78697,0.65574
1446.29718,0.61173
1444.80739,0.58159
1443.31760,0.55150
1441.82781,0.41250
1440.33802,0.36261
1438.84824,0.34286
1437.35845,0.33156
1435.86866,0.36845
1434.37887,0.28500
1432.88908,0.31233
1431.39929,0.31803
1429.90951,0.25155
1428.41972,0.29704
1426.92993,0.21859
1425.44014,0.28221
1423.95035,0.30555
1422.46056,0.32892
1420.97078,0.39024
1419.48099,0.40465
1417.99120,0.37337
1416.50141,0.39628
1415.01162,0.46858
1413.52183,0.40249
1412.03204,0.35811
1410.54226,0.31496
1409.05247,0.36935
1407.56268,0.30341
1406.07289,0.28084
1404.58310,0.27575
1403.09331,0.27071
1401.60353,0.33852
1400.11374,0.39794
1398.62395,0.45619
1397.13416,0.40013
1395.64437,0.40670
1394.15458,0.48553
1392.66479,0.38745
1391.17501,0.39773
1389.68522,0.39602
1388.19543,0.37268
1386.70564,0.37345
1385.21585,0.37425
1383.72606,0.42083
1382.23628,0.30856
1380.74649,0.27817
1379.25670,0.27912
1377.76691,0.38242
1376.27712,0.27992
1374.78733,0.40857
1373.29755,0.43734
1371.80776,0.49023
1370.31797,0.58649
1368.82818,0.70866
1367.33839,0.83087
1365.84860,0.98260
1364.35881,1.13918
1362.86903,1.14173
1361.37924,1.17802
1359.88945,1.16259
1358.39966,1.20136
1356.90987,1.28109
1355.42008,1.33678
1353.93030,1.32149
1352.44051,1.29901
1350.95072,1.27658
1349.46093,1.19279
1347.97114,0.96700
1346.48135,0.82069
1344.99156,0.84293
1343.50178,0.82428
1342.01199,0.79604
1340.52220,0.66432
1339.03241,0.61328
1337.54262,0.57672
1336.05283,0.57691
1334.56305,0.57714
1333.07326,0.49736
1331.58347,0.54882
1330.09368,0.55698
1328.60389,0.51462
1327.11410,0.43257
1325.62432,0.36019
1324.13453,0.43229
1322.64474,0.38647
1321.15495,0.44420
1319.66516,0.45020
1318.17537,0.45624
1316.68558,0.42501
1315.19580,0.39501
1313.70601,0.36746
1312.21622,0.27253
1310.72643,0.24144
1309.23664,0.33557
1307.74685,0.34548
1306.25707,0.34459
1304.76728,0.36058
1303.27749,0.37662
1301.78770,0.36380
1300.29791,0.34981
1298.80812,0.24077
1297.31834,0.24009
1295.82855,0.28760
1294.33876,0.34117
1292.84897,0.36588
1291.35918,0.37739
1289.86939,0.37328
1288.37960,0.36921
1286.88982,0.31342
1285.40003,0.37563
1283.91024,0.40297
1282.42045,0.45321
1280.93066,0.46617
1279.44087,0.41057
1277.95109,0.44527
1276.46130,0.39334
1274.97151,0.36011
1273.48172,0.32691
1271.99193,0.43519
1270.50214,0.49174
1269.01235,0.49897
1267.52257,0.47495
1266.03278,0.45337
1264.54299,0.53293
1263.05320,0.57161
1261.56341,0.64101
1260.07362,0.71046
1258.58384,0.67822
1257.09405,0.62075
1255.60426,0.54285
1254.11447,0.54322
1252.62468,0.61225
1251.13489,0.53084
1249.64511,0.56262
1248.15532,0.50657
1246.66553,0.48666
1245.17574,0.46679
1243.68595,0.37955
1242.19616,0.39345
1240.70637,0.36767
1239.21659,0.38165
1237.72680,0.36798
1236.23701,0.35796
1234.74722,0.32750
1233.25743,0.27843
1231.76764,0.22940
1230.27786,0.21350
1228.78807,0.26264
1227.29828,0.32024
1225.80849,0.21537
1224.31870,0.18397
1222.82891,0.09604
1221.33912,0.08998
1219.84934,0.09661
1218.35955,0.10327
1216.86976,0.11779
1215.37997,0.26716
1213.89018,0.33953
1212.40039,0.16277
1210.91061,0.27614
1209.42082,0.22824
1207.93103,0.18942
1206.44124,0.15063
1204.95145,0.14377
1203.46166,0.10204
1201.97188,0.08081
1200.48209,0.13184
1198.99230,0.10346
1197.50251,0.06549
1196.01272,0.05644
1194.52293,0.03239
1193.03314,0.00836
1191.54336,0.06322
1190.05357,0.06997
1188.56378,0.05749
1187.07399,0.00533
1185.58420,0.00496
1184.09441,0.06286
1182.60463,0.03473
1181.11484,0.00664
1179.62505,0.03676
1178.13526,0.07293
1176.64547,0.07784
1175.15568,0.17667
1173.66589,0.28036
1172.17611,0.13372
1170.68632,0.07016
1169.19653,0.00664
1167.70674,0.07182
1166.21695,0.01667
1164.72716,0.06989
1163.23738,0.05935
1161.74759,0.05606
1160.25780,0.10819
1158.76801,0.06345
1157.27822,0.01875
1155.78843,0.00598
1154.29865,0.11241
1152.80886,0.04796
1151.31907,0.12076
1149.82928,0.08888
1148.33949,0.09796
1146.84970,0.12332
1145.35991,0.14872
1143.87013,0.09170
1142.38034,0.08649
1140.89055,0.08010
1139.40076,0.22782
1137.91097,0.35872
1136.42118,0.33920
1134.93140,0.33777
1133.44161,0.33638
1131.95182,0.38558
1130.46203,0.38667
1128.97224,0.33001
1127.48245,0.30589
1125.99266,0.29505
1124.50288,0.31434
1123.01309,0.31139
1121.52330,0.30849
1120.03351,0.41214
1118.54372,0.46046
1117.05393,0.48956
1115.56415,0.39832
1114.07436,0.44916
1112.58457,0.43864
1111.09478,0.42816
1109.60499,0.52003
1108.11520,0.52407
1106.62542,0.55703
1105.13563,0.72123
1103.64584,0.80241
1102.15605,0.88604
1100.66626,0.87882
1099.17647,0.87164
1097.68668,0.85427
1096.19690,0.89711
1094.70711,0.89425
1093.21732,1.01059
1091.72753,0.99577
1090.23774,0.99422
1088.74795,0.99271
1087.25817,1.07549
1085.76838,1.07165
1084.27859,1.05219
1082.78880,1.25665
1081.29901,1.31551
1079.80922,1.21792
1078.31943,1.22689
1076.82965,1.23590
1075.33986,1.24555
1073.85007,1.22394
1072.36028,1.20116
1070.87049,1.25064
1069.38070,1.41209
1067.89092,1.40206
1066.40113,1.39206
1064.91134,1.36585
1063.42155,1.07728
1061.93176,1.05234
1060.44197,1.19476
1058.95219,1.17592
1057.46240,1.08910
1055.97261,1.00232
1054.48282,0.95831
1052.99303,0.90591
1051.50324,0.81021
1050.01345,0.76871
1048.52367,0.65263
1047.03388,0.59856
1045.54409,0.54454
1044.05430,0.68013
1042.56451,0.63400
1041.07472,0.59392
1039.58494,0.46000
1038.09515,0.46694
1036.60536,0.44442
1035.11557,0.42195
1033.62578,0.35798
1032.13599,0.44812
1030.64620,0.36857
1029.15642,0.49851
1027.66663,0.48584
1026.17684,0.47321
1024.68705,0.55751
1023.19726,0.65389
1021.70747,0.74669
1020.21769,0.95629
1018.72790,1.04194
1017.23811,1.16674
1015.74832,1.29159
1014.25853,1.48808
1012.76874,1.62323
1011.27896,1.80656
1009.78917,1.90567
1008.29938,2.00000
1006.80959,1.92465
1005.31980,1.84933
1003.83001,1.64766
1002.34022,1.52306
1000.85044,1.51646
999.36065,1.40879
997.87086,1.40287
996.38107,1.39698
994.89128,1.45071
993.40149,1.50809
991.91171,1.36208
990.42192,1.37017
988.93213,1.43729
987.44234,1.40935
985.95255,1.38145
984.46276,1.30784
982.97297,1.29204
981.48319,1.24619
979.99340,1.26538
978.50361,1.26353
977.01382,1.26173
975.52403,1.23047
974.03424,1.18480
972.54446,1.10065
971.05467,1.00690
969.56488,0.93847
968.07509,0.89294
966.58530,0.84746
965.09551,0.85737
963.60573,0.90945
962.11594,0.96518
960.62615,0.91623
959.13636,0.85888
957.64657,0.80158
956.15678,0.77680
954.66699,0.77253
953.17721,0.71533
951.68742,0.78094
950.19763,0.77497
948.70784,0.76904
947.21805,0.69272
945.72826,0.69107
944.23848,0.68464
942.74869,0.72399
941.25890,0.64421
939.76911,0.70289
938.27932,0.76161
936.78953,0.85647
935.29974,0.92368
933.80996,0.82121
932.32017,0.79943
930.83038,0.82281
929.34059,0.84624
927.85080,0.91724
926.36101,0.88597
924.87123,0.85714
923.38144,0.80789
921.89165,0.76589
920.40186,0.72393
918.91207,0.73618
917.42228,0.75688
915.93250,0.81614
914.44271,0.88265
912.95292,0.87638
911.46313,0.87015
909.97334,0.89705
908.48355,1.00103
906.99376,0.99189
905.50398,0.92381
904.01419,0.95929
902.52440,0.99480
901.03461,1.15192
899.54482,1.08639
898.05503,0.97034
896.56525,1.00118
895.07546,1.01521
893.58567,1.02927
892.09588,0.98800
890.60609,1.10204
889.11630,0.99222
887.62651,1.03652
886.13673,0.98877
884.64694,0.94106
883.15715,0.90723
881.66736,0.85778
880.17757,0.84328
878.68778,0.81257
877.19800,0.78189
875.70821,0.89629
874.21842,0.88193
872.72863,0.98798
871.23884,1.10369
869.74905,1.08523
868.25927,1.06680
866.76948,0.89855
865.27969,0.79173
863.78990,0.93049
862.30011,0.91281
860.81032,0.96859
859.32053,1.02441
857.83075,0.88286
856.34096,0.81116
854.85117,0.80089
853.36138,0.67268
851.87159,0.66850
850.38180,0.66435
848.89202,0.48329
847.40223,0.33718
845.91244,0.25490
844.42265,0.27918
842.93286,0.30350
841.44307,0.38744
839.95329,0.30891
838.46350,0.22561
836.97371,0.16642
835.48392,0.21499
833.99413,0.26360
832.50434,0.28877
831.01455,0.37898
829.52477,0.32478
828.03498,0.33201
826.54519,0.26645
825.05540,0.20093
823.56561,0.09632
822.07582,0.11212
820.58604,0.14360
819.09625,0.09627
817.60646,0.04898
816.11667,0.05289
814.62688,0.09535
813.13709,0.00664
811.64730,0.01605
810.15752,0.01587
808.66773,0.01572
807.17794,0.00838
805.68815,0.03720
804.19836,0.13586
802.70857,0.12863
801.21879,0.12144
799.72900,0.18772
798.23921,0.17338
796.74942,0.26018
795.25963,0.33920
793.76984,0.41826
792.28006,0.46665
790.79027,0.49342
789.30048,0.46486
787.81069,0.55188
786.32090,0.57815
784.83111,0.60446
783.34132,0.69280
781.85154,0.67525
780.36175,0.64449
778.87196,0.67696
777.38217,0.70947
775.89238,0.81725
774.40259,0.84562
772.91281,0.93782
771.42302,0.93978
769.93323,0.94177
768.44344,0.88603
766.95365,0.86884
765.46386,0.88539
763.97407,0.92243
762.48429,0.86142
760.99450,0.80044
759.50471,0.68954
758.01492,0.45951
756.52513,0.51359
755.03534,0.44614
753.54556,0.37872
752.05577,0.31374
750.56598,0.18862
749.07619,0.12732
747.58640,0.13889
746.09661,0.15049
744.60683,0.08208
743.11704,0.01973
741.62725,0.08019
740.13746,0.09555
738.64767,0.11094
737.15788,0.08966
735.66809,0.07323
734.17831,0.07730
732.68852,0.05914
731.19873,0.04101
729.70894,0.07167
728.21915,0.10116
726.72936,0.05726
725.23958,0.05673
723.74979,0.06105
722.26000,0.06541
720.77021,0.07341
719.28042,0.07543
717.79063,0.06305
716.30084,0.08440
714.81106,0.10579
713.32127,0.09231
711.83148,0.00664
710.34169,0.11023
708.85190,0.11877
707.36211,0.12734
705.87233,0.10706
704.38254,0.05672
702.89275,0.20142
701.40296,0.14995
699.91317,0.09851
698.42338,0.03027
696.93360,0.12335
695.44381,0.26221
693.95402,0.26930
692.46423,0.27643
690.97444,0.25290
689.48465,0.15357
687.99486,0.19511
686.50508,0.20599
685.01529,0.21691
683.52550,0.21764
682.03571,0.20756
680.54592,0.15660
679.05613,0.20137
677.56635,0.24617
676.07656,0.19652
674.58677,0.12163
673.09698,0.06002
671.60719,0.07126
670.11740,0.08254
668.62761,0.10650
667.13783,0.13410
665.64804,0.08892
664.15825,0.04377
662.66846,0.09676
661.17867,0.08117
659.68888,0.09331
658.19910,0.10548
656.70931,0.11769
655.21952,0.17929
653.72973,0.14342
652.23994,0.15092
650.75015,0.17892
649.26037,0.20696
647.77058,0.19772
646.28079,0.13916
644.79100,0.12398
643.30121,0.11304
641.81142,0.10213
640.32163,0.13882
638.83185,0.16951
637.34206,0.02571
635.85227,0.01616
634.36248,0.00664
632.87269,0.06452
631.38290,0.10078
629.89312,0.14309
628.40333,0.12224
626.91354,0.10142
625.42375,0.10051
623.93396,0.10805
622.44417,0.10540
620.95438,0.10279
619.46460,0.16822
617.97481,0.14582
616.48502,0.15355
614.99523,0.11557
613.50544,0.07763
612.01565,0.19380
610.52587,0.12824
609.03608,0.13134
607.54629,0.08391
606.05650,0.03652
604.56671,0.10352
603.07692,0.18861
601.58714,0.20753
600.09735,0.22649
598.60756,0.13715
597.11777,0.14294
595.62798,0.07413
594.13819,0.05051
592.64840,0.02691
591.15862,0.07137
589.66883,0.18567
588.17904,0.18566
586.68925,0.15258
585.19946,0.11954
583.70967,0.20149
582.21989,0.21967
580.73010,0.22646
579.24031,0.23329
577.75052,0.25881
576.26073,0.26029
574.77094,0.19440
573.28115,0.17068
571.79137,0.14699
570.30158,0.26176
568.81179,0.38740
567.32200,0.37285
565.83221,0.35834
564.34242,0.35529
562.85264,0.39321
561.36285,0.42033
559.87306,0.45411
558.38327,0.48792
556.89348,0.54645
555.40369,0.63991
553.91391,0.63953
552.42412,0.63918
550.93433,0.64489
549.44454,0.54471
547.95475,0.57697
546.46496,0.60084
544.97517,0.62475
543.48539,0.69082
541.99560,0.74730
540.50581,0.77011
539.01602,0.79296
537.52623,0.71594
536.03644,0.56192
534.54666,0.67876
533.05687,0.63976
531.56708,0.60080
530.07729,0.67683
528.58750,0.66382
527.09771,0.66289
525.60792,0.66199
524.11814,0.56603
522.62835,0.64104
521.13856,0.63904
519.64877,0.61963
518.15898,0.60025
516.66919,0.55383
515.17941,0.45689
513.68962,0.42017
512.19983,0.38348
510.71004,0.52377
509.22025,0.47151
507.73046,0.45059
506.24068,0.47182
504.75089,0.49309
503.26110,0.41570
501.77131,0.46233
500.28152,0.44338
498.79173,0.42448
497.30194,0.45436
495.81216,0.37594
494.32237,0.35895
492.83258,0.34199
491.34279,0.36600
489.85300,0.30578
488.36321,0.27810
486.87343,0.25768
485.38364,0.23729
483.89385,0.25907
482.40406,0.23635
480.91427,0.19621
479.42448,0.15611
477.93469,0.14674
476.44491,0.04352
474.95512,0.09370
473.46533,0.14392
471.97554,0.17311
470.48575,0.11567
468.99596,0.14974
467.50618,0.10983
466.01639,0.06995
464.52660,0.00664
463.03681,0.21600
461.54702,0.20031
460.05723,0.18466
458.56745,0.10885
457.07766,0.14864
455.58787,0.17462
454.09808,0.20064
452.60829,0.24535
451.11850,0.17454
449.62871,0.20127
448.13893,0.22803
446.64914,0.36436
445.15935,0.42851
443.66956,0.66362
442.17977,0.62974
440.68998,0.59590
439.20020,0.51816
437.71041,0.54036
436.22062,0.61015
434.73083,0.67997
433.24104,0.83348
431.75125,0.91962
430.26146,0.96969
428.77168,1.01979
427.28189,1.15419
425.79210,1.15261
424.30231,1.17513
422.81252,1.19770
421.32273,1.22992
419.83295,1.17673
418.34316,1.15908
416.85337,1.14146
415.36358,0.79106
413.87379,0.65857
412.38400,0.66513
410.89422,0.67174
409.40443,0.58870
407.91464,0.64894
406.42485,0.64903
404.93506,0.60221
403.44527,0.55543
401.95548,0.45212
400.46570,0.46680
398.97591,0.40267
397.48612,0.33858
395.99633,0.44846
394.50654,0.47653
393.01675,0.51366
391.52697,0.55082
390.03718,0.43335
388.54739,0.34600
387.05760,0.34356
385.56781,0.34115
384.07802,0.37548
382.58824,0.37134
381.09845,0.38167
379.60866,0.39205
378.11887,0.38319
376.62908,0.38040
375.13929,0.30361
373.64950,0.22686
372.15972,0.24343
370.66993,0.24559
369.18014,0.25562
367.69035,0.26568
366.20056,0.21499
364.71077,0.19322
363.22099,0.26658
361.73120,0.33998
360.24141,0.27980
358.75162,0.22327
357.26183,0.21132
355.77204,0.19940
354.28225,0.15261
352.79247,0.02521
351.30268,0.07839
349.81289,0.13162
348.32310,0.10784
346.83331,0.12383
345.34352,0.06522
343.85374,0.00664
342.36395,0.09846
340.87416,0.18911
339.38437,0.16063
337.89458,0.13219
336.40479,0.19166
334.91501,0.16569
333.42522,0.15120
331.93543,0.13675
330.44564,0.20719
328.95585,0.19943
327.46606,0.16944
325.97627,0.13948
324.48649,0.00664
322.99670,0.10733
321.50691,0.09912
320.01712,0.09095
318.52733,0.17971
317.03754,0.22637
315.54776,0.22192
314.05797,0.21750
312.56818,0.17280
311.07839,0.13535
309.58860,0.11419
308.09881,0.09306
306.60902,0.09063
305.11924,0.05092
303.62945,0.07384
302.13966,0.09680
300.64987,0.00664
299.16008,0.00664
