1778.52000,0.05079
1777.03021,0.05605
1775.54042,0.05469
1774.05063,0.03121
1772.56085,0.02548
1771.07106,0.05080
1769.58127,0.03628
1768.09148,0.04062
1766.60169,0.00512
1765.11190,0.02282
1763.62212,0.04387
1762.13233,0.06718
1760.64254,0.01408
1759.15275,0.04077
1757.66296,0.05309
1756.17317,0.03554
1754.68339,0.04350
1753.19360,0.04595
1751.70381,0.02185
1750.21402,0.03434
1748.72423,0.01363
1747.23444,0.01178
1745.74465,0.02215
1744.25487,0.03920
1742.76508,0.04409
1741.27529,0.04570
1739.78550,0.04401
1738.29571,0.03904
1736.80592,0.04738
1735.31614,0.03694
1733.82635,0.02209
1732.33656,0.00506
1730.84677,0.05674
1729.35698,0.05861
1727.86719,0.00512
1726.37740,0.04052
1724.88762,0.03717
1723.39783,0.02833
1721.90804,0.03613
1720.41825,0.02070
1718.92846,0.03189
1717.43867,0.04090
1715.94889,0.04440
1714.45910,0.07452
1712.96931,0.02492
1711.47952,0.06286
1709.98973,0.03880
1708.49994,0.01144
1707.01016,0.03065
1705.52037,0.04989
1704.03058,0.05919
1702.54079,0.06631
1701.05100,0.12884
1699.56121,0.11387
1698.07142,0.09893
1696.58164,0.09289
1695.09185,0.14005
1693.60206,0.13739
1692.11227,0.10486
1690.62248,0.11889
1689.13269,0.16950
1687.64291,0.13928
1686.15312,0.10910
1684.66333,0.13212
1683.17354,0.16514
1681.68375,0.17271
1680.19396,0.18918
1678.70417,0.18907
1677.21439,0.15243
1675.72460,0.13466
1674.23481,0.13132
1672.74502,0.15127
1671.25523,0.14357
1669.76544,0.15916
1668.27566,0.11939
1666.78587,0.13062
1665.29608,0.15738
1663.80629,0.12326
1662.31650,0.16005
1660.82671,0.14150
1659.33693,0.15067
1657.84714,0.12554
1656.35735,0.13477
1654.86756,0.09973
1653.37777,0.13341
1651.88798,0.10619
1650.39819,0.09894
1648.90841,0.09615
1647.41862,0.10005
1645.92883,0.09844
1644.43904,0.09686
1642.94925,0.08312
1641.45946,0.07275
1639.96968,0.07127
1638.47989,0.13074
1636.99010,0.13930
1635.50031,0.09139
1634.01052,0.12105
1632.52073,0.10201
1631.03094,0.08300
1629.54116,0.09836
1628.05137,0.13702
1626.56158,0.10703
1625.07179,0.14908
1623.58200,0.11472
1622.09221,0.12803
1620.60243,0.11922
1619.11264,0.13371
1617.62285,0.11831
1616.13306,0.12178
1614.64327,0.15630
1613.15348,0.12882
1611.66370,0.13129
1610.17391,0.14043
1608.68412,0.11304
1607.19433,0.08015
1605.70454,0.08939
1604.21475,0.09202
1602.72496,0.09467
1601.23518,0.10955
1599.74539,0.10673
1598.25560,0.05410
1596.76581,0.12003
1595.27602,0.07743
1593.78623,0.09247
1592.29645,0.09203
1590.80666,0.07169
1589.31687,0.09236
1587.82708,0.04993
1586.33729,0.08839
1584.84750,0.04824
1583.35771,0.05575
1581.86793,0.05554
1580.37814,0.07973
1578.88835,0.05300
1577.39856,0.06064
1575.90877,0.07275
1574.41898,0.05055
1572.92920,0.00512
1571.43941,0.03229
1569.94962,0.03181
1568.45983,0.03135
1566.97004,0.06748
1565.48025,0.07374
1563.99047,0.03461
1562.50068,0.02211
1561.01089,0.05726
1559.52110,0.05700
1558.03131,0.04792
1556.54152,0.06212
1555.05173,0.03870
1553.56195,0.08842
1552.07216,0.06285
1550.58237,0.03841
1549.09258,0.04835
1547.60279,0.07494
1546.11300,0.06058
1544.62322,0.06175
1543.13343,0.04634
1541.64364,0.09079
1540.15385,0.07710
1538.66406,0.06346
1537.17427,0.12793
1535.68448,0.05620
1534.19470,0.02658
1532.70491,0.04353
1531.21512,0.00512
1529.72533,0.02954
1528.23554,0.01412
1526.74575,0.07074
1525.25597,0.08862
1523.76618,0.05890
1522.27639,0.05579
1520.78660,0.01838
1519.29681,0.02531
1517.80702,0.06551
1516.31724,0.04149
1514.82745,0.07843
1513.33766,0.06001
1511.84787,0.04163
1510.35808,0.00223
1508.86829,0.06056
1507.37850,0.04028
1505.88872,0.04108
1504.39893,0.03748
1502.90914,0.00512
1501.41935,0.05048
1499.92956,0.06485
1498.43977,0.08479
1496.94999,0.13911
1495.46020,0.11592
1493.97041,0.14150
1492.48062,0.14939
1490.99083,0.19719
1489.50104,0.24281
1488.01125,0.29345
1486.52147,0.34412
1485.03168,0.43636
1483.54189,0.46439
1482.05210,0.55005
1480.56231,0.62577
1479.07252,0.64503
1477.58274,0.69756
1476.09295,0.68697
1474.60316,0.78388
1473.11337,0.86419
1471.62358,0.88805
1470.13379,0.86541
1468.64401,0.87715
1467.15422,0.84682
1465.66443,0.80877
1464.17464,0.77076
1462.68485,0.74386
1461.19506,0.76129
1459.70527,0.69458
1458.21549,0.65558
1456.72570,0.59115
1455.23591,0.55554
1453.74612,0.51776
1452.25633,0.46893
1450.76654,0.48327
1449.27676,0.48214
1447.78697,0.42676
1446.29718,0.39467
1444.80739,0.34656
1443.31760,0.29848
1441.82781,0.23769
1440.33802,0.24340
1438.84824,0.17714
1437.35845,0.17073
1435.86866,0.19647
1434.37887,0.17240
1432.88908,0.18160
1431.39929,0.15981
1429.90951,0.13805
1428.41972,0.18058
1426.92993,0.15224
1425.44014,0.18375
1423.95035,0.18096
1422.46056,0.17820
1420.97078,0.18876
1419.48099,0.23480
1417.99120,0.26205
1416.50141,0.23837
1415.01162,0.22470
1413.52183,0.21770
1412.03204,0.23400
1410.54226,0.20602
1409.05247,0.23235
1407.56268,0.18782
1406.07289,0.20425
1404.58310,0.19911
1403.09331,0.19400
1401.60353,0.21385
1400.11374,0.25811
1398.62395,0.26140
1397.13416,0.28357
1395.64437,0.34897
1394.15458,0.33021
1392.66479,0.29930
1391.17501,0.35039
1389.68522,0.29739
1388.19543,0.35298
1386.70564,0.33494
1385.21585,0.31693
1383.72606,0.35933
1382.23628,0.25443
1380.74649,0.26366
1379.25670,0.31944
1377.76691,0.34425
1376.27712,0.28932
1374.78733,0.41500
1373.29755,0.52408
1371.80776,0.55455
1370.31797,0.69029
1368.82818,0.73301
1367.33839,0.77577
1365.84860,0.89831
1364.35881,1.07517
1362.86903,1.14017
1361.37924,1.17309
1359.88945,1.20493
1358.39966,1.33207
1356.90987,1.29529
1355.42008,1.32612
1353.93030,1.25729
1352.44051,1.19071
1350.95072,1.12415
1349.46093,1.02108
1347.97114,0.89810
1346.48135,0.81946
1344.99156,0.71316
1343.50178,0.68000
1342.01199,0.57820
1340.52220,0.56726
1339.03241,0.47881
1337.54262,0.48899
1336.05283,0.47427
1334.56305,0.45959
1333.07326,0.43220
1331.58347,0.41259
1330.09368,0.43179
1328.60389,0.34911
1327.11410,0.27865
1325.62432,0.29241
1324.13453,0.26522
1322.64474,0.31227
1321.15495,0.28957
1319.66516,0.27244
1318.17537,0.25535
1316.68558,0.24494
1315.19580,0.22791
1313.70601,0.18432
1312.21622,0.23604
1310.72643,0.13935
1309.23664,0.24652
1307.74685,0.24959
1306.25707,0.27706
1304.76728,0.24863
1303.27749,0.22023
1301.78770,0.31095
1300.29791,0.22778
1298.80812,0.18009
1297.31834,0.17010
1295.82855,0.14574
1294.33876,0.16683
1292.84897,0.16026
1291.35918,0.18363
1289.86939,0.20150
1288.37960,0.21939
1286.88982,0.28496
1285.40003,0.28963
1283.91024,0.29433
1282.42045,0.32232
1280.93066,0.30051
1279.44087,0.30531
1277.95109,0.30349
1276.46130,0.31501
1274.97151,0.29775
1273.48172,0.28052
1271.99193,0.33090
1270.50214,0.33369
1269.01235,0.32985
1267.52257,0.34931
1266.03278,0.41090
1264.54299,0.39387
1263.05320,0.49208
1261.56341,0.50835
1260.07362,0.52465
1258.58384,0.52991
1257.09405,0.49975
1255.60426,0.48624
1254.11447,0.43510
1252.62468,0.41723
1251.13489,0.41157
1249.64511,0.41481
1248.15532,0.37709
1246.66553,0.41805
1245.17574,0.45905
1243.68595,0.33171
1242.19616,0.36945
1240.70637,0.29534
1239.21659,0.21018
1237.72680,0.19153
1236.23701,0.26374
1234.74722,0.21967
1233.25743,0.18837
1231.76764,0.15710
1230.27786,0.17074
1228.78807,0.14120
1227.29828,0.11945
1225.80849,0.14314
1224.31870,0.18349
1222.82891,0.19950
1221.33912,0.09812
1219.84934,0.09592
1218.35955,0.09375
1216.86976,0.09881
1215.37997,0.18034
1213.89018,0.21537
1212.40039,0.15407
1210.91061,0.13932
1209.42082,0.13569
1207.93103,0.13374
1206.44124,0.13183
1204.95145,0.12829
1203.46166,0.05279
1201.97188,0.05707
1200.48209,0.08686
1198.99230,0.02696
1197.50251,0.06567
1196.01272,0.03685
1194.52293,0.04240
1193.03314,0.04799
1191.54336,0.04696
1190.05357,0.05593
1188.56378,0.00512
1187.07399,0.00539
1185.58420,0.05870
1184.09441,0.05444
1182.60463,0.03858
1181.11484,0.02275
1179.62505,0.02191
1178.13526,0.09200
1176.64547,0.10451
1175.15568,0.13368
1173.66589,0.14626
1172.17611,0.02595
1170.68632,0.02364
1169.19653,0.02137
1167.70674,0.00417
1166.21695,0.10595
1164.72716,0.05710
1163.23738,0.09359
1161.74759,0.07694
1160.25780,0.03706
1158.76801,0.04539
1157.27822,0.05376
1155.78843,0.00512
1154.29865,0.03870
1152.80886,0.09669
1151.31907,0.13477
1149.82928,0.11750
1148.33949,0.11134
1146.84970,0.11850
1145.35991,0.12569
1143.87013,0.12628
1142.38034,0.10806
1140.89055,0.10760
1139.40076,0.20133
1137.91097,0.26185
1136.42118,0.34679
1134.93140,0.32707
1133.44161,0.30739
1131.95182,0.36251
1130.46203,0.37557
1128.97224,0.23579
1127.48245,0.30763
1125.99266,0.36067
1124.50288,0.35835
1123.01309,0.39871
1121.52330,0.43910
1120.03351,0.45682
1118.54372,0.45242
1117.05393,0.56436
1115.56415,0.44704
1114.07436,0.44273
1112.58457,0.45951
1111.09478,0.47631
1109.60499,0.54411
1108.11520,0.64074
1106.62542,0.60558
1105.13563,0.63470
1103.64584,0.77352
1102.15605,0.81822
1100.66626,0.81808
1099.17647,0.81798
1097.68668,0.84062
1096.19690,0.87991
1094.70711,0.86827
1093.21732,0.94197
1091.72753,0.83624
1090.23774,0.87344
1088.74795,0.91068
1087.25817,1.01773
1085.76838,1.04285
1084.27859,1.10455
1082.78880,1.20063
1081.29901,1.27237
1079.80922,1.27546
1078.31943,1.21489
1076.82965,1.15435
1075.33986,1.21846
1073.85007,1.19621
1072.36028,1.19946
1070.87049,1.33678
1069.38070,1.39660
1067.89092,1.41657
1066.40113,1.43657
1064.91134,1.27604
1063.42155,1.23851
1061.93176,1.25307
1060.44197,1.17793
1058.95219,1.14825
1057.46240,1.07429
1055.97261,1.00036
1054.48282,0.95637
1052.99303,0.91242
1051.50324,0.77213
1050.01345,0.67950
1048.52367,0.63675
1047.03388,0.65053
1045.54409,0.66434
1044.05430,0.63941
1042.56451,0.54141
1041.07472,0.52541
1039.58494,0.45405
1038.09515,0.38716
1036.60536,0.37348
1035.11557,0.35982
1033.62578,0.36392
1032.13599,0.37249
1030.64620,0.37666
1029.15642,0.49163
1027.66663,0.44934
1026.17684,0.40708
1024.68705,0.45458
1023.19726,0.56858
1021.70747,0.69590
1020.21769,0.87864
1018.72790,1.16111
1017.23811,1.25862
1015.74832,1.35616
1014.25853,1.58002
1012.76874,1.59787
1011.27896,1.80407
1009.78917,1.89067
1008.29938,1.98948
1006.80959,1.99472
1005.31980,2.00000
1003.83001,1.78432
1002.34022,1.71156
1000.85044,1.64106
999.36065,1.52849
997.87086,1.49848
996.38107,1.46850
994.89128,1.49339
993.40149,1.54379
991.91171,1.45687
990.42192,1.36554
988.93213,1.36065
987.44234,1.36798
985.95255,1.37535
984.46276,1.42483
982.97297,1.40789
981.48319,1.40760
979.99340,1.36302
978.50361,1.32015
977.01382,1.27730
975.52403,1.21954
974.03424,1.15626
972.54446,1.19383
971.05467,1.06083
969.56488,1.01649
968.07509,0.97329
966.58530,0.93012
965.09551,0.97671
963.60573,0.98123
962.11594,0.89385
960.62615,0.86521
959.13636,0.81999
957.64657,0.77480
956.15678,0.74515
954.66699,0.75763
953.17721,0.61727
951.68742,0.65640
950.19763,0.65347
948.70784,0.65056
947.21805,0.65434
945.72826,0.71243
944.23848,0.69634
942.74869,0.78329
941.25890,0.72739
939.76911,0.73299
938.27932,0.73862
936.78953,0.84787
935.29974,0.76661
933.80996,0.79173
932.32017,0.81577
930.83038,0.81714
929.34059,0.81854
927.85080,0.86816
926.36101,0.75941
924.87123,0.72823
923.38144,0.72477
921.89165,0.72745
920.40186,0.73015
918.91207,0.73455
917.42228,0.78772
915.93250,0.72572
914.44271,0.81440
912.95292,0.79456
911.46313,0.77475
909.97334,0.84581
908.48355,0.92798
906.99376,0.86839
905.50398,0.82877
904.01419,0.80636
902.52440,0.78397
901.03461,0.77215
899.54482,0.88553
898.05503,0.85272
896.56525,0.89416
895.07546,0.90351
893.58567,0.91289
892.09588,0.87800
890.60609,0.90407
889.11630,0.86370
887.62651,0.88429
886.13673,0.84122
884.64694,0.79818
883.15715,0.96842
881.66736,0.82519
880.17757,0.94232
878.68778,0.89830
877.19800,0.85432
875.70821,0.85302
874.21842,0.93151
872.72863,0.97347
871.23884,1.07861
869.74905,1.08907
868.25927,1.09956
866.76948,1.08737
865.27969,1.02538
863.78990,1.11184
862.30011,1.11527
860.81032,1.07220
859.32053,1.02916
857.83075,1.04929
856.34096,1.01961
854.85117,0.92129
853.36138,0.80306
851.87159,0.74966
850.38180,0.69629
848.89202,0.61139
847.40223,0.43347
845.91244,0.38408
844.42265,0.43054
842.93286,0.47703
841.44307,0.43439
839.95329,0.39177
838.46350,0.29824
836.97371,0.29335
835.48392,0.31841
833.99413,0.34350
832.50434,0.35533
831.01455,0.37051
829.52477,0.36246
828.03498,0.27469
826.54519,0.28665
825.05540,0.29864
823.56561,0.15448
822.07582,0.21749
820.58604,0.15093
819.09625,0.13536
817.60646,0.11982
816.11667,0.11650
814.62688,0.08884
813.13709,0.02355
811.64730,0.01147
810.15752,0.00828
808.66773,0.00512
807.17794,0.07771
805.68815,0.09606
804.19836,0.09451
802.70857,0.11957
801.21879,0.14466
799.72900,0.11994
798.23921,0.25809
796.74942,0.36414
795.25963,0.40432
793.76984,0.44453
792.28006,0.48754
790.79027,0.57490
789.30048,0.53601
787.81069,0.57801
786.32090,0.61340
784.83111,0.64882
783.34132,0.71308
781.85154,0.72641
780.36175,0.69325
778.87196,0.73600
777.38217,0.77879
775.89238,0.81773
774.40259,0.85670
772.91281,0.99097
771.42302,0.98847
769.93323,0.98600
768.44344,0.87002
766.95365,0.88147
765.46386,0.93725
763.97407,0.90777
762.48429,0.80909
760.99450,0.71045
759.50471,0.60464
758.01492,0.52987
756.52513,0.45735
755.03534,0.39484
753.54556,0.33236
752.05577,0.25773
750.56598,0.19642
749.07619,0.19828
747.58640,0.15421
746.09661,0.11017
744.60683,0.08444
743.11704,0.07092
741.62725,0.09068
740.13746,0.07668
738.64767,0.06271
737.15788,0.06372
735.66809,0.03154
734.17831,0.03041
732.68852,0.02876
731.19873,0.02714
729.70894,0.02167
728.21915,0.00516
726.72936,0.11227
725.23958,0.05214
723.74979,0.05463
722.26000,0.05716
720.77021,0.09350
719.28042,0.01245
717.79063,0.14413
716.30084,0.11022
714.81106,0.07636
713.32127,0.01870
711.83148,0.05635
710.34169,0.03200
708.85190,0.01598
707.36211,-0.00000
705.87233,0.09157
704.38254,0.08238
702.89275,0.07211
701.40296,0.07128
699.91317,0.07049
698.42338,0.06475
696.93360,0.13768
695.44381,0.15749
693.95402,0.14575
692.46423,0.13404
690.97444,0.12735
689.48465,0.15725
687.99486,0.21599
686.50508,0.19832
685.01529,0.18068
683.52550,0.24395
682.03571,0.23745
680.54592,0.21992
679.05613,0.22401
677.56635,0.22814
676.07656,0.20073
674.58677,0.12129
673.09698,0.19475
671.60719,0.17908
670.11740,0.16343
668.62761,0.04313
667.13783,0.07131
665.64804,0.06130
664.15825,0.05132
662.66846,0.08956
661.17867,0.11454
659.68888,0.05537
658.19910,0.05936
656.70931,0.06340
655.21952,0.10734
653.72973,0.09260
652.23994,0.14991
650.75015,0.19118
649.26037,0.23248
647.77058,0.20126
646.28079,0.14459
644.79100,0.01707
643.30121,0.01198
641.81142,0.00692
640.32163,0.06757
638.83185,0.03077
637.34206,0.04385
635.85227,0.04534
634.36248,0.04685
632.87269,0.02569
631.38290,0.07325
629.89312,0.01006
628.40333,0.05405
626.91354,0.09808
625.42375,0.11112
623.93396,0.03668
622.44417,0.04425
620.95438,0.05185
619.46460,0.07499
617.97481,0.00512
616.48502,0.03451
614.99523,0.09551
613.50544,0.15654
612.01565,0.10407
610.52587,0.12362
609.03608,0.09780
607.54629,0.12296
606.05650,0.14815
604.56671,0.17891
603.07692,0.17316
601.58714,0.19236
600.09735,0.21159
598.60756,0.14943
597.11777,0.10614
595.62798,0.06067
594.13819,0.07892
592.64840,0.09721
591.15862,0.06734
589.66883,0.10951
588.17904,0.15504
586.68925,0.13080
585.19946,0.10661
583.70967,0.11567
582.21989,0.12810
580.73010,0.16769
579.24031,0.20732
577.75052,0.13565
576.26073,0.22685
574.77094,0.19181
573.28115,0.21384
571.79137,0.23591
570.30158,0.17326
568.81179,0.16382
567.32200,0.24470
565.83221,0.32561
564.34242,0.32513
562.85264,0.33243
561.36285,0.37633
559.87306,0.42414
558.38327,0.47197
556.89348,0.51818
555.40369,0.55667
553.91391,0.59242
552.42412,0.62820
550.93433,0.55491
549.44454,0.65667
547.95475,0.69532
546.46496,0.67806
544.97517,0.66083
543.48539,0.78709
541.99560,0.73282
540.50581,0.71182
539.01602,0.69085
537.52623,0.69982
536.03644,0.62685
534.54666,0.59601
533.05687,0.60840
531.56708,0.62082
530.07729,0.56681
528.58750,0.51727
527.09771,0.52647
525.60792,0.53570
524.11814,0.56933
522.62835,0.40693
521.13856,0.50709
519.64877,0.49818
518.15898,0.48929
516.66919,0.47878
515.17941,0.40294
513.68962,0.40247
512.19983,0.40202
510.71004,0.35841
509.22025,0.40233
507.73046,0.35546
506.24068,0.40832
504.75089,0.46121
503.26110,0.42994
501.77131,0.47403
500.28152,0.49656
498.79173,0.51911
497.30194,0.43592
495.81216,0.42143
494.32237,0.41196
492.83258,0.40252
491.34279,0.37373
489.85300,0.32504
488.36321,0.28413
486.87343,0.28701
485.38364,0.28992
483.89385,0.33440
482.40406,0.18063
480.91427,0.15262
479.42448,0.12465
477.93469,0.08618
476.44491,0.14966
474.95512,0.13508
473.46533,0.12053
471.97554,0.13536
470.48575,0.00512
468.99596,0.12211
467.50618,0.06355
466.01639,0.00503
464.52660,0.05344
463.03681,0.04095
461.54702,0.09607
460.05723,0.15122
458.56745,0.02363
457.07766,0.13423
455.58787,0.14683
454.09808,0.15946
452.60829,0.22586
451.11850,0.13055
449.62871,0.19590
448.13893,0.26128
446.64914,0.34885
445.15935,0.39768
443.66956,0.53959
442.17977,0.54307
440.68998,0.54658
439.20020,0.59776
437.71041,0.63678
436.22062,0.69467
434.73083,0.75259
433.24104,0.90138
431.75125,1.00589
430.26146,1.04895
428.77168,1.09205
427.28189,1.20552
425.79210,1.31902
424.30231,1.28468
422.81252,1.25036
421.32273,1.26981
419.83295,1.20842
418.34316,1.10054
416.85337,0.99269
415.36358,0.89152
413.87379,0.84134
412.38400,0.75464
410.89422,0.66797
409.40443,0.67216
407.91464,0.58445
406.42485,0.59979
404.93506,0.61405
403.44527,0.62835
401.95548,0.53966
400.46570,0.52190
398.97591,0.52189
397.48612,0.52192
395.99633,0.56739
394.50654,0.46557
393.01675,0.49284
391.52697,0.52013
390.03718,0.43503
388.54739,0.36657
387.05760,0.36350
385.56781,0.36047
384.07802,0.41617
382.58824,0.38994
381.09845,0.40528
379.60866,0.42065
378.11887,0.37236
376.62908,0.28976
375.13929,0.30302
373.64950,0.31630
372.15972,0.23159
370.66993,0.20451
369.18014,0.19519
367.69035,0.18589
366.20056,0.09909
364.71077,0.09652
363.22099,0.14880
361.73120,0.20112
360.24141,0.16651
358.75162,0.14856
357.26183,0.19488
355.77204,0.24124
354.28225,0.25661
352.79247,0.19226
351.30268,0.18388
349.81289,0.17553
348.32310,0.19325
346.83331,0.15672
345.34352,0.08090
343.85374,0.00512
342.36395,0.19830
340.87416,0.11902
339.38437,0.14168
337.89458,0.16437
336.40479,0.16494
334.91501,0.11126
333.42522,0.10968
331.93543,0.10813
330.44564,0.16975
328.95585,0.24692
327.46606,0.20448
325.97627,0.16208
324.48649,0.00672
322.99670,0.08993
321.50691,0.12444
320.01712,0.15898
318.52733,0.14591
317.03754,0.17941
315.54776,0.16364
314.05797,0.14791
312.56818,0.14827
311.07839,0.10214
309.58860,0.07100
308.09881,0.03989
306.60902,0.04481
305.11924,0.10626
303.62945,0.06029
302.13966,0.01436
300.64987,0.00512
299.16008,0.00512
