1778.52000,0.04227
1777.03021,0.06658
1775.54042,0.04435
1774.05063,0.03174
1772.56085,0.00000
1771.07106,0.08197
1769.58127,0.01195
1768.09148,0.05976
1766.60169,0.06240
1765.11190,0.06782
1763.62212,0.04452
1762.13233,0.09110
1760.64254,0.08567
1759.15275,0.03235
1757.66296,0.04890
1756.17317,0.03537
1754.68339,0.02598
1753.19360,0.04265
1751.70381,0.01964
1750.21402,0.03090
1748.72423,0.01892
1747.23444,0.06998
1745.74465,0.12655
1744.25487,0.06811
1742.76508,0.06998
1741.27529,0.07187
1739.78550,0.11216
1738.29571,0.04702
1736.80592,0.03670
1735.31614,0.03875
1733.82635,0.01618
1732.33656,0.05253
1730.84677,0.08071
1729.35698,0.06099
1727.86719,0.06185
1726.37740,0.06822
1724.88762,0.02943
1723.39783,0.04410
1721.90804,0.03962
1720.41825,0.03656
1718.92846,0.00339
1717.43867,0.03738
1715.94889,0.05360
1714.45910,0.00000
1712.96931,0.07454
1711.47952,0.09708
1709.98973,0.07582
1708.49994,0.05323
1707.01016,0.08136
1705.52037,0.10951
1704.03058,0.09388
1702.54079,0.07966
1701.05100,0.11888
1699.56121,0.10473
1698.07142,0.14540
1696.58164,0.13680
1695.09185,0.18302
1693.60206,0.18271
1692.11227,0.20572
1690.62248,0.15892
1689.13269,0.21213
1687.64291,0.16677
1686.15312,0.25156
1684.66333,0.20354
1683.17354,0.24457
1681.68375,0.29934
1680.19396,0.24320
1678.70417,0.21861
1677.21439,0.29266
1675.72460,0.22705
1674.23481,0.26282
1672.74502,0.20276
1671.25523,0.28929
1669.76544,0.32928
1668.27566,0.29946
1666.78587,0.21353
1665.29608,0.27555
1663.80629,0.27049
1662.31650,0.22575
1660.82671,0.18653
1659.33693,0.20350
1657.84714,0.17941
1656.35735,0.20193
1654.86756,0.17929
1653.37777,0.16490
1651.88798,0.17110
1650.39819,0.24718
1648.90841,0.16579
1647.41862,0.11594
1645.92883,0.14008
1644.43904,0.16427
1642.94925,0.14329
1641.45946,0.16206
1639.96968,0.11240
1638.47989,0.18740
1636.99010,0.12685
1635.50031,0.18001
1634.01052,0.15788
1632.52073,0.12072
1631.03094,0.14524
1629.54116,0.14376
1628.05137,0.12726
1626.56158,0.15188
1625.07179,0.11353
1623.58200,0.19849
1622.09221,0.19172
1620.60243,0.22060
1619.11264,0.17418
1617.62285,0.17437
1616.13306,0.17185
1614.64327,0.14198
1613.15348,0.19295
1611.66370,0.19740
1610.17391,0.20051
1608.68412,0.17763
1607.19433,0.18218
1605.70454,0.13747
1604.21475,0.14278
1602.72496,0.14812
1601.23518,0.16378
1599.74539,0.18632
1598.25560,0.12809
1596.76581,0.11236
1595.27602,0.15281
1593.78623,0.13304
1592.29645,0.05989
1590.80666,0.06211
1589.31687,0.12462
1587.82708,0.11595
1586.33729,0.11417
1584.84750,0.07271
1583.35771,0.04224
1581.86793,0.08713
1580.37814,0.14712
1578.88835,0.09074
1577.39856,0.06863
1575.90877,0.07395
1574.41898,0.10123
1572.92920,0.09292
1571.43941,0.09288
1569.94962,0.06273
1568.45983,0.03263
1566.97004,0.08885
1565.48025,0.05196
1563.99047,0.08771
1562.50068,0.07693
1561.01089,0.10453
1559.52110,0.08149
1558.03131,0.15847
1556.54152,0.14783
1555.05173,0.12079
1553.56195,0.05955
1552.07216,0.13942
1550.58237,0.11523
1549.09258,0.08286
1547.60279,0.06423
1546.11300,0.11548
1544.62322,0.16539
1543.13343,0.07839
1541.64364,0.14070
1540.15385,0.12362
1538.66406,0.10657
1537.17427,0.12380
1535.68448,0.00000
1534.19470,0.07253
1532.70491,0.13825
1531.21512,0.04787
1529.72533,0.12462
1528.23554,0.04253
1526.74575,0.02485
1525.25597,0.05925
1523.76618,0.14163
1522.27639,0.03092
1520.78660,0.09693
1519.29681,0.00000
1517.80702,0.08416
1516.31724,0.04372
1514.82745,0.04441
1513.33766,0.07047
1511.84787,0.09657
1510.35808,0.06724
1508.86829,0.07492
1507.37850,0.06209
1505.88872,0.00000
1504.39893,0.03625
1502.90914,0.04925
1501.41935,0.05408
1499.92956,0.08085
1498.43977,0.04603
1496.94999,0.14820
1495.46020,0.18193
1493.97041,0.20611
1492.48062,0.27279
1490.99083,0.21623
1489.50104,0.33639
1488.01125,0.36825
1486.52147,0.40015
1485.03168,0.50399
1483.54189,0.55581
1482.05210,0.60220
1480.56231,0.73491
1479.07252,0.84437
1477.58274,0.84019
1476.09295,0.91138
1474.60316,0.93467
1473.11337,1.09221
1471.62358,1.05668
1470.13379,1.07186
1468.64401,1.05420
1467.15422,1.05302
1465.66443,1.03201
1464.17464,1.01104
1462.68485,0.93601
1461.19506,0.94866
1459.70527,0.84494
1458.21549,0.78782
1456.72570,0.77457
1455.23591,0.80792
1453.74612,0.65915
1452.25633,0.58848
1450.76654,0.66166
1449.27676,0.58832
1447.78697,0.54653
1446.29718,0.50888
1444.80739,0.51988
1443.31760,0.53093
1441.82781,0.38793
1440.33802,0.27646
1438.84824,0.28830
1437.35845,0.31113
1435.86866,0.28880
1434.37887,0.22816
1432.88908,0.25795
1431.39929,0.24943
1429.90951,0.22725
1428.41972,0.26126
1426.92993,0.21175
1425.44014,0.24036
1423.95035,0.24024
1422.46056,0.24015
1420.97078,0.28804
1419.48099,0.33185
1417.99120,0.29216
1416.50141,0.38398
1415.01162,0.37997
1413.52183,0.35545
1412.03204,0.35425
1410.54226,0.35172
1409.05247,0.33553
1407.56268,0.25774
1406.07289,0.20054
1404.58310,0.19130
1403.09331,0.18210
1401.60353,0.24553
1400.11374,0.32817
1398.62395,0.35744
1397.13416,0.30867
1395.64437,0.38320
1394.15458,0.34957
1392.66479,0.35158
1391.17501,0.35911
1389.68522,0.28998
1388.19543,0.31265
1386.70564,0.30934
1385.21585,0.30606
1383.72606,0.28501
1382.23628,0.25578
1380.74649,0.27042
1379.25670,0.23031
1377.76691,0.28610
1376.27712,0.27209
1374.78733,0.24715
1373.29755,0.31127
1371.80776,0.37133
1370.31797,0.49168
1368.82818,0.56481
1367.33839,0.63799
1365.84860,0.76941
1364.35881,0.86388
1362.86903,0.89402
1361.37924,1.02829
1359.88945,0.96126
1358.39966,1.00658
1356.90987,1.01221
1355.42008,1.09732
1353.93030,1.14137
1352.44051,1.07316
1350.95072,1.00498
1349.46093,1.00943
1347.97114,0.75368
1346.48135,0.65000
1344.99156,0.69428
1343.50178,0.63450
1342.01199,0.63228
1340.52220,0.56573
1339.03241,0.45265
1337.54262,0.45191
1336.05283,0.46148
1334.56305,0.47109
1333.07326,0.43622
1331.58347,0.43152
1330.09368,0.43233
1328.60389,0.42085
1327.11410,0.35326
1325.62432,0.35419
1324.13453,0.33734
1322.64474,0.32601
1321.15495,0.34211
1319.66516,0.33839
1318.17537,0.33470
1316.68558,0.35502
1315.19580,0.32470
1313.70601,0.20950
1312.21622,0.23815
1310.72643,0.26683
1309.23664,0.24487
1307.74685,0.28047
1306.25707,0.28461
1304.76728,0.26824
1303.27749,0.25191
1301.78770,0.26438
1300.29791,0.27277
1298.80812,0.26477
1297.31834,0.28556
1295.82855,0.22969
1294.33876,0.23961
1292.84897,0.23038
1291.35918,0.27871
1289.86939,0.27161
1288.37960,0.26455
1286.88982,0.34586
1285.40003,0.35736
1283.91024,0.36479
1282.42045,0.30788
1280.93066,0.35099
1279.44087,0.35168
1277.95109,0.38391
1276.46130,0.37234
1274.97151,0.39094
1273.48172,0.40959
1271.99193,0.42689
1270.50214,0.39082
1269.01235,0.49312
1267.52257,0.43384
1266.03278,0.40472
1264.54299,0.46193
1263.05320,0.53698
1261.56341,0.55249
1260.07362,0.56804
1258.58384,0.59663
1257.09405,0.54993
1255.60426,0.56217
1254.11447,0.57717
1252.62468,0.59907
1251.13489,0.53060
1249.64511,0.45669
1248.15532,0.44582
1246.66553,0.47266
1245.17574,0.49953
1243.68595,0.43946
1242.19616,0.40956
1240.70637,0.43312
1239.21659,0.34714
1237.72680,0.35296
1236.23701,0.25747
1234.74722,0.30856
1233.25743,0.29395
1231.76764,0.27938
1230.27786,0.18951
1228.78807,0.21747
1227.29828,0.24272
1225.80849,0.19816
1224.31870,0.17555
1222.82891,0.15983
1221.33912,0.12359
1219.84934,0.13465
1218.35955,0.14574
1216.86976,0.16714
1215.37997,0.20912
1213.89018,0.29086
1212.40039,0.23704
1210.91061,0.09287
1209.42082,0.18156
1207.93103,0.15936
1206.44124,0.13719
1204.95145,0.17942
1203.46166,0.09843
1201.97188,0.10102
1200.48209,0.12283
1198.99230,0.06523
1197.50251,0.06793
1196.01272,0.06246
1194.52293,0.06112
1193.03314,0.05982
1191.54336,0.05856
1190.05357,0.05460
1188.56378,0.00000
1187.07399,0.00260
1185.58420,0.04085
1184.09441,0.05586
1182.60463,0.08665
1181.11484,0.11748
1179.62505,0.06000
1178.13526,0.09159
1176.64547,0.07253
1175.15568,0.09871
1173.66589,0.14821
1172.17611,0.13612
1170.68632,0.11995
1169.19653,0.10382
1167.70674,0.12744
1166.21695,0.02784
1164.72716,0.12275
1163.23738,0.05061
1161.74759,0.04973
1160.25780,0.09545
1158.76801,0.05903
1157.27822,0.02265
1155.78843,0.00000
1154.29865,0.04511
1152.80886,0.07382
1151.31907,0.11078
1149.82928,0.07246
1148.33949,0.10949
1146.84970,0.08014
1145.35991,0.05083
1143.87013,0.06743
1142.38034,0.13748
1140.89055,0.10759
1139.40076,0.15444
1137.91097,0.33828
1136.42118,0.30165
1134.93140,0.31026
1133.44161,0.31890
1131.95182,0.32347
1130.46203,0.28014
1128.97224,0.30944
1127.48245,0.26070
1125.99266,0.27363
1124.50288,0.31537
1123.01309,0.31399
1121.52330,0.31265
1120.03351,0.42983
1118.54372,0.39227
1117.05393,0.45336
1115.56415,0.42409
1114.07436,0.43458
1112.58457,0.44715
1111.09478,0.45977
1109.60499,0.52515
1108.11520,0.56729
1106.62542,0.59713
1105.13563,0.65988
1103.64584,0.71582
1102.15605,0.81700
1100.66626,0.83398
1099.17647,0.85099
1097.68668,0.76738
1096.19690,0.91664
1094.70711,0.86597
1093.21732,0.98243
1091.72753,1.02908
1090.23774,1.01002
1088.74795,0.99100
1087.25817,1.07610
1085.76838,1.23246
1084.27859,1.08618
1082.78880,1.30698
1081.29901,1.22103
1079.80922,1.16799
1078.31943,1.15813
1076.82965,1.14830
1075.33986,1.22822
1073.85007,1.12876
1072.36028,1.15945
1070.87049,1.27371
1069.38070,1.39624
1067.89092,1.41539
1066.40113,1.43459
1064.91134,1.36547
1063.42155,1.20874
1061.93176,1.09862
1060.44197,1.05016
1058.95219,1.06200
1057.46240,1.00540
1055.97261,0.94883
1054.48282,0.89778
1052.99303,0.80020
1051.50324,0.80538
1050.01345,0.78046
1048.52367,0.72545
1047.03388,0.64171
1045.54409,0.55801
1044.05430,0.65513
1042.56451,0.58383
1041.07472,0.55776
1039.58494,0.39614
1038.09515,0.42356
1036.60536,0.36404
1035.11557,0.30457
1033.62578,0.36497
1032.13599,0.37747
1030.64620,0.41466
1029.15642,0.45599
1027.66663,0.41450
1026.17684,0.37305
1024.68705,0.45147
1023.19726,0.61211
1021.70747,0.83031
1020.21769,0.94583
1018.72790,1.10384
1017.23811,1.18724
1015.74832,1.27067
1014.25853,1.48632
1012.76874,1.63899
1011.27896,1.83006
1009.78917,1.87871
1008.29938,2.00000
1006.80959,1.91040
1005.31980,1.82084
1003.83001,1.79021
1002.34022,1.74455
1000.85044,1.57703
999.36065,1.49446
997.87086,1.47493
996.38107,1.45544
994.89128,1.46886
993.40149,1.34535
991.91171,1.40267
990.42192,1.53261
988.93213,1.39277
987.44234,1.38788
985.95255,1.38303
984.46276,1.39396
982.97297,1.41726
981.48319,1.38033
979.99340,1.30371
978.50361,1.28877
977.01382,1.27386
975.52403,1.29460
974.03424,1.18527
972.54446,1.16225
971.05467,1.13242
969.56488,1.16975
968.07509,1.11808
966.58530,1.06645
965.09551,0.99294
963.60573,0.91125
962.11594,0.95560
960.62615,0.99315
959.13636,0.96019
957.64657,0.92727
956.15678,0.82385
954.66699,0.86701
953.17721,0.75956
951.68742,0.82882
950.19763,0.85224
948.70784,0.87569
947.21805,0.72592
945.72826,0.68302
944.23848,0.65523
942.74869,0.77401
941.25890,0.75451
939.76911,0.78777
938.27932,0.82106
936.78953,0.92219
935.29974,0.92200
933.80996,0.83420
932.32017,0.81217
930.83038,0.81004
929.34059,0.80795
927.85080,1.00380
926.36101,0.95727
924.87123,0.89844
923.38144,0.79720
921.89165,0.81104
920.40186,0.82492
918.91207,0.82239
917.42228,0.86784
915.93250,0.89005
914.44271,0.87120
912.95292,0.84965
911.46313,0.82813
909.97334,0.89979
908.48355,1.01394
906.99376,1.05417
905.50398,1.00678
904.01419,1.00736
902.52440,1.00798
901.03461,1.01275
899.54482,0.93811
898.05503,1.00321
896.56525,1.02589
895.07546,1.03423
893.58567,1.04260
892.09588,1.01471
890.60609,1.13067
889.11630,0.98507
887.62651,1.00660
886.13673,1.02200
884.64694,1.03744
883.15715,0.98786
881.66736,0.85614
880.17757,0.91483
878.68778,0.88728
877.19800,0.85976
875.70821,0.82953
874.21842,1.02122
872.72863,1.04723
871.23884,1.08970
869.74905,1.08223
868.25927,1.07479
866.76948,1.02835
865.27969,1.01755
863.78990,1.06021
862.30011,1.05634
860.81032,1.05182
859.32053,1.04734
857.83075,0.94634
856.34096,0.98507
854.85117,0.85812
853.36138,0.80379
851.87159,0.77552
850.38180,0.74729
848.89202,0.62049
847.40223,0.46769
845.91244,0.34918
844.42265,0.36835
842.93286,0.38755
841.44307,0.45815
839.95329,0.39457
838.46350,0.39402
836.97371,0.30038
835.48392,0.31155
833.99413,0.32275
832.50434,0.27852
831.01455,0.34116
829.52477,0.33262
828.03498,0.35287
826.54519,0.30537
825.05540,0.25790
823.56561,0.18376
822.07582,0.21512
820.58604,0.13832
819.09625,0.10948
817.60646,0.08069
816.11667,0.01632
814.62688,0.16565
813.13709,0.00000
811.64730,0.00988
810.15752,0.01431
808.66773,0.01878
807.17794,0.00959
805.68815,0.08399
804.19836,0.12692
802.70857,0.16098
801.21879,0.19508
799.72900,0.21895
798.23921,0.25243
796.74942,0.41470
795.25963,0.46538
793.76984,0.51610
792.28006,0.50591
790.79027,0.54643
789.30048,0.55959
787.81069,0.61252
786.32090,0.64630
784.83111,0.68012
783.34132,0.75369
781.85154,0.71225
780.36175,0.68729
778.87196,0.71920
777.38217,0.75114
775.89238,0.90982
774.40259,0.93704
772.91281,1.02457
771.42302,1.00804
769.93323,0.99155
768.44344,1.04221
766.95365,0.97922
765.46386,1.06282
763.97407,0.96567
762.48429,0.92334
760.99450,0.88104
759.50471,0.65526
758.01492,0.50621
756.52513,0.49004
755.03534,0.44036
753.54556,0.39072
752.05577,0.31166
750.56598,0.26826
749.07619,0.17832
747.58640,0.15758
746.09661,0.13688
744.60683,0.04295
743.11704,0.06272
741.62725,0.03460
740.13746,0.05034
738.64767,0.06612
737.15788,0.11755
735.66809,0.04027
734.17831,0.00000
732.68852,0.00906
731.19873,0.01815
729.70894,0.07658
728.21915,0.12547
726.72936,0.06619
725.23958,0.07817
723.74979,0.07717
722.26000,0.07621
720.77021,0.08693
719.28042,0.07166
717.79063,0.06191
716.30084,0.06452
714.81106,0.06717
713.32127,0.04657
711.83148,0.01505
710.34169,0.00000
708.85190,0.02663
707.36211,0.05329
705.87233,0.13408
704.38254,0.07933
702.89275,0.08076
701.40296,0.05141
699.91317,0.02210
698.42338,0.07295
696.93360,0.07179
695.44381,0.21037
693.95402,0.20107
692.46423,0.19180
690.97444,0.18394
689.48465,0.12133
687.99486,0.17381
686.50508,0.16469
685.01529,0.15560
683.52550,0.19586
682.03571,0.24437
680.54592,0.22581
679.05613,0.22098
677.56635,0.21619
676.07656,0.10049
674.58677,0.14097
673.09698,0.14725
671.60719,0.13096
670.11740,0.11471
668.62761,0.10877
667.13783,0.11108
665.64804,0.07645
664.15825,0.04185
662.66846,0.05112
661.17867,0.00154
659.68888,0.09853
658.19910,0.11339
656.70931,0.12829
655.21952,0.13500
653.72973,0.19790
652.23994,0.18689
650.75015,0.19302
649.26037,0.19920
647.77058,0.24034
646.28079,0.08977
644.79100,0.07208
643.30121,0.11470
641.81142,0.15735
640.32163,0.12608
638.83185,0.08663
637.34206,0.01435
635.85227,0.00716
634.36248,0.00000
632.87269,0.12827
631.38290,0.10043
629.89312,0.15481
628.40333,0.10445
626.91354,0.05413
625.42375,0.07027
623.93396,0.06454
622.44417,0.09171
620.95438,0.11891
619.46460,0.06261
617.97481,0.13098
616.48502,0.13638
614.99523,0.15073
613.50544,0.16511
612.01565,0.09666
610.52587,0.11865
609.03608,0.07630
607.54629,0.06206
606.05650,0.04786
604.56671,0.16723
603.07692,0.12366
601.58714,0.13833
600.09735,0.15304
598.60756,0.05616
597.11777,0.05108
595.62798,0.08028
594.13819,0.06501
592.64840,0.04977
591.15862,0.07908
589.66883,0.13718
588.17904,0.02139
586.68925,0.04533
585.19946,0.06930
583.70967,0.11797
582.21989,0.06121
580.73010,0.10858
579.24031,0.15599
577.75052,0.11989
576.26073,0.22078
574.77094,0.13682
573.28115,0.13027
571.79137,0.12376
570.30158,0.28507
568.81179,0.34369
567.32200,0.32907
565.83221,0.31449
564.34242,0.34993
562.85264,0.40322
561.36285,0.41820
559.87306,0.46745
558.38327,0.51674
556.89348,0.52087
555.40369,0.65651
553.91391,0.65524
552.42412,0.65400
550.93433,0.72264
549.44454,0.67080
547.95475,0.67104
546.46496,0.65556
544.97517,0.64013
543.48539,0.69115
541.99560,0.67921
540.50581,0.71867
539.01602,0.75816
537.52623,0.80248
536.03644,0.67838
534.54666,0.72551
533.05687,0.71448
531.56708,0.70348
530.07729,0.66718
528.58750,0.57613
527.09771,0.62618
525.60792,0.67628
524.11814,0.68532
522.62835,0.63277
521.13856,0.60627
519.64877,0.57639
518.15898,0.54655
516.66919,0.41196
515.17941,0.40342
513.68962,0.41546
512.19983,0.42753
510.71004,0.34925
509.22025,0.43946
507.73046,0.42563
506.24068,0.41867
504.75089,0.41176
503.26110,0.34735
501.77131,0.39255
500.28152,0.33986
498.79173,0.28721
497.30194,0.35580
495.81216,0.46689
494.32237,0.43490
492.83258,0.40293
491.34279,0.40867
489.85300,0.28570
488.36321,0.20934
486.87343,0.18780
485.38364,0.16629
483.89385,0.26534
482.40406,0.21378
480.91427,0.15403
479.42448,0.09432
477.93469,0.03739
476.44491,0.07773
474.95512,0.05238
473.46533,0.02705
471.97554,0.00451
470.48575,0.13364
468.99596,0.05738
467.50618,0.05785
466.01639,0.05835
464.52660,0.00000
463.03681,0.05632
461.54702,0.04352
460.05723,0.03075
458.56745,0.03102
457.07766,0.12173
455.58787,0.15906
454.09808,0.19643
452.60829,0.24205
451.11850,0.21786
449.62871,0.19850
448.13893,0.17918
446.64914,0.25781
445.15935,0.36114
443.66956,0.47957
442.17977,0.51175
440.68998,0.54397
439.20020,0.68580
437.71041,0.76055
436.22062,0.74151
434.73083,0.72252
433.24104,0.86038
431.75125,1.00924
430.26146,1.09649
428.77168,1.18379
427.28189,1.35878
425.79210,1.41465
424.30231,1.37605
422.81252,1.33748
421.32273,1.27294
419.83295,1.25773
418.34316,1.19394
416.85337,1.13019
415.36358,0.98498
413.87379,0.91787
412.38400,0.79054
410.89422,0.66325
409.40443,0.75376
407.91464,0.77309
406.42485,0.73767
404.93506,0.66667
403.44527,0.59572
401.95548,0.50562
400.46570,0.49500
398.97591,0.52003
397.48612,0.54509
395.99633,0.49349
394.50654,0.54876
393.01675,0.54654
391.52697,0.54435
390.03718,0.47920
388.54739,0.46066
387.05760,0.44900
385.56781,0.43737
384.07802,0.38333
382.58824,0.45121
381.09845,0.38834
379.60866,0.32550
378.11887,0.31406
376.62908,0.29992
375.13929,0.30635
373.64950,0.31283
372.15972,0.24264
370.66993,0.22316
369.18014,0.15921
367.69035,0.09529
366.20056,0.17180
364.71077,0.21821
363.22099,0.20645
361.73120,0.19473
360.24141,0.24125
358.75162,0.16591
357.26183,0.15498
355.77204,0.14409
354.28225,0.07982
352.79247,0.08818
351.30268,0.05959
349.81289,0.03104
348.32310,0.07389
346.83331,0.08255
345.34352,0.11247
343.85374,0.14242
342.36395,0.11831
340.87416,0.06274
339.38437,0.09828
337.89458,0.13387
336.40479,0.16743
334.91501,0.10652
333.42522,0.08606
331.93543,0.06563
330.44564,0.15275
328.95585,0.13582
327.46606,0.13742
325.97627,0.13905
324.48649,0.06745
322.99670,0.12976
321.50691,0.12980
320.01712,0.12987
318.52733,0.12245
317.03754,0.24243
315.54776,0.25015
314.05797,0.25790
312.56818,0.23966
311.07839,0.18860
309.58860,0.14715
308.09881,0.10574
306.60902,0.00000
305.11924,0.07443
303.62945,0.14411
302.13966,0.21382
300.64987,0.08566
299.16008,0.00000
