1778.52000,0.02257
1777.03021,0.03010
1775.54042,0.03683
1774.05063,0.01770
1772.56085,0.04370
1771.07106,0.05470
1769.58127,0.00644
1768.09148,0.03922
1766.60169,0.05867
1765.11190,0.04725
1763.62212,0.05006
1762.13233,0.04705
1760.64254,0.04158
1759.15275,0.06871
1757.66296,0.06914
1756.17317,0.07629
1754.68339,0.07010
1753.19360,0.04641
1751.70381,0.06786
1750.21402,0.03504
1748.72423,0.00644
1747.23444,0.08372
1745.74465,0.05162
1744.25487,0.05965
1742.76508,0.03681
1741.27529,0.06912
1739.78550,0.08225
1738.29571,0.05282
1736.80592,0.07186
1735.31614,0.06505
1733.82635,0.04741
1732.33656,0.03648
1730.84677,0.06401
1729.35698,0.05732
1727.86719,0.04315
1726.37740,0.03987
1724.88762,0.02410
1723.39783,0.00000
1721.90804,0.00767
1720.41825,0.02290
1718.92846,0.00725
1717.43867,0.03924
1715.94889,0.05790
1714.45910,0.00644
1712.96931,0.06920
1711.47952,0.07938
1709.98973,0.08876
1708.49994,0.08480
1707.01016,0.08380
1705.52037,0.08283
1704.03058,0.06311
1702.54079,0.10355
1701.05100,0.11061
1699.56121,0.11186
1698.07142,0.14321
1696.58164,0.11779
1695.09185,0.14587
1693.60206,0.20905
1692.11227,0.18624
1690.62248,0.17265
1689.13269,0.20419
1687.64291,0.19568
1686.15312,0.20807
1684.66333,0.23303
1683.17354,0.20707
1681.68375,0.20704
1680.19396,0.18866
1678.70417,0.20373
1677.21439,0.17205
1675.72460,0.19720
1674.23481,0.16893
1672.74502,0.16659
1671.25523,0.19267
1669.76544,0.22380
1668.27566,0.22489
1666.78587,0.17841
1665.29608,0.18374
1663.80629,0.17657
1662.31650,0.20285
1660.82671,0.17821
1659.33693,0.18785
1657.84714,0.14574
1656.35735,0.14291
1654.86756,0.14680
1653.37777,0.11898
1651.88798,0.13462
1650.39819,0.15949
1648.90841,0.11673
1647.41862,0.14918
1645.92883,0.13739
1644.43904,0.12563
1642.94925,0.12727
1641.45946,0.13312
1639.96968,0.18911
1638.47989,0.18751
1636.99010,0.19011
1635.50031,0.14514
1634.01052,0.13361
1632.52073,0.13966
1631.03094,0.18164
1629.54116,0.17689
1628.05137,0.20057
1626.56158,0.14159
1625.07179,0.20793
1623.58200,0.18660
1622.09221,0.20874
1620.60243,0.21003
1619.11264,0.19799
1617.62285,0.19266
1616.13306,0.18235
1614.64327,0.19630
1613.15348,0.16016
1611.66370,0.18169
1610.17391,0.15564
1608.68412,0.16972
1607.19433,0.18132
1605.70454,0.17625
1604.21475,0.17914
1602.72496,0.18207
1601.23518,0.15121
1599.74539,0.13875
1598.25560,0.12549
1596.76581,0.15318
1595.27602,0.16755
1593.78623,0.14352
1592.29645,0.10533
1590.80666,0.13901
1589.31687,0.09587
1587.82708,0.12042
1586.33729,0.11159
1584.84750,0.10280
1583.35771,0.04977
1581.86793,0.08948
1580.37814,0.08830
1578.88835,0.07128
1577.39856,0.07434
1575.90877,0.05572
1574.41898,0.04715
1572.92920,0.08872
1571.43941,0.08523
1569.94962,0.07425
1568.45983,0.06330
1566.97004,0.04404
1565.48025,0.05821
1563.99047,0.00644
1562.50068,0.03901
1561.01089,0.04155
1559.52110,0.04495
1558.03131,0.11520
1556.54152,0.05770
1555.05173,0.06705
1553.56195,0.07559
1552.07216,0.07331
1550.58237,0.04433
1549.09258,0.02708
1547.60279,0.04995
1546.11300,0.08037
1544.62322,0.07074
1543.13343,0.08869
1541.64364,0.08664
1540.15385,0.07083
1538.66406,0.05506
1537.17427,0.03974
1535.68448,0.05702
1534.19470,0.03425
1532.70491,0.01067
1531.21512,0.05227
1529.72533,0.04797
1528.23554,0.00194
1526.74575,0.05931
1525.25597,0.04490
1523.76618,0.01548
1522.27639,0.06460
1520.78660,0.00518
1519.29681,0.01720
1517.80702,0.00671
1516.31724,0.04066
1514.82745,0.03874
1513.33766,0.03852
1511.84787,0.03833
1510.35808,0.00644
1508.86829,0.01140
1507.37850,0.02058
1505.88872,0.01391
1504.39893,0.04654
1502.90914,0.07084
1501.41935,0.05174
1499.92956,0.09115
1498.43977,0.08548
1496.94999,0.10824
1495.46020,0.18449
1493.97041,0.18059
1492.48062,0.25022
1490.99083,0.26893
1489.50104,0.33445
1488.01125,0.36534
1486.52147,0.39626
1485.03168,0.52368
1483.54189,0.52168
1482.05210,0.64916
1480.56231,0.72824
1479.07252,0.82071
1477.58274,0.89818
1476.09295,1.03582
1474.60316,1.03818
1473.11337,1.15584
1471.62358,1.09479
1470.13379,1.12231
1468.64401,1.02291
1467.15422,1.01458
1465.66443,0.99459
1464.17464,0.97463
1462.68485,0.88705
1461.19506,0.83208
1459.70527,0.79050
1458.21549,0.78320
1456.72570,0.71245
1455.23591,0.65678
1453.74612,0.62201
1452.25633,0.58727
1450.76654,0.48910
1449.27676,0.48533
1447.78697,0.45988
1446.29718,0.45785
1444.80739,0.42327
1443.31760,0.38873
1441.82781,0.32332
1440.33802,0.28133
1438.84824,0.24354
1437.35845,0.16570
1435.86866,0.18143
1434.37887,0.13706
1432.88908,0.15871
1431.39929,0.22381
1429.90951,0.20042
1428.41972,0.19627
1426.92993,0.21804
1425.44014,0.23400
1423.95035,0.25584
1422.46056,0.27770
1420.97078,0.25952
1419.48099,0.30400
1417.99120,0.25247
1416.50141,0.29034
1415.01162,0.26977
1413.52183,0.29350
1412.03204,0.24628
1410.54226,0.31016
1409.05247,0.22458
1407.56268,0.25596
1406.07289,0.28737
1404.58310,0.27455
1403.09331,0.26176
1401.60353,0.29577
1400.11374,0.31813
1398.62395,0.37726
1397.13416,0.32451
1395.64437,0.40375
1394.15458,0.42624
1392.66479,0.42787
1391.17501,0.46461
1389.68522,0.46464
1388.19543,0.43965
1386.70564,0.44517
1385.21585,0.45072
1383.72606,0.43000
1382.23628,0.42184
1380.74649,0.35274
1379.25670,0.41814
1377.76691,0.42176
1376.27712,0.41791
1374.78733,0.49927
1373.29755,0.58986
1371.80776,0.65625
1370.31797,0.78866
1368.82818,0.84677
1367.33839,0.90491
1365.84860,1.09254
1364.35881,1.24596
1362.86903,1.35347
1361.37924,1.39337
1359.88945,1.42996
1358.39966,1.55928
1356.90987,1.53914
1355.42008,1.43885
1353.93030,1.38286
1352.44051,1.33776
1350.95072,1.29269
1349.46093,1.21508
1347.97114,1.14084
1346.48135,0.98395
1344.99156,0.94152
1343.50178,0.82896
1342.01199,0.72395
1340.52220,0.59642
1339.03241,0.54242
1337.54262,0.49681
1336.05283,0.48171
1334.56305,0.46665
1333.07326,0.47208
1331.58347,0.44831
1330.09368,0.39283
1328.60389,0.29563
1327.11410,0.33209
1325.62432,0.31513
1324.13453,0.28317
1322.64474,0.31639
1321.15495,0.32041
1319.66516,0.27810
1318.17537,0.23583
1316.68558,0.25582
1315.19580,0.24493
1313.70601,0.23407
1312.21622,0.23912
1310.72643,0.23668
1309.23664,0.25516
1307.74685,0.26280
1306.25707,0.23040
1304.76728,0.24771
1303.27749,0.26506
1301.78770,0.23693
1300.29791,0.27314
1298.80812,0.23421
1297.31834,0.23707
1295.82855,0.24080
1294.33876,0.26461
1292.84897,0.24168
1291.35918,0.21210
1289.86939,0.22347
1288.37960,0.23488
1286.88982,0.25050
1285.40003,0.31543
1283.91024,0.32192
1282.42045,0.26247
1280.93066,0.31830
1279.44087,0.35830
1277.95109,0.32817
1276.46130,0.35153
1274.97151,0.33901
1273.48172,0.32652
1271.99193,0.33662
1270.50214,0.34758
1269.01235,0.40868
1267.52257,0.37878
1266.03278,0.41072
1264.54299,0.44603
1263.05320,0.49474
1261.56341,0.49754
1260.07362,0.50037
1258.58384,0.51159
1257.09405,0.48275
1255.60426,0.45144
1254.11447,0.51454
1252.62468,0.50668
1251.13489,0.45041
1249.64511,0.48353
1248.15532,0.42232
1246.66553,0.38869
1245.17574,0.35510
1243.68595,0.32488
1242.19616,0.30305
1240.70637,0.33637
1239.21659,0.22523
1237.72680,0.24442
1236.23701,0.20851
1234.74722,0.21524
1233.25743,0.20195
1231.76764,0.18869
1230.27786,0.15375
1228.78807,0.13722
1227.29828,0.16164
1225.80849,0.11678
1224.31870,0.12623
1222.82891,0.13906
1221.33912,0.13438
1219.84934,0.13684
1218.35955,0.13932
1216.86976,0.14643
1215.37997,0.19032
1213.89018,0.11314
1212.40039,0.11283
1210.91061,0.05743
1209.42082,0.13737
1207.93103,0.09999
1206.44124,0.06264
1204.95145,0.09507
1203.46166,0.08242
1201.97188,0.03223
1200.48209,0.08813
1198.99230,0.09062
1197.50251,0.08646
1196.01272,0.06228
1194.52293,0.05818
1193.03314,0.05412
1191.54336,0.08433
1190.05357,0.04441
1188.56378,0.06800
1187.07399,0.00644
1185.58420,0.08332
1184.09441,0.00655
1182.60463,0.04667
1181.11484,0.08682
1179.62505,0.09443
1178.13526,0.08621
1176.64547,0.07634
1175.15568,0.11913
1173.66589,0.10014
1172.17611,0.07033
1170.68632,0.04515
1169.19653,0.01999
1167.70674,0.05208
1166.21695,0.06249
1164.72716,0.05289
1163.23738,0.04749
1161.74759,0.05549
1160.25780,0.02510
1158.76801,0.03901
1157.27822,0.05295
1155.78843,0.06943
1154.29865,0.09346
1152.80886,0.00644
1151.31907,0.04962
1149.82928,0.09200
1148.33949,0.14109
1146.84970,0.11839
1145.35991,0.09572
1143.87013,0.03967
1142.38034,0.07470
1140.89055,0.10975
1139.40076,0.15319
1137.91097,0.17077
1136.42118,0.20425
1134.93140,0.18974
1133.44161,0.17527
1131.95182,0.21636
1130.46203,0.23828
1128.97224,0.24520
1127.48245,0.33817
1125.99266,0.32594
1124.50288,0.38307
1123.01309,0.38343
1121.52330,0.38383
1120.03351,0.37006
1118.54372,0.35883
1117.05393,0.39440
1115.56415,0.45255
1114.07436,0.42221
1112.58457,0.44117
1111.09478,0.46017
1109.60499,0.45581
1108.11520,0.54336
1106.62542,0.53155
1105.13563,0.62751
1103.64584,0.65837
1102.15605,0.76442
1100.66626,0.78656
1099.17647,0.80874
1097.68668,0.81383
1096.19690,0.78972
1094.70711,0.80322
1093.21732,0.88608
1091.72753,0.91468
1090.23774,0.92160
1088.74795,0.92856
1087.25817,0.99401
1085.76838,0.99935
1084.27859,1.03062
1082.78880,1.09366
1081.29901,1.14755
1079.80922,1.17056
1078.31943,1.13807
1076.82965,1.10561
1075.33986,1.17716
1073.85007,1.18026
1072.36028,1.25020
1070.87049,1.27174
1069.38070,1.39354
1067.89092,1.35292
1066.40113,1.31233
1064.91134,1.25716
1063.42155,1.20536
1061.93176,1.20454
1060.44197,1.11439
1058.95219,0.96246
1057.46240,0.91246
1055.97261,0.86249
1054.48282,0.90193
1052.99303,0.78688
1051.50324,0.74619
1050.01345,0.65877
1048.52367,0.55635
1047.03388,0.55168
1045.54409,0.54704
1044.05430,0.53074
1042.56451,0.46603
1041.07472,0.45062
1039.58494,0.32334
1038.09515,0.29547
1036.60536,0.31024
1035.11557,0.32503
1033.62578,0.30896
1032.13599,0.33467
1030.64620,0.33286
1029.15642,0.38370
1027.66663,0.35857
1026.17684,0.33347
1024.68705,0.47293
1023.19726,0.61577
1021.70747,0.71271
1020.21769,0.84058
1018.72790,1.01107
1017.23811,1.14151
1015.74832,1.27199
1014.25853,1.48768
1012.76874,1.66833
1011.27896,1.80140
1009.78917,1.90779
1008.29938,2.00000
1006.80959,1.97448
1005.31980,1.94900
1003.83001,1.80829
1002.34022,1.76449
1000.85044,1.63136
999.36065,1.49743
997.87086,1.46585
996.38107,1.43429
994.89128,1.35641
993.40149,1.42640
991.91171,1.41290
990.42192,1.49047
988.93213,1.33421
987.44234,1.32456
985.95255,1.31495
984.46276,1.35840
982.97297,1.23652
981.48319,1.24997
979.99340,1.10059
978.50361,1.11369
977.01382,1.12682
975.52403,1.13622
974.03424,1.11559
972.54446,0.97472
971.05467,0.92409
969.56488,0.92944
968.07509,0.93859
966.58530,0.94777
965.09551,0.85885
963.60573,0.87519
962.11594,0.82224
960.62615,0.80858
959.13636,0.73190
957.64657,0.65525
956.15678,0.59742
954.66699,0.67576
953.17721,0.66560
951.68742,0.63961
950.19763,0.62659
948.70784,0.61361
947.21805,0.58270
945.72826,0.58774
944.23848,0.60868
942.74869,0.61378
941.25890,0.60639
939.76911,0.64830
938.27932,0.69025
936.78953,0.83329
935.29974,0.76088
933.80996,0.63755
932.32017,0.69634
930.83038,0.68332
929.34059,0.67034
927.85080,0.68161
926.36101,0.77309
924.87123,0.72262
923.38144,0.67636
921.89165,0.65770
920.40186,0.63906
918.91207,0.68143
917.42228,0.73134
915.93250,0.65184
914.44271,0.68094
912.95292,0.67583
911.46313,0.67075
909.97334,0.73168
908.48355,0.71915
906.99376,0.76178
905.50398,0.73929
904.01419,0.72811
902.52440,0.71696
901.03461,0.64613
899.54482,0.68307
898.05503,0.66325
896.56525,0.74034
895.07546,0.77863
893.58567,0.81695
892.09588,0.74297
890.60609,0.73417
889.11630,0.72039
887.62651,0.66738
886.13673,0.70127
884.64694,0.73519
883.15715,0.67811
881.66736,0.73548
880.17757,0.79038
878.68778,0.79896
877.19800,0.80757
875.70821,0.75733
874.21842,0.84576
872.72863,0.86658
871.23884,0.96427
869.74905,0.97304
868.25927,0.98184
866.76948,0.89922
865.27969,0.93356
863.78990,0.96126
862.30011,1.01654
860.81032,1.01214
859.32053,1.00778
857.83075,0.93120
856.34096,0.86968
854.85117,0.85831
853.36138,0.77014
851.87159,0.75215
850.38180,0.73420
848.89202,0.57930
847.40223,0.46871
845.91244,0.42329
844.42265,0.43845
842.93286,0.45365
841.44307,0.34652
839.95329,0.36220
838.46350,0.33783
836.97371,0.22411
835.48392,0.22653
833.99413,0.22897
832.50434,0.26068
831.01455,0.28658
829.52477,0.31752
828.03498,0.30005
826.54519,0.28094
825.05540,0.26186
823.56561,0.22528
822.07582,0.17620
820.58604,0.16975
819.09625,0.14537
817.60646,0.12103
816.11667,0.07709
814.62688,0.11336
813.13709,0.04443
811.64730,0.00644
810.15752,0.01190
808.66773,0.01740
807.17794,0.06553
805.68815,0.02515
804.19836,0.07084
802.70857,0.08732
801.21879,0.10384
799.72900,0.14043
798.23921,0.28647
796.74942,0.36990
795.25963,0.40868
793.76984,0.44749
792.28006,0.49009
790.79027,0.60288
789.30048,0.59377
787.81069,0.65150
786.32090,0.64662
784.83111,0.64178
783.34132,0.75473
781.85154,0.71070
780.36175,0.73769
778.87196,0.75135
777.38217,0.76504
775.89238,0.80884
774.40259,0.90695
772.91281,0.88232
771.42302,0.87233
769.93323,0.86239
768.44344,0.85623
766.95365,0.85428
765.46386,0.87324
763.97407,0.75860
762.48429,0.71331
760.99450,0.66806
759.50471,0.56438
758.01492,0.48411
756.52513,0.43729
755.03534,0.38005
753.54556,0.32285
752.05577,0.23687
750.56598,0.18349
749.07619,0.09590
747.58640,0.10105
746.09661,0.10623
744.60683,0.07136
743.11704,0.05823
741.62725,0.07270
740.13746,0.06548
738.64767,0.05829
737.15788,0.04947
735.66809,0.00644
734.17831,0.02901
732.68852,0.03992
731.19873,0.05086
729.70894,0.02926
728.21915,0.05363
726.72936,0.02625
725.23958,0.01644
723.74979,0.02002
722.26000,0.02364
720.77021,0.04650
719.28042,0.03932
717.79063,0.07060
716.30084,0.06307
714.81106,0.05558
713.32127,0.03851
711.83148,0.00644
710.34169,0.05486
708.85190,0.06281
707.36211,0.07079
705.87233,0.00655
704.38254,0.03924
702.89275,0.04272
701.40296,0.03329
699.91317,0.02389
698.42338,0.10264
696.93360,0.06950
695.44381,0.13745
693.95402,0.12860
692.46423,0.11978
690.97444,0.16528
689.48465,0.16154
687.99486,0.19124
686.50508,0.21387
685.01529,0.23653
683.52550,0.22373
682.03571,0.25856
680.54592,0.17149
679.05613,0.16589
677.56635,0.16031
676.07656,0.16271
674.58677,0.10500
673.09698,0.12499
671.60719,0.13166
670.11740,0.13836
668.62761,0.11251
667.13783,0.03576
665.64804,0.05717
664.15825,0.07861
662.66846,0.03285
661.17867,0.06563
659.68888,0.01994
658.19910,0.07158
656.70931,0.12325
655.21952,0.17788
653.72973,0.10559
652.23994,0.09430
650.75015,0.09933
649.26037,0.10439
647.77058,0.09904
646.28079,0.07869
644.79100,0.09178
643.30121,0.08654
641.81142,0.08132
640.32163,0.10871
638.83185,0.10105
637.34206,0.05083
635.85227,0.02862
634.36248,0.00644
632.87269,0.01090
631.38290,0.09641
629.89312,0.09843
628.40333,0.07250
626.91354,0.04661
625.42375,0.08297
623.93396,0.09180
622.44417,0.09690
620.95438,0.10204
619.46460,0.11598
617.97481,0.13830
616.48502,0.11222
614.99523,0.09786
613.50544,0.08353
612.01565,0.11851
610.52587,0.07000
609.03608,0.09586
607.54629,0.09794
606.05650,0.10006
604.56671,0.18866
603.07692,0.19209
601.58714,0.17886
600.09735,0.16565
598.60756,0.18171
597.11777,0.15104
595.62798,0.10202
594.13819,0.09646
592.64840,0.09093
591.15862,0.17147
589.66883,0.17853
588.17904,0.03947
586.68925,0.06080
585.19946,0.08216
583.70967,0.15284
582.21989,0.22605
580.73010,0.19113
579.24031,0.15624
577.75052,0.21869
576.26073,0.17260
574.77094,0.13739
573.28115,0.14273
571.79137,0.14809
570.30158,0.23492
568.81179,0.35519
567.32200,0.34980
565.83221,0.34444
564.34242,0.37043
562.85264,0.40731
561.36285,0.46009
559.87306,0.49202
558.38327,0.52399
556.89348,0.55348
555.40369,0.59135
553.91391,0.60880
552.42412,0.62628
550.93433,0.64671
549.44454,0.62041
547.95475,0.65678
546.46496,0.66060
544.97517,0.66446
543.48539,0.70928
541.99560,0.78002
540.50581,0.82573
539.01602,0.87148
537.52623,0.74604
536.03644,0.70917
534.54666,0.66064
533.05687,0.70276
531.56708,0.74491
530.07729,0.70816
528.58750,0.60965
527.09771,0.57046
525.60792,0.53131
524.11814,0.58490
522.62835,0.53746
521.13856,0.55520
519.64877,0.51033
518.15898,0.46549
516.66919,0.41233
515.17941,0.34417
513.68962,0.36708
512.19983,0.39003
510.71004,0.34034
509.22025,0.38590
507.73046,0.35131
506.24068,0.37480
504.75089,0.39832
503.26110,0.40475
501.77131,0.38449
500.28152,0.37554
498.79173,0.36661
497.30194,0.39489
495.81216,0.35221
494.32237,0.39308
492.83258,0.43398
491.34279,0.36216
489.85300,0.31961
488.36321,0.31216
486.87343,0.28596
485.38364,0.25979
483.89385,0.28000
482.40406,0.24763
480.91427,0.20611
479.42448,0.16461
477.93469,0.01875
476.44491,0.09592
474.95512,0.08585
473.46533,0.07580
471.97554,0.06704
470.48575,0.03660
468.99596,0.02540
467.50618,0.01590
466.01639,0.00644
464.52660,0.00554
463.03681,0.06872
461.54702,0.07389
460.05723,0.07909
458.56745,0.07138
457.07766,0.11298
455.58787,0.12496
454.09808,0.13697
452.60829,0.15778
451.11850,0.13770
449.62871,0.17111
448.13893,0.20455
446.64914,0.25973
445.15935,0.36757
443.66956,0.55061
442.17977,0.56121
440.68998,0.57184
439.20020,0.56120
437.71041,0.69676
436.22062,0.75844
434.73083,0.82015
433.24104,0.98336
431.75125,1.15831
430.26146,1.14870
428.77168,1.13913
427.28189,1.33004
425.79210,1.46084
424.30231,1.39917
422.81252,1.33752
421.32273,1.29721
419.83295,1.19345
418.34316,1.13191
416.85337,1.07039
415.36358,0.90326
413.87379,0.80130
412.38400,0.78958
410.89422,0.77788
409.40443,0.75871
407.91464,0.81891
406.42485,0.68705
404.93506,0.65627
403.44527,0.62553
401.95548,0.54304
400.46570,0.53325
398.97591,0.52474
397.48612,0.51626
395.99633,0.55501
394.50654,0.61717
393.01675,0.60419
391.52697,0.59125
390.03718,0.47979
388.54739,0.32910
387.05760,0.37973
385.56781,0.43039
384.07802,0.47608
382.58824,0.43410
381.09845,0.40802
379.60866,0.38197
378.11887,0.37850
376.62908,0.33832
375.13929,0.31446
373.64950,0.29063
372.15972,0.25806
370.66993,0.19045
369.18014,0.17799
367.69035,0.16556
366.20056,0.16737
364.71077,0.11408
363.22099,0.12806
361.73120,0.14207
360.24141,0.16990
358.75162,0.08834
357.26183,0.11957
355.77204,0.15084
354.28225,0.10529
352.79247,0.03974
351.30268,0.02307
349.81289,0.00644
348.32310,0.13087
346.83331,0.02649
345.34352,0.06037
343.85374,0.09428
342.36395,0.11778
340.87416,0.13797
339.38437,0.11519
337.89458,0.09243
336.40479,0.21044
334.91501,0.08795
333.42522,0.11289
331.93543,0.13788
330.44564,0.13658
328.95585,0.08437
327.46606,0.06769
325.97627,0.05104
324.48649,0.00644
322.99670,0.08612
321.50691,0.10819
320.01712,0.13031
318.52733,0.16331
317.03754,0.20804
315.54776,0.18389
314.05797,0.15978
312.56818,0.09603
311.07839,0.05068
309.58860,0.02792
308.09881,0.00519
306.60902,0.03427
305.11924,0.12436
303.62945,0.11091
302.13966,0.09749
300.64987,0.00644
299.16008,0.00644
