1778.52000,0.01731
1777.03021,0.02692
1775.54042,0.01118
1774.05063,0.00103
1772.56085,0.01629
1771.07106,0.01651
1769.58127,0.04612
1768.09148,0.04561
1766.60169,0.00706
1765.11190,0.05500
1763.62212,0.03000
1762.13233,0.03914
1760.64254,0.04831
1759.15275,0.02499
1757.66296,0.06199
1756.17317,0.01414
1754.68339,0.05359
1753.19360,0.01453
1751.70381,0.03103
1750.21402,0.01108
1748.72423,0.00385
1747.23444,0.02669
1745.74465,0.02814
1744.25487,0.05898
1742.76508,0.08033
1741.27529,0.07078
1739.78550,0.07950
1738.29571,0.04145
1736.80592,0.04865
1735.31614,0.01463
1733.82635,0.00523
1732.33656,0.01808
1730.84677,0.06190
1729.35698,0.07243
1727.86719,0.02350
1726.37740,0.04441
1724.88762,0.02727
1723.39783,0.01255
1721.90804,0.00103
1720.41825,0.00752
1718.92846,0.01166
1717.43867,0.04837
1715.94889,0.01053
1714.45910,0.06237
1712.96931,0.05871
1711.47952,0.04318
1709.98973,0.05069
1708.49994,0.09869
1707.01016,0.09238
1705.52037,0.08611
1704.03058,0.12151
1702.54079,0.10538
1701.05100,0.12657
1699.56121,0.13986
1698.07142,0.14207
1696.58164,0.13162
1695.09185,0.17357
1693.60206,0.16874
1692.11227,0.18139
1690.62248,0.21470
1689.13269,0.21552
1687.64291,0.23383
1686.15312,0.24582
1684.66333,0.22452
1683.17354,0.27306
1681.68375,0.25024
1680.19396,0.28219
1678.70417,0.20232
1677.21439,0.22719
1675.72460,0.21878
1674.23481,0.21357
1672.74502,0.22664
1671.25523,0.24213
1669.76544,0.26795
1668.27566,0.23273
1666.78587,0.23562
1665.29608,0.20442
1663.80629,0.19706
1662.31650,0.20718
1660.82671,0.23558
1659.33693,0.19341
1657.84714,0.23298
1656.35735,0.16469
1654.86756,0.16069
1653.37777,0.15831
1651.88798,0.19008
1650.39819,0.13858
1648.90841,0.17200
1647.41862,0.14912
1645.92883,0.14769
1644.43904,0.14630
1642.94925,0.15922
1641.45946,0.17376
1639.96968,0.15183
1638.47989,0.17595
1636.99010,0.16123
1635.50031,0.16638
1634.01052,0.14220
1632.52073,0.13948
1631.03094,0.16852
1629.54116,0.17380
1628.05137,0.16958
1626.56158,0.16064
1625.07179,0.21202
1623.58200,0.23170
1622.09221,0.27442
1620.60243,0.23864
1619.11264,0.22271
1617.62285,0.18382
1616.13306,0.22270
1614.64327,0.15372
1613.15348,0.21012
1611.66370,0.16183
1610.17391,0.22464
1608.68412,0.18435
1607.19433,0.17345
1605.70454,0.18161
1604.21475,0.17196
1602.72496,0.16234
1601.23518,0.14601
1599.74539,0.16224
1598.25560,0.12059
1596.76581,0.11784
1595.27602,0.11512
1593.78623,0.14814
1592.29645,0.07805
1590.80666,0.11431
1589.31687,0.15377
1587.82708,0.12424
1586.33729,0.13441
1584.84750,0.08670
1583.35771,0.09455
1581.86793,0.07546
1580.37814,0.11273
1578.88835,0.09133
1577.39856,0.10090
1575.90877,0.06131
1574.41898,0.04715
1572.92920,0.05443
1571.43941,0.06333
1569.94962,0.06315
1568.45983,0.06299
1566.97004,0.00852
1565.48025,0.04373
1563.99047,0.05042
1562.50068,0.02540
1561.01089,0.03532
1559.52110,0.07463
1558.03131,0.07271
1556.54152,0.06924
1555.05173,0.07136
1553.56195,0.04891
1552.07216,0.09711
1550.58237,0.07234
1549.09258,0.03492
1547.60279,0.03720
1546.11300,0.12519
1544.62322,0.04581
1543.13343,0.07040
1541.64364,0.04028
1540.15385,0.05104
1538.66406,0.06184
1537.17427,0.05403
1535.68448,0.00103
1534.19470,0.03146
1532.70491,0.03733
1531.21512,0.04086
1529.72533,0.03251
1528.23554,0.01071
1526.74575,0.01275
1525.25597,0.02195
1523.76618,0.01929
1522.27639,0.00000
1520.78660,0.00771
1519.29681,0.01705
1517.80702,0.00103
1516.31724,0.02676
1514.82745,0.05887
1513.33766,0.03627
1511.84787,0.01370
1510.35808,0.00704
1508.86829,0.04007
1507.37850,0.00094
1505.88872,0.01817
1504.39893,0.02036
1502.90914,0.01623
1501.41935,0.00103
1499.92956,0.04206
1498.43977,0.07994
1496.94999,0.10834
1495.46020,0.11853
1493.97041,0.16524
1492.48062,0.19611
1490.99083,0.26589
1489.50104,0.30873
1488.01125,0.36430
1486.52147,0.41989
1485.03168,0.56914
1483.54189,0.58275
1482.05210,0.62099
1480.56231,0.75129
1479.07252,0.85782
1477.58274,0.92312
1476.09295,0.99799
1474.60316,1.13634
1473.11337,1.14304
1471.62358,1.19499
1470.13379,1.23349
1468.64401,1.23394
1467.15422,1.17095
1465.66443,1.12030
1464.17464,1.06967
1462.68485,0.99488
1461.19506,0.95979
1459.70527,0.84382
1458.21549,0.81752
1456.72570,0.84123
1455.23591,0.76501
1453.74612,0.67614
1452.25633,0.68091
1450.76654,0.64525
1449.27676,0.61914
1447.78697,0.54626
1446.29718,0.49324
1444.80739,0.47080
1443.31760,0.44839
1441.82781,0.38119
1440.33802,0.32751
1438.84824,0.30718
1437.35845,0.22659
1435.86866,0.23488
1434.37887,0.22575
1432.88908,0.26188
1431.39929,0.25995
1429.90951,0.20967
1428.41972,0.25779
1426.92993,0.21947
1425.44014,0.24385
1423.95035,0.25558
1422.46056,0.26733
1420.97078,0.30213
1419.48099,0.33378
1417.99120,0.33532
1416.50141,0.33133
1415.01162,0.35277
1413.52183,0.34012
1412.03204,0.28150
1410.54226,0.32365
1409.05247,0.31587
1407.56268,0.28669
1406.07289,0.25754
1404.58310,0.27286
1403.09331,0.28820
1401.60353,0.35594
1400.11374,0.35389
1398.62395,0.40662
1397.13416,0.44431
1395.64437,0.39397
1394.15458,0.44124
1392.66479,0.48537
1391.17501,0.53508
1389.68522,0.55309
1388.19543,0.50609
1386.70564,0.51544
1385.21585,0.52482
1383.72606,0.51996
1382.23628,0.47942
1380.74649,0.47304
1379.25670,0.47620
1377.76691,0.52065
1376.27712,0.51118
1374.78733,0.58188
1373.29755,0.66926
1371.80776,0.76223
1370.31797,0.97423
1368.82818,1.03315
1367.33839,1.09211
1365.84860,1.23994
1364.35881,1.46635
1362.86903,1.55079
1361.37924,1.64398
1359.88945,1.73007
1358.39966,1.77969
1356.90987,1.83173
1355.42008,1.79971
1353.93030,1.68521
1352.44051,1.58939
1350.95072,1.49360
1349.46093,1.43870
1347.97114,1.26008
1346.48135,1.11322
1344.99156,1.01637
1343.50178,0.98539
1342.01199,0.84339
1340.52220,0.71728
1339.03241,0.65467
1337.54262,0.61034
1336.05283,0.59976
1334.56305,0.58921
1333.07326,0.53307
1331.58347,0.53330
1330.09368,0.47485
1328.60389,0.41325
1327.11410,0.36756
1325.62432,0.35205
1324.13453,0.35957
1322.64474,0.35205
1321.15495,0.34853
1319.66516,0.31490
1318.17537,0.28130
1316.68558,0.31913
1315.19580,0.31812
1313.70601,0.31714
1312.21622,0.26145
1310.72643,0.30020
1309.23664,0.29059
1307.74685,0.27308
1306.25707,0.28099
1304.76728,0.28933
1303.27749,0.29770
1301.78770,0.27555
1300.29791,0.27486
1298.80812,0.26548
1297.31834,0.23233
1295.82855,0.25871
1294.33876,0.29464
1292.84897,0.32028
1291.35918,0.27536
1289.86939,0.28203
1288.37960,0.28874
1286.88982,0.29072
1285.40003,0.30701
1283.91024,0.35427
1282.42045,0.38807
1280.93066,0.35210
1279.44087,0.33361
1277.95109,0.35403
1276.46130,0.38876
1274.97151,0.39417
1273.48172,0.39960
1271.99193,0.40270
1270.50214,0.35743
1269.01235,0.47085
1267.52257,0.48832
1266.03278,0.50661
1264.54299,0.43609
1263.05320,0.50601
1261.56341,0.54106
1260.07362,0.57614
1258.58384,0.56127
1257.09405,0.55278
1255.60426,0.56575
1254.11447,0.55098
1252.62468,0.49895
1251.13489,0.48663
1249.64511,0.46164
1248.15532,0.44700
1246.66553,0.44111
1245.17574,0.43526
1243.68595,0.36439
1242.19616,0.41096
1240.70637,0.39569
1239.21659,0.34792
1237.72680,0.30177
1236.23701,0.26199
1234.74722,0.26033
1233.25743,0.24720
1231.76764,0.23410
1230.27786,0.22857
1228.78807,0.20403
1227.29828,0.21046
1225.80849,0.13680
1224.31870,0.11315
1222.82891,0.09350
1221.33912,0.11752
1219.84934,0.13482
1218.35955,0.15216
1216.86976,0.12946
1215.37997,0.22659
1213.89018,0.17857
1212.40039,0.16232
1210.91061,0.14371
1209.42082,0.14022
1207.93103,0.12525
1206.44124,0.11032
1204.95145,0.12358
1203.46166,0.10434
1201.97188,0.10101
1200.48209,0.03741
1198.99230,0.07142
1197.50251,0.00948
1196.01272,0.03007
1194.52293,0.02174
1193.03314,0.01344
1191.54336,0.05317
1190.05357,0.03739
1188.56378,0.00103
1187.07399,0.02488
1185.58420,0.01782
1184.09441,0.03460
1182.60463,0.02999
1181.11484,0.02541
1179.62505,0.06449
1178.13526,0.04252
1176.64547,0.08405
1175.15568,0.05739
1173.66589,0.06883
1172.17611,0.03113
1170.68632,0.01606
1169.19653,0.00103
1167.70674,0.03302
1166.21695,0.03728
1164.72716,0.03046
1163.23738,0.06097
1161.74759,0.04787
1160.25780,0.01021
1158.76801,0.01066
1157.27822,0.01114
1155.78843,0.04022
1154.29865,0.07250
1152.80886,0.03104
1151.31907,0.05069
1149.82928,0.04023
1148.33949,0.07184
1146.84970,0.05906
1145.35991,0.04632
1143.87013,0.00108
1142.38034,0.08835
1140.89055,0.10188
1139.40076,0.15115
1137.91097,0.22424
1136.42118,0.21407
1134.93140,0.22614
1133.44161,0.23824
1131.95182,0.24482
1130.46203,0.26492
1128.97224,0.25491
1127.48245,0.30046
1125.99266,0.33811
1124.50288,0.34168
1123.01309,0.36432
1121.52330,0.38699
1120.03351,0.35020
1118.54372,0.40150
1117.05393,0.41157
1115.56415,0.39788
1114.07436,0.37549
1112.58457,0.37258
1111.09478,0.36969
1109.60499,0.43229
1108.11520,0.53696
1106.62542,0.50363
1105.13563,0.63216
1103.64584,0.67109
1102.15605,0.77113
1100.66626,0.75141
1099.17647,0.73172
1097.68668,0.73349
1096.19690,0.81541
1094.70711,0.84898
1093.21732,0.85798
1091.72753,0.86305
1090.23774,0.90940
1088.74795,0.95578
1087.25817,0.95460
1085.76838,1.03278
1084.27859,1.03721
1082.78880,1.03771
1081.29901,1.14772
1079.80922,1.12449
1078.31943,1.10684
1076.82965,1.08922
1075.33986,1.20015
1073.85007,1.20322
1072.36028,1.14127
1070.87049,1.23088
1069.38070,1.34829
1067.89092,1.30706
1066.40113,1.26587
1064.91134,1.20408
1063.42155,1.13836
1061.93176,1.06791
1060.44197,1.04191
1058.95219,0.91837
1057.46240,0.89760
1055.97261,0.87686
1054.48282,0.82958
1052.99303,0.74742
1051.50324,0.72717
1050.01345,0.64429
1048.52367,0.59713
1047.03388,0.56944
1045.54409,0.54179
1044.05430,0.49790
1042.56451,0.46198
1041.07472,0.43323
1039.58494,0.34422
1038.09515,0.32347
1036.60536,0.31266
1035.11557,0.30189
1033.62578,0.30504
1032.13599,0.28917
1030.64620,0.31459
1029.15642,0.30911
1027.66663,0.31952
1026.17684,0.32996
1024.68705,0.45150
1023.19726,0.57228
1021.70747,0.71689
1020.21769,0.84567
1018.72790,1.06730
1017.23811,1.15330
1015.74832,1.23933
1014.25853,1.46978
1012.76874,1.68916
1011.27896,1.79036
1009.78917,1.90587
1008.29938,2.00000
1006.80959,1.91249
1005.31980,1.82501
1003.83001,1.78357
1002.34022,1.71520
1000.85044,1.58656
999.36065,1.40877
997.87086,1.39206
996.38107,1.37538
994.89128,1.39839
993.40149,1.36908
991.91171,1.38820
990.42192,1.41924
988.93213,1.33370
987.44234,1.31840
985.95255,1.30314
984.46276,1.31368
982.97297,1.22748
981.48319,1.18176
979.99340,1.08769
978.50361,1.08964
977.01382,1.09162
975.52403,1.10315
974.03424,0.95526
972.54446,0.94861
971.05467,0.92851
969.56488,0.87036
968.07509,0.86618
966.58530,0.86204
965.09551,0.84762
963.60573,0.78960
962.11594,0.79666
960.62615,0.69428
959.13636,0.68633
957.64657,0.67841
956.15678,0.63007
954.66699,0.56748
953.17721,0.58743
951.68742,0.59154
950.19763,0.58220
948.70784,0.57289
947.21805,0.50252
945.72826,0.48534
944.23848,0.55784
942.74869,0.55025
941.25890,0.60853
939.76911,0.60774
938.27932,0.60699
936.78953,0.72883
935.29974,0.69522
933.80996,0.69337
932.32017,0.67251
930.83038,0.66715
929.34059,0.66183
927.85080,0.67677
926.36101,0.65445
924.87123,0.68532
923.38144,0.58215
921.89165,0.60555
920.40186,0.62898
918.91207,0.62110
917.42228,0.65927
915.93250,0.64194
914.44271,0.62781
912.95292,0.64347
911.46313,0.65916
909.97334,0.63640
908.48355,0.71681
906.99376,0.69094
905.50398,0.63258
904.01419,0.66033
902.52440,0.68811
901.03461,0.68379
899.54482,0.67157
898.05503,0.66335
896.56525,0.68848
895.07546,0.69540
893.58567,0.70235
892.09588,0.66570
890.60609,0.69968
889.11630,0.67261
887.62651,0.67810
886.13673,0.66578
884.64694,0.65348
883.15715,0.75744
881.66736,0.75433
880.17757,0.71714
878.68778,0.69228
877.19800,0.66745
875.70821,0.79379
874.21842,0.77735
872.72863,0.80537
871.23884,0.89372
869.74905,0.91031
868.25927,0.92692
866.76948,0.90272
865.27969,0.91662
863.78990,0.90517
862.30011,0.94532
860.81032,0.95178
859.32053,0.95828
857.83075,0.82399
856.34096,0.86189
854.85117,0.76654
853.36138,0.75769
851.87159,0.69414
850.38180,0.63062
848.89202,0.54174
847.40223,0.42434
845.91244,0.35695
844.42265,0.36615
842.93286,0.37537
841.44307,0.34774
839.95329,0.31221
838.46350,0.24419
836.97371,0.30075
835.48392,0.27285
833.99413,0.24498
832.50434,0.31989
831.01455,0.28375
829.52477,0.34999
828.03498,0.32979
826.54519,0.27948
825.05540,0.22919
823.56561,0.22178
822.07582,0.18902
820.58604,0.16104
819.09625,0.12715
817.60646,0.09329
816.11667,0.01781
814.62688,0.06851
813.13709,0.00103
811.64730,0.03083
810.15752,0.03251
808.66773,0.03422
807.17794,0.04587
805.68815,0.10833
804.19836,0.09229
802.70857,0.11078
801.21879,0.12931
799.72900,0.17524
798.23921,0.18550
796.74942,0.35049
795.25963,0.37827
793.76984,0.40608
792.28006,0.38474
790.79027,0.50305
789.30048,0.52302
787.81069,0.56286
786.32090,0.55593
784.83111,0.54903
783.34132,0.62625
781.85154,0.64797
780.36175,0.64513
778.87196,0.64311
777.38217,0.64113
775.89238,0.75580
774.40259,0.82210
772.91281,0.80276
771.42302,0.79535
769.93323,0.78798
768.44344,0.76873
766.95365,0.74714
765.46386,0.80967
763.97407,0.77307
762.48429,0.71271
760.99450,0.65237
759.50471,0.54129
758.01492,0.43263
756.52513,0.40571
755.03534,0.36256
753.54556,0.31944
752.05577,0.24819
750.56598,0.16824
749.07619,0.13038
747.58640,0.11475
746.09661,0.09916
744.60683,0.10106
743.11704,0.00620
741.62725,0.01768
740.13746,0.02483
738.64767,0.03201
737.15788,0.01820
735.66809,0.03615
734.17831,0.00495
732.68852,0.02138
731.19873,0.03785
729.70894,0.10273
728.21915,0.04072
726.72936,0.05887
725.23958,0.03024
723.74979,0.03377
722.26000,0.03734
720.77021,0.07783
719.28042,0.05805
717.79063,0.00103
716.30084,0.04121
714.81106,0.08143
713.32127,0.02291
711.83148,0.03741
710.34169,0.02179
708.85190,0.06253
707.36211,0.10331
705.87233,0.05606
704.38254,0.00566
702.89275,0.00607
701.40296,0.02199
699.91317,0.03793
698.42338,0.05906
696.93360,0.08420
695.44381,0.14903
693.95402,0.15320
692.46423,0.15740
690.97444,0.15014
689.48465,0.10562
687.99486,0.18885
686.50508,0.19517
685.01529,0.20152
683.52550,0.21901
682.03571,0.24525
680.54592,0.18664
679.05613,0.18281
677.56635,0.17900
676.07656,0.21807
674.58677,0.15166
673.09698,0.10035
671.60719,0.12722
670.11740,0.15412
668.62761,0.13860
667.13783,0.10250
665.64804,0.05175
664.15825,0.00103
662.66846,0.05713
661.17867,0.06883
659.68888,0.07264
658.19910,0.06894
656.70931,0.06527
655.21952,0.11994
653.72973,0.12308
652.23994,0.10404
650.75015,0.12272
649.26037,0.14142
647.77058,0.15183
646.28079,0.02661
644.79100,0.06723
643.30121,0.05711
641.81142,0.04702
640.32163,0.04886
638.83185,0.07691
637.34206,0.04946
635.85227,0.02879
634.36248,0.00815
632.87269,0.04347
631.38290,0.06137
629.89312,0.03012
628.40333,0.01556
626.91354,0.00103
625.42375,0.02052
623.93396,0.05512
622.44417,0.04810
620.95438,0.04111
619.46460,0.07422
617.97481,0.09943
616.48502,0.15322
614.99523,0.12495
613.50544,0.09670
612.01565,0.14583
610.52587,0.09266
609.03608,0.04666
607.54629,0.07090
606.05650,0.09517
604.56671,0.18572
603.07692,0.14144
601.58714,0.12376
600.09735,0.10611
598.60756,0.07700
597.11777,0.10979
595.62798,0.06011
594.13819,0.05251
592.64840,0.04495
591.15862,0.11991
589.66883,0.09654
588.17904,0.04702
586.68925,0.04910
585.19946,0.05122
583.70967,0.13269
582.21989,0.11900
580.73010,0.14739
579.24031,0.17581
577.75052,0.09795
576.26073,0.13834
574.77094,0.17717
573.28115,0.17239
571.79137,0.16765
570.30158,0.20737
568.81179,0.28124
567.32200,0.27620
565.83221,0.27119
564.34242,0.30548
562.85264,0.34298
561.36285,0.45349
559.87306,0.46329
558.38327,0.47312
556.89348,0.49409
555.40369,0.55237
553.91391,0.54127
552.42412,0.53021
550.93433,0.60683
549.44454,0.62955
547.95475,0.55313
546.46496,0.60486
544.97517,0.65663
543.48539,0.67233
541.99560,0.66268
540.50581,0.68677
539.01602,0.71090
537.52623,0.65216
536.03644,0.62994
534.54666,0.58634
533.05687,0.59592
531.56708,0.60553
530.07729,0.53901
528.58750,0.52092
527.09771,0.51040
525.60792,0.49991
524.11814,0.54538
522.62835,0.51155
521.13856,0.48886
519.64877,0.46264
518.15898,0.43644
516.66919,0.41464
515.17941,0.35082
513.68962,0.36439
512.19983,0.37799
510.71004,0.33490
509.22025,0.36641
507.73046,0.30275
506.24068,0.31688
504.75089,0.33103
503.26110,0.35712
501.77131,0.41259
500.28152,0.39709
498.79173,0.38163
497.30194,0.39356
495.81216,0.37062
494.32237,0.40801
492.83258,0.44543
491.34279,0.35039
489.85300,0.31647
488.36321,0.26434
486.87343,0.23922
485.38364,0.21412
483.89385,0.25808
482.40406,0.19497
480.91427,0.16918
479.42448,0.14342
477.93469,0.10976
476.44491,0.11659
474.95512,0.12028
473.46533,0.12400
471.97554,0.04763
470.48575,0.02761
468.99596,0.07823
467.50618,0.05194
466.01639,0.02567
464.52660,0.00103
463.03681,0.07662
461.54702,0.07013
460.05723,0.06368
458.56745,0.06559
457.07766,0.12862
455.58787,0.12901
454.09808,0.12942
452.60829,0.17430
451.11850,0.20493
449.62871,0.17728
448.13893,0.14967
446.64914,0.31050
445.15935,0.34363
443.66956,0.46962
442.17977,0.48061
440.68998,0.49163
439.20020,0.59630
437.71041,0.68512
436.22062,0.71171
434.73083,0.73833
433.24104,0.97085
431.75125,1.10423
430.26146,1.12817
428.77168,1.15214
427.28189,1.26737
425.79210,1.43658
424.30231,1.36585
422.81252,1.29514
421.32273,1.22566
419.83295,1.13876
418.34316,1.07886
416.85337,1.01900
415.36358,0.91077
413.87379,0.86049
412.38400,0.76700
410.89422,0.67355
409.40443,0.75743
407.91464,0.71918
406.42485,0.73173
404.93506,0.67093
403.44527,0.61016
401.95548,0.50857
400.46570,0.51094
398.97591,0.51691
397.48612,0.52291
395.99633,0.51585
394.50654,0.57625
393.01675,0.57243
391.52697,0.56865
390.03718,0.40067
388.54739,0.32555
387.05760,0.36311
385.56781,0.40070
384.07802,0.43594
382.58824,0.37047
381.09845,0.35461
379.60866,0.33878
378.11887,0.36067
376.62908,0.26993
375.13929,0.27562
373.64950,0.28134
372.15972,0.22878
370.66993,0.20561
369.18014,0.20745
367.69035,0.20934
366.20056,0.11407
364.71077,0.14893
363.22099,0.15924
361.73120,0.16958
360.24141,0.13314
358.75162,0.09198
357.26183,0.12860
355.77204,0.16524
354.28225,0.07816
352.79247,0.05617
351.30268,0.07863
349.81289,0.10112
348.32310,0.11572
346.83331,0.14938
345.34352,0.07519
343.85374,0.00103
342.36395,0.11007
340.87416,0.18106
339.38437,0.17196
337.89458,0.16290
336.40479,0.14038
334.91501,0.11868
333.42522,0.09345
331.93543,0.06825
330.44564,0.10615
328.95585,0.07664
327.46606,0.06939
325.97627,0.06217
324.48649,0.00103
322.99670,0.00703
321.50691,0.05036
320.01712,0.09372
318.52733,0.07919
317.03754,0.08930
315.54776,0.12720
314.05797,0.16513
312.56818,0.05553
311.07839,0.02213
309.58860,0.02882
308.09881,0.03555
306.60902,0.00065
305.11924,0.02847
303.62945,0.04877
302.13966,0.06911
300.64987,0.00103
299.16008,0.00103
