1778.52000,0.01709
1777.03021,0.02315
1775.54042,0.00842
1774.05063,0.00386
1772.56085,0.01908
1771.07106,0.01725
1769.58127,0.04588
1768.09148,0.02541
1766.60169,0.01458
1765.11190,0.02835
1763.62212,0.01437
1762.13233,0.02606
1760.64254,0.03403
1759.15275,0.02174
1757.66296,0.02016
1756.17317,0.00526
1754.68339,0.00000
1753.19360,0.02660
1751.70381,0.02867
1750.21402,0.00941
1748.72423,0.00299
1747.23444,0.03214
1745.74465,0.01648
1744.25487,0.02647
1742.76508,0.03489
1741.27529,0.02304
1739.78550,0.03098
1738.29571,0.01973
1736.80592,0.01064
1735.31614,0.02580
1733.82635,0.02017
1732.33656,0.02418
1730.84677,0.02074
1729.35698,0.01573
1727.86719,0.01715
1726.37740,0.01753
1724.88762,0.02381
1723.39783,0.00290
1721.90804,0.01191
1720.41825,0.00386
1718.92846,0.02782
1717.43867,0.01550
1715.94889,0.01335
1714.45910,0.02191
1712.96931,0.03904
1711.47952,0.01882
1709.98973,0.03761
1708.49994,0.04521
1707.01016,0.04190
1705.52037,0.03862
1704.03058,0.05325
1702.54079,0.05669
1701.05100,0.06550
1699.56121,0.06100
1698.07142,0.07414
1696.58164,0.06328
1695.09185,0.10104
1693.60206,0.12441
1692.11227,0.11524
1690.62248,0.13066
1689.13269,0.11994
1687.64291,0.13061
1686.15312,0.15679
1684.66333,0.13975
1683.17354,0.14249
1681.68375,0.13566
1680.19396,0.11283
1678.70417,0.11993
1677.21439,0.11371
1675.72460,0.11499
1674.23481,0.11897
1672.74502,0.10109
1671.25523,0.12755
1669.76544,0.14283
1668.27566,0.12290
1666.78587,0.08538
1665.29608,0.09487
1663.80629,0.12094
1662.31650,0.13262
1660.82671,0.12724
1659.33693,0.12937
1657.84714,0.08935
1656.35735,0.09206
1654.86756,0.08146
1653.37777,0.07569
1651.88798,0.08010
1650.39819,0.09094
1648.90841,0.10020
1647.41862,0.08654
1645.92883,0.08679
1644.43904,0.08706
1642.94925,0.08896
1641.45946,0.09570
1639.96968,0.10460
1638.47989,0.11727
1636.99010,0.10167
1635.50031,0.11065
1634.01052,0.08763
1632.52073,0.10255
1631.03094,0.08065
1629.54116,0.10150
1628.05137,0.10101
1626.56158,0.11337
1625.07179,0.12790
1623.58200,0.15900
1622.09221,0.13834
1620.60243,0.14547
1619.11264,0.13608
1617.62285,0.12084
1616.13306,0.12326
1614.64327,0.13050
1613.15348,0.15059
1611.66370,0.11678
1610.17391,0.10809
1608.68412,0.10317
1607.19433,0.09934
1605.70454,0.10088
1604.21475,0.11660
1602.72496,0.13235
1601.23518,0.11529
1599.74539,0.08330
1598.25560,0.08605
1596.76581,0.06801
1595.27602,0.10178
1593.78623,0.09821
1592.29645,0.08452
1590.80666,0.08368
1589.31687,0.05243
1587.82708,0.06605
1586.33729,0.06956
1584.84750,0.08912
1583.35771,0.04303
1581.86793,0.02206
1580.37814,0.05345
1578.88835,0.04802
1577.39856,0.06345
1575.90877,0.04847
1574.41898,0.03191
1572.92920,0.01806
1571.43941,0.02826
1569.94962,0.03341
1568.45983,0.03860
1566.97004,0.02539
1565.48025,0.03463
1563.99047,0.00386
1562.50068,0.02250
1561.01089,0.03103
1559.52110,0.04173
1558.03131,0.01454
1556.54152,0.03650
1555.05173,0.05902
1553.56195,0.03566
1552.07216,0.03528
1550.58237,0.04721
1549.09258,0.02766
1547.60279,0.02417
1546.11300,0.04259
1544.62322,0.03327
1543.13343,0.06457
1541.64364,0.02754
1540.15385,0.01671
1538.66406,0.00591
1537.17427,0.01863
1535.68448,0.03618
1534.19470,0.02546
1532.70491,0.02972
1531.21512,0.02012
1529.72533,0.03619
1528.23554,0.00048
1526.74575,0.00920
1525.25597,0.05212
1523.76618,0.03740
1522.27639,0.03392
1520.78660,0.02834
1519.29681,0.00409
1517.80702,0.02228
1516.31724,0.03143
1514.82745,0.03526
1513.33766,0.02711
1511.84787,0.01899
1510.35808,0.03038
1508.86829,0.01030
1507.37850,0.03990
1505.88872,0.00386
1504.39893,0.02818
1502.90914,0.03758
1501.41935,0.02939
1499.92956,0.06981
1498.43977,0.06327
1496.94999,0.08880
1495.46020,0.12130
1493.97041,0.14315
1492.48062,0.16717
1490.99083,0.21684
1489.50104,0.26600
1488.01125,0.30024
1486.52147,0.33451
1485.03168,0.38536
1483.54189,0.43411
1482.05210,0.46579
1480.56231,0.54663
1479.07252,0.61147
1477.58274,0.68916
1476.09295,0.76528
1474.60316,0.81579
1473.11337,0.88075
1471.62358,0.86725
1470.13379,0.89275
1468.64401,0.84407
1467.15422,0.82584
1465.66443,0.80284
1464.17464,0.77987
1462.68485,0.72169
1461.19506,0.72387
1459.70527,0.61875
1458.21549,0.58682
1456.72570,0.49511
1455.23591,0.51022
1453.74612,0.44046
1452.25633,0.42572
1450.76654,0.37096
1449.27676,0.36056
1447.78697,0.34110
1446.29718,0.32113
1444.80739,0.28038
1443.31760,0.23964
1441.82781,0.24593
1440.33802,0.20846
1438.84824,0.17529
1437.35845,0.16030
1435.86866,0.14907
1434.37887,0.14322
1432.88908,0.13953
1431.39929,0.15615
1429.90951,0.12903
1428.41972,0.14411
1426.92993,0.13145
1425.44014,0.15994
1423.95035,0.15988
1422.46056,0.15986
1420.97078,0.17668
1419.48099,0.22611
1417.99120,0.20721
1416.50141,0.16806
1415.01162,0.21650
1413.52183,0.24521
1412.03204,0.22162
1410.54226,0.19593
1409.05247,0.23060
1407.56268,0.25408
1406.07289,0.24449
1404.58310,0.23600
1403.09331,0.22753
1401.60353,0.30505
1400.11374,0.29718
1398.62395,0.36355
1397.13416,0.36534
1395.64437,0.42002
1394.15458,0.47366
1392.66479,0.49529
1391.17501,0.50947
1389.68522,0.59470
1388.19543,0.54006
1386.70564,0.54979
1385.21585,0.55955
1383.72606,0.53543
1382.23628,0.54284
1380.74649,0.54014
1379.25670,0.53479
1377.76691,0.56632
1376.27712,0.59413
1374.78733,0.69299
1373.29755,0.77212
1371.80776,0.90734
1370.31797,1.04205
1368.82818,1.13915
1367.33839,1.23628
1365.84860,1.47520
1364.35881,1.61163
1362.86903,1.72192
1361.37924,1.77832
1359.88945,1.80698
1358.39966,1.98624
1356.90987,2.00000
1355.42008,1.89206
1353.93030,1.76652
1352.44051,1.68960
1350.95072,1.61271
1349.46093,1.41624
1347.97114,1.24490
1346.48135,1.06184
1344.99156,0.97332
1343.50178,0.86560
1342.01199,0.78781
1340.52220,0.64064
1339.03241,0.56023
1337.54262,0.54713
1336.05283,0.53326
1334.56305,0.51942
1333.07326,0.42151
1331.58347,0.39304
1330.09368,0.37100
1328.60389,0.32871
1327.11410,0.27790
1325.62432,0.27036
1324.13453,0.25218
1322.64474,0.24897
1321.15495,0.21109
1319.66516,0.21435
1318.17537,0.21763
1316.68558,0.22628
1315.19580,0.21307
1313.70601,0.19188
1312.21622,0.18567
1310.72643,0.17308
1309.23664,0.17921
1307.74685,0.18269
1306.25707,0.14722
1304.76728,0.15397
1303.27749,0.16074
1301.78770,0.17501
1300.29791,0.18291
1298.80812,0.15346
1297.31834,0.15607
1295.82855,0.15924
1294.33876,0.17793
1292.84897,0.16515
1291.35918,0.17641
1289.86939,0.17970
1288.37960,0.18302
1286.88982,0.16394
1285.40003,0.18440
1283.91024,0.18619
1282.42045,0.22486
1280.93066,0.23953
1279.44087,0.25957
1277.95109,0.23852
1276.46130,0.22498
1274.97151,0.21226
1273.48172,0.19958
1271.99193,0.24859
1270.50214,0.26773
1269.01235,0.29597
1267.52257,0.27298
1266.03278,0.27832
1264.54299,0.31893
1263.05320,0.33448
1261.56341,0.36393
1260.07362,0.39341
1258.58384,0.35991
1257.09405,0.37183
1255.60426,0.35761
1254.11447,0.37439
1252.62468,0.36557
1251.13489,0.34396
1249.64511,0.35549
1248.15532,0.27040
1246.66553,0.25769
1245.17574,0.24500
1243.68595,0.23528
1242.19616,0.21064
1240.70637,0.22020
1239.21659,0.21323
1237.72680,0.13955
1236.23701,0.12944
1234.74722,0.16527
1233.25743,0.14107
1231.76764,0.11689
1230.27786,0.11169
1228.78807,0.11561
1227.29828,0.12115
1225.80849,0.08507
1224.31870,0.08426
1222.82891,0.09309
1221.33912,0.07097
1219.84934,0.06544
1218.35955,0.05994
1216.86976,0.05820
1215.37997,0.07144
1213.89018,0.09646
1212.40039,0.07772
1210.91061,0.05100
1209.42082,0.06382
1207.93103,0.06866
1206.44124,0.07353
1204.95145,0.05173
1203.46166,0.02088
1201.97188,0.03598
1200.48209,0.03562
1198.99230,0.03742
1197.50251,0.03819
1196.01272,0.03204
1194.52293,0.03847
1193.03314,0.04492
1191.54336,0.02071
1190.05357,0.03176
1188.56378,0.00386
1187.07399,0.03529
1185.58420,0.02350
1184.09441,0.03416
1182.60463,0.02911
1181.11484,0.02408
1179.62505,0.05939
1178.13526,0.04507
1176.64547,0.06709
1175.15568,0.06137
1173.66589,0.06689
1172.17611,0.02492
1170.68632,0.03530
1169.19653,0.04572
1167.70674,0.03053
1166.21695,0.04901
1164.72716,0.06751
1163.23738,0.03799
1161.74759,0.02612
1160.25780,0.03563
1158.76801,0.01955
1157.27822,0.00349
1155.78843,0.01834
1154.29865,0.00386
1152.80886,0.01290
1151.31907,0.03959
1149.82928,0.09353
1148.33949,0.09571
1146.84970,0.10326
1145.35991,0.11084
1143.87013,0.04957
1142.38034,0.05133
1140.89055,0.07288
1139.40076,0.12328
1137.91097,0.18547
1136.42118,0.14996
1134.93140,0.16708
1133.44161,0.18423
1131.95182,0.20328
1130.46203,0.22983
1128.97224,0.24733
1127.48245,0.23602
1125.99266,0.27066
1124.50288,0.30747
1123.01309,0.30399
1121.52330,0.30054
1120.03351,0.34651
1118.54372,0.35513
1117.05393,0.33548
1115.56415,0.30625
1114.07436,0.31762
1112.58457,0.35171
1111.09478,0.38584
1109.60499,0.42560
1108.11520,0.45417
1106.62542,0.47636
1105.13563,0.49431
1103.64584,0.58010
1102.15605,0.63655
1100.66626,0.63457
1099.17647,0.63261
1097.68668,0.60318
1096.19690,0.66134
1094.70711,0.68056
1093.21732,0.73291
1091.72753,0.76339
1090.23774,0.76508
1088.74795,0.76678
1087.25817,0.82672
1085.76838,0.88081
1084.27859,0.86018
1082.78880,0.92341
1081.29901,0.98559
1079.80922,0.95703
1078.31943,0.96588
1076.82965,0.97476
1075.33986,1.06589
1073.85007,1.03958
1072.36028,1.05655
1070.87049,1.15524
1069.38070,1.29187
1067.89092,1.23257
1066.40113,1.17330
1064.91134,1.11139
1063.42155,1.01640
1061.93176,0.93906
1060.44197,0.88791
1058.95219,0.81170
1057.46240,0.78437
1055.97261,0.75706
1054.48282,0.72311
1052.99303,0.67317
1051.50324,0.59229
1050.01345,0.54988
1048.52367,0.47226
1047.03388,0.46542
1045.54409,0.45860
1044.05430,0.46703
1042.56451,0.36390
1041.07472,0.32913
1039.58494,0.27144
1038.09515,0.27357
1036.60536,0.24129
1035.11557,0.20905
1033.62578,0.23369
1032.13599,0.25997
1030.64620,0.26224
1029.15642,0.31687
1027.66663,0.31867
1026.17684,0.32049
1024.68705,0.36186
1023.19726,0.49669
1021.70747,0.65665
1020.21769,0.86842
1018.72790,1.02150
1017.23811,1.13615
1015.74832,1.25083
1014.25853,1.45418
1012.76874,1.58868
1011.27896,1.72480
1009.78917,1.77820
1008.29938,1.88181
1006.80959,1.87332
1005.31980,1.86487
1003.83001,1.82547
1002.34022,1.69052
1000.85044,1.55721
999.36065,1.39295
997.87086,1.35928
996.38107,1.32562
994.89128,1.26290
993.40149,1.29365
991.91171,1.23365
990.42192,1.19397
988.93213,1.20558
987.44234,1.18385
985.95255,1.16214
984.46276,1.11884
982.97297,1.06595
981.48319,1.03712
979.99340,0.93624
978.50361,0.93149
977.01382,0.92678
975.52403,0.85428
974.03424,0.78447
972.54446,0.70082
971.05467,0.68980
969.56488,0.64999
968.07509,0.64571
966.58530,0.64145
965.09551,0.62041
963.60573,0.62288
962.11594,0.55865
960.62615,0.50352
959.13636,0.48178
957.64657,0.46008
956.15678,0.38901
954.66699,0.42476
953.17721,0.43438
951.68742,0.41732
950.19763,0.40484
948.70784,0.39238
947.21805,0.35619
945.72826,0.34993
944.23848,0.38534
942.74869,0.45282
941.25890,0.41033
939.76911,0.42634
938.27932,0.44238
936.78953,0.51531
935.29974,0.50818
933.80996,0.49947
932.32017,0.48759
930.83038,0.52433
929.34059,0.56109
927.85080,0.50178
926.36101,0.47346
924.87123,0.47400
923.38144,0.50019
921.89165,0.48798
920.40186,0.47579
918.91207,0.48658
917.42228,0.46431
915.93250,0.47570
914.44271,0.49299
912.95292,0.49829
911.46313,0.50362
909.97334,0.49270
908.48355,0.55976
906.99376,0.53768
905.50398,0.51189
904.01419,0.50802
902.52440,0.50418
901.03461,0.49556
899.54482,0.47095
898.05503,0.46078
896.56525,0.50938
895.07546,0.53425
893.58567,0.55914
892.09588,0.53200
890.60609,0.54867
889.11630,0.53281
887.62651,0.52551
886.13673,0.52999
884.64694,0.53449
883.15715,0.57266
881.66736,0.57936
880.17757,0.60157
878.68778,0.59872
877.19800,0.59589
875.70821,0.62726
874.21842,0.68696
872.72863,0.72746
871.23884,0.78135
869.74905,0.81149
868.25927,0.84167
866.76948,0.80434
865.27969,0.77023
863.78990,0.80290
862.30011,0.79661
860.81032,0.78315
859.32053,0.76971
857.83075,0.76832
856.34096,0.76642
854.85117,0.72984
853.36138,0.62869
851.87159,0.60845
850.38180,0.58824
848.89202,0.48504
847.40223,0.37438
845.91244,0.32890
844.42265,0.33337
842.93286,0.33786
841.44307,0.29833
839.95329,0.30369
838.46350,0.24019
836.97371,0.19968
835.48392,0.19417
833.99413,0.18869
832.50434,0.20486
831.01455,0.24989
829.52477,0.27680
828.03498,0.22311
826.54519,0.22311
825.05540,0.22314
823.56561,0.18769
822.07582,0.19978
820.58604,0.14677
819.09625,0.12929
817.60646,0.11184
816.11667,0.07012
814.62688,0.07435
813.13709,0.00386
811.64730,0.00349
810.15752,0.03913
808.66773,0.07479
807.17794,0.01331
805.68815,0.04689
804.19836,0.07463
802.70857,0.08612
801.21879,0.09763
799.72900,0.09876
798.23921,0.17253
796.74942,0.33123
795.25963,0.32550
793.76984,0.31980
792.28006,0.39101
790.79027,0.45211
789.30048,0.46678
787.81069,0.46013
786.32090,0.48500
784.83111,0.50991
783.34132,0.54018
781.85154,0.60572
780.36175,0.60294
778.87196,0.61594
777.38217,0.62897
775.89238,0.73467
774.40259,0.76244
772.91281,0.68238
771.42302,0.67284
769.93323,0.66332
768.44344,0.63033
766.95365,0.68227
765.46386,0.66589
763.97407,0.63513
762.48429,0.57903
760.99450,0.52296
759.50471,0.43248
758.01492,0.38527
756.52513,0.34504
755.03534,0.29922
753.54556,0.25344
752.05577,0.19353
750.56598,0.14273
749.07619,0.10477
747.58640,0.08553
746.09661,0.06632
744.60683,0.06155
743.11704,0.03652
741.62725,0.05049
740.13746,0.04554
738.64767,0.04062
737.15788,0.04133
735.66809,0.00843
734.17831,0.00386
732.68852,0.00738
731.19873,0.01094
729.70894,0.02440
728.21915,0.05924
726.72936,0.04286
725.23958,0.02918
723.74979,0.03447
722.26000,0.03980
720.77021,0.03367
719.28042,0.04039
717.79063,0.07863
716.30084,0.05070
714.81106,0.02280
713.32127,0.00774
711.83148,0.02367
710.34169,0.00386
708.85190,0.01272
707.36211,0.02161
705.87233,0.06123
704.38254,0.01865
702.89275,0.00386
701.40296,0.01139
699.91317,0.01894
698.42338,0.06497
696.93360,0.10675
695.44381,0.14590
693.95402,0.15223
692.46423,0.15859
690.97444,0.18180
689.48465,0.12869
687.99486,0.17598
686.50508,0.18166
685.01529,0.18736
683.52550,0.22673
682.03571,0.18336
680.54592,0.21852
679.05613,0.19310
677.56635,0.16770
676.07656,0.16503
674.58677,0.10953
673.09698,0.09997
671.60719,0.10913
670.11740,0.11832
668.62761,0.10725
667.13783,0.08873
665.64804,0.06169
664.15825,0.03469
662.66846,0.02479
661.17867,0.05231
659.68888,0.04994
658.19910,0.07458
656.70931,0.09924
655.21952,0.10764
653.72973,0.09685
652.23994,0.12186
650.75015,0.10552
649.26037,0.08920
647.77058,0.09668
646.28079,0.05613
644.79100,0.00386
643.30121,0.02564
641.81142,0.04745
640.32163,0.04739
638.83185,0.01693
637.34206,0.02815
635.85227,0.02578
634.36248,0.02343
632.87269,0.05929
631.38290,0.07222
629.89312,0.05047
628.40333,0.02715
626.91354,0.00386
625.42375,0.03592
623.93396,0.10432
622.44417,0.10468
620.95438,0.10506
619.46460,0.06836
617.97481,0.05518
616.48502,0.13226
614.99523,0.12688
613.50544,0.12153
612.01565,0.10846
610.52587,0.08848
609.03608,0.10698
607.54629,0.12069
606.05650,0.13443
604.56671,0.15515
603.07692,0.17535
601.58714,0.16809
600.09735,0.16086
598.60756,0.14164
597.11777,0.11924
595.62798,0.11556
594.13819,0.08949
592.64840,0.06344
591.15862,0.07693
589.66883,0.14491
588.17904,0.06769
586.68925,0.06872
585.19946,0.06978
583.70967,0.10157
582.21989,0.09547
580.73010,0.09261
579.24031,0.08977
577.75052,0.16759
576.26073,0.15467
574.77094,0.08411
573.28115,0.10435
571.79137,0.12461
570.30158,0.19243
568.81179,0.25600
567.32200,0.26994
565.83221,0.28391
564.34242,0.25359
562.85264,0.24520
561.36285,0.33400
559.87306,0.34488
558.38327,0.35579
556.89348,0.36246
555.40369,0.42949
553.91391,0.45943
552.42412,0.48941
550.93433,0.49192
549.44454,0.48537
547.95475,0.54080
546.46496,0.53404
544.97517,0.52732
543.48539,0.52570
541.99560,0.54012
540.50581,0.57219
539.01602,0.60429
537.52623,0.52856
536.03644,0.55644
534.54666,0.50747
533.05687,0.51405
531.56708,0.52066
530.07729,0.50594
528.58750,0.45868
527.09771,0.45176
525.60792,0.44487
524.11814,0.46871
522.62835,0.42690
521.13856,0.41502
519.64877,0.38982
518.15898,0.36465
516.66919,0.29733
515.17941,0.30532
513.68962,0.29331
512.19983,0.28133
510.71004,0.30810
509.22025,0.30926
507.73046,0.31899
506.24068,0.31727
504.75089,0.31558
503.26110,0.33127
501.77131,0.30053
500.28152,0.27757
498.79173,0.25463
497.30194,0.27951
495.81216,0.30175
494.32237,0.30907
492.83258,0.31641
491.34279,0.29015
489.85300,0.31143
488.36321,0.23770
486.87343,0.22193
485.38364,0.20619
483.89385,0.19235
482.40406,0.17693
480.91427,0.14926
479.42448,0.12162
477.93469,0.11590
476.44491,0.09632
474.95512,0.08932
473.46533,0.08235
471.97554,0.05538
470.48575,0.01776
468.99596,0.06293
467.50618,0.03338
466.01639,0.00386
464.52660,0.01295
463.03681,0.08346
461.54702,0.08326
460.05723,0.08309
458.56745,0.10830
457.07766,0.06040
455.58787,0.07019
454.09808,0.08001
452.60829,0.12296
451.11850,0.08371
449.62871,0.09922
448.13893,0.11475
446.64914,0.19466
445.15935,0.31517
443.66956,0.37057
442.17977,0.38675
440.68998,0.40297
439.20020,0.42161
437.71041,0.45843
436.22062,0.52412
434.73083,0.58983
433.24104,0.71804
431.75125,0.79396
430.26146,0.84614
428.77168,0.89835
427.28189,0.96688
425.79210,1.01407
424.30231,0.97026
422.81252,0.92648
421.32273,0.94813
419.83295,0.84273
418.34316,0.82306
416.85337,0.80341
415.36358,0.64737
413.87379,0.59655
412.38400,0.54682
410.89422,0.49712
409.40443,0.51580
407.91464,0.49926
406.42485,0.48221
404.93506,0.42782
403.44527,0.37346
401.95548,0.36184
400.46570,0.31714
398.97591,0.33307
397.48612,0.34904
395.99633,0.35408
394.50654,0.40347
393.01675,0.38721
391.52697,0.37098
390.03718,0.27256
388.54739,0.27294
387.05760,0.28509
385.56781,0.29728
384.07802,0.26891
382.58824,0.27955
381.09845,0.27686
379.60866,0.27421
378.11887,0.24702
376.62908,0.20384
375.13929,0.16470
373.64950,0.12558
372.15972,0.14977
370.66993,0.13554
369.18014,0.13361
367.69035,0.13172
366.20056,0.02039
364.71077,0.03190
363.22099,0.05492
361.73120,0.07797
360.24141,0.13228
358.75162,0.08890
357.26183,0.11364
355.77204,0.13840
354.28225,0.04011
352.79247,0.06146
351.30268,0.03265
349.81289,0.00386
348.32310,0.00764
346.83331,0.01096
345.34352,0.01884
343.85374,0.02675
342.36395,0.08034
340.87416,0.09552
339.38437,0.09791
337.89458,0.10033
336.40479,0.10010
334.91501,0.06681
333.42522,0.07919
331.93543,0.09159
330.44564,0.12085
328.95585,0.11863
327.46606,0.10443
325.97627,0.09025
324.48649,0.01764
322.99670,0.07246
321.50691,0.09526
320.01712,0.11810
318.52733,0.09184
317.03754,0.12755
315.54776,0.12991
314.05797,0.13230
312.56818,0.07465
311.07839,0.07416
309.58860,0.03900
308.09881,0.00386
306.60902,0.07462
305.11924,0.12032
303.62945,0.10998
302.13966,0.09968
300.64987,0.04241
299.16008,0.00386
