1778.52000,0.03981
1777.03021,0.00974
1775.54042,0.02315
1774.05063,0.03116
1772.56085,0.02988
1771.07106,0.03174
1769.58127,0.04295
1768.09148,0.04021
1766.60169,0.07165
1765.11190,0.06975
1763.62212,0.05236
1762.13233,0.04044
1760.64254,0.05958
1759.15275,0.05935
1757.66296,0.05761
1756.17317,0.04658
1754.68339,0.04955
1753.19360,0.05875
1751.70381,0.04704
1750.21402,0.04932
1748.72423,0.00974
1747.23444,0.03311
1745.74465,0.07203
1744.25487,0.08693
1742.76508,0.07703
1741.27529,0.04621
1739.78550,0.07284
1738.29571,0.06225
1736.80592,0.04549
1735.31614,0.05281
1733.82635,0.06637
1732.33656,0.04659
1730.84677,0.06797
1729.35698,0.06688
1727.86719,0.03555
1726.37740,0.03607
1724.88762,0.03119
1723.39783,0.01470
1721.90804,0.01919
1720.41825,0.00974
1718.92846,0.03452
1717.43867,0.03063
1715.94889,0.04848
1714.45910,0.05861
1712.96931,0.05326
1711.47952,0.06733
1709.98973,0.05350
1708.49994,0.06530
1707.01016,0.06394
1705.52037,0.06262
1704.03058,0.06442
1702.54079,0.05307
1701.05100,0.08752
1699.56121,0.08709
1698.07142,0.09057
1696.58164,0.09408
1695.09185,0.12245
1693.60206,0.15395
1692.11227,0.10711
1690.62248,0.12083
1689.13269,0.14699
1687.64291,0.14602
1686.15312,0.18466
1684.66333,0.14418
1683.17354,0.14719
1681.68375,0.17505
1680.19396,0.13854
1678.70417,0.11371
1677.21439,0.12692
1675.72460,0.13395
1674.23481,0.14335
1672.74502,0.11863
1671.25523,0.16222
1669.76544,0.18334
1668.27566,0.12846
1666.78587,0.12636
1665.29608,0.09016
1663.80629,0.12226
1662.31650,0.15206
1660.82671,0.13923
1659.33693,0.13108
1657.84714,0.11675
1656.35735,0.12495
1654.86756,0.10447
1653.37777,0.10886
1651.88798,0.11482
1650.39819,0.09288
1648.90841,0.12296
1647.41862,0.10108
1645.92883,0.11764
1644.43904,0.13423
1642.94925,0.11943
1641.45946,0.12405
1639.96968,0.12483
1638.47989,0.12253
1636.99010,0.12879
1635.50031,0.12655
1634.01052,0.08245
1632.52073,0.09268
1631.03094,0.12700
1629.54116,0.14195
1628.05137,0.10417
1626.56158,0.13703
1625.07179,0.16371
1623.58200,0.16869
1622.09221,0.16828
1620.60243,0.14384
1619.11264,0.16210
1617.62285,0.15014
1616.13306,0.15838
1614.64327,0.15501
1613.15348,0.17572
1611.66370,0.14836
1610.17391,0.13112
1608.68412,0.13796
1607.19433,0.12543
1605.70454,0.13077
1604.21475,0.12839
1602.72496,0.12604
1601.23518,0.11441
1599.74539,0.13849
1598.25560,0.11373
1596.76581,0.12702
1595.27602,0.09921
1593.78623,0.11411
1592.29645,0.09956
1590.80666,0.12382
1589.31687,0.08217
1587.82708,0.10650
1586.33729,0.08974
1584.84750,0.09318
1583.35771,0.05087
1581.86793,0.09162
1580.37814,0.04161
1578.88835,0.06224
1577.39856,0.05420
1575.90877,0.06558
1574.41898,0.04595
1572.92920,0.04963
1571.43941,0.04636
1569.94962,0.05321
1568.45983,0.06008
1566.97004,0.05457
1565.48025,0.02970
1563.99047,0.04520
1562.50068,0.03823
1561.01089,0.02741
1559.52110,0.04843
1558.03131,0.00974
1556.54152,0.04246
1555.05173,0.04728
1553.56195,0.04438
1552.07216,0.02909
1550.58237,0.07279
1549.09258,0.02886
1547.60279,0.04314
1546.11300,0.06366
1544.62322,0.08343
1543.13343,0.10013
1541.64364,0.04859
1540.15385,0.04246
1538.66406,0.03637
1537.17427,0.00974
1535.68448,0.03384
1534.19470,0.05099
1532.70491,0.00843
1531.21512,0.04659
1529.72533,0.04987
1528.23554,0.03223
1526.74575,0.02470
1525.25597,0.04669
1523.76618,0.00896
1522.27639,0.02325
1520.78660,0.00654
1519.29681,0.01844
1517.80702,0.01640
1516.31724,0.01672
1514.82745,0.02560
1513.33766,0.01784
1511.84787,0.01010
1510.35808,0.04849
1508.86829,0.03181
1507.37850,0.00974
1505.88872,0.04048
1504.39893,0.02547
1502.90914,0.02523
1501.41935,0.02735
1499.92956,0.02174
1498.43977,0.02392
1496.94999,0.10604
1495.46020,0.13311
1493.97041,0.13305
1492.48062,0.19975
1490.99083,0.20829
1489.50104,0.28203
1488.01125,0.32127
1486.52147,0.36055
1485.03168,0.42274
1483.54189,0.41591
1482.05210,0.49446
1480.56231,0.54122
1479.07252,0.61750
1477.58274,0.71398
1476.09295,0.81204
1474.60316,0.84574
1473.11337,0.93145
1471.62358,0.88607
1470.13379,0.89658
1468.64401,0.86057
1467.15422,0.82226
1465.66443,0.81269
1464.17464,0.80315
1462.68485,0.72458
1461.19506,0.73140
1459.70527,0.65677
1458.21549,0.57830
1456.72570,0.54021
1455.23591,0.49981
1453.74612,0.45324
1452.25633,0.45325
1450.76654,0.38734
1449.27676,0.36569
1447.78697,0.34562
1446.29718,0.32558
1444.80739,0.29005
1443.31760,0.25455
1441.82781,0.20279
1440.33802,0.15261
1438.84824,0.14824
1437.35845,0.10122
1435.86866,0.12561
1434.37887,0.16090
1432.88908,0.19001
1431.39929,0.12139
1429.90951,0.11254
1428.41972,0.08045
1426.92993,0.11200
1425.44014,0.10945
1423.95035,0.13486
1422.46056,0.16030
1420.97078,0.19198
1419.48099,0.21671
1417.99120,0.16387
1416.50141,0.19642
1415.01162,0.20416
1413.52183,0.21194
1412.03204,0.18794
1410.54226,0.19577
1409.05247,0.22459
1407.56268,0.23016
1406.07289,0.23576
1404.58310,0.22315
1403.09331,0.21058
1401.60353,0.25894
1400.11374,0.30190
1398.62395,0.35731
1397.13416,0.34602
1395.64437,0.42321
1394.15458,0.45387
1392.66479,0.44035
1391.17501,0.49901
1389.68522,0.53519
1388.19543,0.55202
1386.70564,0.54559
1385.21585,0.53920
1383.72606,0.53439
1382.23628,0.51021
1380.74649,0.44650
1379.25670,0.48755
1377.76691,0.47355
1376.27712,0.55734
1374.78733,0.60935
1373.29755,0.71026
1371.80776,0.79414
1370.31797,0.93546
1368.82818,1.08961
1367.33839,1.24380
1365.84860,1.36193
1364.35881,1.54139
1362.86903,1.67510
1361.37924,1.76850
1359.88945,1.76883
1358.39966,1.92824
1356.90987,2.00000
1355.42008,1.91274
1353.93030,1.70371
1352.44051,1.65220
1350.95072,1.60073
1349.46093,1.47713
1347.97114,1.25270
1346.48135,1.16252
1344.99156,0.95289
1343.50178,0.86510
1342.01199,0.75406
1340.52220,0.62366
1339.03241,0.56932
1337.54262,0.52277
1336.05283,0.51737
1334.56305,0.51201
1333.07326,0.44460
1331.58347,0.34464
1330.09368,0.38280
1328.60389,0.31471
1327.11410,0.26760
1325.62432,0.32913
1324.13453,0.25415
1322.64474,0.24436
1321.15495,0.22763
1319.66516,0.20045
1318.17537,0.17330
1316.68558,0.18536
1315.19580,0.17806
1313.70601,0.20957
1312.21622,0.14880
1310.72643,0.19744
1309.23664,0.15612
1307.74685,0.15207
1306.25707,0.15503
1304.76728,0.16113
1303.27749,0.16725
1301.78770,0.16720
1300.29791,0.14546
1298.80812,0.13460
1297.31834,0.15404
1295.82855,0.18825
1294.33876,0.12007
1292.84897,0.15667
1291.35918,0.16846
1289.86939,0.17719
1288.37960,0.18594
1286.88982,0.22188
1285.40003,0.23613
1283.91024,0.20385
1282.42045,0.21428
1280.93066,0.21465
1279.44087,0.23445
1277.95109,0.21781
1276.46130,0.23922
1274.97151,0.23117
1273.48172,0.22316
1271.99193,0.25319
1270.50214,0.31119
1269.01235,0.31956
1267.52257,0.29693
1266.03278,0.29294
1264.54299,0.32778
1263.05320,0.34636
1261.56341,0.37428
1260.07362,0.40222
1258.58384,0.36968
1257.09405,0.39071
1255.60426,0.37530
1254.11447,0.35681
1252.62468,0.36474
1251.13489,0.32071
1249.64511,0.33568
1248.15532,0.28551
1246.66553,0.27338
1245.17574,0.26129
1243.68595,0.23293
1242.19616,0.21856
1240.70637,0.20733
1239.21659,0.21398
1237.72680,0.15936
1236.23701,0.16684
1234.74722,0.13944
1233.25743,0.11401
1231.76764,0.08860
1230.27786,0.14121
1228.78807,0.13332
1227.29828,0.11615
1225.80849,0.07031
1224.31870,0.06096
1222.82891,0.05087
1221.33912,0.02219
1219.84934,0.06530
1218.35955,0.10845
1216.86976,0.08141
1215.37997,0.10870
1213.89018,0.11897
1212.40039,0.01908
1210.91061,0.07130
1209.42082,0.05682
1207.93103,0.05479
1206.44124,0.05279
1204.95145,0.02754
1203.46166,0.02560
1201.97188,0.01593
1200.48209,0.04896
1198.99230,0.06262
1197.50251,0.05847
1196.01272,0.06910
1194.52293,0.03940
1193.03314,0.00974
1191.54336,0.04622
1190.05357,0.03928
1188.56378,0.04711
1187.07399,0.01075
1185.58420,0.02984
1184.09441,0.02567
1182.60463,0.03163
1181.11484,0.03761
1179.62505,0.07156
1178.13526,0.04502
1176.64547,0.10075
1175.15568,0.07194
1173.66589,0.08971
1172.17611,0.02838
1170.68632,0.03613
1169.19653,0.04391
1167.70674,0.04473
1166.21695,0.06266
1164.72716,0.03871
1163.23738,0.02101
1161.74759,0.04911
1160.25780,0.00974
1158.76801,0.02787
1157.27822,0.04603
1155.78843,0.02620
1154.29865,0.06227
1152.80886,0.04405
1151.31907,0.06000
1149.82928,0.01935
1148.33949,0.08889
1146.84970,0.08593
1145.35991,0.08299
1143.87013,0.07039
1142.38034,0.09506
1140.89055,0.14613
1139.40076,0.17862
1137.91097,0.15683
1136.42118,0.18161
1134.93140,0.19130
1133.44161,0.20102
1131.95182,0.16461
1130.46203,0.14141
1128.97224,0.24704
1127.48245,0.24408
1125.99266,0.30942
1124.50288,0.35928
1123.01309,0.32886
1121.52330,0.29848
1120.03351,0.34455
1118.54372,0.40228
1117.05393,0.37238
1115.56415,0.29983
1114.07436,0.41429
1112.58457,0.39340
1111.09478,0.37253
1109.60499,0.36993
1108.11520,0.40693
1106.62542,0.53706
1105.13563,0.50197
1103.64584,0.58173
1102.15605,0.59091
1100.66626,0.61449
1099.17647,0.63809
1097.68668,0.64038
1096.19690,0.65357
1094.70711,0.67687
1093.21732,0.75917
1091.72753,0.74064
1090.23774,0.77994
1088.74795,0.81927
1087.25817,0.85746
1085.76838,0.77466
1084.27859,0.93550
1082.78880,0.94042
1081.29901,0.98650
1079.80922,1.00700
1078.31943,0.98253
1076.82965,0.95809
1075.33986,1.03299
1073.85007,1.11336
1072.36028,1.11772
1070.87049,1.14305
1069.38070,1.23980
1067.89092,1.20041
1066.40113,1.16106
1064.91134,1.08255
1063.42155,0.98080
1061.93176,1.00011
1060.44197,0.91936
1058.95219,0.79986
1057.46240,0.79637
1055.97261,0.79292
1054.48282,0.75031
1052.99303,0.70540
1051.50324,0.68924
1050.01345,0.59241
1048.52367,0.47932
1047.03388,0.48419
1045.54409,0.48909
1044.05430,0.39782
1042.56451,0.38571
1041.07472,0.35734
1039.58494,0.30495
1038.09515,0.23164
1036.60536,0.20220
1035.11557,0.17278
1033.62578,0.23301
1032.13599,0.24749
1030.64620,0.27364
1029.15642,0.27732
1027.66663,0.29151
1026.17684,0.30572
1024.68705,0.35682
1023.19726,0.44985
1021.70747,0.62204
1020.21769,0.80668
1018.72790,0.93936
1017.23811,1.04492
1015.74832,1.15051
1014.25853,1.44466
1012.76874,1.63953
1011.27896,1.76694
1009.78917,1.82997
1008.29938,1.92796
1006.80959,1.89911
1005.31980,1.87030
1003.83001,1.77596
1002.34022,1.74294
1000.85044,1.59823
999.36065,1.38295
997.87086,1.35080
996.38107,1.31868
994.89128,1.27107
993.40149,1.25995
991.91171,1.21318
990.42192,1.18971
988.93213,1.17481
987.44234,1.16421
985.95255,1.15363
984.46276,1.04494
982.97297,0.99059
981.48319,0.98670
979.99340,0.91301
978.50361,0.88901
977.01382,0.86504
975.52403,0.82403
974.03424,0.75977
972.54446,0.72115
971.05467,0.65618
969.56488,0.59124
968.07509,0.55930
966.58530,0.52739
965.09551,0.55797
963.60573,0.53039
962.11594,0.46948
960.62615,0.49006
959.13636,0.44822
957.64657,0.40641
956.15678,0.35493
954.66699,0.32985
953.17721,0.34749
951.68742,0.38687
950.19763,0.38710
948.70784,0.38737
947.21805,0.33840
945.72826,0.29566
944.23848,0.32356
942.74869,0.41278
941.25890,0.37711
939.76911,0.43109
938.27932,0.48510
936.78953,0.47281
935.29974,0.50088
933.80996,0.44598
932.32017,0.45782
930.83038,0.49763
929.34059,0.53746
927.85080,0.50906
926.36101,0.45895
924.87123,0.44302
923.38144,0.43332
921.89165,0.43723
920.40186,0.44117
918.91207,0.45717
917.42228,0.49492
915.93250,0.48459
914.44271,0.44947
912.95292,0.48343
911.46313,0.51742
909.97334,0.50024
908.48355,0.50170
906.99376,0.53579
905.50398,0.46283
904.01419,0.46865
902.52440,0.47450
901.03461,0.46759
899.54482,0.48165
898.05503,0.51746
896.56525,0.50830
895.07546,0.52284
893.58567,0.53741
892.09588,0.56171
890.60609,0.48983
889.11630,0.45211
887.62651,0.47573
886.13673,0.49626
884.64694,0.51683
883.15715,0.50096
881.66736,0.54797
880.17757,0.56475
878.68778,0.57496
877.19800,0.58521
875.70821,0.59975
874.21842,0.54527
872.72863,0.65996
871.23884,0.72114
869.74905,0.75171
868.25927,0.78230
866.76948,0.75513
865.27969,0.74428
863.78990,0.77923
862.30011,0.75603
860.81032,0.73596
859.32053,0.71592
857.83075,0.73237
856.34096,0.72170
854.85117,0.71882
853.36138,0.63528
851.87159,0.59794
850.38180,0.56062
848.89202,0.45001
847.40223,0.35340
845.91244,0.23277
844.42265,0.27510
842.93286,0.31746
841.44307,0.27373
839.95329,0.21141
838.46350,0.17627
836.97371,0.17608
835.48392,0.18911
833.99413,0.20217
832.50434,0.18267
831.01455,0.22759
829.52477,0.26169
828.03498,0.23995
826.54519,0.21903
825.05540,0.19813
823.56561,0.14622
822.07582,0.09900
820.58604,0.14802
819.09625,0.11483
817.60646,0.08167
816.11667,0.00974
814.62688,0.07023
813.13709,0.02058
811.64730,0.01906
810.15752,0.03968
808.66773,0.06034
807.17794,0.00770
805.68815,0.08663
804.19836,0.06627
802.70857,0.07233
801.21879,0.07841
799.72900,0.10625
798.23921,0.16903
796.74942,0.28693
795.25963,0.32766
793.76984,0.36842
792.28006,0.42124
790.79027,0.41512
789.30048,0.38731
787.81069,0.46659
786.32090,0.49393
784.83111,0.52129
783.34132,0.54325
781.85154,0.57300
780.36175,0.61675
778.87196,0.61126
777.38217,0.60580
775.89238,0.64576
774.40259,0.72066
772.91281,0.71956
771.42302,0.71616
769.93323,0.71279
768.44344,0.68928
766.95365,0.62778
765.46386,0.63071
763.97407,0.60962
762.48429,0.58855
760.99450,0.56752
759.50471,0.42548
758.01492,0.37503
756.52513,0.35176
755.03534,0.32968
753.54556,0.30764
752.05577,0.22394
750.56598,0.18217
749.07619,0.11405
747.58640,0.09290
746.09661,0.07178
744.60683,0.09530
743.11704,0.01722
741.62725,0.08657
740.13746,0.10126
738.64767,0.11598
737.15788,0.11793
735.66809,0.00974
734.17831,0.05594
732.68852,0.06958
731.19873,0.08326
729.70894,0.07989
728.21915,0.04009
726.72936,0.04222
725.23958,0.05757
723.74979,0.04424
722.26000,0.03094
720.77021,0.04094
719.28042,0.07736
717.79063,0.06803
716.30084,0.05329
714.81106,0.03859
713.32127,0.01306
711.83148,0.02092
710.34169,0.05286
708.85190,0.06815
707.36211,0.08347
705.87233,0.11705
704.38254,0.05446
702.89275,0.00974
701.40296,0.03558
699.91317,0.06146
698.42338,0.11645
696.93360,0.09079
695.44381,0.16757
693.95402,0.17262
692.46423,0.17770
690.97444,0.16224
689.48465,0.16854
687.99486,0.15625
686.50508,0.16571
685.01529,0.17521
683.52550,0.25533
682.03571,0.24704
680.54592,0.22094
679.05613,0.20301
677.56635,0.18511
676.07656,0.22349
674.58677,0.12225
673.09698,0.13043
671.60719,0.13127
670.11740,0.13214
668.62761,0.12955
667.13783,0.07734
665.64804,0.07908
664.15825,0.08085
662.66846,0.09312
661.17867,0.05732
659.68888,0.08284
658.19910,0.10839
656.70931,0.13398
655.21952,0.15028
653.72973,0.09058
652.23994,0.12944
650.75015,0.10898
649.26037,0.08855
647.77058,0.10345
646.28079,0.09200
644.79100,0.04490
643.30121,0.02730
641.81142,0.00974
640.32163,0.12784
638.83185,0.05745
637.34206,0.03053
635.85227,0.02420
634.36248,0.01790
632.87269,0.06710
631.38290,0.02323
629.89312,0.05388
628.40333,0.03179
626.91354,0.00974
625.42375,0.08427
623.93396,0.08667
622.44417,0.07630
620.95438,0.06597
619.46460,0.13751
617.97481,0.07797
616.48502,0.11466
614.99523,0.14207
613.50544,0.16952
612.01565,0.13492
610.52587,0.11354
609.03608,0.09763
607.54629,0.12209
606.05650,0.14658
604.56671,0.18584
603.07692,0.23133
601.58714,0.21363
600.09735,0.19596
598.60756,0.19810
597.11777,0.21190
595.62798,0.10936
594.13819,0.12905
592.64840,0.14877
591.15862,0.10141
589.66883,0.09131
588.17904,0.12237
586.68925,0.13445
585.19946,0.14656
583.70967,0.13969
582.21989,0.17785
580.73010,0.15436
579.24031,0.13090
577.75052,0.17381
576.26073,0.18959
574.77094,0.12937
573.28115,0.13939
571.79137,0.14944
570.30158,0.15293
568.81179,0.22472
567.32200,0.22633
565.83221,0.22797
564.34242,0.29055
562.85264,0.31746
561.36285,0.40415
559.87306,0.41444
558.38327,0.42476
556.89348,0.46499
555.40369,0.45792
553.91391,0.48307
552.42412,0.50826
550.93433,0.53541
549.44454,0.52691
547.95475,0.49904
546.46496,0.52357
544.97517,0.54813
543.48539,0.60569
541.99560,0.61674
540.50581,0.62510
539.01602,0.63348
537.52623,0.67255
536.03644,0.58518
534.54666,0.60103
533.05687,0.59635
531.56708,0.59170
530.07729,0.51763
528.58750,0.49171
527.09771,0.50073
525.60792,0.50977
524.11814,0.46144
522.62835,0.52408
521.13856,0.47891
519.64877,0.43880
518.15898,0.39874
516.66919,0.34124
515.17941,0.37300
513.68962,0.38772
512.19983,0.40247
510.71004,0.34431
509.22025,0.28619
507.73046,0.36931
506.24068,0.37758
504.75089,0.38589
503.26110,0.32866
501.77131,0.32966
500.28152,0.34077
498.79173,0.35191
497.30194,0.31653
495.81216,0.36419
494.32237,0.35215
492.83258,0.34013
491.34279,0.35220
489.85300,0.35344
488.36321,0.26393
486.87343,0.25359
485.38364,0.24327
483.89385,0.25084
482.40406,0.23050
480.91427,0.18924
479.42448,0.14802
477.93469,0.16035
476.44491,0.17893
474.95512,0.15021
473.46533,0.12152
471.97554,0.10527
470.48575,0.09914
468.99596,0.12329
467.50618,0.09278
466.01639,0.06230
464.52660,0.00974
463.03681,0.05157
461.54702,0.05813
460.05723,0.06472
458.56745,0.12682
457.07766,0.09428
455.58787,0.12075
454.09808,0.14724
452.60829,0.20325
451.11850,0.11731
449.62871,0.15398
448.13893,0.19068
446.64914,0.24448
445.15935,0.25642
443.66956,0.35916
442.17977,0.37775
440.68998,0.39637
439.20020,0.47825
437.71041,0.50740
436.22062,0.54163
434.73083,0.57589
433.24104,0.67573
431.75125,0.76863
430.26146,0.83129
428.77168,0.89399
427.28189,0.93344
425.79210,1.02646
424.30231,0.99847
422.81252,0.97051
421.32273,1.00930
419.83295,0.88830
418.34316,0.88332
416.85337,0.87837
415.36358,0.61781
413.87379,0.58305
412.38400,0.53009
410.89422,0.47715
409.40443,0.48515
407.91464,0.53431
406.42485,0.41125
404.93506,0.39568
403.44527,0.38014
401.95548,0.38363
400.46570,0.35225
398.97591,0.35503
397.48612,0.35784
395.99633,0.37620
394.50654,0.38916
393.01675,0.42465
391.52697,0.46017
390.03718,0.26684
388.54739,0.24113
387.05760,0.25579
385.56781,0.27048
384.07802,0.24485
382.58824,0.29762
381.09845,0.27904
379.60866,0.26049
378.11887,0.25438
376.62908,0.23977
375.13929,0.18407
373.64950,0.12840
372.15972,0.20155
370.66993,0.17930
369.18014,0.12566
367.69035,0.07205
366.20056,0.06696
364.71077,0.07431
363.22099,0.07355
361.73120,0.07282
360.24141,0.09035
358.75162,0.08696
357.26183,0.10106
355.77204,0.11519
354.28225,0.08939
352.79247,0.03337
351.30268,0.04177
349.81289,0.05020
348.32310,0.02375
346.83331,0.00974
345.34352,0.02246
343.85374,0.03520
342.36395,0.02432
340.87416,0.06544
339.38437,0.09108
337.89458,0.11675
336.40479,0.12848
334.91501,0.06344
333.42522,0.07058
331.93543,0.07774
330.44564,0.09969
328.95585,0.06424
327.46606,0.03698
325.97627,0.00974
324.48649,0.03470
322.99670,0.02167
321.50691,0.05523
320.01712,0.08881
318.52733,0.05492
317.03754,0.08857
315.54776,0.10013
314.05797,0.11172
312.56818,0.04460
311.07839,0.00000
309.58860,0.01130
308.09881,0.02262
306.60902,0.02622
305.11924,0.08260
303.62945,0.06454
302.13966,0.04650
300.64987,0.07039
299.16008,0.00974
