1778.52000,0.05605
1777.03021,0.04365
1775.54042,0.04109
1774.05063,0.06108
1772.56085,0.00182
1771.07106,0.01211
1769.58127,0.06257
1768.09148,0.02596
1766.60169,0.05694
1765.11190,0.04488
1763.62212,0.04168
1762.13233,0.01406
1760.64254,0.03737
1759.15275,0.06171
1757.66296,0.06554
1756.17317,0.02732
1754.68339,0.03025
1753.19360,0.04497
1751.70381,0.00590
1750.21402,0.02659
1748.72423,0.02284
1747.23444,0.00642
1745.74465,0.02079
1744.25487,0.05870
1742.76508,0.08491
1741.27529,0.02307
1739.78550,0.03664
1738.29571,0.04047
1736.80592,0.05021
1735.31614,0.02182
1733.82635,0.02675
1732.33656,0.03565
1730.84677,0.05339
1729.35698,0.04475
1727.86719,0.04007
1726.37740,0.00803
1724.88762,0.00833
1723.39783,0.00182
1721.90804,0.00736
1720.41825,0.02078
1718.92846,0.02053
1717.43867,0.02914
1715.94889,0.02703
1714.45910,0.02397
1712.96931,0.03076
1711.47952,0.06694
1709.98973,0.04738
1708.49994,0.05821
1707.01016,0.05391
1705.52037,0.04965
1704.03058,0.07528
1702.54079,0.11173
1701.05100,0.12571
1699.56121,0.09079
1698.07142,0.07843
1696.58164,0.11212
1695.09185,0.11061
1693.60206,0.10131
1692.11227,0.18309
1690.62248,0.15724
1689.13269,0.18332
1687.64291,0.18692
1686.15312,0.22482
1684.66333,0.20698
1683.17354,0.19211
1681.68375,0.20861
1680.19396,0.15957
1678.70417,0.18888
1677.21439,0.20356
1675.72460,0.18695
1674.23481,0.17822
1672.74502,0.15974
1671.25523,0.17263
1669.76544,0.23255
1668.27566,0.22105
1666.78587,0.15087
1665.29608,0.17078
1663.80629,0.20542
1662.31650,0.21368
1660.82671,0.18967
1659.33693,0.18235
1657.84714,0.16528
1656.35735,0.14435
1654.86756,0.12737
1653.37777,0.10260
1651.88798,0.09746
1650.39819,0.11389
1648.90841,0.10296
1647.41862,0.10283
1645.92883,0.11499
1644.43904,0.12719
1642.94925,0.10762
1641.45946,0.11844
1639.96968,0.10386
1638.47989,0.08931
1636.99010,0.10711
1635.50031,0.08972
1634.01052,0.09488
1632.52073,0.11184
1631.03094,0.09751
1629.54116,0.10867
1628.05137,0.11597
1626.56158,0.08905
1625.07179,0.17180
1623.58200,0.16552
1622.09221,0.18277
1620.60243,0.18050
1619.11264,0.18707
1617.62285,0.14866
1616.13306,0.13771
1614.64327,0.10330
1613.15348,0.17270
1611.66370,0.11782
1610.17391,0.12466
1608.68412,0.10217
1607.19433,0.09147
1605.70454,0.16598
1604.21475,0.14264
1602.72496,0.11935
1601.23518,0.13330
1599.74539,0.07192
1598.25560,0.08106
1596.76581,0.08143
1595.27602,0.03388
1593.78623,0.09601
1592.29645,0.05443
1590.80666,0.05791
1589.31687,0.09668
1587.82708,0.05913
1586.33729,0.07645
1584.84750,0.08598
1583.35771,0.03585
1581.86793,0.02197
1580.37814,0.05219
1578.88835,0.07462
1577.39856,0.03738
1575.90877,0.00116
1574.41898,0.01100
1572.92920,0.05905
1571.43941,0.01513
1569.94962,0.00845
1568.45983,0.00182
1566.97004,0.05256
1565.48025,0.05245
1563.99047,0.01224
1562.50068,0.01123
1561.01089,0.01418
1559.52110,0.05241
1558.03131,0.03587
1556.54152,0.02525
1555.05173,0.05872
1553.56195,0.08244
1552.07216,0.05726
1550.58237,0.05954
1549.09258,0.04130
1547.60279,0.02506
1546.11300,0.05096
1544.62322,0.03579
1543.13343,0.03045
1541.64364,0.03494
1540.15385,0.02382
1538.66406,0.01274
1537.17427,0.00268
1535.68448,0.06118
1534.19470,0.04435
1532.70491,0.02561
1531.21512,0.02454
1529.72533,0.00882
1528.23554,0.00000
1526.74575,0.03625
1525.25597,0.04220
1523.76618,0.06777
1522.27639,0.09240
1520.78660,0.04464
1519.29681,0.00182
1517.80702,0.03861
1516.31724,0.06565
1514.82745,0.03792
1513.33766,0.03960
1511.84787,0.04132
1510.35808,0.02155
1508.86829,0.00182
1507.37850,0.02307
1505.88872,0.02087
1504.39893,0.04612
1502.90914,0.04596
1501.41935,0.00865
1499.92956,0.01739
1498.43977,0.07609
1496.94999,0.06827
1495.46020,0.14860
1493.97041,0.14479
1492.48062,0.25456
1490.99083,0.25769
1489.50104,0.29316
1488.01125,0.34140
1486.52147,0.38969
1485.03168,0.46150
1483.54189,0.52847
1482.05210,0.51816
1480.56231,0.62045
1479.07252,0.72768
1477.58274,0.80853
1476.09295,0.88452
1474.60316,0.90183
1473.11337,0.99651
1471.62358,1.05305
1470.13379,1.07734
1468.64401,1.02924
1467.15422,0.96356
1465.66443,0.93267
1464.17464,0.90183
1462.68485,0.86663
1461.19506,0.85202
1459.70527,0.77286
1458.21549,0.74561
1456.72570,0.71841
1455.23591,0.66385
1453.74612,0.60247
1452.25633,0.61162
1450.76654,0.55914
1449.27676,0.55173
1447.78697,0.58940
1446.29718,0.48322
1444.80739,0.44853
1443.31760,0.41389
1441.82781,0.33231
1440.33802,0.28601
1438.84824,0.18591
1437.35845,0.22486
1435.86866,0.17477
1434.37887,0.14039
1432.88908,0.15500
1431.39929,0.17650
1429.90951,0.21370
1428.41972,0.17460
1426.92993,0.16491
1425.44014,0.21301
1423.95035,0.21319
1422.46056,0.21342
1420.97078,0.29395
1419.48099,0.24728
1417.99120,0.24372
1416.50141,0.27349
1415.01162,0.25631
1413.52183,0.25876
1412.03204,0.21915
1410.54226,0.24224
1409.05247,0.19489
1407.56268,0.17891
1406.07289,0.20800
1404.58310,0.17644
1403.09331,0.14493
1401.60353,0.18198
1400.11374,0.23767
1398.62395,0.19259
1397.13416,0.17789
1395.64437,0.21609
1394.15458,0.29545
1392.66479,0.21725
1391.17501,0.24286
1389.68522,0.26949
1388.19543,0.28736
1386.70564,0.24898
1385.21585,0.21064
1383.72606,0.23255
1382.23628,0.16249
1380.74649,0.12674
1379.25670,0.12039
1377.76691,0.17086
1376.27712,0.17047
1374.78733,0.23180
1373.29755,0.29414
1371.80776,0.32227
1370.31797,0.41113
1368.82818,0.42173
1367.33839,0.43237
1365.84860,0.58988
1364.35881,0.69556
1362.86903,0.71807
1361.37924,0.74944
1359.88945,0.79358
1358.39966,0.93565
1356.90987,0.84968
1355.42008,0.96345
1353.93030,0.85995
1352.44051,0.84655
1350.95072,0.83320
1349.46093,0.72102
1347.97114,0.67545
1346.48135,0.62993
1344.99156,0.61185
1343.50178,0.57816
1342.01199,0.50437
1340.52220,0.42182
1339.03241,0.37162
1337.54262,0.44969
1336.05283,0.41230
1334.56305,0.37495
1333.07326,0.36211
1331.58347,0.38750
1330.09368,0.35615
1328.60389,0.27101
1327.11410,0.26716
1325.62432,0.27901
1324.13453,0.25176
1322.64474,0.26370
1321.15495,0.26002
1319.66516,0.25100
1318.17537,0.24203
1316.68558,0.26784
1315.19580,0.24378
1313.70601,0.26088
1312.21622,0.17328
1310.72643,0.24136
1309.23664,0.28404
1307.74685,0.21419
1306.25707,0.25695
1304.76728,0.23711
1303.27749,0.21731
1301.78770,0.21028
1300.29791,0.21993
1298.80812,0.14251
1297.31834,0.20511
1295.82855,0.15421
1294.33876,0.23451
1292.84897,0.19153
1291.35918,0.19361
1289.86939,0.20601
1288.37960,0.21846
1286.88982,0.27647
1285.40003,0.27677
1283.91024,0.31137
1282.42045,0.29218
1280.93066,0.25933
1279.44087,0.29896
1277.95109,0.27598
1276.46130,0.27556
1274.97151,0.28742
1273.48172,0.29932
1271.99193,0.32938
1270.50214,0.35360
1269.01235,0.38962
1267.52257,0.42372
1266.03278,0.40109
1264.54299,0.45192
1263.05320,0.47538
1261.56341,0.48274
1260.07362,0.49014
1258.58384,0.56757
1257.09405,0.53639
1255.60426,0.51308
1254.11447,0.49080
1252.62468,0.50478
1251.13489,0.54914
1249.64511,0.51035
1248.15532,0.47258
1246.66553,0.42457
1245.17574,0.37661
1243.68595,0.34876
1242.19616,0.33955
1240.70637,0.31961
1239.21659,0.27427
1237.72680,0.23191
1236.23701,0.17001
1234.74722,0.22367
1233.25743,0.18144
1231.76764,0.13925
1230.27786,0.13528
1228.78807,0.12841
1227.29828,0.12159
1225.80849,0.12363
1224.31870,0.11494
1222.82891,0.07986
1221.33912,0.10845
1219.84934,0.13660
1218.35955,0.16479
1216.86976,0.12010
1215.37997,0.17236
1213.89018,0.13852
1212.40039,0.10375
1210.91061,0.14048
1209.42082,0.09209
1207.93103,0.10149
1206.44124,0.11094
1204.95145,0.10869
1203.46166,0.14955
1201.97188,0.06320
1200.48209,0.08163
1198.99230,0.06389
1197.50251,0.01193
1196.01272,0.02658
1194.52293,0.01582
1193.03314,0.00510
1191.54336,0.07371
1190.05357,0.03078
1188.56378,0.06424
1187.07399,0.00182
1185.58420,0.00243
1184.09441,0.04394
1182.60463,0.05516
1181.11484,0.06641
1179.62505,0.05520
1178.13526,0.06556
1176.64547,0.02899
1175.15568,0.07565
1173.66589,0.11062
1172.17611,0.08396
1170.68632,0.06909
1169.19653,0.05427
1167.70674,0.01110
1166.21695,0.03257
1164.72716,0.03745
1163.23738,0.00322
1161.74759,0.02581
1160.25780,0.03572
1158.76801,0.01875
1157.27822,0.00182
1155.78843,0.03908
1154.29865,0.09106
1152.80886,0.08827
1151.31907,0.04735
1149.82928,0.07499
1148.33949,0.09386
1146.84970,0.10201
1145.35991,0.11021
1143.87013,0.00881
1142.38034,0.10030
1140.89055,0.13896
1139.40076,0.16691
1137.91097,0.23209
1136.42118,0.19650
1134.93140,0.23387
1133.44161,0.27129
1131.95182,0.26813
1130.46203,0.22683
1128.97224,0.24725
1127.48245,0.24128
1125.99266,0.33520
1124.50288,0.37728
1123.01309,0.37781
1121.52330,0.37837
1120.03351,0.41373
1118.54372,0.39138
1117.05393,0.43270
1115.56415,0.43100
1114.07436,0.42444
1112.58457,0.47176
1111.09478,0.51913
1109.60499,0.57731
1108.11520,0.49457
1106.62542,0.56263
1105.13563,0.57591
1103.64584,0.68124
1102.15605,0.85318
1100.66626,0.82450
1099.17647,0.79587
1097.68668,0.86614
1096.19690,0.90806
1094.70711,0.93633
1093.21732,0.93625
1091.72753,0.98125
1090.23774,1.01111
1088.74795,1.04102
1087.25817,1.12921
1085.76838,1.18221
1084.27859,1.16771
1082.78880,1.30693
1081.29901,1.29937
1079.80922,1.18614
1078.31943,1.25061
1076.82965,1.31513
1075.33986,1.34591
1073.85007,1.36989
1072.36028,1.29799
1070.87049,1.36316
1069.38070,1.44405
1067.89092,1.40849
1066.40113,1.37298
1064.91134,1.43050
1063.42155,1.22964
1061.93176,1.20307
1060.44197,1.18828
1058.95219,1.10796
1057.46240,1.05557
1055.97261,1.00323
1054.48282,0.93576
1052.99303,0.93783
1051.50324,0.88024
1050.01345,0.71208
1048.52367,0.64576
1047.03388,0.62304
1045.54409,0.60037
1044.05430,0.60956
1042.56451,0.52286
1041.07472,0.44011
1039.58494,0.33490
1038.09515,0.44019
1036.60536,0.41092
1035.11557,0.38170
1033.62578,0.40881
1032.13599,0.36549
1030.64620,0.35450
1029.15642,0.42481
1027.66663,0.41294
1026.17684,0.40111
1024.68705,0.46371
1023.19726,0.58216
1021.70747,0.69673
1020.21769,0.93273
1018.72790,1.01998
1017.23811,1.16943
1015.74832,1.31892
1014.25853,1.51398
1012.76874,1.71202
1011.27896,1.82004
1009.78917,1.98586
1008.29938,2.00000
1006.80959,1.99901
1005.31980,1.99807
1003.83001,1.90760
1002.34022,1.82207
1000.85044,1.74931
999.36065,1.65897
997.87086,1.59070
996.38107,1.52248
994.89128,1.60455
993.40149,1.63087
991.91171,1.58382
990.42192,1.57205
988.93213,1.54368
987.44234,1.57948
985.95255,1.61531
984.46276,1.56065
982.97297,1.47275
981.48319,1.49843
979.99340,1.44488
978.50361,1.42660
977.01382,1.40837
975.52403,1.45283
974.03424,1.35149
972.54446,1.25018
971.05467,1.20178
969.56488,1.28949
968.07509,1.24705
966.58530,1.20465
965.09551,1.14369
963.60573,1.11019
962.11594,1.20594
960.62615,1.05017
959.13636,1.04714
957.64657,1.04416
956.15678,1.03828
954.66699,0.90911
953.17721,0.91703
951.68742,0.98763
950.19763,0.97654
948.70784,0.96550
947.21805,0.84634
945.72826,0.78203
944.23848,0.82153
942.74869,0.82387
941.25890,0.81843
939.76911,0.88008
938.27932,0.94178
936.78953,1.02652
935.29974,1.06138
933.80996,0.97882
932.32017,0.95211
930.83038,0.97535
929.34059,0.99864
927.85080,1.00827
926.36101,1.02088
924.87123,0.99830
923.38144,0.92094
921.89165,0.97039
920.40186,1.01988
918.91207,1.02291
917.42228,1.06221
915.93250,1.03891
914.44271,1.02152
912.95292,0.99830
911.46313,0.97513
909.97334,1.02835
908.48355,1.17362
906.99376,1.18680
905.50398,1.06102
904.01419,1.07819
902.52440,1.09541
901.03461,1.02653
899.54482,1.12313
898.05503,0.97211
896.56525,1.12459
895.07546,1.17383
893.58567,1.22313
892.09588,1.19170
890.60609,1.14760
889.11630,1.16130
887.62651,1.06540
886.13673,1.07624
884.64694,1.08713
883.15715,1.05108
881.66736,1.06597
880.17757,1.09460
878.68778,1.09636
877.19800,1.09817
875.70821,1.08093
874.21842,1.19001
872.72863,1.14153
871.23884,1.17140
869.74905,1.16462
868.25927,1.15787
866.76948,1.09880
865.27969,1.06327
863.78990,1.13056
862.30011,1.14797
860.81032,1.17863
859.32053,1.20935
857.83075,1.14956
856.34096,1.15931
854.85117,1.07709
853.36138,0.92934
851.87159,0.87560
850.38180,0.82190
848.89202,0.69483
847.40223,0.49830
845.91244,0.46725
844.42265,0.46266
842.93286,0.45812
841.44307,0.45656
839.95329,0.42862
838.46350,0.39386
836.97371,0.39929
835.48392,0.37441
833.99413,0.34957
832.50434,0.33065
831.01455,0.40477
829.52477,0.44663
828.03498,0.44154
826.54519,0.35036
825.05540,0.25922
823.56561,0.27287
822.07582,0.26795
820.58604,0.14660
819.09625,0.14814
817.60646,0.14972
816.11667,0.00599
814.62688,0.09037
813.13709,0.04460
811.64730,0.00182
810.15752,0.02838
808.66773,0.05499
807.17794,0.08898
805.68815,0.09953
804.19836,0.14731
802.70857,0.15402
801.21879,0.16078
799.72900,0.16367
798.23921,0.29581
796.74942,0.45539
795.25963,0.47065
793.76984,0.48594
792.28006,0.61434
790.79027,0.67524
789.30048,0.69800
787.81069,0.84708
786.32090,0.84057
784.83111,0.83410
783.34132,0.90598
781.85154,0.97399
780.36175,0.89816
778.87196,0.90018
777.38217,0.90225
775.89238,0.99686
774.40259,1.05824
772.91281,1.10595
771.42302,1.08910
769.93323,1.07230
768.44344,1.08882
766.95365,1.14748
765.46386,1.08382
763.97407,1.06229
762.48429,0.97327
760.99450,0.88429
759.50471,0.79438
758.01492,0.61837
756.52513,0.54420
755.03534,0.47595
753.54556,0.40775
752.05577,0.32490
750.56598,0.23329
749.07619,0.15347
747.58640,0.12704
746.09661,0.10065
744.60683,0.09437
743.11704,0.03528
741.62725,0.03790
740.13746,0.04692
738.64767,0.05599
737.15788,0.01371
735.66809,0.00182
734.17831,0.07783
732.68852,0.05649
731.19873,0.03520
729.70894,0.05261
728.21915,0.03091
726.72936,0.07581
725.23958,0.11293
723.74979,0.08451
722.26000,0.05613
720.77021,0.02290
719.28042,0.06117
717.79063,0.01922
716.30084,0.03212
714.81106,0.04507
713.32127,0.02381
711.83148,0.00454
710.34169,0.05775
708.85190,0.02977
707.36211,0.00182
705.87233,0.07943
704.38254,0.01124
702.89275,0.00182
701.40296,0.03425
699.91317,0.06673
698.42338,0.13008
696.93360,0.17978
695.44381,0.20309
693.95402,0.17113
692.46423,0.13922
690.97444,0.17832
689.48465,0.18908
687.99486,0.22141
686.50508,0.23225
685.01529,0.24314
683.52550,0.35293
682.03571,0.25036
680.54592,0.30738
679.05613,0.26950
677.56635,0.23166
676.07656,0.20463
674.58677,0.13163
673.09698,0.13601
671.60719,0.12429
670.11740,0.11260
668.62761,0.10439
667.13783,0.08741
665.64804,0.07683
664.15825,0.06630
662.66846,0.06120
661.17867,0.00720
659.68888,0.04916
658.19910,0.08041
656.70931,0.11169
655.21952,0.24972
653.72973,0.14503
652.23994,0.22735
650.75015,0.19861
649.26037,0.16991
647.77058,0.14762
646.28079,0.07545
644.79100,0.04444
643.30121,0.03941
641.81142,0.03442
640.32163,0.10241
638.83185,0.03045
637.34206,0.02315
635.85227,0.01246
634.36248,0.00182
632.87269,0.03561
631.38290,0.09294
629.89312,0.02502
628.40333,0.03105
626.91354,0.03712
625.42375,0.04274
623.93396,0.15217
622.44417,0.10062
620.95438,0.04911
619.46460,0.06078
617.97481,0.11948
616.48502,0.13809
614.99523,0.17436
613.50544,0.21067
612.01565,0.14229
610.52587,0.09451
609.03608,0.03699
607.54629,0.08131
606.05650,0.12567
604.56671,0.16225
603.07692,0.15090
601.58714,0.13226
600.09735,0.11366
598.60756,0.11321
597.11777,0.11868
595.62798,0.10168
594.13819,0.05829
592.64840,0.01495
591.15862,0.06170
589.66883,0.14961
588.17904,0.09563
586.68925,0.09259
585.19946,0.08960
583.70967,0.15908
582.21989,0.13170
580.73010,0.19051
579.24031,0.24935
577.75052,0.20546
576.26073,0.19783
574.77094,0.09334
573.28115,0.12104
571.79137,0.14878
570.30158,0.25389
568.81179,0.36590
567.32200,0.41825
565.83221,0.47063
564.34242,0.47510
562.85264,0.42772
561.36285,0.55268
559.87306,0.59936
558.38327,0.64609
556.89348,0.71733
555.40369,0.77590
553.91391,0.78018
552.42412,0.78450
550.93433,0.73356
549.44454,0.78544
547.95475,0.82954
546.46496,0.78901
544.97517,0.74852
543.48539,0.88280
541.99560,0.86148
540.50581,0.94006
539.01602,1.01867
537.52623,0.93778
536.03644,0.85105
534.54666,0.82017
533.05687,0.78296
531.56708,0.74580
530.07729,0.78259
528.58750,0.73524
527.09771,0.76232
525.60792,0.78945
524.11814,0.78725
522.62835,0.74203
521.13856,0.74677
519.64877,0.69478
518.15898,0.64284
516.66919,0.46173
515.17941,0.49014
513.68962,0.49167
512.19983,0.49325
510.71004,0.45327
509.22025,0.41823
507.73046,0.41847
506.24068,0.43931
504.75089,0.46019
503.26110,0.46643
501.77131,0.38658
500.28152,0.38361
498.79173,0.38068
497.30194,0.33522
495.81216,0.33580
494.32237,0.37656
492.83258,0.41737
491.34279,0.38187
489.85300,0.32781
488.36321,0.27380
486.87343,0.27318
485.38364,0.27260
483.89385,0.25004
482.40406,0.14628
480.91427,0.11842
479.42448,0.09061
477.93469,0.07507
476.44491,0.03120
474.95512,0.05784
473.46533,0.08453
471.97554,0.05350
470.48575,0.09202
468.99596,0.10416
467.50618,0.07620
466.01639,0.04829
464.52660,0.00182
463.03681,0.10886
461.54702,0.10190
460.05723,0.09499
458.56745,0.08861
457.07766,0.13806
455.58787,0.12981
454.09808,0.12160
452.60829,0.19566
451.11850,0.18265
449.62871,0.21960
448.13893,0.25659
446.64914,0.35236
445.15935,0.62534
443.66956,0.68106
442.17977,0.68543
440.68998,0.68985
439.20020,0.81324
437.71041,0.87403
436.22062,0.90011
434.73083,0.92624
433.24104,1.23677
431.75125,1.38974
430.26146,1.45173
428.77168,1.51375
427.28189,1.61302
425.79210,1.73289
424.30231,1.68346
422.81252,1.63407
421.32273,1.54850
419.83295,1.43362
418.34316,1.37066
416.85337,1.30774
415.36358,1.22430
413.87379,1.09491
412.38400,1.07372
410.89422,1.05258
409.40443,1.01630
407.91464,0.96441
406.42485,0.90473
404.93506,0.86908
403.44527,0.83347
401.95548,0.72302
400.46570,0.74574
398.97591,0.74549
397.48612,0.74529
395.99633,0.75346
394.50654,0.79593
393.01675,0.80957
391.52697,0.82324
390.03718,0.58785
388.54739,0.43178
387.05760,0.51264
385.56781,0.59355
384.07802,0.65100
382.58824,0.56167
381.09845,0.56489
379.60866,0.56815
378.11887,0.55432
376.62908,0.48767
375.13929,0.43184
373.64950,0.37605
372.15972,0.39568
370.66993,0.32921
369.18014,0.28823
367.69035,0.24730
366.20056,0.16726
364.71077,0.24290
363.22099,0.24076
361.73120,0.23866
360.24141,0.25472
358.75162,0.22188
357.26183,0.20768
355.77204,0.19352
354.28225,0.18235
352.79247,0.04788
351.30268,0.05881
349.81289,0.06979
348.32310,0.15765
346.83331,0.09775
345.34352,0.07313
343.85374,0.04855
342.36395,0.22566
340.87416,0.14342
339.38437,0.17085
337.89458,0.19833
336.40479,0.27185
334.91501,0.13594
333.42522,0.15278
331.93543,0.16966
330.44564,0.28056
328.95585,0.28187
327.46606,0.22057
325.97627,0.15932
324.48649,0.02665
322.99670,0.07957
321.50691,0.11588
320.01712,0.15225
318.52733,0.19942
317.03754,0.32690
315.54776,0.33892
314.05797,0.35099
312.56818,0.13209
311.07839,0.15598
309.58860,0.11238
308.09881,0.06883
306.60902,0.00182
305.11924,0.11121
303.62945,0.07332
302.13966,0.03547
300.64987,0.00182
299.16008,0.00182
