1778.52000,0.02223
1777.03021,0.03489
1775.54042,0.01204
1774.05063,0.01568
1772.56085,0.02994
1771.07106,0.04044
1769.58127,0.04266
1768.09148,0.00937
1766.60169,0.02752
1765.11190,0.02604
1763.62212,0.01552
1762.13233,0.03452
1760.64254,0.04371
1759.15275,0.03025
1757.66296,0.03572
1756.17317,0.01778
1754.68339,0.01878
1753.19360,0.02358
1751.70381,0.03295
1750.21402,0.00000
1748.72423,0.01850
1747.23444,0.01661
1745.74465,0.00417
1744.25487,0.01822
1742.76508,0.04667
1741.27529,0.05473
1739.78550,0.04240
1738.29571,0.02934
1736.80592,0.02690
1735.31614,0.00937
1733.82635,0.02858
1732.33656,0.03420
1730.84677,0.02852
1729.35698,0.02815
1727.86719,0.03387
1726.37740,0.00937
1724.88762,0.03369
1723.39783,0.02477
1721.90804,0.03100
1720.41825,0.03121
1718.92846,0.03297
1717.43867,0.04382
1715.94889,0.04034
1714.45910,0.02101
1712.96931,0.02439
1711.47952,0.04141
1709.98973,0.05014
1708.49994,0.06420
1707.01016,0.05257
1705.52037,0.04097
1704.03058,0.06495
1702.54079,0.07155
1701.05100,0.08727
1699.56121,0.08183
1698.07142,0.10138
1696.58164,0.11264
1695.09185,0.12545
1693.60206,0.14584
1692.11227,0.13753
1690.62248,0.14512
1689.13269,0.15275
1687.64291,0.17704
1686.15312,0.15674
1684.66333,0.17882
1683.17354,0.17295
1681.68375,0.17392
1680.19396,0.15298
1678.70417,0.13737
1677.21439,0.14295
1675.72460,0.18411
1674.23481,0.15422
1672.74502,0.16140
1671.25523,0.14669
1669.76544,0.12974
1668.27566,0.17331
1666.78587,0.14583
1665.29608,0.14106
1663.80629,0.15220
1662.31650,0.12254
1660.82671,0.13827
1659.33693,0.14421
1657.84714,0.15320
1656.35735,0.11382
1654.86756,0.11379
1653.37777,0.10623
1651.88798,0.14407
1650.39819,0.12749
1648.90841,0.12229
1647.41862,0.13829
1645.92883,0.12104
1644.43904,0.10382
1642.94925,0.11008
1641.45946,0.12694
1639.96968,0.09847
1638.47989,0.12674
1636.99010,0.12177
1635.50031,0.12514
1634.01052,0.13232
1632.52073,0.09568
1631.03094,0.09460
1629.54116,0.12834
1628.05137,0.15529
1626.56158,0.12784
1625.07179,0.16393
1623.58200,0.15014
1622.09221,0.15377
1620.60243,0.16802
1619.11264,0.14071
1617.62285,0.16712
1616.13306,0.13306
1614.64327,0.12398
1613.15348,0.15047
1611.66370,0.14372
1610.17391,0.15439
1608.68412,0.10233
1607.19433,0.13196
1605.70454,0.12457
1604.21475,0.13725
1602.72496,0.14995
1601.23518,0.12828
1599.74539,0.12327
1598.25560,0.10696
1596.76581,0.09823
1595.27602,0.11902
1593.78623,0.13378
1592.29645,0.09414
1590.80666,0.10745
1589.31687,0.07165
1587.82708,0.06309
1586.33729,0.10220
1584.84750,0.05589
1583.35771,0.05650
1581.86793,0.06318
1580.37814,0.06309
1578.88835,0.06529
1577.39856,0.07055
1575.90877,0.06298
1574.41898,0.05090
1572.92920,0.00937
1571.43941,0.03691
1569.94962,0.03688
1568.45983,0.03687
1566.97004,0.01384
1565.48025,0.04603
1563.99047,0.03591
1562.50068,0.01976
1561.01089,0.02028
1559.52110,0.03671
1558.03131,0.02217
1556.54152,0.04622
1555.05173,0.02946
1553.56195,0.03315
1552.07216,0.03385
1550.58237,0.05574
1549.09258,0.04515
1547.60279,0.04971
1546.11300,0.02708
1544.62322,0.05666
1543.13343,0.04013
1541.64364,0.01910
1540.15385,0.02116
1538.66406,0.02325
1537.17427,0.03633
1535.68448,0.04717
1534.19470,0.02326
1532.70491,0.02660
1531.21512,0.00426
1529.72533,0.04347
1528.23554,0.01995
1526.74575,0.02898
1525.25597,0.03198
1523.76618,0.01686
1522.27639,0.00858
1520.78660,0.01621
1519.29681,0.00950
1517.80702,0.02091
1516.31724,0.02858
1514.82745,0.01963
1513.33766,0.02886
1511.84787,0.03812
1510.35808,0.05875
1508.86829,0.00909
1507.37850,0.00937
1505.88872,0.02216
1504.39893,0.03422
1502.90914,0.02136
1501.41935,0.05693
1499.92956,0.04337
1498.43977,0.08277
1496.94999,0.07910
1495.46020,0.11780
1493.97041,0.16410
1492.48062,0.18849
1490.99083,0.20384
1489.50104,0.25249
1488.01125,0.29172
1486.52147,0.33097
1485.03168,0.43113
1483.54189,0.48216
1482.05210,0.53247
1480.56231,0.62439
1479.07252,0.72693
1477.58274,0.79699
1476.09295,0.82850
1474.60316,0.88274
1473.11337,0.87650
1471.62358,0.92172
1470.13379,0.96243
1468.64401,0.97292
1467.15422,0.89270
1465.66443,0.86393
1464.17464,0.83518
1462.68485,0.80874
1461.19506,0.79139
1459.70527,0.70905
1458.21549,0.61917
1456.72570,0.62914
1455.23591,0.54083
1453.74612,0.49187
1452.25633,0.48151
1450.76654,0.43336
1449.27676,0.43062
1447.78697,0.38102
1446.29718,0.36699
1444.80739,0.34581
1443.31760,0.32465
1441.82781,0.27517
1440.33802,0.23479
1438.84824,0.18083
1437.35845,0.14656
1435.86866,0.14785
1434.37887,0.16657
1432.88908,0.18002
1431.39929,0.18594
1429.90951,0.14501
1428.41972,0.18804
1426.92993,0.17666
1425.44014,0.14413
1423.95035,0.15851
1422.46056,0.17292
1420.97078,0.16392
1419.48099,0.19654
1417.99120,0.21028
1416.50141,0.22103
1415.01162,0.24617
1413.52183,0.29781
1412.03204,0.25949
1410.54226,0.22120
1409.05247,0.22150
1407.56268,0.24604
1406.07289,0.26606
1404.58310,0.24074
1403.09331,0.21545
1401.60353,0.29076
1400.11374,0.27914
1398.62395,0.35224
1397.13416,0.34748
1395.64437,0.38283
1394.15458,0.44543
1392.66479,0.45588
1391.17501,0.44746
1389.68522,0.43453
1388.19543,0.50934
1386.70564,0.48929
1385.21585,0.46926
1383.72606,0.50635
1382.23628,0.49508
1380.74649,0.45132
1379.25670,0.45977
1377.76691,0.45085
1376.27712,0.48203
1374.78733,0.53367
1373.29755,0.57399
1371.80776,0.67180
1370.31797,0.77116
1368.82818,0.86904
1367.33839,0.96694
1365.84860,1.15939
1364.35881,1.37910
1362.86903,1.50204
1361.37924,1.60611
1359.88945,1.68752
1358.39966,1.76140
1356.90987,1.73247
1355.42008,1.73458
1353.93030,1.62631
1352.44051,1.57932
1350.95072,1.53235
1349.46093,1.32285
1347.97114,1.18218
1346.48135,1.03398
1344.99156,0.91227
1343.50178,0.78152
1342.01199,0.73700
1340.52220,0.57606
1339.03241,0.53916
1337.54262,0.50985
1336.05283,0.48775
1334.56305,0.46568
1333.07326,0.42965
1331.58347,0.40878
1330.09368,0.38793
1328.60389,0.35350
1327.11410,0.32213
1325.62432,0.24843
1324.13453,0.27685
1322.64474,0.29623
1321.15495,0.25438
1319.66516,0.24205
1318.17537,0.22976
1316.68558,0.19178
1315.19580,0.19542
1313.70601,0.19379
1312.21622,0.19522
1310.72643,0.16265
1309.23664,0.18153
1307.74685,0.18834
1306.25707,0.14224
1304.76728,0.14533
1303.27749,0.14844
1301.78770,0.17805
1300.29791,0.15551
1298.80812,0.19199
1297.31834,0.19068
1295.82855,0.23780
1294.33876,0.19723
1292.84897,0.22247
1291.35918,0.16684
1289.86939,0.17399
1288.37960,0.18118
1286.88982,0.23527
1285.40003,0.22739
1283.91024,0.22105
1282.42045,0.25331
1280.93066,0.25534
1279.44087,0.31412
1277.95109,0.26253
1276.46130,0.27070
1274.97151,0.24601
1273.48172,0.22134
1271.99193,0.28707
1270.50214,0.24243
1269.01235,0.30821
1267.52257,0.32412
1266.03278,0.33023
1264.54299,0.38097
1263.05320,0.36823
1261.56341,0.36422
1260.07362,0.36023
1258.58384,0.43302
1257.09405,0.40225
1255.60426,0.39722
1254.11447,0.38465
1252.62468,0.39556
1251.13489,0.34524
1249.64511,0.31537
1248.15532,0.25301
1246.66553,0.25609
1245.17574,0.25920
1243.68595,0.24683
1242.19616,0.28440
1240.70637,0.24941
1239.21659,0.18269
1237.72680,0.15759
1236.23701,0.19301
1234.74722,0.19972
1233.25743,0.15693
1231.76764,0.11418
1230.27786,0.11720
1228.78807,0.09983
1227.29828,0.14374
1225.80849,0.06442
1224.31870,0.09780
1222.82891,0.07753
1221.33912,0.08526
1219.84934,0.08583
1218.35955,0.08644
1216.86976,0.09047
1215.37997,0.07941
1213.89018,0.12207
1212.40039,0.09368
1210.91061,0.03885
1209.42082,0.08538
1207.93103,0.06690
1206.44124,0.04845
1204.95145,0.05272
1203.46166,0.01845
1201.97188,0.02807
1200.48209,0.04604
1198.99230,0.04286
1197.50251,0.05408
1196.01272,0.00937
1194.52293,0.01155
1193.03314,0.01376
1191.54336,0.06930
1190.05357,0.03036
1188.56378,0.01413
1187.07399,0.01532
1185.58420,0.02940
1184.09441,0.03518
1182.60463,0.02323
1181.11484,0.01130
1179.62505,0.02212
1178.13526,0.04507
1176.64547,0.04839
1175.15568,0.07064
1173.66589,0.09141
1172.17611,0.10010
1170.68632,0.07064
1169.19653,0.04121
1167.70674,0.04168
1166.21695,0.05654
1164.72716,0.06841
1163.23738,0.03115
1161.74759,0.02871
1160.25780,0.02781
1158.76801,0.02769
1157.27822,0.02760
1155.78843,0.05174
1154.29865,0.00937
1152.80886,0.00959
1151.31907,0.04840
1149.82928,0.07968
1148.33949,0.10117
1146.84970,0.07995
1145.35991,0.05877
1143.87013,0.01833
1142.38034,0.07395
1140.89055,0.03887
1139.40076,0.11648
1137.91097,0.11775
1136.42118,0.15307
1134.93140,0.16649
1133.44161,0.17995
1131.95182,0.26375
1130.46203,0.31809
1128.97224,0.30592
1127.48245,0.23404
1125.99266,0.25974
1124.50288,0.28698
1123.01309,0.29232
1121.52330,0.29768
1120.03351,0.30459
1118.54372,0.38260
1117.05393,0.36008
1115.56415,0.36859
1114.07436,0.39451
1112.58457,0.38531
1111.09478,0.37613
1109.60499,0.40744
1108.11520,0.50758
1106.62542,0.49660
1105.13563,0.49321
1103.64584,0.58437
1102.15605,0.61734
1100.66626,0.65147
1099.17647,0.68562
1097.68668,0.69674
1096.19690,0.65648
1094.70711,0.72512
1093.21732,0.74994
1091.72753,0.76421
1090.23774,0.79854
1088.74795,0.83289
1087.25817,0.89413
1085.76838,0.92060
1084.27859,0.96828
1082.78880,0.96079
1081.29901,0.99416
1079.80922,1.06385
1078.31943,1.05758
1076.82965,1.05134
1075.33986,1.07575
1073.85007,1.11455
1072.36028,1.11331
1070.87049,1.14083
1069.38070,1.21527
1067.89092,1.22848
1066.40113,1.24172
1064.91134,1.15064
1063.42155,1.05127
1061.93176,1.01243
1060.44197,0.96075
1058.95219,0.89550
1057.46240,0.87413
1055.97261,0.85279
1054.48282,0.75511
1052.99303,0.71946
1051.50324,0.67099
1050.01345,0.65505
1048.52367,0.58547
1047.03388,0.53632
1045.54409,0.48721
1044.05430,0.51222
1042.56451,0.45107
1041.07472,0.44892
1039.58494,0.32355
1038.09515,0.32751
1036.60536,0.31751
1035.11557,0.30754
1033.62578,0.28361
1032.13599,0.28240
1030.64620,0.22601
1029.15642,0.27778
1027.66663,0.30917
1026.17684,0.34058
1024.68705,0.44991
1023.19726,0.52902
1021.70747,0.72688
1020.21769,0.82949
1018.72790,1.03497
1017.23811,1.16523
1015.74832,1.29553
1014.25853,1.50034
1012.76874,1.72408
1011.27896,1.80342
1009.78917,1.88582
1008.29938,2.00000
1006.80959,1.95769
1005.31980,1.91540
1003.83001,1.74309
1002.34022,1.69330
1000.85044,1.59666
999.36065,1.47811
997.87086,1.40762
996.38107,1.33715
994.89128,1.36312
993.40149,1.35888
991.91171,1.28131
990.42192,1.27713
988.93213,1.21172
987.44234,1.20116
985.95255,1.19063
984.46276,1.21227
982.97297,1.14169
981.48319,1.11499
979.99340,0.99834
978.50361,1.00686
977.01382,1.01541
975.52403,0.95631
974.03424,0.87682
972.54446,0.84879
971.05467,0.81322
969.56488,0.74138
968.07509,0.71418
966.58530,0.68702
965.09551,0.62056
963.60573,0.60253
962.11594,0.65409
960.62615,0.55369
959.13636,0.52062
957.64657,0.48758
956.15678,0.47045
954.66699,0.45183
953.17721,0.42871
951.68742,0.47064
950.19763,0.45778
948.70784,0.44495
947.21805,0.47185
945.72826,0.39065
944.23848,0.42290
942.74869,0.43022
941.25890,0.47841
939.76911,0.47067
938.27932,0.46295
936.78953,0.53164
935.29974,0.57012
933.80996,0.61316
932.32017,0.67210
930.83038,0.64487
929.34059,0.61768
927.85080,0.61697
926.36101,0.60042
924.87123,0.58692
923.38144,0.56437
921.89165,0.55357
920.40186,0.54281
918.91207,0.51581
917.42228,0.53270
915.93250,0.55038
914.44271,0.53405
912.95292,0.55027
911.46313,0.56652
909.97334,0.51928
908.48355,0.55450
906.99376,0.64494
905.50398,0.54788
904.01419,0.54953
902.52440,0.55121
901.03461,0.60849
899.54482,0.60456
898.05503,0.60065
896.56525,0.58392
895.07546,0.60616
893.58567,0.62843
892.09588,0.57700
890.60609,0.67229
889.11630,0.67915
887.62651,0.66561
886.13673,0.68916
884.64694,0.71273
883.15715,0.68795
881.66736,0.60572
880.17757,0.64072
878.68778,0.63908
877.19800,0.63747
875.70821,0.68844
874.21842,0.74247
872.72863,0.72242
871.23884,0.80221
869.74905,0.85594
868.25927,0.90971
866.76948,0.86255
865.27969,0.86684
863.78990,0.90670
862.30011,0.86568
860.81032,0.89123
859.32053,0.91681
857.83075,0.87664
856.34096,0.85237
854.85117,0.82661
853.36138,0.64815
851.87159,0.62661
850.38180,0.60510
848.89202,0.54922
847.40223,0.46312
845.91244,0.36722
844.42265,0.34696
842.93286,0.32673
841.44307,0.31031
839.95329,0.26368
838.46350,0.24354
836.97371,0.26577
835.48392,0.25249
833.99413,0.23924
832.50434,0.24720
831.01455,0.28089
829.52477,0.26848
828.03498,0.28257
826.54519,0.25737
825.05540,0.23219
823.56561,0.20251
822.07582,0.20537
820.58604,0.13567
819.09625,0.12120
817.60646,0.10676
816.11667,0.10444
814.62688,0.09762
813.13709,0.06814
811.64730,0.03415
810.15752,0.02174
808.66773,0.00937
807.17794,0.05113
805.68815,0.07401
804.19836,0.08256
802.70857,0.11571
801.21879,0.14889
799.72900,0.18021
798.23921,0.23954
796.74942,0.31553
795.25963,0.34088
793.76984,0.36627
792.28006,0.42117
790.79027,0.50787
789.30048,0.54544
787.81069,0.55279
786.32090,0.53635
784.83111,0.51995
783.34132,0.55839
781.85154,0.61803
780.36175,0.55521
778.87196,0.58996
777.38217,0.62473
775.89238,0.70793
774.40259,0.67774
772.91281,0.72773
771.42302,0.76716
769.93323,0.80662
768.44344,0.79847
766.95365,0.72985
765.46386,0.68924
763.97407,0.66757
762.48429,0.64895
760.99450,0.63036
759.50471,0.50215
758.01492,0.40876
756.52513,0.32522
755.03534,0.30826
753.54556,0.29132
752.05577,0.21392
750.56598,0.15470
749.07619,0.12727
747.58640,0.13351
746.09661,0.13978
744.60683,0.06480
743.11704,0.04504
741.62725,0.03968
740.13746,0.04115
738.64767,0.04265
737.15788,0.04948
735.66809,0.02533
734.17831,0.04280
732.68852,0.05160
731.19873,0.06043
729.70894,0.07269
728.21915,0.00937
726.72936,0.04622
725.23958,0.05135
723.74979,0.04176
722.26000,0.03220
720.77021,0.08733
719.28042,0.00712
717.79063,0.04547
716.30084,0.05474
714.81106,0.06403
713.32127,0.05029
711.83148,0.00860
710.34169,0.06071
708.85190,0.03836
707.36211,0.01604
705.87233,0.06067
704.38254,0.01232
702.89275,0.00937
701.40296,0.01376
699.91317,0.01819
698.42338,0.05100
696.93360,0.09820
695.44381,0.12956
693.95402,0.13107
692.46423,0.13262
690.97444,0.15045
689.48465,0.17133
687.99486,0.20208
686.50508,0.18445
685.01529,0.16686
683.52550,0.15610
682.03571,0.18696
680.54592,0.18533
679.05613,0.18071
677.56635,0.17612
676.07656,0.13299
674.58677,0.12770
673.09698,0.10731
671.60719,0.09716
670.11740,0.08704
668.62761,0.06901
667.13783,0.07974
665.64804,0.07462
664.15825,0.06954
662.66846,0.06069
661.17867,0.03600
659.68888,0.04763
658.19910,0.05665
656.70931,0.06569
655.21952,0.06078
653.72973,0.06421
652.23994,0.06313
650.75015,0.08515
649.26037,0.10719
647.77058,0.09713
646.28079,0.09011
644.79100,0.04986
643.30121,0.07013
641.81142,0.09043
640.32163,0.10168
638.83185,0.03432
637.34206,0.01690
635.85227,0.02291
634.36248,0.02895
632.87269,0.05053
631.38290,0.00937
629.89312,0.08997
628.40333,0.08667
626.91354,0.08341
625.42375,0.06655
623.93396,0.04595
622.44417,0.06772
620.95438,0.08952
619.46460,0.06145
617.97481,0.05079
616.48502,0.09082
614.99523,0.09799
613.50544,0.10519
612.01565,0.12565
610.52587,0.12346
609.03608,0.11298
607.54629,0.12029
606.05650,0.12764
604.56671,0.16034
603.07692,0.14014
601.58714,0.14644
600.09735,0.15276
598.60756,0.10770
597.11777,0.06720
595.62798,0.12881
594.13819,0.12164
592.64840,0.11450
591.15862,0.09605
589.66883,0.12224
588.17904,0.06830
586.68925,0.07413
585.19946,0.07999
583.70967,0.07302
582.21989,0.07894
580.73010,0.08639
579.24031,0.09388
577.75052,0.10442
576.26073,0.12180
574.77094,0.15357
573.28115,0.15361
571.79137,0.15368
570.30158,0.18402
568.81179,0.21137
567.32200,0.23194
565.83221,0.25255
564.34242,0.26486
562.85264,0.34601
561.36285,0.30999
559.87306,0.34696
558.38327,0.38397
556.89348,0.37828
555.40369,0.42782
553.91391,0.45545
552.42412,0.48312
550.93433,0.48889
549.44454,0.52266
547.95475,0.53378
546.46496,0.52792
544.97517,0.52208
543.48539,0.62176
541.99560,0.59518
540.50581,0.58300
539.01602,0.57086
537.52623,0.57008
536.03644,0.57235
534.54666,0.62154
533.05687,0.59817
531.56708,0.57482
530.07729,0.51294
528.58750,0.49267
527.09771,0.48794
525.60792,0.48323
524.11814,0.42525
522.62835,0.41039
521.13856,0.41750
519.64877,0.39514
518.15898,0.37281
516.66919,0.36412
515.17941,0.31765
513.68962,0.29616
512.19983,0.27470
510.71004,0.32964
509.22025,0.34151
507.73046,0.30729
506.24068,0.33510
504.75089,0.36293
503.26110,0.33560
501.77131,0.33627
500.28152,0.36987
498.79173,0.40349
497.30194,0.38232
495.81216,0.39067
494.32237,0.38809
492.83258,0.38553
491.34279,0.42724
489.85300,0.34799
488.36321,0.32321
486.87343,0.28637
485.38364,0.24955
483.89385,0.22184
482.40406,0.17525
480.91427,0.14986
479.42448,0.12450
477.93469,0.14908
476.44491,0.11016
474.95512,0.12081
473.46533,0.13148
471.97554,0.06317
470.48575,0.06369
468.99596,0.06576
467.50618,0.04592
466.01639,0.02612
464.52660,0.00937
463.03681,0.04863
461.54702,0.06865
460.05723,0.08869
458.56745,0.09705
457.07766,0.05250
455.58787,0.09078
454.09808,0.12909
452.60829,0.13453
451.11850,0.19142
449.62871,0.18823
448.13893,0.18506
446.64914,0.22540
445.15935,0.29073
443.66956,0.45212
442.17977,0.43697
440.68998,0.42185
439.20020,0.44041
437.71041,0.51571
436.22062,0.55285
434.73083,0.59002
433.24104,0.69868
431.75125,0.82022
430.26146,0.85597
428.77168,0.89175
427.28189,0.95213
425.79210,0.97699
424.30231,0.99282
422.81252,1.00867
421.32273,1.03060
419.83295,0.92779
418.34316,0.87568
416.85337,0.82359
415.36358,0.65735
413.87379,0.57961
412.38400,0.54576
410.89422,0.51194
409.40443,0.54166
407.91464,0.50865
406.42485,0.49004
404.93506,0.46654
403.44527,0.44307
401.95548,0.46916
400.46570,0.42344
398.97591,0.38758
397.48612,0.35175
395.99633,0.36964
394.50654,0.40797
393.01675,0.42515
391.52697,0.44237
390.03718,0.35375
388.54739,0.32717
387.05760,0.33048
385.56781,0.33382
384.07802,0.29523
382.58824,0.30884
381.09845,0.26728
379.60866,0.22574
378.11887,0.26666
376.62908,0.21082
375.13929,0.22797
373.64950,0.24516
372.15972,0.18638
370.66993,0.13594
369.18014,0.12410
367.69035,0.11229
366.20056,0.07934
364.71077,0.01465
363.22099,0.04590
361.73120,0.07719
360.24141,0.12702
358.75162,0.14891
357.26183,0.08840
355.77204,0.02793
354.28225,0.08846
352.79247,0.05980
351.30268,0.05650
349.81289,0.05323
348.32310,0.08591
346.83331,0.06039
345.34352,0.05456
343.85374,0.04876
342.36395,0.03089
340.87416,0.07373
339.38437,0.07955
337.89458,0.08540
336.40479,0.06708
334.91501,0.05332
333.42522,0.03695
331.93543,0.02061
330.44564,0.11054
328.95585,0.08631
327.46606,0.09312
325.97627,0.09996
324.48649,0.04784
322.99670,0.06461
321.50691,0.05420
320.01712,0.04381
318.52733,0.05235
317.03754,0.06168
315.54776,0.05402
314.05797,0.04639
312.56818,0.01876
311.07839,0.05315
309.58860,0.03124
308.09881,0.00937
306.60902,0.07326
305.11924,0.04720
303.62945,0.03781
302.13966,0.02099
300.64987,0.02688
299.16008,0.00937
