1778.52000,0.07463
1777.03021,0.03566
1775.54042,0.05344
1774.05063,0.00195
1772.56085,0.05763
1771.07106,0.07869
1769.58127,0.04150
1768.09148,0.09731
1766.60169,0.11534
1765.11190,0.10192
1763.62212,0.05387
1762.13233,0.02320
1760.64254,0.03668
1759.15275,0.05493
1757.66296,0.08898
1756.17317,0.13882
1754.68339,0.09104
1753.19360,0.04329
1751.70381,0.06018
1750.21402,0.08183
1748.72423,0.01373
1747.23444,0.04650
1745.74465,0.02575
1744.25487,0.06333
1742.76508,0.12615
1741.27529,0.05669
1739.78550,0.07864
1738.29571,0.07543
1736.80592,0.08171
1735.31614,0.08016
1733.82635,0.04872
1732.33656,0.03465
1730.84677,0.07261
1729.35698,0.12007
1727.86719,0.07147
1726.37740,0.04812
1724.88762,0.07837
1723.39783,0.02832
1721.90804,0.00195
1720.41825,0.05434
1718.92846,0.03745
1717.43867,0.14349
1715.94889,0.09203
1714.45910,0.10206
1712.96931,0.12473
1711.47952,0.05607
1709.98973,0.10718
1708.49994,0.10162
1707.01016,0.11973
1705.52037,0.13789
1704.03058,0.11355
1702.54079,0.12076
1701.05100,0.12644
1699.56121,0.15737
1698.07142,0.19465
1696.58164,0.12641
1695.09185,0.18740
1693.60206,0.21062
1692.11227,0.14724
1690.62248,0.20206
1689.13269,0.12458
1687.64291,0.18263
1686.15312,0.24702
1684.66333,0.22482
1683.17354,0.19477
1681.68375,0.20731
1680.19396,0.19625
1678.70417,0.16791
1677.21439,0.26722
1675.72460,0.19013
1674.23481,0.22335
1672.74502,0.24717
1671.25523,0.23007
1669.76544,0.32171
1668.27566,0.24641
1666.78587,0.22313
1665.29608,0.20305
1663.80629,0.25705
1662.31650,0.18665
1660.82671,0.23286
1659.33693,0.22713
1657.84714,0.19465
1656.35735,0.14174
1654.86756,0.15031
1653.37777,0.11009
1651.88798,0.11087
1650.39819,0.19834
1648.90841,0.18976
1647.41862,0.11032
1645.92883,0.13411
1644.43904,0.15795
1642.94925,0.15269
1641.45946,0.14273
1639.96968,0.15961
1638.47989,0.14817
1636.99010,0.13677
1635.50031,0.10809
1634.01052,0.18027
1632.52073,0.14222
1631.03094,0.07900
1629.54116,0.14659
1628.05137,0.14962
1626.56158,0.14325
1625.07179,0.21254
1623.58200,0.21255
1622.09221,0.23624
1620.60243,0.20798
1619.11264,0.15298
1617.62285,0.19885
1616.13306,0.10770
1614.64327,0.14420
1613.15348,0.17917
1611.66370,0.18582
1610.17391,0.13581
1608.68412,0.14727
1607.19433,0.16035
1605.70454,0.14197
1604.21475,0.14175
1602.72496,0.14157
1601.23518,0.19578
1599.74539,0.08305
1598.25560,0.12632
1596.76581,0.13970
1595.27602,0.11058
1593.78623,0.12720
1592.29645,0.09030
1590.80666,0.09124
1589.31687,0.05600
1587.82708,0.12477
1586.33729,0.14948
1584.84750,0.07655
1583.35771,0.11237
1581.86793,0.11200
1580.37814,0.08646
1578.88835,0.13658
1577.39856,0.12846
1575.90877,0.07312
1574.41898,0.07453
1572.92920,0.00195
1571.43941,0.05501
1569.94962,0.04590
1568.45983,0.03682
1566.97004,0.01597
1565.48025,0.06448
1563.99047,0.06893
1562.50068,0.09704
1561.01089,0.07637
1559.52110,0.03367
1558.03131,0.08240
1556.54152,0.09966
1555.05173,0.12956
1553.56195,0.11540
1552.07216,0.07134
1550.58237,0.12658
1549.09258,0.07946
1547.60279,0.03081
1546.11300,0.10507
1544.62322,0.10534
1543.13343,0.06785
1541.64364,0.06820
1540.15385,0.07096
1538.66406,0.07376
1537.17427,0.05534
1535.68448,0.09052
1534.19470,0.03122
1532.70491,0.09327
1531.21512,0.02776
1529.72533,0.10249
1528.23554,0.04337
1526.74575,0.05360
1525.25597,0.07647
1523.76618,0.14193
1522.27639,0.03098
1520.78660,0.01775
1519.29681,0.08018
1517.80702,0.04971
1516.31724,0.00195
1514.82745,0.08648
1513.33766,0.05132
1511.84787,0.01620
1510.35808,0.06777
1508.86829,0.06898
1507.37850,0.04974
1505.88872,0.07624
1504.39893,0.00195
1502.90914,0.01668
1501.41935,0.01885
1499.92956,0.05730
1498.43977,0.10052
1496.94999,0.12645
1495.46020,0.17763
1493.97041,0.16741
1492.48062,0.23915
1490.99083,0.26998
1489.50104,0.33708
1488.01125,0.35854
1486.52147,0.38004
1485.03168,0.42837
1483.54189,0.51770
1482.05210,0.52987
1480.56231,0.71223
1479.07252,0.71662
1477.58274,0.81872
1476.09295,0.81059
1474.60316,0.90647
1473.11337,1.03391
1471.62358,1.11727
1470.13379,1.14870
1468.64401,1.00056
1467.15422,0.92337
1465.66443,0.91947
1464.17464,0.91561
1462.68485,0.87163
1461.19506,0.76782
1459.70527,0.75070
1458.21549,0.69581
1456.72570,0.64570
1455.23591,0.74214
1453.74612,0.62751
1452.25633,0.59485
1450.76654,0.48819
1449.27676,0.55171
1447.78697,0.55857
1446.29718,0.51977
1444.80739,0.48969
1443.31760,0.45965
1441.82781,0.32331
1440.33802,0.28626
1438.84824,0.21932
1437.35845,0.20442
1435.86866,0.16277
1434.37887,0.15110
1432.88908,0.18043
1431.39929,0.20981
1429.90951,0.22347
1428.41972,0.17889
1426.92993,0.25723
1425.44014,0.27102
1423.95035,0.23917
1422.46056,0.20736
1420.97078,0.25908
1419.48099,0.35339
1417.99120,0.33904
1416.50141,0.33890
1415.01162,0.25847
1413.52183,0.20171
1412.03204,0.16232
1410.54226,0.20489
1409.05247,0.21757
1407.56268,0.13735
1406.07289,0.16587
1404.58310,0.16056
1403.09331,0.15530
1401.60353,0.24696
1400.11374,0.23785
1398.62395,0.22562
1397.13416,0.23234
1395.64437,0.27691
1394.15458,0.33098
1392.66479,0.30160
1391.17501,0.28013
1389.68522,0.37844
1388.19543,0.26568
1386.70564,0.30579
1385.21585,0.34593
1383.72606,0.21125
1382.23628,0.17428
1380.74649,0.18620
1379.25670,0.22021
1377.76691,0.20858
1376.27712,0.17178
1374.78733,0.22483
1373.29755,0.37717
1371.80776,0.47283
1370.31797,0.58587
1368.82818,0.60442
1367.33839,0.62302
1365.84860,0.70468
1364.35881,0.88720
1362.86903,0.79250
1361.37924,0.88216
1359.88945,0.85214
1358.39966,0.99387
1356.90987,1.12620
1355.42008,1.09000
1353.93030,1.04754
1352.44051,0.99488
1350.95072,0.94226
1349.46093,0.86843
1347.97114,0.78990
1346.48135,0.69094
1344.99156,0.58099
1343.50178,0.65698
1342.01199,0.62589
1340.52220,0.52395
1339.03241,0.54021
1337.54262,0.44307
1336.05283,0.41924
1334.56305,0.39545
1333.07326,0.40400
1331.58347,0.45040
1330.09368,0.35978
1328.60389,0.35113
1327.11410,0.35354
1325.62432,0.22682
1324.13453,0.24508
1322.64474,0.23817
1321.15495,0.29274
1319.66516,0.27568
1318.17537,0.25866
1316.68558,0.24247
1315.19580,0.22002
1313.70601,0.11884
1312.21622,0.21935
1310.72643,0.14977
1309.23664,0.18105
1307.74685,0.28327
1306.25707,0.18861
1304.76728,0.19875
1303.27749,0.20894
1301.78770,0.19002
1300.29791,0.20580
1298.80812,0.14286
1297.31834,0.17763
1295.82855,0.18252
1294.33876,0.14333
1292.84897,0.17351
1291.35918,0.20058
1289.86939,0.18279
1288.37960,0.16504
1286.88982,0.11661
1285.40003,0.24153
1283.91024,0.28298
1282.42045,0.26619
1280.93066,0.24787
1279.44087,0.33987
1277.95109,0.31848
1276.46130,0.22782
1274.97151,0.24984
1273.48172,0.27190
1271.99193,0.39562
1270.50214,0.38390
1269.01235,0.38797
1267.52257,0.35900
1266.03278,0.38206
1264.54299,0.47449
1263.05320,0.38736
1261.56341,0.47750
1260.07362,0.56769
1258.58384,0.49172
1257.09405,0.49298
1255.60426,0.49586
1254.11447,0.51453
1252.62468,0.43873
1251.13489,0.51421
1249.64511,0.47157
1248.15532,0.32185
1246.66553,0.35492
1245.17574,0.38803
1243.68595,0.26679
1242.19616,0.30786
1240.70637,0.25760
1239.21659,0.30349
1237.72680,0.18084
1236.23701,0.22366
1234.74722,0.28070
1233.25743,0.25507
1231.76764,0.22949
1230.27786,0.11809
1228.78807,0.18160
1227.29828,0.14432
1225.80849,0.14648
1224.31870,0.09511
1222.82891,0.01228
1221.33912,0.02874
1219.84934,0.03343
1218.35955,0.03816
1216.86976,0.10831
1215.37997,0.11706
1213.89018,0.15579
1212.40039,0.13627
1210.91061,0.06796
1209.42082,0.11312
1207.93103,0.10003
1206.44124,0.08698
1204.95145,0.05507
1203.46166,0.10670
1201.97188,0.17097
1200.48209,0.14077
1198.99230,0.04916
1197.50251,0.00329
1196.01272,0.04410
1194.52293,0.03533
1193.03314,0.02660
1191.54336,0.02028
1190.05357,0.03291
1188.56378,0.04085
1187.07399,0.00000
1185.58420,0.01275
1184.09441,0.04446
1182.60463,0.07856
1181.11484,0.11271
1179.62505,0.01063
1178.13526,0.10079
1176.64547,0.00195
1175.15568,0.09690
1173.66589,0.21867
1172.17611,0.19554
1170.68632,0.13387
1169.19653,0.07223
1167.70674,0.12013
1166.21695,0.11765
1164.72716,0.10892
1163.23738,0.08133
1161.74759,0.06480
1160.25780,0.09086
1158.76801,0.07442
1157.27822,0.05802
1155.78843,0.12674
1154.29865,0.13879
1152.80886,0.07683
1151.31907,0.10629
1149.82928,0.09326
1148.33949,0.13225
1146.84970,0.12009
1145.35991,0.10798
1143.87013,0.11087
1142.38034,0.00195
1140.89055,0.12917
1139.40076,0.22965
1137.91097,0.26085
1136.42118,0.19443
1134.93140,0.20603
1133.44161,0.21767
1131.95182,0.26795
1130.46203,0.27101
1128.97224,0.25048
1127.48245,0.39541
1125.99266,0.40490
1124.50288,0.35300
1123.01309,0.34682
1121.52330,0.34068
1120.03351,0.45589
1118.54372,0.42621
1117.05393,0.45171
1115.56415,0.49143
1114.07436,0.50914
1112.58457,0.50483
1111.09478,0.50057
1109.60499,0.53888
1108.11520,0.47169
1106.62542,0.47228
1105.13563,0.59422
1103.64584,0.70044
1102.15605,0.77520
1100.66626,0.77596
1099.17647,0.77677
1097.68668,0.84063
1096.19690,0.83679
1094.70711,0.95115
1093.21732,0.96315
1091.72753,0.86649
1090.23774,0.89590
1088.74795,0.92536
1087.25817,0.92020
1085.76838,1.00173
1084.27859,1.04864
1082.78880,1.09245
1081.29901,1.19301
1079.80922,1.10457
1078.31943,1.08943
1076.82965,1.07432
1075.33986,1.14040
1073.85007,1.09466
1072.36028,1.18602
1070.87049,1.32154
1069.38070,1.31847
1067.89092,1.34931
1066.40113,1.38019
1064.91134,1.26539
1063.42155,1.22625
1061.93176,1.14147
1060.44197,1.00159
1058.95219,0.97046
1057.46240,0.95985
1055.97261,0.94928
1054.48282,0.94348
1052.99303,0.93457
1051.50324,0.79810
1050.01345,0.64749
1048.52367,0.58357
1047.03388,0.55199
1045.54409,0.52045
1044.05430,0.56378
1042.56451,0.52681
1041.07472,0.38119
1039.58494,0.43883
1038.09515,0.28541
1036.60536,0.27539
1035.11557,0.26542
1033.62578,0.44611
1032.13599,0.36533
1030.64620,0.27514
1029.15642,0.45280
1027.66663,0.42493
1026.17684,0.39709
1024.68705,0.45673
1023.19726,0.61251
1021.70747,0.77464
1020.21769,0.85804
1018.72790,1.01710
1017.23811,1.12658
1015.74832,1.23610
1014.25853,1.38111
1012.76874,1.67110
1011.27896,1.77681
1009.78917,1.89044
1008.29938,1.90959
1006.80959,1.95477
1005.31980,2.00000
1003.83001,1.77351
1002.34022,1.62269
1000.85044,1.72554
999.36065,1.52597
997.87086,1.45089
996.38107,1.37585
994.89128,1.46155
993.40149,1.49530
991.91171,1.48656
990.42192,1.45108
988.93213,1.48811
987.44234,1.45586
985.95255,1.42366
984.46276,1.31903
982.97297,1.21445
981.48319,1.26272
979.99340,1.22911
978.50361,1.24753
977.01382,1.26600
975.52403,1.31128
974.03424,1.23058
972.54446,1.07431
971.05467,1.15123
969.56488,1.03915
968.07509,1.03975
966.58530,1.04040
965.09551,0.98673
963.60573,0.93311
962.11594,1.00714
960.62615,0.95361
959.13636,0.90169
957.64657,0.84981
956.15678,0.80901
954.66699,0.67845
953.17721,0.86143
951.68742,0.83336
950.19763,0.82581
948.70784,0.81829
947.21805,0.69425
945.72826,0.73566
944.23848,0.70307
942.74869,0.67840
941.25890,0.67111
939.76911,0.74656
938.27932,0.82206
936.78953,0.86687
935.29974,0.93694
933.80996,0.81485
932.32017,0.75425
930.83038,0.77954
929.34059,0.80488
927.85080,0.83262
926.36101,0.89822
924.87123,0.83310
923.38144,0.79638
921.89165,0.76049
920.40186,0.72464
918.91207,0.79203
917.42228,0.85788
915.93250,0.84973
914.44271,0.83374
912.95292,0.81544
911.46313,0.79717
909.97334,0.81282
908.48355,0.93249
906.99376,0.87891
905.50398,0.87578
904.01419,0.83331
902.52440,0.79089
901.03461,0.90289
899.54482,0.92829
898.05503,0.83716
896.56525,0.88627
895.07546,0.88659
893.58567,0.88696
892.09588,0.91099
890.60609,0.96343
889.11630,0.91824
887.62651,0.86993
886.13673,0.84924
884.64694,0.82859
883.15715,0.85761
881.66736,0.86146
880.17757,0.87954
878.68778,0.89293
877.19800,0.90637
875.70821,0.89936
874.21842,0.93179
872.72863,1.05563
871.23884,1.00464
869.74905,0.98678
868.25927,0.96896
866.76948,1.02208
865.27969,1.00119
863.78990,1.09063
862.30011,1.01154
860.81032,1.09633
859.32053,1.18117
857.83075,1.06597
856.34096,0.97918
854.85117,0.93181
853.36138,0.84352
851.87159,0.80884
850.38180,0.77420
848.89202,0.74118
847.40223,0.40730
845.91244,0.33341
844.42265,0.42103
842.93286,0.50870
841.44307,0.45699
839.95329,0.43210
838.46350,0.34109
836.97371,0.27532
835.48392,0.30255
833.99413,0.32982
832.50434,0.28466
831.01455,0.44908
829.52477,0.42133
828.03498,0.31644
826.54519,0.23601
825.05540,0.15562
823.56561,0.22257
822.07582,0.27538
820.58604,0.25420
819.09625,0.18264
817.60646,0.11113
816.11667,0.08062
814.62688,0.11474
813.13709,0.00712
811.64730,0.00195
810.15752,0.05265
808.66773,0.10340
807.17794,0.06990
805.68815,0.16090
804.19836,0.11646
802.70857,0.14532
801.21879,0.17423
799.72900,0.10943
798.23921,0.28730
796.74942,0.43684
795.25963,0.48876
793.76984,0.54072
792.28006,0.50607
790.79027,0.57387
789.30048,0.59602
787.81069,0.63082
786.32090,0.66251
784.83111,0.69424
783.34132,0.80164
781.85154,0.83976
780.36175,0.85114
778.87196,0.79482
777.38217,0.73854
775.89238,0.92176
774.40259,0.89708
772.91281,0.91025
771.42302,0.97545
769.93323,1.04069
768.44344,1.01932
766.95365,0.96177
765.46386,1.02399
763.97407,1.03111
762.48429,0.94532
760.99450,0.85958
759.50471,0.73449
758.01492,0.59527
756.52513,0.52384
755.03534,0.47607
753.54556,0.42835
752.05577,0.39170
750.56598,0.42599
749.07619,0.26969
747.58640,0.22450
746.09661,0.17936
744.60683,0.24060
743.11704,0.10495
741.62725,0.16470
740.13746,0.18038
738.64767,0.19610
737.15788,0.15357
735.66809,0.01971
734.17831,0.21515
732.68852,0.21765
731.19873,0.22019
729.70894,0.17315
728.21915,0.22383
726.72936,0.25092
725.23958,0.18038
723.74979,0.18470
722.26000,0.18908
720.77021,0.33764
719.28042,0.23891
717.79063,0.24420
716.30084,0.21959
714.81106,0.19503
713.32127,0.00195
711.83148,0.21464
710.34169,0.16429
708.85190,0.21560
707.36211,0.26695
705.87233,0.18994
704.38254,0.17127
702.89275,0.26449
701.40296,0.21518
699.91317,0.16591
698.42338,0.22303
696.93360,0.16834
695.44381,0.29485
693.95402,0.28829
692.46423,0.28177
690.97444,0.33595
689.48465,0.22633
687.99486,0.24908
686.50508,0.26873
685.01529,0.28842
683.52550,0.41370
682.03571,0.36888
680.54592,0.32253
679.05613,0.32900
677.56635,0.33551
676.07656,0.32080
674.58677,0.18954
673.09698,0.22848
671.60719,0.23279
670.11740,0.23715
668.62761,0.25101
667.13783,0.15305
665.64804,0.16778
664.15825,0.18255
662.66846,0.16664
661.17867,0.10194
659.68888,0.09399
658.19910,0.12862
656.70931,0.16330
655.21952,0.25158
653.72973,0.23120
652.23994,0.16675
650.75015,0.17008
649.26037,0.17346
647.77058,0.23990
646.28079,0.17247
644.79100,0.09878
643.30121,0.11100
641.81142,0.12325
640.32163,0.07805
638.83185,0.07857
637.34206,0.00195
635.85227,0.00801
634.36248,0.01411
632.87269,0.03601
631.38290,0.04850
629.89312,0.12089
628.40333,0.07124
626.91354,0.02162
625.42375,0.08942
623.93396,0.15411
622.44417,0.09675
620.95438,0.03943
619.46460,0.04280
617.97481,0.12184
616.48502,0.14893
614.99523,0.17685
613.50544,0.20482
612.01565,0.12964
610.52587,0.22779
609.03608,0.02194
607.54629,0.09812
606.05650,0.17435
604.56671,0.22856
603.07692,0.14260
601.58714,0.17170
600.09735,0.20083
598.60756,0.08980
597.11777,0.00716
595.62798,0.14355
594.13819,0.11142
592.64840,0.07932
591.15862,0.12132
589.66883,0.10191
588.17904,0.13769
586.68925,0.13491
585.19946,0.13217
583.70967,0.14602
582.21989,0.19142
580.73010,0.23528
579.24031,0.27919
577.75052,0.20971
576.26073,0.27733
574.77094,0.07561
573.28115,0.10551
571.79137,0.13545
570.30158,0.34660
568.81179,0.34355
567.32200,0.42954
565.83221,0.51558
564.34242,0.54889
562.85264,0.39634
561.36285,0.51322
559.87306,0.56398
558.38327,0.61479
556.89348,0.58844
555.40369,0.65036
553.91391,0.69105
552.42412,0.73178
550.93433,0.73239
549.44454,0.68420
547.95475,0.72269
546.46496,0.75257
544.97517,0.78249
543.48539,0.82427
541.99560,0.89444
540.50581,0.87880
539.01602,0.86320
537.52623,0.90200
536.03644,0.86679
534.54666,0.81588
533.05687,0.79100
531.56708,0.76616
530.07729,0.74057
528.58750,0.68195
527.09771,0.67930
525.60792,0.67668
524.11814,0.62449
522.62835,0.66056
521.13856,0.70455
519.64877,0.68162
518.15898,0.65874
516.66919,0.46655
515.17941,0.41619
513.68962,0.40052
512.19983,0.38490
510.71004,0.39296
509.22025,0.43098
507.73046,0.46118
506.24068,0.47014
504.75089,0.47915
503.26110,0.45276
501.77131,0.36969
500.28152,0.44579
498.79173,0.52192
497.30194,0.34446
495.81216,0.44431
494.32237,0.47646
492.83258,0.50865
491.34279,0.41958
489.85300,0.37309
488.36321,0.41329
486.87343,0.34246
485.38364,0.27168
483.89385,0.36084
482.40406,0.29251
480.91427,0.27305
479.42448,0.25364
477.93469,0.20591
476.44491,0.18344
474.95512,0.15312
473.46533,0.12285
471.97554,0.10523
470.48575,0.07819
468.99596,0.12997
467.50618,0.14713
466.01639,0.16434
464.52660,0.11857
463.03681,0.00195
461.54702,0.12127
460.05723,0.24063
458.56745,0.20013
457.07766,0.10768
455.58787,0.10665
454.09808,0.10567
452.60829,0.08739
451.11850,0.18417
449.62871,0.26287
448.13893,0.34161
446.64914,0.34083
445.15935,0.60162
443.66956,0.67970
442.17977,0.69481
440.68998,0.70996
439.20020,0.71412
437.71041,0.76717
436.22062,0.86200
434.73083,0.95688
433.24104,0.93758
431.75125,1.19560
430.26146,1.25752
428.77168,1.31948
427.28189,1.38228
425.79210,1.45614
424.30231,1.42922
422.81252,1.40235
421.32273,1.32667
419.83295,1.31879
418.34316,1.23611
416.85337,1.15348
415.36358,1.01339
413.87379,0.97731
412.38400,0.93183
410.89422,0.88639
409.40443,0.77482
407.91464,0.83029
406.42485,0.72196
404.93506,0.66960
403.44527,0.61729
401.95548,0.61779
400.46570,0.66087
398.97591,0.58977
397.48612,0.51872
395.99633,0.57925
394.50654,0.75956
393.01675,0.77371
391.52697,0.78790
390.03718,0.65168
388.54739,0.43200
387.05760,0.40142
385.56781,0.37088
384.07802,0.44278
382.58824,0.50528
381.09845,0.45360
379.60866,0.40196
378.11887,0.42992
376.62908,0.43272
375.13929,0.35758
373.64950,0.28248
372.15972,0.32951
370.66993,0.30885
369.18014,0.28902
367.69035,0.26923
366.20056,0.12896
364.71077,0.16361
363.22099,0.19908
361.73120,0.23460
360.24141,0.11026
358.75162,0.29474
357.26183,0.25870
355.77204,0.22271
354.28225,0.20567
352.79247,0.03270
351.30268,0.02204
349.81289,0.01143
348.32310,0.21196
346.83331,0.19355
345.34352,0.12635
343.85374,0.05919
342.36395,0.14961
340.87416,0.16445
339.38437,0.21400
337.89458,0.26359
336.40479,0.32425
334.91501,0.20851
333.42522,0.19284
331.93543,0.17722
330.44564,0.21600
328.95585,0.27529
327.46606,0.24484
325.97627,0.21442
324.48649,0.03438
322.99670,0.15853
321.50691,0.17716
320.01712,0.19584
318.52733,0.28546
317.03754,0.35778
315.54776,0.30334
314.05797,0.24893
312.56818,0.25679
311.07839,0.14812
309.58860,0.09620
308.09881,0.04433
306.60902,0.00195
305.11924,0.01296
303.62945,0.03740
302.13966,0.04287
300.64987,0.03814
299.16008,0.00195
