1778.52000,0.00126
1777.03021,0.00387
1775.54042,0.02251
1774.05063,0.00718
1772.56085,0.00188
1771.07106,0.02561
1769.58127,0.00537
1768.09148,0.00916
1766.60169,0.01199
1765.11190,0.02284
1763.62212,0.01573
1762.13233,0.04965
1760.64254,0.03159
1759.15275,0.02757
1757.66296,0.04058
1756.17317,0.04562
1754.68339,0.02869
1753.19360,0.02379
1751.70381,0.02892
1750.21402,0.03308
1748.72423,0.06128
1747.23444,0.02550
1745.74465,0.04776
1744.25487,0.05605
1742.76508,0.05436
1741.27529,0.08572
1739.78550,0.04409
1738.29571,0.01749
1736.80592,0.04394
1735.31614,0.05341
1733.82635,0.05691
1732.33656,0.03844
1730.84677,0.09101
1729.35698,0.05660
1727.86719,0.02022
1726.37740,0.00188
1724.88762,0.01934
1723.39783,0.04684
1721.90804,0.07637
1720.41825,0.06392
1718.92846,0.01450
1717.43867,0.02512
1715.94889,0.05177
1714.45910,0.07145
1712.96931,0.05316
1711.47952,0.07491
1709.98973,0.07168
1708.49994,0.08448
1707.01016,0.07531
1705.52037,0.06617
1704.03058,0.10508
1702.54079,0.09000
1701.05100,0.12096
1699.56121,0.11995
1698.07142,0.15997
1696.58164,0.12601
1695.09185,0.11409
1693.60206,0.16221
1692.11227,0.17035
1690.62248,0.19353
1689.13269,0.15173
1687.64291,0.20297
1686.15312,0.21324
1684.66333,0.19753
1683.17354,0.15085
1681.68375,0.17221
1680.19396,0.18060
1678.70417,0.17202
1677.21439,0.21547
1675.72460,0.18695
1674.23481,0.18946
1672.74502,0.17200
1671.25523,0.19658
1669.76544,0.19818
1668.27566,0.20682
1666.78587,0.19548
1665.29608,0.18118
1663.80629,0.18691
1662.31650,0.16966
1660.82671,0.21446
1659.33693,0.18628
1657.84714,0.12512
1656.35735,0.15300
1654.86756,0.12091
1653.37777,0.12986
1651.88798,0.12983
1650.39819,0.08783
1648.90841,0.14387
1647.41862,0.12094
1645.92883,0.11504
1644.43904,0.10916
1642.94925,0.13033
1641.45946,0.10151
1639.96968,0.14274
1638.47989,0.10899
1636.99010,0.14428
1635.50031,0.12559
1634.01052,0.10593
1632.52073,0.12031
1631.03094,0.12871
1629.54116,0.14115
1628.05137,0.10262
1626.56158,0.14512
1625.07179,0.18866
1623.58200,0.19522
1622.09221,0.15280
1620.60243,0.16243
1619.11264,0.16908
1617.62285,0.16577
1616.13306,0.14948
1614.64327,0.14422
1613.15348,0.18701
1611.66370,0.16381
1610.17391,0.14565
1608.68412,0.15552
1607.19433,0.15642
1605.70454,0.13034
1604.21475,0.13431
1602.72496,0.13830
1601.23518,0.12532
1599.74539,0.18338
1598.25560,0.12146
1596.76581,0.17858
1595.27602,0.07972
1593.78623,0.09690
1592.29645,0.08810
1590.80666,0.07334
1589.31687,0.08761
1587.82708,0.04491
1586.33729,0.09725
1584.84750,0.06661
1583.35771,0.06500
1581.86793,0.01642
1580.37814,0.06788
1578.88835,0.03936
1577.39856,0.08289
1575.90877,0.06643
1574.41898,0.09201
1572.92920,0.07362
1571.43941,0.04526
1569.94962,0.02492
1568.45983,0.00462
1566.97004,0.03536
1565.48025,0.05213
1563.99047,0.02892
1562.50068,0.04275
1561.01089,0.02760
1559.52110,0.04749
1558.03131,0.03141
1556.54152,0.02136
1555.05173,0.04034
1553.56195,0.05535
1552.07216,0.05239
1550.58237,0.05647
1549.09258,0.01756
1547.60279,0.05670
1546.11300,0.06287
1544.62322,0.08307
1543.13343,0.06629
1541.64364,0.01654
1540.15385,0.03083
1538.66406,0.04515
1537.17427,0.05350
1535.68448,0.00188
1534.19470,0.04486
1532.70491,0.04287
1531.21512,0.01490
1529.72533,0.02398
1528.23554,0.00807
1526.74575,0.02021
1525.25597,0.02237
1523.76618,0.03256
1522.27639,0.02679
1520.78660,0.04304
1519.29681,0.03833
1517.80702,0.03965
1516.31724,0.06100
1514.82745,0.04437
1513.33766,0.03828
1511.84787,0.03222
1510.35808,0.04869
1508.86829,0.03919
1507.37850,0.02072
1505.88872,0.01429
1504.39893,0.00188
1502.90914,0.02072
1501.41935,0.03759
1499.92956,0.02749
1498.43977,0.05243
1496.94999,0.12741
1495.46020,0.15340
1493.97041,0.20044
1492.48062,0.21949
1490.99083,0.27959
1489.50104,0.29471
1488.01125,0.30286
1486.52147,0.31104
1485.03168,0.45927
1483.54189,0.56153
1482.05210,0.57180
1480.56231,0.64412
1479.07252,0.76447
1477.58274,0.85685
1476.09295,0.97826
1474.60316,0.95669
1473.11337,1.04516
1471.62358,1.07765
1470.13379,1.05817
1468.64401,1.00871
1467.15422,0.96128
1465.66443,0.95339
1464.17464,0.94553
1462.68485,0.88219
1461.19506,0.85189
1459.70527,0.77662
1458.21549,0.77638
1456.72570,0.64616
1455.23591,0.69599
1453.74612,0.54983
1452.25633,0.54772
1450.76654,0.53263
1449.27676,0.39456
1447.78697,0.45055
1446.29718,0.45056
1444.80739,0.41010
1443.31760,0.36967
1441.82781,0.27376
1440.33802,0.19788
1438.84824,0.22605
1437.35845,0.17024
1435.86866,0.17247
1434.37887,0.15973
1432.88908,0.18102
1431.39929,0.22035
1429.90951,0.25770
1428.41972,0.23608
1426.92993,0.21349
1425.44014,0.21694
1423.95035,0.22241
1422.46056,0.22792
1420.97078,0.22146
1419.48099,0.19602
1417.99120,0.23562
1416.50141,0.24526
1415.01162,0.24692
1413.52183,0.30362
1412.03204,0.28934
1410.54226,0.24908
1409.05247,0.26987
1407.56268,0.26168
1406.07289,0.27953
1404.58310,0.27190
1403.09331,0.26431
1401.60353,0.30925
1400.11374,0.34923
1398.62395,0.42924
1397.13416,0.42127
1395.64437,0.42233
1394.15458,0.49744
1392.66479,0.53456
1391.17501,0.52872
1389.68522,0.56591
1388.19543,0.51412
1386.70564,0.51736
1385.21585,0.52064
1383.72606,0.47794
1382.23628,0.53029
1380.74649,0.53366
1379.25670,0.55806
1377.76691,0.61550
1376.27712,0.59196
1374.78733,0.64946
1373.29755,0.76401
1371.80776,0.86958
1370.31797,0.99418
1368.82818,1.06781
1367.33839,1.14147
1365.84860,1.25817
1364.35881,1.55592
1362.86903,1.64468
1361.37924,1.84148
1359.88945,1.83128
1358.39966,1.93613
1356.90987,2.00000
1355.42008,1.92988
1353.93030,1.81579
1352.44051,1.79424
1350.95072,1.77273
1349.46093,1.63072
1347.97114,1.44074
1346.48135,1.17678
1344.99156,0.99286
1343.50178,0.92899
1342.01199,0.82615
1340.52220,0.78034
1339.03241,0.67656
1337.54262,0.60481
1336.05283,0.59060
1334.56305,0.57643
1333.07326,0.52678
1331.58347,0.48316
1330.09368,0.43557
1328.60389,0.36701
1327.11410,0.37949
1325.62432,0.30899
1324.13453,0.33654
1322.64474,0.32011
1321.15495,0.37672
1319.66516,0.33935
1318.17537,0.30201
1316.68558,0.30771
1315.19580,0.27143
1313.70601,0.25818
1312.21622,0.23497
1310.72643,0.17678
1309.23664,0.20663
1307.74685,0.20251
1306.25707,0.20143
1304.76728,0.18487
1303.27749,0.16834
1301.78770,0.15634
1300.29791,0.19038
1298.80812,0.20645
1297.31834,0.19255
1295.82855,0.22068
1294.33876,0.22584
1292.84897,0.22303
1291.35918,0.17024
1289.86939,0.19300
1288.37960,0.21578
1286.88982,0.26610
1285.40003,0.27845
1283.91024,0.26982
1282.42045,0.31624
1280.93066,0.28367
1279.44087,0.32914
1277.95109,0.31664
1276.46130,0.31617
1274.97151,0.29973
1273.48172,0.28332
1271.99193,0.34395
1270.50214,0.34860
1269.01235,0.36729
1267.52257,0.38000
1266.03278,0.48376
1264.54299,0.42353
1263.05320,0.48135
1261.56341,0.46618
1260.07362,0.45105
1258.58384,0.46295
1257.09405,0.45288
1255.60426,0.45984
1254.11447,0.48284
1252.62468,0.47886
1251.13489,0.44191
1249.64511,0.41299
1248.15532,0.41610
1246.66553,0.36274
1245.17574,0.30941
1243.68595,0.32162
1242.19616,0.33086
1240.70637,0.30313
1239.21659,0.26242
1237.72680,0.19174
1236.23701,0.17210
1234.74722,0.14749
1233.25743,0.13241
1231.76764,0.11736
1230.27786,0.18086
1228.78807,0.16037
1227.29828,0.17192
1225.80849,0.14350
1224.31870,0.06809
1222.82891,0.09774
1221.33912,0.10441
1219.84934,0.12211
1218.35955,0.13985
1216.86976,0.08060
1215.37997,0.12440
1213.89018,0.16124
1212.40039,0.12809
1210.91061,0.10097
1209.42082,0.08988
1207.93103,0.08533
1206.44124,0.08081
1204.95145,0.07482
1203.46166,0.04386
1201.97188,0.06093
1200.48209,0.03503
1198.99230,0.05517
1197.50251,0.04733
1196.01272,0.05352
1194.52293,0.02675
1193.03314,0.00000
1191.54336,0.03468
1190.05357,0.01438
1188.56378,0.06212
1187.07399,0.00188
1185.58420,0.02763
1184.09441,0.06543
1182.60463,0.08174
1181.11484,0.09809
1179.62505,0.05696
1178.13526,0.05687
1176.64547,0.02480
1175.15568,0.07878
1173.66589,0.04077
1172.17611,0.10081
1170.68632,0.06687
1169.19653,0.03296
1167.70674,0.05108
1166.21695,0.08224
1164.72716,0.03742
1163.23738,0.04764
1161.74759,0.00188
1160.25780,0.04871
1158.76801,0.03107
1157.27822,0.01346
1155.78843,0.03138
1154.29865,0.05534
1152.80886,0.04532
1151.31907,0.04333
1149.82928,0.01937
1148.33949,0.08346
1146.84970,0.08757
1145.35991,0.09170
1143.87013,0.03586
1142.38034,0.04606
1140.89055,0.09130
1139.40076,0.08556
1137.91097,0.10585
1136.42118,0.16319
1134.93140,0.17204
1133.44161,0.18093
1131.95182,0.25935
1130.46203,0.27380
1128.97224,0.27928
1127.48245,0.23678
1125.99266,0.29933
1124.50288,0.31490
1123.01309,0.32050
1121.52330,0.32613
1120.03351,0.38080
1118.54372,0.34249
1117.05393,0.34321
1115.56415,0.43098
1114.07436,0.40576
1112.58457,0.40058
1111.09478,0.39542
1109.60499,0.47031
1108.11520,0.56023
1106.62542,0.50816
1105.13563,0.57715
1103.64584,0.65416
1102.15605,0.70420
1100.66626,0.69976
1099.17647,0.69535
1097.68668,0.72648
1096.19690,0.79665
1094.70711,0.82184
1093.21732,0.81506
1091.72753,0.92732
1090.23774,0.93610
1088.74795,0.94491
1087.25817,0.96626
1085.76838,1.07964
1084.27859,1.04104
1082.78880,1.06048
1081.29901,1.16096
1079.80922,1.15845
1078.31943,1.18848
1076.82965,1.21854
1075.33986,1.25513
1073.85007,1.32776
1072.36028,1.29941
1070.87049,1.32609
1069.38070,1.31580
1067.89092,1.33555
1066.40113,1.35532
1064.91134,1.26511
1063.42155,1.22494
1061.93176,1.14079
1060.44197,1.00266
1058.95219,0.94658
1057.46240,0.91753
1055.97261,0.88852
1054.48282,0.84053
1052.99303,0.81658
1051.50324,0.74565
1050.01345,0.72075
1048.52367,0.71390
1047.03388,0.63006
1045.54409,0.54625
1044.05430,0.56548
1042.56451,0.44473
1041.07472,0.41302
1039.58494,0.39935
1038.09515,0.31069
1036.60536,0.32408
1035.11557,0.33751
1033.62578,0.36196
1032.13599,0.33944
1030.64620,0.33695
1029.15642,0.37450
1027.66663,0.37008
1026.17684,0.36568
1024.68705,0.47633
1023.19726,0.53001
1021.70747,0.72374
1020.21769,0.87049
1018.72790,1.05728
1017.23811,1.17309
1015.74832,1.28893
1014.25853,1.49481
1012.76874,1.63872
1011.27896,1.84566
1009.78917,1.99363
1008.29938,1.94860
1006.80959,1.95361
1005.31980,1.95864
1003.83001,1.80669
1002.34022,1.85480
1000.85044,1.73391
999.36065,1.61905
997.87086,1.58774
996.38107,1.55645
994.89128,1.51770
993.40149,1.50798
991.91171,1.52530
990.42192,1.47164
988.93213,1.38000
987.44234,1.34590
985.95255,1.31183
984.46276,1.28830
982.97297,1.19879
981.48319,1.17931
979.99340,1.12787
978.50361,1.15146
977.01382,1.17509
975.52403,1.04572
974.03424,0.98740
972.54446,0.92911
971.05467,0.92085
969.56488,0.91863
968.07509,0.85343
966.58530,0.78826
965.09551,0.78813
963.60573,0.74102
962.11594,0.72495
960.62615,0.65890
959.13636,0.62489
957.64657,0.59091
956.15678,0.59397
954.66699,0.55805
953.17721,0.57617
951.68742,0.51731
950.19763,0.53949
948.70784,0.56170
947.21805,0.54394
945.72826,0.44319
944.23848,0.55651
942.74869,0.50584
941.25890,0.58422
939.76911,0.59261
938.27932,0.60104
936.78953,0.67451
935.29974,0.68600
933.80996,0.70252
932.32017,0.74107
930.83038,0.71465
929.34059,0.68825
927.85080,0.66089
926.36101,0.72557
924.87123,0.60226
923.38144,0.58499
921.89165,0.58425
920.40186,0.58355
918.91207,0.61438
917.42228,0.65724
915.93250,0.66913
914.44271,0.62405
912.95292,0.63000
911.46313,0.63598
909.97334,0.61699
908.48355,0.74305
906.99376,0.70012
905.50398,0.67522
904.01419,0.66885
902.52440,0.66252
901.03461,0.66971
899.54482,0.69495
898.05503,0.69120
896.56525,0.75250
895.07546,0.73432
893.58567,0.71617
892.09588,0.69855
890.60609,0.70696
889.11630,0.67840
887.62651,0.68188
886.13673,0.70438
884.64694,0.72692
883.15715,0.70349
881.66736,0.72009
880.17757,0.70271
878.68778,0.73938
877.19800,0.77608
875.70821,0.88081
874.21842,0.78155
872.72863,0.88535
871.23884,0.97018
869.74905,0.95502
868.25927,0.93989
866.76948,0.94080
865.27969,1.05175
863.78990,1.00972
862.30011,1.06072
860.81032,1.02575
859.32053,0.99080
857.83075,0.85487
856.34096,0.87700
854.85117,0.79514
853.36138,0.74932
851.87159,0.72553
850.38180,0.70177
848.89202,0.61603
847.40223,0.52933
845.91244,0.49366
844.42265,0.48303
842.93286,0.47242
841.44307,0.37784
839.95329,0.32529
838.46350,0.33079
836.97371,0.33531
835.48392,0.33036
833.99413,0.32545
832.50434,0.31906
831.01455,0.33071
829.52477,0.33139
828.03498,0.25809
826.54519,0.27233
825.05540,0.28660
823.56561,0.26740
822.07582,0.13721
820.58604,0.19208
819.09625,0.16497
817.60646,0.13789
816.11667,0.09384
814.62688,0.05382
813.13709,0.01383
811.64730,0.00188
810.15752,0.00233
808.66773,0.00282
807.17794,0.06684
805.68815,0.06889
804.19836,0.07897
802.70857,0.09308
801.21879,0.10722
799.72900,0.06238
798.23921,0.23461
796.74942,0.25985
795.25963,0.31812
793.76984,0.37642
792.28006,0.41475
790.79027,0.49012
789.30048,0.60052
787.81069,0.64195
786.32090,0.67590
784.83111,0.70988
783.34132,0.65939
781.85154,0.66493
780.36175,0.69150
778.87196,0.67860
777.38217,0.66573
775.89238,0.81642
774.40259,0.83612
772.91281,0.80584
771.42302,0.82560
769.93323,0.84539
768.44344,0.87721
766.95365,0.92307
765.46386,0.88394
763.97407,0.82784
762.48429,0.76928
760.99450,0.71074
759.50471,0.55872
758.01492,0.54675
756.52513,0.49381
755.03534,0.40789
753.54556,0.32200
752.05577,0.29616
750.56598,0.13632
749.07619,0.15554
747.58640,0.15479
746.09661,0.15407
744.60683,0.07737
743.11704,0.07371
741.62725,0.04808
740.13746,0.05599
738.64767,0.06392
737.15788,0.07739
735.66809,0.00188
734.17831,0.02396
732.68852,0.02257
731.19873,0.02121
729.70894,0.07740
728.21915,0.07860
726.72936,0.07483
725.23958,0.07310
723.74979,0.07340
722.26000,0.07372
720.77021,0.03407
719.28042,0.03646
717.79063,0.00188
716.30084,0.00698
714.81106,0.01211
713.32127,0.05427
711.83148,0.01246
710.34169,0.01868
708.85190,0.05844
707.36211,0.09823
705.87233,0.05654
704.38254,0.00188
702.89275,0.07249
701.40296,0.08412
699.91317,0.09578
698.42338,0.14248
696.93360,0.19321
695.44381,0.16095
693.95402,0.17724
692.46423,0.19356
690.97444,0.16640
689.48465,0.22828
687.99486,0.24719
686.50508,0.23563
685.01529,0.22409
683.52550,0.24209
682.03571,0.26113
680.54592,0.18117
679.05613,0.17827
677.56635,0.17539
676.07656,0.21155
674.58677,0.23473
673.09698,0.10993
671.60719,0.12418
670.11740,0.13846
668.62761,0.09576
667.13783,0.12310
665.64804,0.09096
664.15825,0.05886
662.66846,0.05029
661.17867,0.01474
659.68888,0.05524
658.19910,0.08777
656.70931,0.12033
655.21952,0.08091
653.72973,0.01752
652.23994,0.05917
650.75015,0.08285
649.26037,0.10656
647.77058,0.10330
646.28079,0.08507
644.79100,0.13588
643.30121,0.11921
641.81142,0.10257
640.32163,0.02745
638.83185,0.06838
637.34206,0.02233
635.85227,0.01581
634.36248,0.00933
632.87269,0.01538
631.38290,0.01946
629.89312,0.04857
628.40333,0.02521
626.91354,0.00188
625.42375,0.09590
623.93396,0.13395
622.44417,0.11552
620.95438,0.09711
619.46460,0.09425
617.97481,0.09641
616.48502,0.06160
614.99523,0.04632
613.50544,0.03108
612.01565,0.08637
610.52587,0.04468
609.03608,0.10104
607.54629,0.12192
606.05650,0.14283
604.56671,0.15328
603.07692,0.09674
601.58714,0.12175
600.09735,0.14678
598.60756,0.06034
597.11777,0.03793
595.62798,0.15357
594.13819,0.11372
592.64840,0.07390
591.15862,0.10463
589.66883,0.11838
588.17904,0.09216
586.68925,0.11847
585.19946,0.14482
583.70967,0.07868
582.21989,0.13059
580.73010,0.09652
579.24031,0.06248
577.75052,0.15949
576.26073,0.14452
574.77094,0.14858
573.28115,0.16867
571.79137,0.18879
570.30158,0.17094
568.81179,0.26513
567.32200,0.26685
565.83221,0.26859
564.34242,0.26186
562.85264,0.30518
561.36285,0.35552
559.87306,0.37889
558.38327,0.40229
556.89348,0.43472
555.40369,0.47019
553.91391,0.49668
552.42412,0.52321
550.93433,0.53676
549.44454,0.53834
547.95475,0.56096
546.46496,0.56561
544.97517,0.57028
543.48539,0.57899
541.99560,0.66074
540.50581,0.65401
539.01602,0.64730
537.52623,0.54912
536.03644,0.61899
534.54666,0.62888
533.05687,0.63080
531.56708,0.63276
530.07729,0.55473
528.58750,0.52474
527.09771,0.50178
525.60792,0.47885
524.11814,0.41895
522.62835,0.42009
521.13856,0.39625
519.64877,0.37095
518.15898,0.34567
516.66919,0.32393
515.17941,0.27222
513.68962,0.27954
512.19983,0.28689
510.71004,0.29628
509.22025,0.28869
507.73046,0.24313
506.24068,0.28012
504.75089,0.31713
503.26110,0.38068
501.77131,0.34124
500.28152,0.30984
498.79173,0.27847
497.30194,0.30813
495.81216,0.35283
494.32237,0.39206
492.83258,0.43132
491.34279,0.37210
489.85300,0.30691
488.36321,0.30075
486.87343,0.29113
485.38364,0.28154
483.89385,0.20747
482.40406,0.28445
480.91427,0.24745
479.42448,0.21047
477.93469,0.09852
476.44491,0.10961
474.95512,0.05573
473.46533,0.00188
471.97554,0.05861
470.48575,0.04736
468.99596,0.00814
467.50618,0.01096
466.01639,0.01381
464.52660,0.02269
463.03681,0.01259
461.54702,0.02003
460.05723,0.02750
458.56745,0.00650
457.07766,0.07755
455.58787,0.08011
454.09808,0.08270
452.60829,0.14384
451.11850,0.08798
449.62871,0.11668
448.13893,0.14540
446.64914,0.20766
445.15935,0.30795
443.66956,0.43728
442.17977,0.44562
440.68998,0.45399
439.20020,0.51341
437.71041,0.54384
436.22062,0.63832
434.73083,0.73283
433.24104,0.80037
431.75125,0.88294
430.26146,0.98704
428.77168,1.09118
427.28189,1.10083
425.79210,1.03750
424.30231,1.06171
422.81252,1.08596
421.32273,1.11874
419.83295,1.05453
418.34316,1.01636
416.85337,0.97822
415.36358,0.81209
413.87379,0.62398
412.38400,0.61794
410.89422,0.61193
409.40443,0.53393
407.91464,0.50598
406.42485,0.47406
404.93506,0.46167
403.44527,0.44931
401.95548,0.43048
400.46570,0.45169
398.97591,0.44142
397.48612,0.43118
395.99633,0.44548
394.50654,0.47682
393.01675,0.45217
391.52697,0.42756
390.03718,0.38097
388.54739,0.37242
387.05760,0.38490
385.56781,0.39742
384.07802,0.37396
382.58824,0.31252
381.09845,0.29663
379.60866,0.28076
378.11887,0.21942
376.62908,0.20911
375.13929,0.17084
373.64950,0.13259
372.15972,0.21239
370.66993,0.20521
369.18014,0.14606
367.69035,0.08693
366.20056,0.15686
364.71077,0.11780
363.22099,0.12727
361.73120,0.13678
360.24141,0.16582
358.75162,0.14689
357.26183,0.14249
355.77204,0.13812
354.28225,0.08727
352.79247,0.07246
351.30268,0.10419
349.81289,0.13594
348.32310,0.17123
346.83331,0.13354
345.34352,0.10638
343.85374,0.07926
342.36395,0.05466
340.87416,0.11971
339.38437,0.11128
337.89458,0.10288
336.40479,0.07301
334.91501,0.07818
333.42522,0.06637
331.93543,0.05459
330.44564,0.14386
328.95585,0.19716
327.46606,0.18698
325.97627,0.17682
324.48649,0.10319
322.99670,0.07960
321.50691,0.07929
320.01712,0.07901
318.52733,0.14377
317.03754,0.07654
315.54776,0.08436
314.05797,0.09221
312.56818,0.04507
311.07839,0.05098
309.58860,0.02641
308.09881,0.00188
306.60902,0.14282
305.11924,0.09577
303.62945,0.07625
302.13966,0.05676
300.64987,0.06381
299.16008,0.00188
