1778.52000,0.02331
1777.03021,0.02764
1775.54042,0.00261
1774.05063,0.00548
1772.56085,0.01952
1771.07106,0.01940
1769.58127,0.01324
1768.09148,0.02027
1766.60169,0.01619
1765.11190,0.01315
1763.62212,0.01825
1762.13233,0.03199
1760.64254,0.01839
1759.15275,0.02560
1757.66296,0.01865
1756.17317,0.01629
1754.68339,0.02562
1753.19360,0.01470
1751.70381,0.02510
1750.21402,0.01525
1748.72423,0.03635
1747.23444,0.01034
1745.74465,0.02187
1744.25487,0.02126
1742.76508,0.01764
1741.27529,0.02317
1739.78550,0.03177
1738.29571,0.03229
1736.80592,0.02423
1735.31614,0.01670
1733.82635,0.01224
1732.33656,0.01541
1730.84677,0.00543
1729.35698,0.02539
1727.86719,0.02763
1726.37740,0.01977
1724.88762,0.02663
1723.39783,0.00261
1721.90804,0.02706
1720.41825,0.00846
1718.92846,0.01523
1717.43867,0.03268
1715.94889,0.03089
1714.45910,0.01038
1712.96931,0.02285
1711.47952,0.02824
1709.98973,0.04684
1708.49994,0.03355
1707.01016,0.03345
1705.52037,0.03339
1704.03058,0.07846
1702.54079,0.07694
1701.05100,0.07291
1699.56121,0.07955
1698.07142,0.07355
1696.58164,0.08075
1695.09185,0.11029
1693.60206,0.12718
1692.11227,0.11369
1690.62248,0.12304
1689.13269,0.16638
1687.64291,0.13980
1686.15312,0.17204
1684.66333,0.16681
1683.17354,0.17124
1681.68375,0.16353
1680.19396,0.14014
1678.70417,0.12489
1677.21439,0.14210
1675.72460,0.14819
1674.23481,0.12593
1672.74502,0.12498
1671.25523,0.13369
1669.76544,0.16118
1668.27566,0.15171
1666.78587,0.13314
1665.29608,0.10599
1663.80629,0.12548
1662.31650,0.13336
1660.82671,0.11642
1659.33693,0.11422
1657.84714,0.11660
1656.35735,0.09266
1654.86756,0.07939
1653.37777,0.09200
1651.88798,0.08386
1650.39819,0.09196
1648.90841,0.08996
1647.41862,0.11180
1645.92883,0.10859
1644.43904,0.10540
1642.94925,0.10200
1641.45946,0.11331
1639.96968,0.10337
1638.47989,0.10309
1636.99010,0.11703
1635.50031,0.10718
1634.01052,0.08570
1632.52073,0.08908
1631.03094,0.10263
1629.54116,0.10050
1628.05137,0.11056
1626.56158,0.13990
1625.07179,0.12822
1623.58200,0.15357
1622.09221,0.16172
1620.60243,0.14709
1619.11264,0.13299
1617.62285,0.13413
1616.13306,0.13327
1614.64327,0.12180
1613.15348,0.12252
1611.66370,0.14252
1610.17391,0.13367
1608.68412,0.13295
1607.19433,0.12314
1605.70454,0.10171
1604.21475,0.10640
1602.72496,0.11112
1601.23518,0.10954
1599.74539,0.10545
1598.25560,0.10190
1596.76581,0.09178
1595.27602,0.08221
1593.78623,0.08685
1592.29645,0.09760
1590.80666,0.06885
1589.31687,0.07865
1587.82708,0.06719
1586.33729,0.06286
1584.84750,0.05145
1583.35771,0.07252
1581.86793,0.00948
1580.37814,0.05138
1578.88835,0.04719
1577.39856,0.05367
1575.90877,0.03230
1574.41898,0.04138
1572.92920,0.01906
1571.43941,0.02261
1569.94962,0.02620
1568.45983,0.02981
1566.97004,0.02534
1565.48025,0.01483
1563.99047,0.00738
1562.50068,0.03138
1561.01089,0.03108
1559.52110,0.01308
1558.03131,0.03970
1556.54152,0.00655
1555.05173,0.03678
1553.56195,0.02294
1552.07216,0.01775
1550.58237,0.00094
1549.09258,0.02824
1547.60279,0.02567
1546.11300,0.03428
1544.62322,0.03582
1543.13343,0.04601
1541.64364,0.04254
1540.15385,0.03353
1538.66406,0.02454
1537.17427,0.02522
1535.68448,0.00261
1534.19470,0.01292
1532.70491,0.01972
1531.21512,0.01843
1529.72533,0.03339
1528.23554,0.00987
1526.74575,0.01678
1525.25597,0.02422
1523.76618,0.00788
1522.27639,0.01032
1520.78660,0.03559
1519.29681,0.00261
1517.80702,0.01638
1516.31724,0.02207
1514.82745,0.01512
1513.33766,0.01403
1511.84787,0.01297
1510.35808,0.01016
1508.86829,0.00738
1507.37850,0.00261
1505.88872,0.01798
1504.39893,0.01210
1502.90914,0.02702
1501.41935,0.02626
1499.92956,0.03162
1498.43977,0.05119
1496.94999,0.07484
1495.46020,0.09447
1493.97041,0.13896
1492.48062,0.17639
1490.99083,0.23158
1489.50104,0.23561
1488.01125,0.28427
1486.52147,0.33296
1485.03168,0.39841
1483.54189,0.42942
1482.05210,0.50151
1480.56231,0.61163
1479.07252,0.67162
1477.58274,0.75393
1476.09295,0.80536
1474.60316,0.90648
1473.11337,0.94377
1471.62358,0.94156
1470.13379,0.96929
1468.64401,0.91646
1467.15422,0.87785
1465.66443,0.85397
1464.17464,0.83012
1462.68485,0.74345
1461.19506,0.71611
1459.70527,0.67511
1458.21549,0.62857
1456.72570,0.57952
1455.23591,0.53658
1453.74612,0.48607
1452.25633,0.49032
1450.76654,0.40845
1449.27676,0.38539
1447.78697,0.36034
1446.29718,0.31453
1444.80739,0.27788
1443.31760,0.24126
1441.82781,0.25078
1440.33802,0.22485
1438.84824,0.15233
1437.35845,0.18222
1435.86866,0.14928
1434.37887,0.14932
1432.88908,0.12101
1431.39929,0.15759
1429.90951,0.11312
1428.41972,0.13861
1426.92993,0.14082
1425.44014,0.17144
1423.95035,0.18435
1422.46056,0.19729
1420.97078,0.21634
1419.48099,0.20704
1417.99120,0.21753
1416.50141,0.19410
1415.01162,0.21275
1413.52183,0.21979
1412.03204,0.22229
1410.54226,0.22380
1409.05247,0.21926
1407.56268,0.20867
1406.07289,0.21585
1404.58310,0.23471
1403.09331,0.25360
1401.60353,0.26289
1400.11374,0.27322
1398.62395,0.30233
1397.13416,0.35580
1395.64437,0.37180
1394.15458,0.42279
1392.66479,0.44644
1391.17501,0.44478
1389.68522,0.49130
1388.19543,0.47602
1386.70564,0.49092
1385.21585,0.50585
1383.72606,0.48711
1382.23628,0.44914
1380.74649,0.45427
1379.25670,0.46653
1377.76691,0.46665
1376.27712,0.51039
1374.78733,0.56986
1373.29755,0.67599
1371.80776,0.76948
1370.31797,0.89290
1368.82818,0.96187
1367.33839,1.03087
1365.84860,1.26080
1364.35881,1.42893
1362.86903,1.54489
1361.37924,1.60057
1359.88945,1.71254
1358.39966,1.79159
1356.90987,1.83874
1355.42008,1.70652
1353.93030,1.58143
1352.44051,1.51869
1350.95072,1.45599
1349.46093,1.33200
1347.97114,1.17053
1346.48135,1.04456
1344.99156,0.96373
1343.50178,0.88090
1342.01199,0.74894
1340.52220,0.61904
1339.03241,0.56214
1337.54262,0.52250
1336.05283,0.50646
1334.56305,0.49045
1333.07326,0.44532
1331.58347,0.39718
1330.09368,0.34198
1328.60389,0.30708
1327.11410,0.29805
1325.62432,0.29159
1324.13453,0.24258
1322.64474,0.24226
1321.15495,0.24905
1319.66516,0.23485
1318.17537,0.22067
1316.68558,0.19715
1315.19580,0.22181
1313.70601,0.19530
1312.21622,0.17339
1310.72643,0.19610
1309.23664,0.19198
1307.74685,0.20512
1306.25707,0.17876
1304.76728,0.17498
1303.27749,0.17123
1301.78770,0.19361
1300.29791,0.17142
1298.80812,0.14014
1297.31834,0.15247
1295.82855,0.19169
1294.33876,0.18482
1292.84897,0.20129
1291.35918,0.20714
1289.86939,0.20746
1288.37960,0.20780
1286.88982,0.17674
1285.40003,0.23289
1283.91024,0.23230
1282.42045,0.25050
1280.93066,0.23578
1279.44087,0.27481
1277.95109,0.22113
1276.46130,0.22778
1274.97151,0.22863
1273.48172,0.22952
1271.99193,0.28187
1270.50214,0.28661
1269.01235,0.32534
1267.52257,0.32456
1266.03278,0.33851
1264.54299,0.36770
1263.05320,0.39742
1261.56341,0.41120
1260.07362,0.42501
1258.58384,0.43201
1257.09405,0.44918
1255.60426,0.43546
1254.11447,0.43900
1252.62468,0.40253
1251.13489,0.38586
1249.64511,0.37479
1248.15532,0.31510
1246.66553,0.29927
1245.17574,0.28347
1243.68595,0.26492
1242.19616,0.22865
1240.70637,0.21624
1239.21659,0.22564
1237.72680,0.18135
1236.23701,0.15838
1234.74722,0.14963
1233.25743,0.14699
1231.76764,0.14437
1230.27786,0.13723
1228.78807,0.12048
1227.29828,0.10731
1225.80849,0.09265
1224.31870,0.09880
1222.82891,0.06189
1221.33912,0.07925
1219.84934,0.07813
1218.35955,0.07705
1216.86976,0.10310
1215.37997,0.09320
1213.89018,0.11121
1212.40039,0.07958
1210.91061,0.04950
1209.42082,0.05796
1207.93103,0.05302
1206.44124,0.04811
1204.95145,0.05869
1203.46166,0.02723
1201.97188,0.05510
1200.48209,0.04751
1198.99230,0.04807
1197.50251,0.04106
1196.01272,0.03305
1194.52293,0.01875
1193.03314,0.00447
1191.54336,0.03507
1190.05357,0.03986
1188.56378,0.00261
1187.07399,0.01354
1185.58420,0.03769
1184.09441,0.07149
1182.60463,0.06122
1181.11484,0.05099
1179.62505,0.04890
1178.13526,0.03720
1176.64547,0.03162
1175.15568,0.04887
1173.66589,0.05804
1172.17611,0.03936
1170.68632,0.02097
1169.19653,0.00261
1167.70674,0.01103
1166.21695,0.02252
1164.72716,0.07002
1163.23738,0.02784
1161.74759,0.02878
1160.25780,0.01910
1158.76801,0.02642
1157.27822,0.03378
1155.78843,0.01152
1154.29865,0.02172
1152.80886,0.00661
1151.31907,0.01028
1149.82928,0.06263
1148.33949,0.09170
1146.84970,0.06809
1145.35991,0.04451
1143.87013,0.03362
1142.38034,0.07142
1140.89055,0.08087
1139.40076,0.11062
1137.91097,0.12671
1136.42118,0.13979
1134.93140,0.14277
1133.44161,0.14577
1131.95182,0.19999
1130.46203,0.20660
1128.97224,0.24010
1127.48245,0.24879
1125.99266,0.29704
1124.50288,0.28958
1123.01309,0.30596
1121.52330,0.32237
1120.03351,0.32361
1118.54372,0.32184
1117.05393,0.34036
1115.56415,0.35790
1114.07436,0.37801
1112.58457,0.39257
1111.09478,0.40715
1109.60499,0.41822
1108.11520,0.45466
1106.62542,0.44754
1105.13563,0.50481
1103.64584,0.56161
1102.15605,0.62046
1100.66626,0.67377
1099.17647,0.72710
1097.68668,0.71965
1096.19690,0.68790
1094.70711,0.69369
1093.21732,0.74612
1091.72753,0.79707
1090.23774,0.82068
1088.74795,0.84432
1087.25817,0.84872
1085.76838,0.90789
1084.27859,0.91844
1082.78880,0.98932
1081.29901,1.01513
1079.80922,1.02779
1078.31943,1.01692
1076.82965,1.00607
1075.33986,1.09585
1073.85007,1.14106
1072.36028,1.17515
1070.87049,1.17431
1069.38070,1.20592
1067.89092,1.20057
1066.40113,1.19525
1064.91134,1.17526
1063.42155,1.05748
1061.93176,1.01171
1060.44197,0.95734
1058.95219,0.89388
1057.46240,0.85959
1055.97261,0.82533
1054.48282,0.80098
1052.99303,0.68291
1051.50324,0.66115
1050.01345,0.58013
1048.52367,0.50724
1047.03388,0.49622
1045.54409,0.48522
1044.05430,0.46867
1042.56451,0.40452
1041.07472,0.30036
1039.58494,0.27072
1038.09515,0.26443
1036.60536,0.24423
1035.11557,0.22406
1033.62578,0.25029
1032.13599,0.26337
1030.64620,0.26989
1029.15642,0.35449
1027.66663,0.35524
1026.17684,0.35602
1024.68705,0.41789
1023.19726,0.53960
1021.70747,0.73685
1020.21769,0.89865
1018.72790,1.07214
1017.23811,1.18053
1015.74832,1.28895
1014.25853,1.49293
1012.76874,1.67464
1011.27896,1.84422
1009.78917,1.95098
1008.29938,2.00000
1006.80959,1.96999
1005.31980,1.94001
1003.83001,1.88421
1002.34022,1.74634
1000.85044,1.61762
999.36065,1.49856
997.87086,1.41855
996.38107,1.33857
994.89128,1.31436
993.40149,1.37381
991.91171,1.37145
990.42192,1.29919
988.93213,1.23811
987.44234,1.20163
985.95255,1.16518
984.46276,1.19084
982.97297,1.17194
981.48319,1.07046
979.99340,0.97508
978.50361,0.98921
977.01382,1.00336
975.52403,0.95470
974.03424,0.90201
972.54446,0.76168
971.05467,0.76125
969.56488,0.72385
968.07509,0.71892
966.58530,0.71402
965.09551,0.70965
963.60573,0.74484
962.11594,0.70353
960.62615,0.55735
959.13636,0.55285
957.64657,0.54837
956.15678,0.47120
954.66699,0.49187
953.17721,0.50192
951.68742,0.47095
950.19763,0.45851
948.70784,0.44610
947.21805,0.42840
945.72826,0.40616
944.23848,0.46200
942.74869,0.47986
941.25890,0.49876
939.76911,0.52250
938.27932,0.54627
936.78953,0.58300
935.29974,0.61671
933.80996,0.53237
932.32017,0.56513
930.83038,0.57537
929.34059,0.58563
927.85080,0.59263
926.36101,0.59104
924.87123,0.54336
923.38144,0.52866
921.89165,0.53019
920.40186,0.53176
918.91207,0.51461
917.42228,0.54208
915.93250,0.58022
914.44271,0.53985
912.95292,0.53598
911.46313,0.53215
909.97334,0.52379
908.48355,0.59248
906.99376,0.59532
905.50398,0.53637
904.01419,0.53851
902.52440,0.54068
901.03461,0.53299
899.54482,0.54105
898.05503,0.55167
896.56525,0.61046
895.07546,0.61657
893.58567,0.62271
892.09588,0.55591
890.60609,0.60620
889.11630,0.58456
887.62651,0.58322
886.13673,0.58469
884.64694,0.58619
883.15715,0.62548
881.66736,0.61767
880.17757,0.59721
878.68778,0.60972
877.19800,0.62227
875.70821,0.65055
874.21842,0.68494
872.72863,0.68896
871.23884,0.76294
869.74905,0.77436
868.25927,0.78581
866.76948,0.80768
865.27969,0.82501
863.78990,0.82616
862.30011,0.80758
860.81032,0.82120
859.32053,0.83485
857.83075,0.79050
856.34096,0.76341
854.85117,0.69784
853.36138,0.65003
851.87159,0.60935
850.38180,0.56869
848.89202,0.49918
847.40223,0.39625
845.91244,0.34199
844.42265,0.33972
842.93286,0.33747
841.44307,0.33550
839.95329,0.27123
838.46350,0.24652
836.97371,0.22640
835.48392,0.22049
833.99413,0.21462
832.50434,0.24070
831.01455,0.24958
829.52477,0.26305
828.03498,0.22384
826.54519,0.20012
825.05540,0.17643
823.56561,0.17278
822.07582,0.17119
820.58604,0.11845
819.09625,0.10957
817.60646,0.10072
816.11667,0.05160
814.62688,0.07499
813.13709,0.00719
811.64730,0.01746
810.15752,0.01002
808.66773,0.00261
807.17794,0.02750
805.68815,0.04127
804.19836,0.06623
802.70857,0.07626
801.21879,0.08632
799.72900,0.14784
798.23921,0.24234
796.74942,0.32369
795.25963,0.36655
793.76984,0.40945
792.28006,0.42449
790.79027,0.47504
789.30048,0.53323
787.81069,0.53823
786.32090,0.54832
784.83111,0.55845
783.34132,0.62688
781.85154,0.63909
780.36175,0.65335
778.87196,0.66233
777.38217,0.67133
775.89238,0.71660
774.40259,0.79331
772.91281,0.77478
771.42302,0.76033
769.93323,0.74591
768.44344,0.68895
766.95365,0.71463
765.46386,0.68915
763.97407,0.64900
762.48429,0.59443
760.99450,0.53990
759.50471,0.44054
758.01492,0.40406
756.52513,0.33010
755.03534,0.28353
753.54556,0.23700
752.05577,0.19556
750.56598,0.16277
749.07619,0.09655
747.58640,0.08941
746.09661,0.08230
744.60683,0.06786
743.11704,0.05042
741.62725,0.04922
740.13746,0.03386
738.64767,0.01853
737.15788,0.02350
735.66809,0.02140
734.17831,0.00261
732.68852,0.01320
731.19873,0.02383
729.70894,0.03195
728.21915,0.01578
726.72936,0.00368
725.23958,0.01777
723.74979,0.01009
722.26000,0.00244
720.77021,0.04487
719.28042,0.03868
717.79063,0.02643
716.30084,0.03195
714.81106,0.03750
713.32127,0.00000
711.83148,0.01942
710.34169,0.01556
708.85190,0.02136
707.36211,0.02718
705.87233,0.01884
704.38254,0.00395
702.89275,0.01858
701.40296,0.01474
699.91317,0.01093
698.42338,0.07227
696.93360,0.07080
695.44381,0.09622
693.95402,0.10874
692.46423,0.12130
690.97444,0.09815
689.48465,0.11355
687.99486,0.15887
686.50508,0.15837
685.01529,0.15789
683.52550,0.19063
682.03571,0.18692
680.54592,0.16194
679.05613,0.15068
677.56635,0.13945
676.07656,0.10494
674.58677,0.10137
673.09698,0.09225
671.60719,0.08671
670.11740,0.08120
668.62761,0.06812
667.13783,0.05760
665.64804,0.05572
664.15825,0.05387
662.66846,0.05256
661.17867,0.04317
659.68888,0.04546
658.19910,0.05589
656.70931,0.06635
655.21952,0.07481
653.72973,0.07418
652.23994,0.09030
650.75015,0.07605
649.26037,0.06182
647.77058,0.04711
646.28079,0.04156
644.79100,0.02336
643.30121,0.03358
641.81142,0.04382
640.32163,0.04345
638.83185,0.03196
637.34206,0.00935
635.85227,0.00596
634.36248,0.00261
632.87269,0.00641
631.38290,0.05535
629.89312,0.01614
628.40333,0.01548
626.91354,0.01484
625.42375,0.05274
623.93396,0.04304
622.44417,0.05617
620.95438,0.06933
619.46460,0.04046
617.97481,0.03898
616.48502,0.06490
614.99523,0.08350
613.50544,0.10212
612.01565,0.09012
610.52587,0.07155
609.03608,0.09001
607.54629,0.09330
606.05650,0.09661
604.56671,0.12986
603.07692,0.18036
601.58714,0.16476
600.09735,0.14918
598.60756,0.14048
597.11777,0.09227
595.62798,0.09984
594.13819,0.08236
592.64840,0.06490
591.15862,0.09283
589.66883,0.06048
588.17904,0.06972
586.68925,0.06530
585.19946,0.06091
583.70967,0.10318
582.21989,0.06996
580.73010,0.08643
579.24031,0.10294
577.75052,0.08653
576.26073,0.11171
574.77094,0.11969
573.28115,0.12718
571.79137,0.13471
570.30158,0.23653
568.81179,0.20256
567.32200,0.22918
565.83221,0.25583
564.34242,0.22448
562.85264,0.27678
561.36285,0.34076
559.87306,0.34979
558.38327,0.35884
556.89348,0.45230
555.40369,0.45914
553.91391,0.45966
552.42412,0.46022
550.93433,0.49907
549.44454,0.50297
547.95475,0.50640
546.46496,0.50961
544.97517,0.51284
543.48539,0.59238
541.99560,0.62177
540.50581,0.63522
539.01602,0.64871
537.52623,0.63308
536.03644,0.57846
534.54666,0.54110
533.05687,0.53925
531.56708,0.53742
530.07729,0.50167
528.58750,0.49635
527.09771,0.48651
525.60792,0.47669
524.11814,0.45727
522.62835,0.44750
521.13856,0.37949
519.64877,0.36548
518.15898,0.35150
516.66919,0.27698
515.17941,0.29017
513.68962,0.28489
512.19983,0.27964
510.71004,0.24933
509.22025,0.26416
507.73046,0.28864
506.24068,0.27945
504.75089,0.27029
503.26110,0.30753
501.77131,0.30577
500.28152,0.30303
498.79173,0.30032
497.30194,0.28903
495.81216,0.28029
494.32237,0.29515
492.83258,0.31004
491.34279,0.32217
489.85300,0.28366
488.36321,0.23959
486.87343,0.19327
485.38364,0.14699
483.89385,0.21096
482.40406,0.13103
480.91427,0.12765
479.42448,0.12430
477.93469,0.08348
476.44491,0.09489
474.95512,0.08783
473.46533,0.08079
471.97554,0.01779
470.48575,0.04419
468.99596,0.02957
467.50618,0.03246
466.01639,0.03539
464.52660,0.00261
463.03681,0.03991
461.54702,0.04480
460.05723,0.04972
458.56745,0.03845
457.07766,0.07282
455.58787,0.07276
454.09808,0.07273
452.60829,0.11479
451.11850,0.09759
449.62871,0.13920
448.13893,0.18084
446.64914,0.21339
445.15935,0.30729
443.66956,0.36321
442.17977,0.38951
440.68998,0.41584
439.20020,0.44447
437.71041,0.55119
436.22062,0.60497
434.73083,0.65878
433.24104,0.75392
431.75125,0.88609
430.26146,0.91364
428.77168,0.94121
427.28189,0.97515
425.79210,1.01570
424.30231,1.02639
422.81252,1.03710
421.32273,1.02605
419.83295,0.90404
418.34316,0.86011
416.85337,0.81620
415.36358,0.71354
413.87379,0.62408
412.38400,0.58077
410.89422,0.53749
409.40443,0.51045
407.91464,0.52297
406.42485,0.45647
404.93506,0.42876
403.44527,0.40108
401.95548,0.39091
400.46570,0.37216
398.97591,0.37725
397.48612,0.38237
395.99633,0.40982
394.50654,0.40538
393.01675,0.41996
391.52697,0.43458
390.03718,0.33747
388.54739,0.30983
387.05760,0.32098
385.56781,0.33216
384.07802,0.33400
382.58824,0.29887
381.09845,0.26757
379.60866,0.23630
378.11887,0.21747
376.62908,0.18702
375.13929,0.17458
373.64950,0.16218
372.15972,0.16931
370.66993,0.12428
369.18014,0.09625
367.69035,0.06825
366.20056,0.06790
364.71077,0.03717
363.22099,0.05563
361.73120,0.07412
360.24141,0.08605
358.75162,0.03820
357.26183,0.04842
355.77204,0.05866
354.28225,0.08692
352.79247,0.01233
351.30268,0.00745
349.81289,0.00261
348.32310,0.04006
346.83331,0.04511
345.34352,0.05424
343.85374,0.06340
342.36395,0.07715
340.87416,0.11323
339.38437,0.10322
337.89458,0.09324
336.40479,0.10103
334.91501,0.07894
333.42522,0.07462
331.93543,0.07033
330.44564,0.10154
328.95585,0.11606
327.46606,0.07309
325.97627,0.03014
324.48649,0.01962
322.99670,0.03042
321.50691,0.04099
320.01712,0.05159
318.52733,0.08274
317.03754,0.11442
315.54776,0.11447
314.05797,0.11454
312.56818,0.05256
311.07839,0.06916
309.58860,0.03587
308.09881,0.00261
306.60902,0.01005
305.11924,0.04540
303.62945,0.04074
302.13966,0.03611
300.64987,0.00870
299.16008,0.00261
