1778.52000,0.04972
1777.03021,0.07606
1775.54042,0.07863
1774.05063,0.07266
1772.56085,0.04481
1771.07106,0.00272
1769.58127,0.05780
1768.09148,0.03483
1766.60169,0.04236
1765.11190,0.02898
1763.62212,0.07563
1762.13233,0.04994
1760.64254,0.04523
1759.15275,0.05865
1757.66296,0.08068
1756.17317,0.02750
1754.68339,0.04198
1753.19360,0.03745
1751.70381,0.01581
1750.21402,0.03134
1748.72423,0.04786
1747.23444,0.04633
1745.74465,0.03244
1744.25487,0.05764
1742.76508,0.05240
1741.27529,0.05576
1739.78550,0.05154
1738.29571,0.05306
1736.80592,0.02510
1735.31614,0.03432
1733.82635,0.07309
1732.33656,0.01571
1730.84677,0.06027
1729.35698,0.01533
1727.86719,0.00758
1726.37740,0.00272
1724.88762,0.03336
1723.39783,0.03165
1721.90804,0.02331
1720.41825,0.07215
1718.92846,0.03817
1717.43867,0.04517
1715.94889,0.02364
1714.45910,0.05929
1712.96931,0.06925
1711.47952,0.03544
1709.98973,0.07214
1708.49994,0.05078
1707.01016,0.05708
1705.52037,0.06341
1704.03058,0.08215
1702.54079,0.05522
1701.05100,0.08260
1699.56121,0.09479
1698.07142,0.10319
1696.58164,0.09735
1695.09185,0.11249
1693.60206,0.14577
1692.11227,0.15146
1690.62248,0.18766
1689.13269,0.20389
1687.64291,0.17159
1686.15312,0.17075
1684.66333,0.17661
1683.17354,0.15489
1681.68375,0.21511
1680.19396,0.15060
1678.70417,0.14422
1677.21439,0.21597
1675.72460,0.18966
1674.23481,0.18719
1672.74502,0.15714
1671.25523,0.16141
1669.76544,0.18000
1668.27566,0.14434
1666.78587,0.13253
1665.29608,0.15217
1663.80629,0.14424
1662.31650,0.21919
1660.82671,0.19132
1659.33693,0.17587
1657.84714,0.14045
1656.35735,0.15555
1654.86756,0.13543
1653.37777,0.07917
1651.88798,0.12579
1650.39819,0.11912
1648.90841,0.13058
1647.41862,0.10778
1645.92883,0.09550
1644.43904,0.08325
1642.94925,0.11009
1641.45946,0.18458
1639.96968,0.16767
1638.47989,0.13556
1636.99010,0.07586
1635.50031,0.11811
1634.01052,0.11849
1632.52073,0.08366
1631.03094,0.12601
1629.54116,0.14744
1628.05137,0.16891
1626.56158,0.13136
1625.07179,0.20242
1623.58200,0.15732
1622.09221,0.15226
1620.60243,0.21581
1619.11264,0.14986
1617.62285,0.16967
1616.13306,0.14856
1614.64327,0.15319
1613.15348,0.17120
1611.66370,0.15876
1610.17391,0.16350
1608.68412,0.11494
1607.19433,0.13594
1605.70454,0.16078
1604.21475,0.14662
1602.72496,0.13248
1601.23518,0.12600
1599.74539,0.16813
1598.25560,0.09981
1596.76581,0.14201
1595.27602,0.13852
1593.78623,0.08745
1592.29645,0.12404
1590.80666,0.07399
1589.31687,0.05541
1587.82708,0.07305
1586.33729,0.10977
1584.84750,0.07891
1583.35771,0.07475
1581.86793,0.10015
1580.37814,0.10559
1578.88835,0.02820
1577.39856,0.04418
1575.90877,0.05638
1574.41898,0.05338
1572.92920,0.03613
1571.43941,0.05320
1569.94962,0.05269
1568.45983,0.05221
1566.97004,0.00272
1565.48025,0.04715
1563.99047,0.05924
1562.50068,0.04088
1561.01089,0.04066
1559.52110,0.07856
1558.03131,0.08888
1556.54152,0.10209
1555.05173,0.06486
1553.56195,0.05053
1552.07216,0.03813
1550.58237,0.08005
1549.09258,0.08201
1547.60279,0.06495
1546.11300,0.05174
1544.62322,0.08047
1543.13343,0.05970
1541.64364,0.02088
1540.15385,0.01971
1538.66406,0.01858
1537.17427,0.00272
1535.68448,0.00654
1534.19470,0.01992
1532.70491,0.00000
1531.21512,0.01440
1529.72533,0.01265
1528.23554,0.03093
1526.74575,0.03210
1525.25597,0.07521
1523.76618,0.01455
1522.27639,0.02154
1520.78660,0.02475
1519.29681,0.02800
1517.80702,0.00272
1516.31724,0.01235
1514.82745,0.07536
1513.33766,0.06220
1511.84787,0.04908
1510.35808,0.03695
1508.86829,0.00485
1507.37850,0.04613
1505.88872,0.02172
1504.39893,0.01353
1502.90914,0.00729
1501.41935,0.02489
1499.92956,0.03205
1498.43977,0.07543
1496.94999,0.09790
1495.46020,0.11469
1493.97041,0.12961
1492.48062,0.20170
1490.99083,0.21859
1489.50104,0.25838
1488.01125,0.31010
1486.52147,0.36186
1485.03168,0.42365
1483.54189,0.51215
1482.05210,0.49115
1480.56231,0.60638
1479.07252,0.79689
1477.58274,0.86743
1476.09295,0.96657
1474.60316,0.91051
1473.11337,0.99925
1471.62358,1.04516
1470.13379,0.95873
1468.64401,0.96090
1467.15422,0.97644
1465.66443,0.94345
1464.17464,0.91048
1462.68485,0.80232
1461.19506,0.78276
1459.70527,0.80990
1458.21549,0.76470
1456.72570,0.69858
1455.23591,0.56011
1453.74612,0.53882
1452.25633,0.46708
1450.76654,0.42110
1449.27676,0.45039
1447.78697,0.43305
1446.29718,0.37479
1444.80739,0.36799
1443.31760,0.36123
1441.82781,0.33070
1440.33802,0.20496
1438.84824,0.13639
1437.35845,0.08691
1435.86866,0.14033
1434.37887,0.20711
1432.88908,0.11678
1431.39929,0.12553
1429.90951,0.22004
1428.41972,0.18029
1426.92993,0.13296
1425.44014,0.19519
1423.95035,0.21221
1422.46056,0.22927
1420.97078,0.15922
1419.48099,0.23016
1417.99120,0.20494
1416.50141,0.21214
1415.01162,0.18413
1413.52183,0.22664
1412.03204,0.29108
1410.54226,0.30318
1409.05247,0.23721
1407.56268,0.26081
1406.07289,0.23873
1404.58310,0.24953
1403.09331,0.26038
1401.60353,0.26887
1400.11374,0.31550
1398.62395,0.37836
1397.13416,0.37838
1395.64437,0.42797
1394.15458,0.45855
1392.66479,0.46916
1391.17501,0.51218
1389.68522,0.49715
1388.19543,0.52405
1386.70564,0.51575
1385.21585,0.50749
1383.72606,0.53545
1382.23628,0.53202
1380.74649,0.51243
1379.25670,0.53859
1377.76691,0.57621
1376.27712,0.62911
1374.78733,0.59251
1373.29755,0.66643
1371.80776,0.78991
1370.31797,0.92485
1368.82818,1.02078
1367.33839,1.11675
1365.84860,1.20512
1364.35881,1.40211
1362.86903,1.58199
1361.37924,1.65238
1359.88945,1.75994
1358.39966,1.78754
1356.90987,1.80565
1355.42008,1.77713
1353.93030,1.65816
1352.44051,1.61447
1350.95072,1.57081
1349.46093,1.43480
1347.97114,1.40455
1346.48135,1.09527
1344.99156,0.94413
1343.50178,0.91208
1342.01199,0.81148
1340.52220,0.70997
1339.03241,0.61230
1337.54262,0.53562
1336.05283,0.50945
1334.56305,0.48332
1333.07326,0.50770
1331.58347,0.40544
1330.09368,0.31560
1328.60389,0.38961
1327.11410,0.29603
1325.62432,0.31391
1324.13453,0.31660
1322.64474,0.30979
1321.15495,0.40302
1319.66516,0.38295
1318.17537,0.36291
1316.68558,0.30100
1315.19580,0.28294
1313.70601,0.26396
1312.21622,0.22310
1310.72643,0.11372
1309.23664,0.18722
1307.74685,0.21886
1306.25707,0.23719
1304.76728,0.23414
1303.27749,0.23111
1301.78770,0.26765
1300.29791,0.17088
1298.80812,0.21225
1297.31834,0.30794
1295.82855,0.24175
1294.33876,0.31275
1292.84897,0.19521
1291.35918,0.20341
1289.86939,0.21594
1288.37960,0.22850
1286.88982,0.21777
1285.40003,0.23659
1283.91024,0.30021
1282.42045,0.31910
1280.93066,0.33707
1279.44087,0.35603
1277.95109,0.29598
1276.46130,0.33882
1274.97151,0.35550
1273.48172,0.37222
1271.99193,0.35421
1270.50214,0.38005
1269.01235,0.38497
1267.52257,0.41468
1266.03278,0.42634
1264.54299,0.48469
1263.05320,0.54689
1261.56341,0.51722
1260.07362,0.48759
1258.58384,0.48037
1257.09405,0.50937
1255.60426,0.52222
1254.11447,0.52367
1252.62468,0.47469
1251.13489,0.47526
1249.64511,0.44920
1248.15532,0.36984
1246.66553,0.36194
1245.17574,0.35408
1243.68595,0.33102
1242.19616,0.30989
1240.70637,0.30499
1239.21659,0.27822
1237.72680,0.33720
1236.23701,0.27431
1234.74722,0.20479
1233.25743,0.19625
1231.76764,0.18775
1230.27786,0.23357
1228.78807,0.19752
1227.29828,0.20341
1225.80849,0.14552
1224.31870,0.16005
1222.82891,0.16605
1221.33912,0.16255
1219.84934,0.16814
1218.35955,0.17376
1216.86976,0.16941
1215.37997,0.18320
1213.89018,0.20750
1212.40039,0.15373
1210.91061,0.13810
1209.42082,0.11297
1207.93103,0.14122
1206.44124,0.16950
1204.95145,0.17401
1203.46166,0.10521
1201.97188,0.11359
1200.48209,0.17154
1198.99230,0.13237
1197.50251,0.01800
1196.01272,0.07224
1194.52293,0.03746
1193.03314,0.00272
1191.54336,0.08682
1190.05357,0.10809
1188.56378,0.09702
1187.07399,0.08598
1185.58420,0.01783
1184.09441,0.11068
1182.60463,0.10974
1181.11484,0.10885
1179.62505,0.12655
1178.13526,0.09001
1176.64547,0.05350
1175.15568,0.05607
1173.66589,0.08249
1172.17611,0.05466
1170.68632,0.05257
1169.19653,0.05052
1167.70674,0.05613
1166.21695,0.00272
1164.72716,0.04306
1163.23738,0.03107
1161.74759,0.04672
1160.25780,0.01574
1158.76801,0.04099
1157.27822,0.06627
1155.78843,0.10778
1154.29865,0.00646
1152.80886,0.08423
1151.31907,0.01917
1149.82928,0.08749
1148.33949,0.08726
1146.84970,0.09469
1145.35991,0.10216
1143.87013,0.02489
1142.38034,0.11433
1140.89055,0.10190
1139.40076,0.09712
1137.91097,0.15904
1136.42118,0.17243
1134.93140,0.18538
1133.44161,0.19836
1131.95182,0.27852
1130.46203,0.34538
1128.97224,0.29417
1127.48245,0.35825
1125.99266,0.31568
1124.50288,0.30173
1123.01309,0.32067
1121.52330,0.33964
1120.03351,0.38769
1118.54372,0.42531
1117.05393,0.45153
1115.56415,0.49302
1114.07436,0.47073
1112.58457,0.44658
1111.09478,0.42246
1109.60499,0.43266
1108.11520,0.53719
1106.62542,0.53031
1105.13563,0.62157
1103.64584,0.71096
1102.15605,0.76991
1100.66626,0.76842
1099.17647,0.76696
1097.68668,0.72124
1096.19690,0.84890
1094.70711,0.87850
1093.21732,0.83099
1091.72753,0.97399
1090.23774,0.94131
1088.74795,0.90866
1087.25817,0.94319
1085.76838,1.01776
1084.27859,1.18284
1082.78880,1.14510
1081.29901,1.14453
1079.80922,1.12590
1078.31943,1.15826
1076.82965,1.19065
1075.33986,1.30451
1073.85007,1.37936
1072.36028,1.29995
1070.87049,1.26820
1069.38070,1.30981
1067.89092,1.35908
1066.40113,1.40838
1064.91134,1.35486
1063.42155,1.25852
1061.93176,1.08221
1060.44197,1.06879
1058.95219,0.95255
1057.46240,0.94444
1055.97261,0.93637
1054.48282,0.86404
1052.99303,0.83175
1051.50324,0.73473
1050.01345,0.65870
1048.52367,0.61890
1047.03388,0.61246
1045.54409,0.60606
1044.05430,0.60541
1042.56451,0.43431
1041.07472,0.37753
1039.58494,0.30079
1038.09515,0.27932
1036.60536,0.28265
1035.11557,0.28602
1033.62578,0.36752
1032.13599,0.31095
1030.64620,0.30966
1029.15642,0.39221
1027.66663,0.36908
1026.17684,0.34599
1024.68705,0.41817
1023.19726,0.52753
1021.70747,0.68454
1020.21769,0.84159
1018.72790,1.00248
1017.23811,1.12151
1015.74832,1.24056
1014.25853,1.44537
1012.76874,1.73021
1011.27896,1.91795
1009.78917,2.00000
1008.29938,1.93827
1006.80959,1.91325
1005.31980,1.88826
1003.83001,1.82283
1002.34022,1.80219
1000.85044,1.68350
999.36065,1.61436
997.87086,1.55954
996.38107,1.50476
994.89128,1.52240
993.40149,1.59245
991.91171,1.53110
990.42192,1.52694
988.93213,1.38471
987.44234,1.33728
985.95255,1.28988
984.46276,1.30586
982.97297,1.25900
981.48319,1.29124
979.99340,1.09874
978.50361,1.09533
977.01382,1.09195
975.52403,1.08813
974.03424,1.08054
972.54446,1.04536
971.05467,0.91307
969.56488,0.94558
968.07509,0.92051
966.58530,0.89547
965.09551,0.79856
963.60573,0.83882
962.11594,0.75436
960.62615,0.70613
959.13636,0.67364
957.64657,0.64119
956.15678,0.61973
954.66699,0.54211
953.17721,0.56262
951.68742,0.58602
950.19763,0.56899
948.70784,0.55198
947.21805,0.54692
945.72826,0.52189
944.23848,0.51594
942.74869,0.51193
941.25890,0.59463
939.76911,0.59497
938.27932,0.59536
936.78953,0.77721
935.29974,0.68765
933.80996,0.66481
932.32017,0.76485
930.83038,0.80160
929.34059,0.83838
927.85080,0.74234
926.36101,0.69395
924.87123,0.64940
923.38144,0.61061
921.89165,0.60613
920.40186,0.60169
918.91207,0.64015
917.42228,0.68530
915.93250,0.60192
914.44271,0.68047
912.95292,0.71478
911.46313,0.74912
909.97334,0.83254
908.48355,0.81314
906.99376,0.82521
905.50398,0.70587
904.01419,0.68277
902.52440,0.65970
901.03461,0.75857
899.54482,0.77557
898.05503,0.70498
896.56525,0.82967
895.07546,0.80725
893.58567,0.78486
892.09588,0.76965
890.60609,0.76876
889.11630,0.77934
887.62651,0.83756
886.13673,0.80345
884.64694,0.76936
883.15715,0.81912
881.66736,0.84225
880.17757,0.83304
878.68778,0.84719
877.19800,0.86137
875.70821,0.88559
874.21842,0.92128
872.72863,0.95604
871.23884,0.93180
869.74905,0.96473
868.25927,0.99769
866.76948,0.97450
865.27969,1.05897
863.78990,1.11394
862.30011,1.04704
860.81032,1.06209
859.32053,1.07717
857.83075,0.96085
856.34096,0.93599
854.85117,0.94546
853.36138,0.88449
851.87159,0.81402
850.38180,0.74359
848.89202,0.67891
847.40223,0.55903
845.91244,0.49156
844.42265,0.46841
842.93286,0.44530
841.44307,0.38651
839.95329,0.40204
838.46350,0.36236
836.97371,0.33129
835.48392,0.33740
833.99413,0.34354
832.50434,0.35639
831.01455,0.28927
829.52477,0.36885
828.03498,0.30085
826.54519,0.27574
825.05540,0.25066
823.56561,0.26657
822.07582,0.24632
820.58604,0.15849
819.09625,0.16641
817.60646,0.17437
816.11667,0.14855
814.62688,0.15324
813.13709,0.08272
811.64730,0.00272
810.15752,0.02444
808.66773,0.04620
807.17794,0.03894
805.68815,0.09648
804.19836,0.09596
802.70857,0.12071
801.21879,0.14550
799.72900,0.18318
798.23921,0.29423
796.74942,0.38245
795.25963,0.41690
793.76984,0.45139
792.28006,0.50924
790.79027,0.57665
789.30048,0.71839
787.81069,0.66492
786.32090,0.66100
784.83111,0.65712
783.34132,0.83423
781.85154,0.81042
780.36175,0.81808
778.87196,0.81434
777.38217,0.81063
775.89238,0.85934
774.40259,0.88618
772.91281,0.99687
771.42302,0.98140
769.93323,0.96596
768.44344,0.96246
766.95365,0.95328
765.46386,0.95748
763.97407,0.91122
762.48429,0.86024
760.99450,0.80930
759.50471,0.71363
758.01492,0.58847
756.52513,0.53477
755.03534,0.47349
753.54556,0.41224
752.05577,0.26150
750.56598,0.14222
749.07619,0.16870
747.58640,0.15569
746.09661,0.14271
744.60683,0.10548
743.11704,0.04924
741.62725,0.09113
740.13746,0.09163
738.64767,0.09216
737.15788,0.00272
735.66809,0.04505
734.17831,0.07408
732.68852,0.10743
731.19873,0.14082
729.70894,0.11185
728.21915,0.10102
726.72936,0.07499
725.23958,0.04423
723.74979,0.05778
722.26000,0.07138
720.77021,0.10453
719.28042,0.10724
717.79063,0.05951
716.30084,0.05896
714.81106,0.05844
713.32127,0.04700
711.83148,0.04607
710.34169,0.02899
708.85190,0.02052
707.36211,0.01208
705.87233,0.00272
704.38254,0.06105
702.89275,0.06704
701.40296,0.12211
699.91317,0.17721
698.42338,0.09758
696.93360,0.10752
695.44381,0.17844
693.95402,0.12701
692.46423,0.07562
690.97444,0.16379
689.48465,0.27199
687.99486,0.25547
686.50508,0.26374
685.01529,0.27205
683.52550,0.24610
682.03571,0.23733
680.54592,0.17241
679.05613,0.16752
677.56635,0.16267
676.07656,0.21404
674.58677,0.18068
673.09698,0.16831
671.60719,0.18027
670.11740,0.19225
668.62761,0.04856
667.13783,0.04585
665.64804,0.05890
664.15825,0.07197
662.66846,0.10842
661.17867,0.12966
659.68888,0.10523
658.19910,0.14559
656.70931,0.18598
655.21952,0.17784
653.72973,0.10211
652.23994,0.09785
650.75015,0.10314
649.26037,0.10847
647.77058,0.13098
646.28079,0.15828
644.79100,0.10467
643.30121,0.08537
641.81142,0.06611
640.32163,0.12308
638.83185,0.10770
637.34206,0.03807
635.85227,0.02038
634.36248,0.00272
632.87269,0.10465
631.38290,0.08757
629.89312,0.06386
628.40333,0.06257
626.91354,0.06130
625.42375,0.02531
623.93396,0.15889
622.44417,0.14535
620.95438,0.13185
619.46460,0.17695
617.97481,0.14304
616.48502,0.11392
614.99523,0.13199
613.50544,0.15009
612.01565,0.07155
610.52587,0.11115
609.03608,0.15649
607.54629,0.15378
606.05650,0.15110
604.56671,0.29084
603.07692,0.21727
601.58714,0.20136
600.09735,0.18549
598.60756,0.21203
597.11777,0.11670
595.62798,0.12140
594.13819,0.12948
592.64840,0.13758
591.15862,0.09096
589.66883,0.11581
588.17904,0.18545
586.68925,0.13322
585.19946,0.08102
583.70967,0.11077
582.21989,0.16436
580.73010,0.17513
579.24031,0.18593
577.75052,0.22819
576.26073,0.19716
574.77094,0.15854
573.28115,0.18710
571.79137,0.21569
570.30158,0.29337
568.81179,0.32347
567.32200,0.32835
565.83221,0.33328
564.34242,0.34633
562.85264,0.46704
561.36285,0.41445
559.87306,0.42665
558.38327,0.43889
556.89348,0.53879
555.40369,0.49776
553.91391,0.54153
552.42412,0.58534
550.93433,0.65490
549.44454,0.69306
547.95475,0.76936
546.46496,0.77806
544.97517,0.78681
543.48539,0.79558
541.99560,0.81392
540.50581,0.78038
539.01602,0.74688
537.52623,0.76056
536.03644,0.70379
534.54666,0.69849
533.05687,0.72799
531.56708,0.75752
530.07729,0.76375
528.58750,0.67002
527.09771,0.64441
525.60792,0.61884
524.11814,0.54045
522.62835,0.51257
521.13856,0.54758
519.64877,0.48025
518.15898,0.41294
516.66919,0.50044
515.17941,0.47083
513.68962,0.41554
512.19983,0.36028
510.71004,0.38411
509.22025,0.33178
507.73046,0.35567
506.24068,0.40437
504.75089,0.45309
503.26110,0.46757
501.77131,0.40398
500.28152,0.40091
498.79173,0.39787
497.30194,0.36486
495.81216,0.40142
494.32237,0.41420
492.83258,0.42701
491.34279,0.42272
489.85300,0.49751
488.36321,0.38185
486.87343,0.32051
485.38364,0.25921
483.89385,0.33319
482.40406,0.32339
480.91427,0.27076
479.42448,0.21818
477.93469,0.22276
476.44491,0.19691
474.95512,0.15062
473.46533,0.10436
471.97554,0.13670
470.48575,0.06623
468.99596,0.09483
467.50618,0.08109
466.01639,0.06739
464.52660,0.03705
463.03681,0.00961
461.54702,0.01029
460.05723,0.01101
458.56745,0.00272
457.07766,0.09511
455.58787,0.12707
454.09808,0.15906
452.60829,0.22013
451.11850,0.16695
449.62871,0.18571
448.13893,0.20450
446.64914,0.31142
445.15935,0.47267
443.66956,0.55395
442.17977,0.52050
440.68998,0.48709
439.20020,0.64943
437.71041,0.77751
436.22062,0.84373
434.73083,0.90998
433.24104,0.95817
431.75125,1.22354
430.26146,1.29561
428.77168,1.36771
427.28189,1.32556
425.79210,1.41202
424.30231,1.39708
422.81252,1.38218
421.32273,1.30017
419.83295,1.27152
418.34316,1.19291
416.85337,1.11434
415.36358,0.93722
413.87379,0.77538
412.38400,0.73120
410.89422,0.68705
409.40443,0.72531
407.91464,0.65885
406.42485,0.54195
404.93506,0.54603
403.44527,0.55015
401.95548,0.54954
400.46570,0.56612
398.97591,0.55367
397.48612,0.54126
395.99633,0.70270
394.50654,0.66322
393.01675,0.60520
391.52697,0.54722
390.03718,0.44212
388.54739,0.46564
387.05760,0.46919
385.56781,0.47277
384.07802,0.52401
382.58824,0.41718
381.09845,0.36230
379.60866,0.30745
378.11887,0.38930
376.62908,0.37500
375.13929,0.31359
373.64950,0.25221
372.15972,0.20182
370.66993,0.21813
369.18014,0.19400
367.69035,0.16990
366.20056,0.13203
364.71077,0.12848
363.22099,0.14830
361.73120,0.16816
360.24141,0.13804
358.75162,0.12511
357.26183,0.13126
355.77204,0.13744
354.28225,0.13032
352.79247,0.06514
351.30268,0.07565
349.81289,0.08618
348.32310,0.07104
346.83331,0.12809
345.34352,0.09850
343.85374,0.06894
342.36395,0.09371
340.87416,0.08137
339.38437,0.12716
337.89458,0.17298
336.40479,0.10646
334.91501,0.10283
333.42522,0.08685
331.93543,0.07091
330.44564,0.18643
328.95585,0.15627
327.46606,0.14043
325.97627,0.12463
324.48649,0.10695
322.99670,0.15897
321.50691,0.16864
320.01712,0.17835
318.52733,0.20571
317.03754,0.15500
315.54776,0.12005
314.05797,0.08513
312.56818,0.07644
311.07839,0.02397
309.58860,0.01333
308.09881,0.00272
306.60902,0.01577
305.11924,0.05456
303.62945,0.05482
302.13966,0.04504
300.64987,0.03005
299.16008,0.00272
