1778.52000,0.07302
1777.03021,0.04731
1775.54042,0.04597
1774.05063,0.01060
1772.56085,0.03732
1771.07106,0.03122
1769.58127,0.04097
1768.09148,0.06293
1766.60169,0.03989
1765.11190,0.05705
1763.62212,0.03651
1762.13233,0.07078
1760.64254,0.02719
1759.15275,0.08586
1757.66296,0.07642
1756.17317,0.04997
1754.68339,0.03816
1753.19360,0.08115
1751.70381,0.02803
1750.21402,0.01998
1748.72423,0.04672
1747.23444,0.02846
1745.74465,0.06257
1744.25487,0.06143
1742.76508,0.07126
1741.27529,0.05315
1739.78550,0.07887
1738.29571,0.04014
1736.80592,0.04281
1735.31614,0.03578
1733.82635,0.04583
1732.33656,0.01940
1730.84677,0.05872
1729.35698,0.05792
1727.86719,0.06445
1726.37740,0.07223
1724.88762,0.06666
1723.39783,0.03435
1721.90804,0.01060
1720.41825,0.01600
1718.92846,0.02631
1717.43867,0.03909
1715.94889,0.01904
1714.45910,0.03067
1712.96931,0.07398
1711.47952,0.07229
1709.98973,0.03899
1708.49994,0.01060
1707.01016,0.05623
1705.52037,0.10189
1704.03058,0.10622
1702.54079,0.11423
1701.05100,0.11497
1699.56121,0.11087
1698.07142,0.15306
1696.58164,0.12956
1695.09185,0.16939
1693.60206,0.16543
1692.11227,0.18707
1690.62248,0.20874
1689.13269,0.15742
1687.64291,0.19498
1686.15312,0.21189
1684.66333,0.24587
1683.17354,0.21416
1681.68375,0.28715
1680.19396,0.20927
1678.70417,0.21174
1677.21439,0.23737
1675.72460,0.24113
1674.23481,0.25710
1672.74502,0.24997
1671.25523,0.21854
1669.76544,0.28694
1668.27566,0.26288
1666.78587,0.25224
1665.29608,0.25867
1663.80629,0.22255
1662.31650,0.21080
1660.82671,0.24046
1659.33693,0.21417
1657.84714,0.19157
1656.35735,0.24445
1654.86756,0.19271
1653.37777,0.18603
1651.88798,0.17452
1650.39819,0.14357
1648.90841,0.17594
1647.41862,0.15358
1645.92883,0.16837
1644.43904,0.18320
1642.94925,0.19015
1641.45946,0.20808
1639.96968,0.22849
1638.47989,0.16496
1636.99010,0.20612
1635.50031,0.21811
1634.01052,0.18876
1632.52073,0.23976
1631.03094,0.19100
1629.54116,0.18366
1628.05137,0.27249
1626.56158,0.27495
1625.07179,0.28596
1623.58200,0.33230
1622.09221,0.28984
1620.60243,0.34720
1619.11264,0.33644
1617.62285,0.35615
1616.13306,0.30043
1614.64327,0.29343
1613.15348,0.28403
1611.66370,0.26006
1610.17391,0.28602
1608.68412,0.36070
1607.19433,0.25407
1605.70454,0.30083
1604.21475,0.29589
1602.72496,0.29099
1601.23518,0.31351
1599.74539,0.30076
1598.25560,0.28441
1596.76581,0.22184
1595.27602,0.26518
1593.78623,0.24405
1592.29645,0.21080
1590.80666,0.23112
1589.31687,0.18698
1587.82708,0.21954
1586.33729,0.26552
1584.84750,0.18010
1583.35771,0.13610
1581.86793,0.16758
1580.37814,0.20883
1578.88835,0.20144
1577.39856,0.16974
1575.90877,0.11009
1574.41898,0.14052
1572.92920,0.09432
1571.43941,0.10171
1569.94962,0.07870
1568.45983,0.05573
1566.97004,0.09729
1565.48025,0.13158
1563.99047,0.11601
1562.50068,0.07249
1561.01089,0.09593
1559.52110,0.07073
1558.03131,0.16240
1556.54152,0.11536
1555.05173,0.18397
1553.56195,0.08224
1552.07216,0.14727
1550.58237,0.09306
1549.09258,0.06202
1547.60279,0.12715
1546.11300,0.07183
1544.62322,0.16259
1543.13343,0.15116
1541.64364,0.12880
1540.15385,0.11135
1538.66406,0.09393
1537.17427,0.12280
1535.68448,0.10910
1534.19470,0.09665
1532.70491,0.04530
1531.21512,0.06091
1529.72533,0.03761
1528.23554,0.02165
1526.74575,0.01060
1525.25597,0.12745
1523.76618,0.10803
1522.27639,0.05701
1520.78660,0.03036
1519.29681,0.12180
1517.80702,0.09278
1516.31724,0.02973
1514.82745,0.01538
1513.33766,0.03481
1511.84787,0.05428
1510.35808,0.06039
1508.86829,0.05559
1507.37850,0.08246
1505.88872,0.07772
1504.39893,0.06328
1502.90914,0.04888
1501.41935,0.09171
1499.92956,0.09806
1498.43977,0.09593
1496.94999,0.09870
1495.46020,0.12220
1493.97041,0.21023
1492.48062,0.31046
1490.99083,0.26956
1489.50104,0.31145
1488.01125,0.39596
1486.52147,0.48051
1485.03168,0.60769
1483.54189,0.63268
1482.05210,0.63945
1480.56231,0.76673
1479.07252,0.88066
1477.58274,1.02383
1476.09295,1.00396
1474.60316,1.14964
1473.11337,1.24424
1471.62358,1.22082
1470.13379,1.34956
1468.64401,1.21911
1467.15422,1.12156
1465.66443,1.12931
1464.17464,1.13710
1462.68485,1.13580
1461.19506,1.05420
1459.70527,0.99577
1458.21549,0.94345
1456.72570,0.91794
1455.23591,0.79998
1453.74612,0.83295
1452.25633,0.82459
1450.76654,0.72620
1449.27676,0.80431
1447.78697,0.72667
1446.29718,0.57119
1444.80739,0.57151
1443.31760,0.57187
1441.82781,0.59173
1440.33802,0.47533
1438.84824,0.41007
1437.35845,0.34120
1435.86866,0.36607
1434.37887,0.35081
1432.88908,0.38549
1431.39929,0.30823
1429.90951,0.29065
1428.41972,0.33759
1426.92993,0.36024
1425.44014,0.32328
1423.95035,0.38433
1422.46056,0.44541
1420.97078,0.49618
1419.48099,0.54455
1417.99120,0.47126
1416.50141,0.40652
1415.01162,0.42213
1413.52183,0.44873
1412.03204,0.47172
1410.54226,0.43024
1409.05247,0.41557
1407.56268,0.38511
1406.07289,0.34495
1404.58310,0.38028
1403.09331,0.41564
1401.60353,0.41696
1400.11374,0.39519
1398.62395,0.46352
1397.13416,0.41626
1395.64437,0.37999
1394.15458,0.48493
1392.66479,0.43291
1391.17501,0.42595
1389.68522,0.51152
1388.19543,0.45109
1386.70564,0.45518
1385.21585,0.45932
1383.72606,0.43306
1382.23628,0.40319
1380.74649,0.37335
1379.25670,0.45550
1377.76691,0.42695
1376.27712,0.41060
1374.78733,0.47704
1373.29755,0.52039
1371.80776,0.55526
1370.31797,0.66805
1368.82818,0.72854
1367.33839,0.78907
1365.84860,0.97255
1364.35881,1.04166
1362.86903,1.04388
1361.37924,1.06682
1359.88945,1.06180
1358.39966,1.27101
1356.90987,1.22468
1355.42008,1.26479
1353.93030,1.21853
1352.44051,1.19482
1350.95072,1.17115
1349.46093,1.13473
1347.97114,1.03628
1346.48135,0.95855
1344.99156,0.91493
1343.50178,0.91272
1342.01199,0.88865
1340.52220,0.68327
1339.03241,0.67508
1337.54262,0.66815
1336.05283,0.69958
1334.56305,0.73105
1333.07326,0.69622
1331.58347,0.69429
1330.09368,0.68996
1328.60389,0.60534
1327.11410,0.62542
1325.62432,0.64188
1324.13453,0.63525
1322.64474,0.64692
1321.15495,0.64523
1319.66516,0.62653
1318.17537,0.60787
1316.68558,0.63063
1315.19580,0.57674
1313.70601,0.47056
1312.21622,0.51167
1310.72643,0.49075
1309.23664,0.51246
1307.74685,0.54759
1306.25707,0.48052
1304.76728,0.51085
1303.27749,0.54122
1301.78770,0.45357
1300.29791,0.48887
1298.80812,0.51325
1297.31834,0.46100
1295.82855,0.49397
1294.33876,0.49533
1292.84897,0.53323
1291.35918,0.55292
1289.86939,0.54891
1288.37960,0.54493
1286.88982,0.48075
1285.40003,0.59915
1283.91024,0.65308
1282.42045,0.59631
1280.93066,0.55417
1279.44087,0.64836
1277.95109,0.51989
1276.46130,0.64336
1274.97151,0.60075
1273.48172,0.55817
1271.99193,0.55153
1270.50214,0.66784
1269.01235,0.61137
1267.52257,0.57806
1266.03278,0.66770
1264.54299,0.67462
1263.05320,0.71808
1261.56341,0.68856
1260.07362,0.65907
1258.58384,0.81825
1257.09405,0.76327
1255.60426,0.73510
1254.11447,0.75078
1252.62468,0.60220
1251.13489,0.56562
1249.64511,0.69458
1248.15532,0.65563
1246.66553,0.63193
1245.17574,0.60826
1243.68595,0.58523
1242.19616,0.52816
1240.70637,0.48817
1239.21659,0.46160
1237.72680,0.41559
1236.23701,0.41464
1234.74722,0.35896
1233.25743,0.33192
1231.76764,0.30491
1230.27786,0.25055
1228.78807,0.29358
1227.29828,0.36221
1225.80849,0.24102
1224.31870,0.20262
1222.82891,0.23971
1221.33912,0.21720
1219.84934,0.17830
1218.35955,0.13943
1216.86976,0.21073
1215.37997,0.28937
1213.89018,0.25243
1212.40039,0.22282
1210.91061,0.17743
1209.42082,0.17588
1207.93103,0.17011
1206.44124,0.16438
1204.95145,0.18362
1203.46166,0.14692
1201.97188,0.13703
1200.48209,0.17342
1198.99230,0.15872
1197.50251,0.13068
1196.01272,0.11240
1194.52293,0.08139
1193.03314,0.05040
1191.54336,0.06752
1190.05357,0.07008
1188.56378,0.01060
1187.07399,0.03937
1185.58420,0.03531
1184.09441,0.01304
1182.60463,0.03217
1181.11484,0.05135
1179.62505,0.09733
1178.13526,0.08127
1176.64547,0.07986
1175.15568,0.11499
1173.66589,0.13312
1172.17611,0.09165
1170.68632,0.05508
1169.19653,0.01854
1167.70674,0.05506
1166.21695,0.03320
1164.72716,0.07831
1163.23738,0.03826
1161.74759,0.04692
1160.25780,0.01060
1158.76801,0.02993
1157.27822,0.04930
1155.78843,0.06931
1154.29865,0.07719
1152.80886,0.05346
1151.31907,0.01395
1149.82928,0.12537
1148.33949,0.20884
1146.84970,0.18342
1145.35991,0.15804
1143.87013,0.09800
1142.38034,0.11102
1140.89055,0.13016
1139.40076,0.19680
1137.91097,0.29512
1136.42118,0.25594
1134.93140,0.29895
1133.44161,0.34199
1131.95182,0.32118
1130.46203,0.35030
1128.97224,0.34537
1127.48245,0.37577
1125.99266,0.36362
1124.50288,0.38557
1123.01309,0.40451
1121.52330,0.42349
1120.03351,0.47110
1118.54372,0.58325
1117.05393,0.56400
1115.56415,0.49488
1114.07436,0.57427
1112.58457,0.57216
1111.09478,0.57008
1109.60499,0.58264
1108.11520,0.63053
1106.62542,0.66263
1105.13563,0.71180
1103.64584,0.89488
1102.15605,0.91613
1100.66626,0.95993
1099.17647,1.00376
1097.68668,0.94114
1096.19690,0.99661
1094.70711,1.03020
1093.21732,1.13198
1091.72753,1.17173
1090.23774,1.10685
1088.74795,1.04200
1087.25817,1.06359
1085.76838,1.27021
1084.27859,1.32108
1082.78880,1.30627
1081.29901,1.40467
1079.80922,1.32421
1078.31943,1.26386
1076.82965,1.20355
1075.33986,1.33130
1073.85007,1.42866
1072.36028,1.32159
1070.87049,1.43362
1069.38070,1.57733
1067.89092,1.60606
1066.40113,1.63483
1064.91134,1.41963
1063.42155,1.34320
1061.93176,1.29479
1060.44197,1.27806
1058.95219,1.10681
1057.46240,1.09258
1055.97261,1.07839
1054.48282,1.07396
1052.99303,1.03793
1051.50324,0.94352
1050.01345,0.77369
1048.52367,0.67326
1047.03388,0.69639
1045.54409,0.71956
1044.05430,0.75554
1042.56451,0.63699
1041.07472,0.58663
1039.58494,0.55091
1038.09515,0.50062
1036.60536,0.46375
1035.11557,0.42692
1033.62578,0.39742
1032.13599,0.40690
1030.64620,0.42737
1029.15642,0.46369
1027.66663,0.47571
1026.17684,0.48776
1024.68705,0.48889
1023.19726,0.58012
1021.70747,0.85271
1020.21769,0.91236
1018.72790,1.04628
1017.23811,1.17050
1015.74832,1.29476
1014.25853,1.50302
1012.76874,1.80990
1011.27896,1.84906
1009.78917,1.91139
1008.29938,1.99809
1006.80959,1.99903
1005.31980,2.00000
1003.83001,1.95293
1002.34022,1.85601
1000.85044,1.75303
999.36065,1.59775
997.87086,1.55082
996.38107,1.50393
994.89128,1.58364
993.40149,1.55750
991.91171,1.67257
990.42192,1.62947
988.93213,1.67402
987.44234,1.61151
985.95255,1.54904
984.46276,1.54380
982.97297,1.56658
981.48319,1.56263
979.99340,1.60252
978.50361,1.58889
977.01382,1.57531
975.52403,1.44249
974.03424,1.39368
972.54446,1.31934
971.05467,1.15864
969.56488,1.27057
968.07509,1.24867
966.58530,1.22680
965.09551,1.29746
963.60573,1.28053
962.11594,1.13098
960.62615,1.10317
959.13636,1.07052
957.64657,1.03791
956.15678,0.97247
954.66699,0.88760
953.17721,0.94393
951.68742,0.99178
950.19763,1.00011
948.70784,1.00847
947.21805,0.91768
945.72826,0.89751
944.23848,0.94310
942.74869,1.07512
941.25890,0.86277
939.76911,0.92245
938.27932,0.98217
936.78953,1.05835
935.29974,1.01652
933.80996,1.08547
932.32017,1.04614
930.83038,1.09629
929.34059,1.14648
927.85080,1.14498
926.36101,1.03520
924.87123,1.09462
923.38144,1.03480
921.89165,1.03709
920.40186,1.03942
918.91207,1.05881
917.42228,1.08919
915.93250,1.08675
914.44271,1.09164
912.95292,1.06554
911.46313,1.03947
909.97334,1.11262
908.48355,1.22353
906.99376,1.13854
905.50398,0.97812
904.01419,1.05628
902.52440,1.13447
901.03461,1.11411
899.54482,1.14856
898.05503,1.10029
896.56525,1.10924
895.07546,1.20829
893.58567,1.30738
892.09588,1.19474
890.60609,1.22574
889.11630,1.07666
887.62651,1.01402
886.13673,1.05669
884.64694,1.09939
883.15715,1.09405
881.66736,1.05224
880.17757,1.07861
878.68778,1.08250
877.19800,1.08643
875.70821,1.00338
874.21842,0.93740
872.72863,1.11729
871.23884,1.14265
869.74905,1.16257
868.25927,1.18253
866.76948,1.16418
865.27969,1.11058
863.78990,1.10325
862.30011,1.13004
860.81032,1.12765
859.32053,1.12530
857.83075,1.07917
856.34096,1.19858
854.85117,1.03813
853.36138,0.83997
851.87159,0.82258
850.38180,0.80522
848.89202,0.69967
847.40223,0.51869
845.91244,0.47648
844.42265,0.47691
842.93286,0.47737
841.44307,0.44014
839.95329,0.44797
838.46350,0.37064
836.97371,0.30552
835.48392,0.37735
833.99413,0.44921
832.50434,0.41583
831.01455,0.41778
829.52477,0.38204
828.03498,0.39501
826.54519,0.33744
825.05540,0.27989
823.56561,0.23577
822.07582,0.23793
820.58604,0.18901
819.09625,0.17176
817.60646,0.15455
816.11667,0.08869
814.62688,0.08372
813.13709,0.03984
811.64730,0.01060
810.15752,0.04204
808.66773,0.07351
807.17794,0.12815
805.68815,0.11223
804.19836,0.09391
802.70857,0.12492
801.21879,0.15596
799.72900,0.11705
798.23921,0.23275
796.74942,0.42636
795.25963,0.46423
793.76984,0.50213
792.28006,0.61188
790.79027,0.57196
789.30048,0.56007
787.81069,0.68452
786.32090,0.69583
784.83111,0.70716
783.34132,0.81468
781.85154,0.81026
780.36175,0.81197
778.87196,0.81918
777.38217,0.82643
775.89238,0.91221
774.40259,1.00046
772.91281,1.02668
771.42302,1.00121
769.93323,0.97577
768.44344,0.96193
766.95365,0.92135
765.46386,1.09256
763.97407,0.98633
762.48429,0.90143
760.99450,0.81657
759.50471,0.68732
758.01492,0.61530
756.52513,0.49343
755.03534,0.45616
753.54556,0.41893
752.05577,0.28255
750.56598,0.18394
749.07619,0.19366
747.58640,0.16813
746.09661,0.14264
744.60683,0.09649
743.11704,0.07106
741.62725,0.06393
740.13746,0.05074
738.64767,0.03758
737.15788,0.10844
735.66809,0.05398
734.17831,0.02876
732.68852,0.02973
731.19873,0.03075
729.70894,0.06283
728.21915,0.07061
726.72936,0.13805
725.23958,0.01446
723.74979,0.05223
722.26000,0.09003
720.77021,0.09075
719.28042,0.09029
717.79063,0.06917
716.30084,0.08642
714.81106,0.10371
713.32127,0.04618
711.83148,0.01060
710.34169,0.06176
708.85190,0.08800
707.36211,0.11429
705.87233,0.13756
704.38254,0.11584
702.89275,0.07590
701.40296,0.04816
699.91317,0.02046
698.42338,0.10597
696.93360,0.15257
695.44381,0.18826
693.95402,0.16982
692.46423,0.15142
690.97444,0.17260
689.48465,0.12810
687.99486,0.13110
686.50508,0.17003
685.01529,0.20900
683.52550,0.26078
682.03571,0.22497
680.54592,0.26830
679.05613,0.23256
677.56635,0.19685
676.07656,0.14171
674.58677,0.11459
673.09698,0.18608
671.60719,0.10792
670.11740,0.02979
668.62761,0.10747
667.13783,0.14868
665.64804,0.13698
664.15825,0.12531
662.66846,0.04249
661.17867,0.07531
659.68888,0.12521
658.19910,0.10820
656.70931,0.09123
655.21952,0.17653
653.72973,0.16936
652.23994,0.24377
650.75015,0.23850
649.26037,0.23326
647.77058,0.26883
646.28079,0.17300
644.79100,0.03460
643.30121,0.02646
641.81142,0.01835
640.32163,0.09304
638.83185,0.08865
637.34206,0.11716
635.85227,0.07389
634.36248,0.03067
632.87269,0.01060
631.38290,0.12357
629.89312,0.10880
628.40333,0.07642
626.91354,0.04407
625.42375,0.08173
623.93396,0.13768
622.44417,0.13404
620.95438,0.13042
619.46460,0.15362
617.97481,0.05515
616.48502,0.18064
614.99523,0.18386
613.50544,0.18711
612.01565,0.15085
610.52587,0.13409
609.03608,0.06017
607.54629,0.09946
606.05650,0.13878
604.56671,0.21830
603.07692,0.20294
601.58714,0.25940
600.09735,0.31590
598.60756,0.23979
597.11777,0.19778
595.62798,0.16555
594.13819,0.14186
592.64840,0.11821
591.15862,0.15910
589.66883,0.17812
588.17904,0.09859
586.68925,0.12984
585.19946,0.16113
583.70967,0.19489
582.21989,0.26154
580.73010,0.27711
579.24031,0.29272
577.75052,0.27185
576.26073,0.21085
574.77094,0.24238
573.28115,0.26420
571.79137,0.28607
570.30158,0.29336
568.81179,0.43212
567.32200,0.40115
565.83221,0.37021
564.34242,0.39346
562.85264,0.50437
561.36285,0.62261
559.87306,0.63806
558.38327,0.65353
556.89348,0.66966
555.40369,0.72597
553.91391,0.74703
552.42412,0.76812
550.93433,0.82576
549.44454,0.77025
547.95475,0.77440
546.46496,0.82606
544.97517,0.87775
543.48539,0.89296
541.99560,0.85101
540.50581,0.88455
539.01602,0.91812
537.52623,0.87749
536.03644,0.75900
534.54666,0.75130
533.05687,0.79109
531.56708,0.83092
530.07729,0.75760
528.58750,0.65511
527.09771,0.67983
525.60792,0.70458
524.11814,0.73728
522.62835,0.72377
521.13856,0.68230
519.64877,0.61226
518.15898,0.54226
516.66919,0.52037
515.17941,0.45956
513.68962,0.44747
512.19983,0.43542
510.71004,0.47330
509.22025,0.45035
507.73046,0.52603
506.24068,0.50498
504.75089,0.48397
503.26110,0.46604
501.77131,0.49073
500.28152,0.47226
498.79173,0.45382
497.30194,0.37152
495.81216,0.36106
494.32237,0.40053
492.83258,0.44004
491.34279,0.46619
489.85300,0.38163
488.36321,0.26668
486.87343,0.23939
485.38364,0.21213
483.89385,0.27496
482.40406,0.30132
480.91427,0.23766
479.42448,0.17403
477.93469,0.07392
476.44491,0.15397
474.95512,0.19693
473.46533,0.23992
471.97554,0.05355
470.48575,0.14103
468.99596,0.12145
467.50618,0.13233
466.01639,0.14325
464.52660,0.01060
463.03681,0.09447
461.54702,0.11875
460.05723,0.14306
458.56745,0.24651
457.07766,0.20273
455.58787,0.25270
454.09808,0.30271
452.60829,0.26512
451.11850,0.22514
449.62871,0.26308
448.13893,0.30105
446.64914,0.44737
445.15935,0.53409
443.66956,0.67318
442.17977,0.74293
440.68998,0.81272
439.20020,0.74867
437.71041,0.80635
436.22062,0.84217
434.73083,0.87801
433.24104,1.07211
431.75125,1.25406
430.26146,1.30705
428.77168,1.36007
427.28189,1.53727
425.79210,1.52221
424.30231,1.54734
422.81252,1.57251
421.32273,1.49184
419.83295,1.45623
418.34316,1.38171
416.85337,1.30722
415.36358,1.19139
413.87379,1.09872
412.38400,1.02008
410.89422,0.94147
409.40443,0.92679
407.91464,0.85737
406.42485,0.85128
404.93506,0.83001
403.44527,0.80877
401.95548,0.75045
400.46570,0.72502
398.97591,0.69963
397.48612,0.67427
395.99633,0.75969
394.50654,0.76726
393.01675,0.78521
391.52697,0.80319
390.03718,0.74758
388.54739,0.57882
387.05760,0.57804
385.56781,0.57730
384.07802,0.70924
382.58824,0.73290
381.09845,0.64829
379.60866,0.56371
378.11887,0.59843
376.62908,0.51392
375.13929,0.47691
373.64950,0.43993
372.15972,0.44923
370.66993,0.39285
369.18014,0.40221
367.69035,0.41162
366.20056,0.36873
364.71077,0.21999
363.22099,0.22950
361.73120,0.23904
360.24141,0.22428
358.75162,0.31664
357.26183,0.31107
355.77204,0.30554
354.28225,0.28605
352.79247,0.20209
351.30268,0.22343
349.81289,0.24481
348.32310,0.26683
346.83331,0.20370
345.34352,0.10713
343.85374,0.01060
342.36395,0.20979
340.87416,0.29583
339.38437,0.29976
337.89458,0.30373
336.40479,0.36797
334.91501,0.17180
333.42522,0.19960
331.93543,0.22744
330.44564,0.30642
328.95585,0.17855
327.46606,0.13712
325.97627,0.09572
324.48649,0.03610
322.99670,0.01060
321.50691,0.03506
320.01712,0.05956
318.52733,0.18814
317.03754,0.26687
315.54776,0.21906
314.05797,0.17128
312.56818,0.12598
311.07839,0.03689
309.58860,0.01843
308.09881,-0.00000
306.60902,0.03272
305.11924,0.11780
303.62945,0.09583
302.13966,0.07388
300.64987,0.01060
299.16008,0.01060
