1778.52000,0.04932
1777.03021,0.02943
1775.54042,0.05128
1774.05063,0.03531
1772.56085,0.01860
1771.07106,0.04131
1769.58127,0.03084
1768.09148,0.00572
1766.60169,0.01307
1765.11190,0.02432
1763.62212,0.02555
1762.13233,0.03608
1760.64254,0.04124
1759.15275,0.04488
1757.66296,0.02537
1756.17317,0.03989
1754.68339,0.01581
1753.19360,0.03810
1751.70381,0.04653
1750.21402,0.00940
1748.72423,0.00939
1747.23444,0.00863
1745.74465,0.02181
1744.25487,0.03347
1742.76508,0.02740
1741.27529,0.04684
1739.78550,0.04314
1738.29571,0.05261
1736.80592,0.03584
1735.31614,0.03377
1733.82635,0.01011
1732.33656,0.00501
1730.84677,0.01463
1729.35698,0.02890
1727.86719,0.01617
1726.37740,0.03592
1724.88762,0.01784
1723.39783,0.02142
1721.90804,0.00572
1720.41825,0.03751
1718.92846,0.03534
1717.43867,0.05019
1715.94889,0.02104
1714.45910,0.03750
1712.96931,0.03931
1711.47952,0.03729
1709.98973,0.01753
1708.49994,0.05574
1707.01016,0.04029
1705.52037,0.02487
1704.03058,0.05312
1702.54079,0.05977
1701.05100,0.06723
1699.56121,0.06776
1698.07142,0.07142
1696.58164,0.08901
1695.09185,0.10894
1693.60206,0.10959
1692.11227,0.13731
1690.62248,0.14343
1689.13269,0.09937
1687.64291,0.10787
1686.15312,0.12335
1684.66333,0.17285
1683.17354,0.15208
1681.68375,0.16146
1680.19396,0.11758
1678.70417,0.14016
1677.21439,0.14346
1675.72460,0.14601
1674.23481,0.12774
1672.74502,0.10950
1671.25523,0.14304
1669.76544,0.12795
1668.27566,0.11443
1666.78587,0.12180
1665.29608,0.14619
1663.80629,0.13508
1662.31650,0.11704
1660.82671,0.12839
1659.33693,0.10655
1657.84714,0.11487
1656.35735,0.10237
1654.86756,0.10147
1653.37777,0.11915
1651.88798,0.10673
1650.39819,0.13374
1648.90841,0.09975
1647.41862,0.09283
1645.92883,0.07358
1644.43904,0.05435
1642.94925,0.08846
1641.45946,0.10020
1639.96968,0.10733
1638.47989,0.10677
1636.99010,0.13018
1635.50031,0.10187
1634.01052,0.11530
1632.52073,0.11408
1631.03094,0.09435
1629.54116,0.12796
1628.05137,0.14228
1626.56158,0.10874
1625.07179,0.13625
1623.58200,0.14680
1622.09221,0.12725
1620.60243,0.15949
1619.11264,0.13768
1617.62285,0.13831
1616.13306,0.10034
1614.64327,0.12884
1613.15348,0.13959
1611.66370,0.12952
1610.17391,0.10712
1608.68412,0.11874
1607.19433,0.13580
1605.70454,0.12353
1604.21475,0.13137
1602.72496,0.13925
1601.23518,0.14406
1599.74539,0.12496
1598.25560,0.11516
1596.76581,0.07603
1595.27602,0.08792
1593.78623,0.10447
1592.29645,0.06311
1590.80666,0.05578
1589.31687,0.05929
1587.82708,0.06669
1586.33729,0.06176
1584.84750,0.07462
1583.35771,0.04812
1581.86793,0.04019
1580.37814,0.06165
1578.88835,0.03060
1577.39856,0.06216
1575.90877,0.06207
1574.41898,0.05815
1572.92920,0.04422
1571.43941,0.05581
1569.94962,0.04001
1568.45983,0.02424
1566.97004,0.06218
1565.48025,0.02599
1563.99047,0.00606
1562.50068,0.01629
1561.01089,0.02345
1559.52110,0.01365
1558.03131,0.04018
1556.54152,0.03276
1555.05173,0.05472
1553.56195,0.04427
1552.07216,0.06242
1550.58237,0.04585
1549.09258,0.04552
1547.60279,0.04291
1546.11300,0.03956
1544.62322,0.08413
1543.13343,0.05843
1541.64364,0.04436
1540.15385,0.05000
1538.66406,0.05568
1537.17427,0.03474
1535.68448,0.03700
1534.19470,0.03543
1532.70491,0.03080
1531.21512,0.00998
1529.72533,0.00000
1528.23554,0.04443
1526.74575,0.02400
1525.25597,0.04299
1523.76618,0.03962
1522.27639,0.04554
1520.78660,0.04300
1519.29681,0.00572
1517.80702,0.00691
1516.31724,0.01276
1514.82745,0.04182
1513.33766,0.03383
1511.84787,0.02586
1510.35808,0.03106
1508.86829,0.03011
1507.37850,0.00524
1505.88872,0.01594
1504.39893,0.01353
1502.90914,0.01965
1501.41935,0.01731
1499.92956,0.00572
1498.43977,0.02979
1496.94999,0.08710
1495.46020,0.12745
1493.97041,0.13616
1492.48062,0.15185
1490.99083,0.20774
1489.50104,0.25361
1488.01125,0.30377
1486.52147,0.35395
1485.03168,0.41150
1483.54189,0.50694
1482.05210,0.58464
1480.56231,0.66545
1479.07252,0.73935
1477.58274,0.78006
1476.09295,0.86792
1474.60316,0.86079
1473.11337,0.89154
1471.62358,0.92155
1470.13379,0.96009
1468.64401,0.92141
1467.15422,0.89202
1465.66443,0.85726
1464.17464,0.82253
1462.68485,0.79942
1461.19506,0.76784
1459.70527,0.69302
1458.21549,0.61670
1456.72570,0.54426
1455.23591,0.55297
1453.74612,0.47055
1452.25633,0.41057
1450.76654,0.36374
1449.27676,0.38416
1447.78697,0.35903
1446.29718,0.32929
1444.80739,0.31580
1443.31760,0.30234
1441.82781,0.22480
1440.33802,0.19672
1438.84824,0.17254
1437.35845,0.14144
1435.86866,0.14358
1434.37887,0.13262
1432.88908,0.09774
1431.39929,0.10770
1429.90951,0.12927
1428.41972,0.14856
1426.92993,0.12307
1425.44014,0.15709
1423.95035,0.15870
1422.46056,0.16034
1420.97078,0.15505
1419.48099,0.18224
1417.99120,0.19015
1416.50141,0.18109
1415.01162,0.23309
1413.52183,0.23568
1412.03204,0.21049
1410.54226,0.23013
1409.05247,0.21118
1407.56268,0.20307
1406.07289,0.15096
1404.58310,0.15566
1403.09331,0.16039
1401.60353,0.21497
1400.11374,0.23482
1398.62395,0.31341
1397.13416,0.32637
1395.64437,0.33318
1394.15458,0.35933
1392.66479,0.40019
1391.17501,0.36614
1389.68522,0.35917
1388.19543,0.34372
1386.70564,0.37852
1385.21585,0.41334
1383.72606,0.43661
1382.23628,0.37725
1380.74649,0.39749
1379.25670,0.39227
1377.76691,0.38476
1376.27712,0.38500
1374.78733,0.40536
1373.29755,0.44892
1371.80776,0.54813
1370.31797,0.65046
1368.82818,0.71922
1367.33839,0.78801
1365.84860,1.03025
1364.35881,1.09408
1362.86903,1.34720
1361.37924,1.40259
1359.88945,1.47191
1358.39966,1.51268
1356.90987,1.58206
1355.42008,1.44908
1353.93030,1.46522
1352.44051,1.39139
1350.95072,1.31759
1349.46093,1.22722
1347.97114,1.10211
1346.48135,0.86424
1344.99156,0.78940
1343.50178,0.75708
1342.01199,0.62591
1340.52220,0.50249
1339.03241,0.47258
1337.54262,0.47051
1336.05283,0.42907
1334.56305,0.38765
1333.07326,0.40421
1331.58347,0.39144
1330.09368,0.35166
1328.60389,0.34591
1327.11410,0.28224
1325.62432,0.25028
1324.13453,0.21834
1322.64474,0.21888
1321.15495,0.21791
1319.66516,0.22237
1318.17537,0.22687
1316.68558,0.19817
1315.19580,0.24367
1313.70601,0.16096
1312.21622,0.17561
1310.72643,0.13777
1309.23664,0.15403
1307.74685,0.17650
1306.25707,0.18200
1304.76728,0.17015
1303.27749,0.15833
1301.78770,0.17629
1300.29791,0.15874
1298.80812,0.15126
1297.31834,0.16698
1295.82855,0.20050
1294.33876,0.21243
1292.84897,0.20429
1291.35918,0.20160
1289.86939,0.20588
1288.37960,0.21020
1286.88982,0.18442
1285.40003,0.25446
1283.91024,0.26968
1282.42045,0.25325
1280.93066,0.23377
1279.44087,0.25912
1277.95109,0.26442
1276.46130,0.25661
1274.97151,0.25193
1273.48172,0.24727
1271.99193,0.28668
1270.50214,0.26431
1269.01235,0.27056
1267.52257,0.34868
1266.03278,0.31714
1264.54299,0.33815
1263.05320,0.33679
1261.56341,0.35092
1260.07362,0.36507
1258.58384,0.44877
1257.09405,0.41045
1255.60426,0.36830
1254.11447,0.46523
1252.62468,0.39301
1251.13489,0.41584
1249.64511,0.34831
1248.15532,0.26382
1246.66553,0.27090
1245.17574,0.27801
1243.68595,0.25464
1242.19616,0.25602
1240.70637,0.29682
1239.21659,0.19397
1237.72680,0.22015
1236.23701,0.15444
1234.74722,0.19922
1233.25743,0.18031
1231.76764,0.16142
1230.27786,0.16844
1228.78807,0.14228
1227.29828,0.15245
1225.80849,0.11784
1224.31870,0.08945
1222.82891,0.07808
1221.33912,0.06906
1219.84934,0.05620
1218.35955,0.04338
1216.86976,0.07925
1215.37997,0.07266
1213.89018,0.09237
1212.40039,0.09898
1210.91061,0.11489
1209.42082,0.07675
1207.93103,0.06683
1206.44124,0.05695
1204.95145,0.02740
1203.46166,0.06122
1201.97188,0.05567
1200.48209,0.05634
1198.99230,0.11420
1197.50251,0.04771
1196.01272,0.05156
1194.52293,0.03496
1193.03314,0.01839
1191.54336,0.05013
1190.05357,0.01702
1188.56378,0.04650
1187.07399,0.00572
1185.58420,0.04351
1184.09441,0.01722
1182.60463,0.01451
1181.11484,0.01184
1179.62505,0.06134
1178.13526,0.02049
1176.64547,0.04069
1175.15568,0.06170
1173.66589,0.10436
1172.17611,0.08294
1170.68632,0.08781
1169.19653,0.09272
1167.70674,0.00572
1166.21695,0.04175
1164.72716,0.02527
1163.23738,0.03355
1161.74759,0.01018
1160.25780,0.02315
1158.76801,0.02611
1157.27822,0.02910
1155.78843,0.00585
1154.29865,0.02203
1152.80886,0.01429
1151.31907,0.03517
1149.82928,0.07307
1148.33949,0.07701
1146.84970,0.09140
1145.35991,0.10583
1143.87013,0.08668
1142.38034,0.08070
1140.89055,0.10101
1139.40076,0.13139
1137.91097,0.17648
1136.42118,0.18607
1134.93140,0.20920
1133.44161,0.23236
1131.95182,0.26676
1130.46203,0.26719
1128.97224,0.31323
1127.48245,0.29364
1125.99266,0.31116
1124.50288,0.28622
1123.01309,0.29298
1121.52330,0.29977
1120.03351,0.32127
1118.54372,0.41387
1117.05393,0.39526
1115.56415,0.43770
1114.07436,0.41374
1112.58457,0.41724
1111.09478,0.42076
1109.60499,0.45483
1108.11520,0.48352
1106.62542,0.52228
1105.13563,0.57112
1103.64584,0.64161
1102.15605,0.67351
1100.66626,0.69849
1099.17647,0.72349
1097.68668,0.76089
1096.19690,0.73497
1094.70711,0.79097
1093.21732,0.87635
1091.72753,0.91772
1090.23774,0.91278
1088.74795,0.90787
1087.25817,0.98332
1085.76838,0.99624
1084.27859,1.03313
1082.78880,1.05923
1081.29901,1.12631
1079.80922,1.09609
1078.31943,1.14121
1076.82965,1.18636
1075.33986,1.21339
1073.85007,1.23426
1072.36028,1.19491
1070.87049,1.21817
1069.38070,1.27776
1067.89092,1.28562
1066.40113,1.29352
1064.91134,1.26281
1063.42155,1.16030
1061.93176,1.06476
1060.44197,1.00480
1058.95219,0.96185
1057.46240,0.91817
1055.97261,0.87451
1054.48282,0.81389
1052.99303,0.78883
1051.50324,0.75299
1050.01345,0.69864
1048.52367,0.65359
1047.03388,0.58771
1045.54409,0.52186
1044.05430,0.49620
1042.56451,0.47676
1041.07472,0.42259
1039.58494,0.41248
1038.09515,0.32437
1036.60536,0.29694
1035.11557,0.26954
1033.62578,0.31671
1032.13599,0.28435
1030.64620,0.24506
1029.15642,0.33404
1027.66663,0.37206
1026.17684,0.41011
1024.68705,0.42965
1023.19726,0.56046
1021.70747,0.73302
1020.21769,0.87702
1018.72790,1.08131
1017.23811,1.21224
1015.74832,1.34320
1014.25853,1.46493
1012.76874,1.75199
1011.27896,1.89077
1009.78917,1.96854
1008.29938,2.00000
1006.80959,1.94651
1005.31980,1.89305
1003.83001,1.75001
1002.34022,1.79163
1000.85044,1.70350
999.36065,1.53814
997.87086,1.48638
996.38107,1.43464
994.89128,1.44474
993.40149,1.40928
991.91171,1.36845
990.42192,1.35082
988.93213,1.40970
987.44234,1.37282
985.95255,1.33597
984.46276,1.37640
982.97297,1.32339
981.48319,1.31753
979.99340,1.16956
978.50361,1.12977
977.01382,1.09001
975.52403,1.09817
974.03424,1.09400
972.54446,1.04970
971.05467,0.96293
969.56488,0.90478
968.07509,0.85631
966.58530,0.80787
965.09551,0.78921
963.60573,0.71727
962.11594,0.68939
960.62615,0.70172
959.13636,0.65420
957.64657,0.60672
956.15678,0.58514
954.66699,0.53192
953.17721,0.55289
951.68742,0.52059
950.19763,0.50531
948.70784,0.49006
947.21805,0.47561
945.72826,0.52609
944.23848,0.57659
942.74869,0.49889
941.25890,0.50156
939.76911,0.53477
938.27932,0.56801
936.78953,0.63411
935.29974,0.62995
933.80996,0.63817
932.32017,0.69587
930.83038,0.68252
929.34059,0.66920
927.85080,0.70304
926.36101,0.72841
924.87123,0.74531
923.38144,0.68962
921.89165,0.64942
920.40186,0.60924
918.91207,0.61081
917.42228,0.60932
915.93250,0.61558
914.44271,0.64119
912.95292,0.63747
911.46313,0.63378
909.97334,0.61236
908.48355,0.65508
906.99376,0.69242
905.50398,0.67803
904.01419,0.67758
902.52440,0.67716
901.03461,0.78106
899.54482,0.78147
898.05503,0.69385
896.56525,0.69045
895.07546,0.68593
893.58567,0.68144
892.09588,0.69205
890.60609,0.77375
889.11630,0.79368
887.62651,0.76575
886.13673,0.77917
884.64694,0.79263
883.15715,0.70685
881.66736,0.66822
880.17757,0.67520
878.68778,0.70036
877.19800,0.72555
875.70821,0.75965
874.21842,0.78606
872.72863,0.83722
871.23884,0.89614
869.74905,0.90873
868.25927,0.92136
866.76948,0.92937
865.27969,0.96214
863.78990,0.95863
862.30011,0.91035
860.81032,0.90651
859.32053,0.90271
857.83075,0.90704
856.34096,0.84883
854.85117,0.81769
853.36138,0.70778
851.87159,0.66280
850.38180,0.61784
848.89202,0.58682
847.40223,0.48630
845.91244,0.35800
844.42265,0.34445
842.93286,0.33093
841.44307,0.31242
839.95329,0.27308
838.46350,0.24844
836.97371,0.23697
835.48392,0.23596
833.99413,0.23498
832.50434,0.25527
831.01455,0.23001
829.52477,0.23568
828.03498,0.27692
826.54519,0.26334
825.05540,0.24979
823.56561,0.20073
822.07582,0.20733
820.58604,0.15215
819.09625,0.14644
817.60646,0.14076
816.11667,0.06868
814.62688,0.06847
813.13709,0.00572
811.64730,0.06347
810.15752,0.05210
808.66773,0.04077
807.17794,0.01595
805.68815,0.00815
804.19836,0.09154
802.70857,0.10003
801.21879,0.10854
799.72900,0.16807
798.23921,0.24926
796.74942,0.32816
795.25963,0.39087
793.76984,0.45361
792.28006,0.52488
790.79027,0.56296
789.30048,0.59952
787.81069,0.59054
786.32090,0.60128
784.83111,0.61206
783.34132,0.63869
781.85154,0.67386
780.36175,0.72065
778.87196,0.71416
777.38217,0.70770
775.89238,0.79320
774.40259,0.81693
772.91281,0.85613
771.42302,0.88185
769.93323,0.90760
768.44344,0.82871
766.95365,0.76606
765.46386,0.75057
763.97407,0.72430
762.48429,0.67217
760.99450,0.62008
759.50471,0.57149
758.01492,0.47580
756.52513,0.37320
755.03534,0.34285
753.54556,0.31254
752.05577,0.22006
750.56598,0.17320
749.07619,0.13254
747.58640,0.12706
746.09661,0.12162
744.60683,0.12199
743.11704,0.07605
741.62725,0.02936
740.13746,0.04180
738.64767,0.05427
737.15788,0.01849
735.66809,0.01672
734.17831,0.00572
732.68852,0.01452
731.19873,0.02335
729.70894,0.04187
728.21915,0.02720
726.72936,0.01720
725.23958,0.05203
723.74979,0.03706
722.26000,0.02213
720.77021,0.04237
719.28042,0.03019
717.79063,0.02191
716.30084,0.01868
714.81106,0.01548
713.32127,0.03742
711.83148,0.02076
710.34169,0.01417
708.85190,0.00993
707.36211,0.00572
705.87233,0.02695
704.38254,0.00572
702.89275,0.06442
701.40296,0.05168
699.91317,0.03898
698.42338,0.00970
696.93360,0.05461
695.44381,0.06943
693.95402,0.11517
692.46423,0.16094
690.97444,0.15653
689.48465,0.14597
687.99486,0.18256
686.50508,0.17515
685.01529,0.16777
683.52550,0.22608
682.03571,0.18863
680.54592,0.17438
679.05613,0.15823
677.56635,0.14212
676.07656,0.17586
674.58677,0.09684
673.09698,0.10823
671.60719,0.08644
670.11740,0.06468
668.62761,0.07385
667.13783,0.07300
665.64804,0.07026
664.15825,0.06754
662.66846,0.04438
661.17867,0.05679
659.68888,0.04373
658.19910,0.03302
656.70931,0.02235
655.21952,0.06886
653.72973,0.09378
652.23994,0.03529
650.75015,0.05293
649.26037,0.07059
647.77058,0.05082
646.28079,0.08438
644.79100,0.06854
643.30121,0.06469
641.81142,0.06088
640.32163,0.00572
638.83185,0.01025
637.34206,0.00863
635.85227,0.01052
634.36248,0.01243
632.87269,0.03099
631.38290,0.04880
629.89312,0.02338
628.40333,0.02851
626.91354,0.03366
625.42375,0.02533
623.93396,0.00544
622.44417,0.03347
620.95438,0.06153
619.46460,0.05023
617.97481,0.03663
616.48502,0.05474
614.99523,0.06786
613.50544,0.08101
612.01565,0.07449
610.52587,0.07495
609.03608,0.12565
607.54629,0.11690
606.05650,0.10818
604.56671,0.13271
603.07692,0.08543
601.58714,0.11272
600.09735,0.14004
598.60756,0.09902
597.11777,0.06267
595.62798,0.07579
594.13819,0.08044
592.64840,0.08512
591.15862,0.08365
589.66883,0.10230
588.17904,0.04295
586.68925,0.06745
585.19946,0.09198
583.70967,0.08139
582.21989,0.05924
580.73010,0.08077
579.24031,0.10232
577.75052,0.08567
576.26073,0.09995
574.77094,0.13975
573.28115,0.12589
571.79137,0.11206
570.30158,0.16740
568.81179,0.20191
567.32200,0.22835
565.83221,0.25481
564.34242,0.32726
562.85264,0.32636
561.36285,0.37183
559.87306,0.38257
558.38327,0.39335
556.89348,0.43273
555.40369,0.51386
553.91391,0.51507
552.42412,0.51630
550.93433,0.59289
549.44454,0.62779
547.95475,0.63259
546.46496,0.63163
544.97517,0.63069
543.48539,0.58769
541.99560,0.60188
540.50581,0.62305
539.01602,0.64425
537.52623,0.57124
536.03644,0.61259
534.54666,0.55817
533.05687,0.55400
531.56708,0.54986
530.07729,0.55733
528.58750,0.51849
527.09771,0.51482
525.60792,0.51119
524.11814,0.47552
522.62835,0.48006
521.13856,0.43827
519.64877,0.41660
518.15898,0.39496
516.66919,0.40888
515.17941,0.32782
513.68962,0.33176
512.19983,0.33573
510.71004,0.28102
509.22025,0.25569
507.73046,0.35709
506.24068,0.36195
504.75089,0.36684
503.26110,0.41116
501.77131,0.37517
500.28152,0.36200
498.79173,0.34885
497.30194,0.38093
495.81216,0.34506
494.32237,0.34977
492.83258,0.35452
491.34279,0.35967
489.85300,0.34787
488.36321,0.30674
486.87343,0.27413
485.38364,0.24156
483.89385,0.16421
482.40406,0.16878
480.91427,0.14556
479.42448,0.12238
477.93469,0.04360
476.44491,0.04906
474.95512,0.05956
473.46533,0.07010
471.97554,0.04629
470.48575,0.02792
468.99596,0.10769
467.50618,0.07045
466.01639,0.03324
464.52660,0.00572
463.03681,0.06570
461.54702,0.04729
460.05723,0.02892
458.56745,0.04959
457.07766,0.05947
455.58787,0.10338
454.09808,0.14731
452.60829,0.15728
451.11850,0.12866
449.62871,0.14642
448.13893,0.16421
446.64914,0.26545
445.15935,0.31497
443.66956,0.42014
442.17977,0.45079
440.68998,0.48148
439.20020,0.53034
437.71041,0.59082
436.22062,0.67915
434.73083,0.76750
433.24104,0.83889
431.75125,0.94120
430.26146,0.94738
428.77168,0.95358
427.28189,1.14559
425.79210,1.15919
424.30231,1.17668
422.81252,1.19420
421.32273,1.16849
419.83295,1.09337
418.34316,1.06849
416.85337,1.04365
415.36358,0.85042
413.87379,0.73139
412.38400,0.66337
410.89422,0.59538
409.40443,0.61548
407.91464,0.56841
406.42485,0.61639
404.93506,0.59332
403.44527,0.57029
401.95548,0.53647
400.46570,0.43161
398.97591,0.45424
397.48612,0.47690
395.99633,0.47410
394.50654,0.47596
393.01675,0.47013
391.52697,0.46433
390.03718,0.42843
388.54739,0.42577
387.05760,0.40693
385.56781,0.38811
384.07802,0.36392
382.58824,0.30886
381.09845,0.29476
379.60866,0.28070
378.11887,0.33542
376.62908,0.28357
375.13929,0.27423
373.64950,0.26492
372.15972,0.21934
370.66993,0.10966
369.18014,0.11435
367.69035,0.11907
366.20056,0.09137
364.71077,0.10542
363.22099,0.11486
361.73120,0.12433
360.24141,0.12069
358.75162,0.09932
357.26183,0.11815
355.77204,0.13701
354.28225,0.12500
352.79247,0.03191
351.30268,0.01880
349.81289,0.00572
348.32310,0.08274
346.83331,0.04777
345.34352,0.02905
343.85374,0.01037
342.36395,0.03451
340.87416,0.00846
339.38437,0.04965
337.89458,0.09087
336.40479,0.09813
334.91501,0.05289
333.42522,0.05132
331.93543,0.04979
330.44564,0.00232
328.95585,0.07187
327.46606,0.06228
325.97627,0.05271
324.48649,0.02348
322.99670,0.04320
321.50691,0.05562
320.01712,0.06806
318.52733,0.04847
317.03754,0.08376
315.54776,0.08123
314.05797,0.07873
312.56818,0.08244
311.07839,0.07459
309.58860,0.05982
308.09881,0.04507
306.60902,0.03577
305.11924,0.03190
303.62945,0.03077
302.13966,0.00572
300.64987,0.01227
299.16008,0.00572
