1778.52000,0.00580
1777.03021,0.00850
1775.54042,0.01202
1774.05063,0.00453
1772.56085,0.01678
1771.07106,0.00227
1769.58127,0.03507
1768.09148,0.00485
1766.60169,0.02510
1765.11190,0.01387
1763.62212,0.02394
1762.13233,0.03798
1760.64254,0.01107
1759.15275,0.02439
1757.66296,0.03695
1756.17317,0.00777
1754.68339,0.01093
1753.19360,0.00231
1751.70381,0.02760
1750.21402,0.02219
1748.72423,0.02942
1747.23444,0.01540
1745.74465,0.01166
1744.25487,0.00873
1742.76508,0.04230
1741.27529,0.07039
1739.78550,0.05517
1738.29571,0.07938
1736.80592,0.06579
1735.31614,0.07194
1733.82635,0.04423
1732.33656,0.00000
1730.84677,0.03181
1729.35698,0.04000
1727.86719,0.06084
1726.37740,0.03206
1724.88762,0.05532
1723.39783,0.02108
1721.90804,0.06332
1720.41825,0.04648
1718.92846,0.02259
1717.43867,0.00660
1715.94889,0.05448
1714.45910,0.05825
1712.96931,0.01872
1711.47952,0.02414
1709.98973,0.02880
1708.49994,0.05713
1707.01016,0.06382
1705.52037,0.07054
1704.03058,0.11788
1702.54079,0.07856
1701.05100,0.11414
1699.56121,0.08355
1698.07142,0.12156
1696.58164,0.10443
1695.09185,0.13147
1693.60206,0.13962
1692.11227,0.14150
1690.62248,0.14104
1689.13269,0.16190
1687.64291,0.18909
1686.15312,0.18242
1684.66333,0.20022
1683.17354,0.22356
1681.68375,0.21147
1680.19396,0.19154
1678.70417,0.17951
1677.21439,0.17934
1675.72460,0.21860
1674.23481,0.18854
1672.74502,0.19476
1671.25523,0.15925
1669.76544,0.17814
1668.27566,0.16476
1666.78587,0.17189
1665.29608,0.14202
1663.80629,0.13188
1662.31650,0.15803
1660.82671,0.16529
1659.33693,0.13633
1657.84714,0.10819
1656.35735,0.13130
1654.86756,0.12923
1653.37777,0.12955
1651.88798,0.15749
1650.39819,0.16654
1648.90841,0.17011
1647.41862,0.11224
1645.92883,0.11547
1644.43904,0.11874
1642.94925,0.10982
1641.45946,0.13561
1639.96968,0.10706
1638.47989,0.14394
1636.99010,0.11308
1635.50031,0.13348
1634.01052,0.14051
1632.52073,0.11369
1631.03094,0.10738
1629.54116,0.10111
1628.05137,0.15476
1626.56158,0.09733
1625.07179,0.15419
1623.58200,0.14647
1622.09221,0.16163
1620.60243,0.16027
1619.11264,0.14554
1617.62285,0.13715
1616.13306,0.12880
1614.64327,0.15987
1613.15348,0.13424
1611.66370,0.14016
1610.17391,0.10198
1608.68412,0.14658
1607.19433,0.12974
1605.70454,0.13106
1604.21475,0.11546
1602.72496,0.09990
1601.23518,0.15332
1599.74539,0.12639
1598.25560,0.10737
1596.76581,0.06395
1595.27602,0.07967
1593.78623,0.09700
1592.29645,0.07259
1590.80666,0.10495
1589.31687,0.06484
1587.82708,0.09648
1586.33729,0.06983
1584.84750,0.08576
1583.35771,0.04105
1581.86793,0.02395
1580.37814,0.03998
1578.88835,0.05289
1577.39856,0.03667
1575.90877,0.06540
1574.41898,0.03427
1572.92920,0.01105
1571.43941,0.01072
1569.94962,0.00648
1568.45983,0.00227
1566.97004,0.04053
1565.48025,0.02681
1563.99047,0.01865
1562.50068,0.01445
1561.01089,0.01895
1559.52110,0.04082
1558.03131,0.04302
1556.54152,0.03580
1555.05173,0.01678
1553.56195,0.04508
1552.07216,0.03401
1550.58237,0.03321
1549.09258,0.02220
1547.60279,0.09476
1546.11300,0.06805
1544.62322,0.05398
1543.13343,0.09353
1541.64364,0.04563
1540.15385,0.03047
1538.66406,0.01535
1537.17427,0.04714
1535.68448,0.05060
1534.19470,0.01547
1532.70491,0.01662
1531.21512,0.00677
1529.72533,0.01665
1528.23554,0.00135
1526.74575,0.02627
1525.25597,0.06067
1523.76618,0.04073
1522.27639,0.03974
1520.78660,0.04193
1519.29681,0.01499
1517.80702,0.00227
1516.31724,0.02307
1514.82745,0.03996
1513.33766,0.04073
1511.84787,0.04153
1510.35808,0.01912
1508.86829,0.04323
1507.37850,0.05240
1505.88872,0.02535
1504.39893,0.00227
1502.90914,0.03423
1501.41935,0.05361
1499.92956,0.05491
1498.43977,0.09327
1496.94999,0.09620
1495.46020,0.16850
1493.97041,0.17544
1492.48062,0.22968
1490.99083,0.26583
1489.50104,0.30123
1488.01125,0.34926
1486.52147,0.39733
1485.03168,0.49349
1483.54189,0.58890
1482.05210,0.65676
1480.56231,0.72859
1479.07252,0.88714
1477.58274,0.92515
1476.09295,0.96870
1474.60316,1.00283
1473.11337,1.05985
1471.62358,1.03099
1470.13379,1.08019
1468.64401,1.00727
1467.15422,0.98954
1465.66443,0.96357
1464.17464,0.93763
1462.68485,0.93576
1461.19506,0.95204
1459.70527,0.85803
1458.21549,0.75775
1456.72570,0.72763
1455.23591,0.64001
1453.74612,0.60681
1452.25633,0.49876
1450.76654,0.52472
1449.27676,0.50973
1447.78697,0.52551
1446.29718,0.45226
1444.80739,0.42909
1443.31760,0.40595
1441.82781,0.35644
1440.33802,0.30539
1438.84824,0.24964
1437.35845,0.24514
1435.86866,0.23910
1434.37887,0.17556
1432.88908,0.24051
1431.39929,0.22510
1429.90951,0.24283
1428.41972,0.20069
1426.92993,0.24369
1425.44014,0.16695
1423.95035,0.20174
1422.46056,0.23656
1420.97078,0.20403
1419.48099,0.22670
1417.99120,0.27856
1416.50141,0.31311
1415.01162,0.29805
1413.52183,0.32872
1412.03204,0.28929
1410.54226,0.34288
1409.05247,0.28302
1407.56268,0.25472
1406.07289,0.25009
1404.58310,0.23288
1403.09331,0.21570
1401.60353,0.22298
1400.11374,0.35874
1398.62395,0.35348
1397.13416,0.34351
1395.64437,0.35644
1394.15458,0.41903
1392.66479,0.42965
1391.17501,0.43636
1389.68522,0.42262
1388.19543,0.46091
1386.70564,0.44013
1385.21585,0.41939
1383.72606,0.40655
1382.23628,0.44497
1380.74649,0.38491
1379.25670,0.36981
1377.76691,0.43984
1376.27712,0.43898
1374.78733,0.47913
1373.29755,0.49252
1371.80776,0.51855
1370.31797,0.67384
1368.82818,0.73382
1367.33839,0.79383
1365.84860,0.97916
1364.35881,1.08888
1362.86903,1.30107
1361.37924,1.36751
1359.88945,1.44500
1358.39966,1.48471
1356.90987,1.50001
1355.42008,1.42551
1353.93030,1.37153
1352.44051,1.32664
1350.95072,1.28179
1349.46093,1.20505
1347.97114,1.09366
1346.48135,0.93897
1344.99156,0.82686
1343.50178,0.76837
1342.01199,0.67523
1340.52220,0.58528
1339.03241,0.50009
1337.54262,0.46773
1336.05283,0.46456
1334.56305,0.46142
1333.07326,0.43230
1331.58347,0.44656
1330.09368,0.46872
1328.60389,0.42079
1327.11410,0.38628
1325.62432,0.32580
1324.13453,0.31105
1322.64474,0.32155
1321.15495,0.31869
1319.66516,0.31389
1318.17537,0.30912
1316.68558,0.27483
1315.19580,0.31543
1313.70601,0.28987
1312.21622,0.27144
1310.72643,0.24988
1309.23664,0.25199
1307.74685,0.26675
1306.25707,0.24686
1304.76728,0.25537
1303.27749,0.26391
1301.78770,0.25988
1300.29791,0.24878
1298.80812,0.23772
1297.31834,0.31021
1295.82855,0.28187
1294.33876,0.25041
1292.84897,0.25681
1291.35918,0.27348
1289.86939,0.26812
1288.37960,0.26279
1286.88982,0.30162
1285.40003,0.26246
1283.91024,0.37937
1282.42045,0.35604
1280.93066,0.36347
1279.44087,0.38354
1277.95109,0.35479
1276.46130,0.32212
1274.97151,0.29698
1273.48172,0.27186
1271.99193,0.35828
1270.50214,0.37145
1269.01235,0.36652
1267.52257,0.39078
1266.03278,0.46787
1264.54299,0.49850
1263.05320,0.47321
1261.56341,0.50823
1260.07362,0.54329
1258.58384,0.53700
1257.09405,0.50474
1255.60426,0.48748
1254.11447,0.51439
1252.62468,0.47040
1251.13489,0.46900
1249.64511,0.43216
1248.15532,0.31892
1246.66553,0.33574
1245.17574,0.35258
1243.68595,0.37104
1242.19616,0.43365
1240.70637,0.34972
1239.21659,0.27764
1237.72680,0.19772
1236.23701,0.25179
1234.74722,0.26333
1233.25743,0.23196
1231.76764,0.20062
1230.27786,0.22566
1228.78807,0.14829
1227.29828,0.19309
1225.80849,0.19300
1224.31870,0.19846
1222.82891,0.14564
1221.33912,0.14643
1219.84934,0.12440
1218.35955,0.10241
1216.86976,0.08832
1215.37997,0.13889
1213.89018,0.15323
1212.40039,0.15185
1210.91061,0.13237
1209.42082,0.09795
1207.93103,0.09903
1206.44124,0.10013
1204.95145,0.07605
1203.46166,0.04648
1201.97188,0.06975
1200.48209,0.11117
1198.99230,0.10533
1197.50251,0.03176
1196.01272,0.06145
1194.52293,0.05138
1193.03314,0.04134
1191.54336,0.04039
1190.05357,0.02450
1188.56378,0.05040
1187.07399,0.00227
1185.58420,0.01570
1184.09441,0.04729
1182.60463,0.02533
1181.11484,0.00340
1179.62505,0.02107
1178.13526,0.08448
1176.64547,0.09513
1175.15568,0.09240
1173.66589,0.16773
1172.17611,0.09887
1170.68632,0.06275
1169.19653,0.02666
1167.70674,0.04774
1166.21695,0.05623
1164.72716,0.05373
1163.23738,0.06859
1161.74759,0.04093
1160.25780,0.02985
1158.76801,0.01604
1157.27822,0.00227
1155.78843,0.03024
1154.29865,0.01412
1152.80886,0.03506
1151.31907,0.07889
1149.82928,0.08256
1148.33949,0.09572
1146.84970,0.09669
1145.35991,0.09770
1143.87013,0.10071
1142.38034,0.06198
1140.89055,0.13833
1139.40076,0.17768
1137.91097,0.20367
1136.42118,0.25569
1134.93140,0.27976
1133.44161,0.30387
1131.95182,0.34101
1130.46203,0.39788
1128.97224,0.37520
1127.48245,0.36357
1125.99266,0.32282
1124.50288,0.40503
1123.01309,0.39547
1121.52330,0.38594
1120.03351,0.42176
1118.54372,0.48755
1117.05393,0.46511
1115.56415,0.46949
1114.07436,0.50464
1112.58457,0.49017
1111.09478,0.47574
1109.60499,0.55669
1108.11520,0.57699
1106.62542,0.64145
1105.13563,0.65866
1103.64584,0.72476
1102.15605,0.82478
1100.66626,0.82750
1099.17647,0.83026
1097.68668,0.90042
1096.19690,0.87054
1094.70711,0.91161
1093.21732,0.93695
1091.72753,0.97099
1090.23774,0.99678
1088.74795,1.02261
1087.25817,1.04886
1085.76838,1.10982
1084.27859,1.12510
1082.78880,1.14041
1081.29901,1.26214
1079.80922,1.23732
1078.31943,1.25115
1076.82965,1.26501
1075.33986,1.35613
1073.85007,1.32199
1072.36028,1.29811
1070.87049,1.34520
1069.38070,1.42383
1067.89092,1.43827
1066.40113,1.45274
1064.91134,1.32973
1063.42155,1.24379
1061.93176,1.19807
1060.44197,1.14135
1058.95219,1.11145
1057.46240,1.10483
1055.97261,1.09825
1054.48282,0.99358
1052.99303,0.90312
1051.50324,0.84659
1050.01345,0.78457
1048.52367,0.67766
1047.03388,0.66535
1045.54409,0.65307
1044.05430,0.65500
1042.56451,0.60259
1041.07472,0.49742
1039.58494,0.47580
1038.09515,0.41245
1036.60536,0.39603
1035.11557,0.37963
1033.62578,0.35735
1032.13599,0.37136
1030.64620,0.33890
1029.15642,0.37109
1027.66663,0.39701
1026.17684,0.42295
1024.68705,0.46706
1023.19726,0.63649
1021.70747,0.70351
1020.21769,0.85804
1018.72790,1.04963
1017.23811,1.18452
1015.74832,1.31943
1014.25853,1.51191
1012.76874,1.68235
1011.27896,1.81106
1009.78917,1.95713
1008.29938,2.00000
1006.80959,1.98143
1005.31980,1.96290
1003.83001,1.76472
1002.34022,1.66272
1000.85044,1.57887
999.36065,1.55573
997.87086,1.54641
996.38107,1.53712
994.89128,1.60234
993.40149,1.43039
991.91171,1.41213
990.42192,1.50896
988.93213,1.47185
987.44234,1.41587
985.95255,1.35991
984.46276,1.35678
982.97297,1.37575
981.48319,1.36875
979.99340,1.30267
978.50361,1.30124
977.01382,1.29985
975.52403,1.22913
974.03424,1.14821
972.54446,1.07046
971.05467,1.09205
969.56488,1.05298
968.07509,0.98006
966.58530,0.90717
965.09551,0.84140
963.60573,0.86235
962.11594,0.87624
960.62615,0.78692
959.13636,0.75989
957.64657,0.73290
956.15678,0.67283
954.66699,0.71131
953.17721,0.68913
951.68742,0.69693
950.19763,0.65433
948.70784,0.61175
947.21805,0.61019
945.72826,0.62284
944.23848,0.56618
942.74869,0.66558
941.25890,0.64365
939.76911,0.66904
938.27932,0.69446
936.78953,0.68917
935.29974,0.76666
933.80996,0.81424
932.32017,0.80747
930.83038,0.84565
929.34059,0.88386
927.85080,0.91501
926.36101,0.86976
924.87123,0.76070
923.38144,0.82898
921.89165,0.79918
920.40186,0.76941
918.91207,0.74953
917.42228,0.76198
915.93250,0.74846
914.44271,0.83348
912.95292,0.80742
911.46313,0.78138
909.97334,0.87595
908.48355,0.84761
906.99376,0.90441
905.50398,0.82807
904.01419,0.83253
902.52440,0.83702
901.03461,0.87976
899.54482,0.94381
898.05503,0.86368
896.56525,0.93646
895.07546,0.93087
893.58567,0.92530
892.09588,0.87997
890.60609,0.93790
889.11630,0.90051
887.62651,0.90886
886.13673,0.92551
884.64694,0.94220
883.15715,0.88759
881.66736,0.83145
880.17757,0.87699
878.68778,0.87804
877.19800,0.87912
875.70821,0.88298
874.21842,0.90501
872.72863,0.90736
871.23884,0.99880
869.74905,1.05598
868.25927,1.11320
866.76948,1.09204
865.27969,0.99840
863.78990,1.05374
862.30011,1.10123
860.81032,1.09320
859.32053,1.08519
857.83075,1.03348
856.34096,1.00860
854.85117,0.91203
853.36138,0.80919
851.87159,0.79188
850.38180,0.77461
848.89202,0.58912
847.40223,0.52659
845.91244,0.38135
844.42265,0.34805
842.93286,0.31477
841.44307,0.38398
839.95329,0.34446
838.46350,0.26715
836.97371,0.30334
835.48392,0.29938
833.99413,0.29545
832.50434,0.25451
831.01455,0.28690
829.52477,0.34216
828.03498,0.35254
826.54519,0.30148
825.05540,0.25046
823.56561,0.14666
822.07582,0.14140
820.58604,0.16848
819.09625,0.14477
817.60646,0.12109
816.11667,0.04266
814.62688,0.04544
813.13709,0.06874
811.64730,0.00932
810.15752,0.00786
808.66773,0.00643
807.17794,0.00227
805.68815,0.05256
804.19836,0.08949
802.70857,0.13867
801.21879,0.18788
799.72900,0.20362
798.23921,0.23989
796.74942,0.35657
795.25963,0.44372
793.76984,0.53091
792.28006,0.50505
790.79027,0.55644
789.30048,0.57950
787.81069,0.61283
786.32090,0.63831
784.83111,0.66382
783.34132,0.66021
781.85154,0.68263
780.36175,0.71454
778.87196,0.69763
777.38217,0.68074
775.89238,0.77579
774.40259,0.78182
772.91281,0.82255
771.42302,0.89681
769.93323,0.97110
768.44344,0.95913
766.95365,0.87311
765.46386,0.84859
763.97407,0.76894
762.48429,0.72281
760.99450,0.67672
759.50471,0.58455
758.01492,0.45617
756.52513,0.43184
755.03534,0.36577
753.54556,0.29973
752.05577,0.24555
750.56598,0.18667
749.07619,0.16328
747.58640,0.15293
746.09661,0.14260
744.60683,0.06493
743.11704,0.00227
741.62725,0.00182
740.13746,0.04318
738.64767,0.08456
737.15788,0.05584
735.66809,0.02795
734.17831,0.04263
732.68852,0.04080
731.19873,0.03900
729.70894,0.06481
728.21915,0.03549
726.72936,0.06845
725.23958,0.08096
723.74979,0.06710
722.26000,0.05327
720.77021,0.01544
719.28042,0.02190
717.79063,0.09223
716.30084,0.09679
714.81106,0.10139
713.32127,0.08040
711.83148,0.01767
710.34169,0.02827
708.85190,0.01525
707.36211,0.00227
705.87233,0.08205
704.38254,0.07281
702.89275,0.08331
701.40296,0.07571
699.91317,0.06814
698.42338,0.07006
696.93360,0.10826
695.44381,0.11812
693.95402,0.14023
692.46423,0.16237
690.97444,0.19597
689.48465,0.21304
687.99486,0.26719
686.50508,0.24257
685.01529,0.21797
683.52550,0.21232
682.03571,0.21301
680.54592,0.18851
679.05613,0.16483
677.56635,0.14117
676.07656,0.15853
674.58677,0.17750
673.09698,0.15394
671.60719,0.13435
670.11740,0.11480
668.62761,0.10709
667.13783,0.10100
665.64804,0.09612
664.15825,0.09126
662.66846,0.07817
661.17867,0.07535
659.68888,0.08989
658.19910,0.07807
656.70931,0.06628
655.21952,0.07699
653.72973,0.13185
652.23994,0.11818
650.75015,0.12582
649.26037,0.13350
647.77058,0.13647
646.28079,0.13396
644.79100,0.12124
643.30121,0.08845
641.81142,0.05570
640.32163,0.08010
638.83185,0.01549
637.34206,0.06941
635.85227,0.05244
634.36248,0.03550
632.87269,0.07690
631.38290,0.07184
629.89312,0.06524
628.40333,0.07167
626.91354,0.07813
625.42375,0.00227
623.93396,0.04357
622.44417,0.08845
620.95438,0.13336
619.46460,0.14796
617.97481,0.11059
616.48502,0.11107
614.99523,0.10370
613.50544,0.09636
612.01565,0.12846
610.52587,0.15664
609.03608,0.18565
607.54629,0.17331
606.05650,0.16101
604.56671,0.13258
603.07692,0.21057
601.58714,0.18929
600.09735,0.16805
598.60756,0.16811
597.11777,0.15875
595.62798,0.15179
594.13819,0.14406
592.64840,0.13637
591.15862,0.07197
589.66883,0.03046
588.17904,0.11900
586.68925,0.09686
585.19946,0.07474
583.70967,0.14446
582.21989,0.19215
580.73010,0.16816
579.24031,0.14420
577.75052,0.15731
576.26073,0.13105
574.77094,0.23799
573.28115,0.20155
571.79137,0.16513
570.30158,0.18076
568.81179,0.26104
567.32200,0.26018
565.83221,0.25935
564.34242,0.34445
562.85264,0.40358
561.36285,0.46668
559.87306,0.46164
558.38327,0.45663
556.89348,0.46860
555.40369,0.54522
553.91391,0.55646
552.42412,0.56773
550.93433,0.65074
549.44454,0.66602
547.95475,0.63641
546.46496,0.65608
544.97517,0.67578
543.48539,0.75028
541.99560,0.78226
540.50581,0.72719
539.01602,0.67215
537.52623,0.68610
536.03644,0.69456
534.54666,0.68178
533.05687,0.66745
531.56708,0.65315
530.07729,0.60657
528.58750,0.58209
527.09771,0.58049
525.60792,0.57893
524.11814,0.60182
522.62835,0.50733
521.13856,0.53108
519.64877,0.49890
518.15898,0.46676
516.66919,0.50084
515.17941,0.37813
513.68962,0.36933
512.19983,0.36056
510.71004,0.35930
509.22025,0.34941
507.73046,0.40259
506.24068,0.42980
504.75089,0.45704
503.26110,0.43230
501.77131,0.42729
500.28152,0.42665
498.79173,0.42603
497.30194,0.45737
495.81216,0.40126
494.32237,0.39049
492.83258,0.37976
491.34279,0.43723
489.85300,0.43404
488.36321,0.37021
486.87343,0.33635
485.38364,0.30253
483.89385,0.28765
482.40406,0.20424
480.91427,0.15238
479.42448,0.10056
477.93469,0.00227
476.44491,0.06327
474.95512,0.12233
473.46533,0.18142
471.97554,0.13534
470.48575,0.08614
468.99596,0.06140
467.50618,0.04812
466.01639,0.03486
464.52660,0.02361
463.03681,0.03840
461.54702,0.05991
460.05723,0.08146
458.56745,0.02305
457.07766,0.14435
455.58787,0.12107
454.09808,0.09782
452.60829,0.16326
451.11850,0.11210
449.62871,0.14844
448.13893,0.18481
446.64914,0.31420
445.15935,0.37901
443.66956,0.52895
442.17977,0.52093
440.68998,0.51293
439.20020,0.58417
437.71041,0.66567
436.22062,0.68220
434.73083,0.69876
433.24104,0.89226
431.75125,0.97311
430.26146,0.99685
428.77168,1.02063
427.28189,1.16618
425.79210,1.16362
424.30231,1.18591
422.81252,1.20824
421.32273,1.28851
419.83295,1.18835
418.34316,1.13118
416.85337,1.07403
415.36358,0.81715
413.87379,0.80222
412.38400,0.74478
410.89422,0.68736
409.40443,0.71430
407.91464,0.60730
406.42485,0.60908
404.93506,0.60380
403.44527,0.59855
401.95548,0.54132
400.46570,0.52983
398.97591,0.51364
397.48612,0.49748
395.99633,0.56174
394.50654,0.53382
393.01675,0.53115
391.52697,0.52851
390.03718,0.50148
388.54739,0.40986
387.05760,0.36082
385.56781,0.31181
384.07802,0.39050
382.58824,0.37386
381.09845,0.36317
379.60866,0.35251
378.11887,0.31626
376.62908,0.35019
375.13929,0.30258
373.64950,0.25500
372.15972,0.20706
370.66993,0.16309
369.18014,0.13255
367.69035,0.10204
366.20056,0.10939
364.71077,0.13096
363.22099,0.13640
361.73120,0.14187
360.24141,0.08708
358.75162,0.12847
357.26183,0.13207
355.77204,0.13569
354.28225,0.17796
352.79247,0.08787
351.30268,0.08253
349.81289,0.07721
348.32310,0.05420
346.83331,0.09899
345.34352,0.06934
343.85374,0.03972
342.36395,0.03338
340.87416,0.11971
339.38437,0.12569
337.89458,0.13170
336.40479,0.15901
334.91501,0.08786
333.42522,0.05337
331.93543,0.01892
330.44564,0.03612
328.95585,0.11876
327.46606,0.11040
325.97627,0.10208
324.48649,0.08710
322.99670,0.05559
321.50691,0.06212
320.01712,0.06868
318.52733,0.08473
317.03754,0.11027
315.54776,0.10747
314.05797,0.10470
312.56818,0.15949
311.07839,0.08034
309.58860,0.07412
308.09881,0.06792
306.60902,0.00227
305.11924,0.06492
303.62945,0.06772
302.13966,0.04798
300.64987,0.00227
299.16008,0.00227
