1778.52000,0.02432
1777.03021,0.02297
1775.54042,0.00866
1774.05063,0.00015
1772.56085,0.05663
1771.07106,0.03809
1769.58127,0.04411
1768.09148,0.06605
1766.60169,0.03027
1765.11190,0.02051
1763.62212,0.02666
1762.13233,0.09203
1760.64254,0.05638
1759.15275,0.06696
1757.66296,0.05302
1756.17317,0.07521
1754.68339,0.03825
1753.19360,0.03307
1751.70381,0.02648
1750.21402,0.03292
1748.72423,0.02206
1747.23444,0.03000
1745.74465,0.00622
1744.25487,0.07196
1742.76508,0.02659
1741.27529,0.07941
1739.78550,0.06874
1738.29571,0.08553
1736.80592,0.02729
1735.31614,0.10045
1733.82635,0.06104
1732.33656,0.04331
1730.84677,0.03716
1729.35698,0.01806
1727.86719,0.02208
1726.37740,0.00015
1724.88762,0.00666
1723.39783,0.01464
1721.90804,0.07750
1720.41825,0.05668
1718.92846,0.07053
1717.43867,0.02523
1715.94889,0.08534
1714.45910,0.06319
1712.96931,0.01799
1711.47952,0.06953
1709.98973,0.06047
1708.49994,0.08898
1707.01016,0.06122
1705.52037,0.03349
1704.03058,0.09962
1702.54079,0.07918
1701.05100,0.14537
1699.56121,0.11633
1698.07142,0.12485
1696.58164,0.08432
1695.09185,0.07702
1693.60206,0.07553
1692.11227,0.15202
1690.62248,0.19534
1689.13269,0.17951
1687.64291,0.18104
1686.15312,0.19414
1684.66333,0.14953
1683.17354,0.10496
1681.68375,0.17156
1680.19396,0.17469
1678.70417,0.18217
1677.21439,0.14927
1675.72460,0.13661
1674.23481,0.17018
1672.74502,0.09984
1671.25523,0.15079
1669.76544,0.15702
1668.27566,0.22680
1666.78587,0.19989
1665.29608,0.21777
1663.80629,0.17649
1662.31650,0.22186
1660.82671,0.14888
1659.33693,0.18998
1657.84714,0.16327
1656.35735,0.09039
1654.86756,0.08828
1653.37777,0.08620
1651.88798,0.05527
1650.39819,0.15575
1648.90841,0.13355
1647.41862,0.05798
1645.92883,0.07554
1644.43904,0.09313
1642.94925,0.14613
1641.45946,0.13419
1639.96968,0.17137
1638.47989,0.12486
1636.99010,0.07549
1635.50031,0.05791
1634.01052,0.11831
1632.52073,0.14409
1631.03094,0.09629
1629.54116,0.16545
1628.05137,0.15524
1626.56158,0.11187
1625.07179,0.18401
1623.58200,0.18256
1622.09221,0.16670
1620.60243,0.11624
1619.11264,0.13221
1617.62285,0.16120
1616.13306,0.06752
1614.64327,0.11390
1613.15348,0.13865
1611.66370,0.13601
1610.17391,0.12330
1608.68412,0.10051
1607.19433,0.16292
1605.70454,0.15463
1604.21475,0.13627
1602.72496,0.11794
1601.23518,0.15883
1599.74539,0.17521
1598.25560,0.12233
1596.76581,0.12722
1595.27602,0.04120
1593.78623,0.09235
1592.29645,0.04249
1590.80666,0.05184
1589.31687,0.12040
1587.82708,0.05764
1586.33729,0.11905
1584.84750,0.00727
1583.35771,0.05142
1581.86793,0.05808
1580.37814,0.05032
1578.88835,0.09024
1577.39856,0.05513
1575.90877,0.00561
1574.41898,0.08026
1572.92920,0.02792
1571.43941,0.00015
1569.94962,0.00192
1568.45983,0.00372
1566.97004,0.01783
1565.48025,0.07671
1563.99047,0.03747
1562.50068,0.03001
1561.01089,0.01970
1559.52110,0.10614
1558.03131,0.09589
1556.54152,0.03227
1555.05173,0.04662
1553.56195,0.01626
1552.07216,0.08842
1550.58237,0.07256
1549.09258,0.05240
1547.60279,0.02794
1546.11300,0.03815
1544.62322,0.05417
1543.13343,0.01682
1541.64364,0.04156
1540.15385,0.02448
1538.66406,0.00742
1537.17427,0.08712
1535.68448,0.00950
1534.19470,0.02718
1532.70491,0.00448
1531.21512,0.00924
1529.72533,0.05589
1528.23554,0.02029
1526.74575,0.08577
1525.25597,0.04158
1523.76618,0.03927
1522.27639,0.00669
1520.78660,0.06219
1519.29681,0.04988
1517.80702,0.07224
1516.31724,0.07731
1514.82745,0.08242
1513.33766,0.07456
1511.84787,0.06674
1510.35808,0.05173
1508.86829,0.02809
1507.37850,0.00015
1505.88872,0.07426
1504.39893,0.06467
1502.90914,0.06955
1501.41935,0.09034
1499.92956,0.01878
1498.43977,0.05118
1496.94999,0.12403
1495.46020,0.12041
1493.97041,0.15291
1492.48062,0.24029
1490.99083,0.28007
1489.50104,0.27224
1488.01125,0.27744
1486.52147,0.28266
1485.03168,0.45537
1483.54189,0.48520
1482.05210,0.61466
1480.56231,0.67920
1479.07252,0.70913
1477.58274,0.83869
1476.09295,0.90043
1474.60316,0.89148
1473.11337,0.90276
1471.62358,0.98337
1470.13379,0.97740
1468.64401,1.00466
1467.15422,0.99153
1465.66443,0.96256
1464.17464,0.93361
1462.68485,0.77912
1461.19506,0.73580
1459.70527,0.77624
1458.21549,0.70557
1456.72570,0.64503
1455.23591,0.59895
1453.74612,0.56734
1452.25633,0.54876
1450.76654,0.46092
1449.27676,0.43374
1447.78697,0.39792
1446.29718,0.41122
1444.80739,0.38774
1443.31760,0.36430
1441.82781,0.27520
1440.33802,0.22222
1438.84824,0.21691
1437.35845,0.18132
1435.86866,0.17319
1434.37887,0.25747
1432.88908,0.25518
1431.39929,0.22549
1429.90951,0.23047
1428.41972,0.19074
1426.92993,0.21311
1425.44014,0.17344
1423.95035,0.16917
1422.46056,0.16493
1420.97078,0.16000
1419.48099,0.18975
1417.99120,0.19354
1416.50141,0.27965
1415.01162,0.27051
1413.52183,0.28162
1412.03204,0.26966
1410.54226,0.34146
1409.05247,0.26605
1407.56268,0.30182
1406.07289,0.23802
1404.58310,0.26520
1403.09331,0.29240
1401.60353,0.30232
1400.11374,0.35990
1398.62395,0.35689
1397.13416,0.40732
1395.64437,0.43468
1394.15458,0.44620
1392.66479,0.58910
1391.17501,0.59635
1389.68522,0.49249
1388.19543,0.53733
1386.70564,0.52880
1385.21585,0.52029
1383.72606,0.53925
1382.23628,0.47163
1380.74649,0.57148
1379.25670,0.52846
1377.76691,0.54466
1376.27712,0.58975
1374.78733,0.59735
1373.29755,0.66128
1371.80776,0.83061
1370.31797,0.83974
1368.82818,0.92325
1367.33839,1.00679
1365.84860,1.25131
1364.35881,1.41214
1362.86903,1.62064
1361.37924,1.70502
1359.88945,1.85007
1358.39966,1.92153
1356.90987,1.87754
1355.42008,1.85956
1353.93030,1.84884
1352.44051,1.77318
1350.95072,1.69756
1349.46093,1.61620
1347.97114,1.42805
1346.48135,1.08836
1344.99156,0.88296
1343.50178,0.84647
1342.01199,0.76238
1340.52220,0.75193
1339.03241,0.67512
1337.54262,0.56659
1336.05283,0.50427
1334.56305,0.44199
1333.07326,0.41872
1331.58347,0.43012
1330.09368,0.40835
1328.60389,0.37939
1327.11410,0.32304
1325.62432,0.37643
1324.13453,0.34613
1322.64474,0.30431
1321.15495,0.40832
1319.66516,0.32903
1318.17537,0.24977
1316.68558,0.29325
1315.19580,0.27324
1313.70601,0.25037
1312.21622,0.19434
1310.72643,0.17442
1309.23664,0.18197
1307.74685,0.18521
1306.25707,0.17550
1304.76728,0.19324
1303.27749,0.21101
1301.78770,0.17252
1300.29791,0.15139
1298.80812,0.15771
1297.31834,0.21314
1295.82855,0.25994
1294.33876,0.32410
1292.84897,0.23094
1291.35918,0.18113
1289.86939,0.21939
1288.37960,0.25769
1286.88982,0.22096
1285.40003,0.25500
1283.91024,0.22266
1282.42045,0.30439
1280.93066,0.26057
1279.44087,0.28606
1277.95109,0.34624
1276.46130,0.24333
1274.97151,0.25232
1273.48172,0.26134
1271.99193,0.29999
1270.50214,0.32567
1269.01235,0.40192
1267.52257,0.38292
1266.03278,0.37117
1264.54299,0.42008
1263.05320,0.41272
1261.56341,0.43210
1260.07362,0.45151
1258.58384,0.46591
1257.09405,0.50343
1255.60426,0.48901
1254.11447,0.47318
1252.62468,0.47760
1251.13489,0.44162
1249.64511,0.37392
1248.15532,0.30048
1246.66553,0.30791
1245.17574,0.31537
1243.68595,0.35462
1242.19616,0.25965
1240.70637,0.29607
1239.21659,0.16653
1237.72680,0.16837
1236.23701,0.14137
1234.74722,0.14039
1233.25743,0.14955
1231.76764,0.15873
1230.27786,0.15496
1228.78807,0.16854
1227.29828,0.20236
1225.80849,0.15537
1224.31870,0.10554
1222.82891,0.11780
1221.33912,0.15752
1219.84934,0.11066
1218.35955,0.06384
1216.86976,0.09355
1215.37997,0.13772
1213.89018,0.23101
1212.40039,0.11936
1210.91061,0.10589
1209.42082,0.10400
1207.93103,0.10792
1206.44124,0.11187
1204.95145,0.12162
1203.46166,0.02170
1201.97188,0.09503
1200.48209,0.09045
1198.99230,0.10610
1197.50251,0.08859
1196.01272,0.06100
1194.52293,0.03056
1193.03314,0.00015
1191.54336,0.05754
1190.05357,0.04279
1188.56378,0.03529
1187.07399,0.03504
1185.58420,0.04637
1184.09441,0.07361
1182.60463,0.03808
1181.11484,0.00259
1179.62505,0.05880
1178.13526,0.10204
1176.64547,0.08036
1175.15568,0.07170
1173.66589,0.11359
1172.17611,0.11077
1170.68632,0.09210
1169.19653,0.07346
1167.70674,0.00000
1166.21695,0.04044
1164.72716,0.10111
1163.23738,0.00015
1161.74759,0.04037
1160.25780,0.08784
1158.76801,0.09204
1157.27822,0.09627
1155.78843,0.07022
1154.29865,0.02832
1152.80886,0.05285
1151.31907,0.04999
1149.82928,0.00097
1148.33949,0.12376
1146.84970,0.08707
1145.35991,0.05041
1143.87013,0.05493
1142.38034,0.07679
1140.89055,0.05827
1139.40076,0.13217
1137.91097,0.12815
1136.42118,0.15159
1134.93140,0.16784
1133.44161,0.18412
1131.95182,0.20910
1130.46203,0.26586
1128.97224,0.25914
1127.48245,0.31597
1125.99266,0.30210
1124.50288,0.24640
1123.01309,0.28383
1121.52330,0.32130
1120.03351,0.28301
1118.54372,0.43530
1117.05393,0.44471
1115.56415,0.48014
1114.07436,0.40012
1112.58457,0.35911
1111.09478,0.31812
1109.60499,0.44029
1108.11520,0.46288
1106.62542,0.49561
1105.13563,0.47352
1103.64584,0.66221
1102.15605,0.59255
1100.66626,0.62252
1099.17647,0.65252
1097.68668,0.70709
1096.19690,0.81655
1094.70711,0.74271
1093.21732,0.77572
1091.72753,0.89394
1090.23774,0.94001
1088.74795,0.98611
1087.25817,0.89366
1085.76838,0.96725
1084.27859,1.01201
1082.78880,1.02648
1081.29901,1.09872
1079.80922,1.18398
1078.31943,1.15741
1076.82965,1.13086
1075.33986,1.12817
1073.85007,1.23233
1072.36028,1.25279
1070.87049,1.17369
1069.38070,1.31258
1067.89092,1.30066
1066.40113,1.28878
1064.91134,1.18237
1063.42155,1.15683
1061.93176,1.07503
1060.44197,1.03801
1058.95219,0.82347
1057.46240,0.84425
1055.97261,0.86506
1054.48282,0.76610
1052.99303,0.80285
1051.50324,0.76313
1050.01345,0.54734
1048.52367,0.51345
1047.03388,0.50126
1045.54409,0.48909
1044.05430,0.49716
1042.56451,0.42588
1041.07472,0.39504
1039.58494,0.42919
1038.09515,0.36233
1036.60536,0.35540
1035.11557,0.34851
1033.62578,0.35536
1032.13599,0.35358
1030.64620,0.27245
1029.15642,0.32558
1027.66663,0.31596
1026.17684,0.30637
1024.68705,0.34806
1023.19726,0.55000
1021.70747,0.61629
1020.21769,0.91645
1018.72790,0.97992
1017.23811,1.08167
1015.74832,1.18345
1014.25853,1.45776
1012.76874,1.67436
1011.27896,1.80294
1009.78917,1.94310
1008.29938,1.92594
1006.80959,1.96296
1005.31980,2.00000
1003.83001,1.94108
1002.34022,1.82301
1000.85044,1.72807
999.36065,1.49170
997.87086,1.46105
996.38107,1.43044
994.89128,1.53772
993.40149,1.46747
991.91171,1.44634
990.42192,1.31986
988.93213,1.15155
987.44234,1.13051
985.95255,1.10951
984.46276,1.12606
982.97297,1.13399
981.48319,1.03512
979.99340,1.04889
978.50361,1.02299
977.01382,0.99712
975.52403,0.90127
974.03424,0.95269
972.54446,0.83525
971.05467,0.90550
969.56488,0.85741
968.07509,0.76533
966.58530,0.67328
965.09551,0.67004
963.60573,0.62063
962.11594,0.59291
960.62615,0.60853
959.13636,0.60252
957.64657,0.59655
956.15678,0.54731
954.66699,0.48221
953.17721,0.49221
951.68742,0.43729
950.19763,0.44663
948.70784,0.45601
947.21805,0.43438
945.72826,0.39690
944.23848,0.40276
942.74869,0.49237
941.25890,0.49685
939.76911,0.50064
938.27932,0.50446
936.78953,0.56100
935.29974,0.50354
933.80996,0.48508
932.32017,0.55038
930.83038,0.59116
929.34059,0.63198
927.85080,0.66273
926.36101,0.55782
924.87123,0.50924
923.38144,0.51554
921.89165,0.51393
920.40186,0.51236
918.91207,0.52886
917.42228,0.55117
915.93250,0.63125
914.44271,0.71136
912.95292,0.67385
911.46313,0.63638
909.97334,0.62853
908.48355,0.57885
906.99376,0.67933
905.50398,0.61384
904.01419,0.59962
902.52440,0.58543
901.03461,0.53014
899.54482,0.68418
898.05503,0.68814
896.56525,0.74986
895.07546,0.73583
893.58567,0.72183
892.09588,0.61909
890.60609,0.63042
889.11630,0.64755
887.62651,0.61708
886.13673,0.62057
884.64694,0.62408
883.15715,0.71496
881.66736,0.67740
880.17757,0.68028
878.68778,0.70197
877.19800,0.72368
875.70821,0.71656
874.21842,0.78165
872.72863,0.83522
871.23884,0.77334
869.74905,0.82913
868.25927,0.88496
866.76948,0.92999
865.27969,0.88123
863.78990,0.93788
862.30011,0.92526
860.81032,0.93939
859.32053,0.95355
857.83075,0.90494
856.34096,0.79863
854.85117,0.81504
853.36138,0.74199
851.87159,0.72094
850.38180,0.69992
848.89202,0.57356
847.40223,0.51507
845.91244,0.46383
844.42265,0.36715
842.93286,0.27051
841.44307,0.29876
839.95329,0.21011
838.46350,0.25142
836.97371,0.29275
835.48392,0.32041
833.99413,0.34809
832.50434,0.22352
831.01455,0.31550
829.52477,0.29492
828.03498,0.21664
826.54519,0.24448
825.05540,0.27235
823.56561,0.23458
822.07582,0.20406
820.58604,0.15335
819.09625,0.12939
817.60646,0.10545
816.11667,0.07361
814.62688,0.09666
813.13709,0.03312
811.64730,0.04468
810.15752,0.05843
808.66773,0.07222
807.17794,0.00015
805.68815,0.13509
804.19836,0.05208
802.70857,0.10119
801.21879,0.15033
799.72900,0.15548
798.23921,0.24727
796.74942,0.26547
795.25963,0.32845
793.76984,0.39146
792.28006,0.46028
790.79027,0.54790
789.30048,0.62400
787.81069,0.64672
786.32090,0.63627
784.83111,0.62585
783.34132,0.66599
781.85154,0.60945
780.36175,0.64532
778.87196,0.60688
777.38217,0.56847
775.89238,0.71848
774.40259,0.81799
772.91281,0.86845
771.42302,0.88069
769.93323,0.89297
768.44344,0.86991
766.95365,0.87575
765.46386,0.90472
763.97407,0.68399
762.48429,0.65601
760.99450,0.62805
759.50471,0.55033
758.01492,0.36582
756.52513,0.37910
755.03534,0.37148
753.54556,0.36389
752.05577,0.16218
750.56598,0.26653
749.07619,0.19624
747.58640,0.13249
746.09661,0.06876
744.60683,0.15158
743.11704,0.08575
741.62725,0.08203
740.13746,0.07689
738.64767,0.07178
737.15788,0.08836
735.66809,0.05589
734.17831,0.10573
732.68852,0.10580
731.19873,0.10591
729.70894,0.07357
728.21915,0.07590
726.72936,0.00753
725.23958,0.08066
723.74979,0.11484
722.26000,0.14906
720.77021,0.11402
719.28042,0.17283
717.79063,0.11332
716.30084,0.05672
714.81106,0.00015
713.32127,0.05588
711.83148,0.07989
710.34169,0.09527
708.85190,0.10707
707.36211,0.11890
705.87233,0.15747
704.38254,0.11523
702.89275,0.08313
701.40296,0.09076
699.91317,0.09842
698.42338,0.14003
696.93360,0.13837
695.44381,0.09344
693.95402,0.13803
692.46423,0.18266
690.97444,0.22587
689.48465,0.23881
687.99486,0.17094
686.50508,0.16156
685.01529,0.15221
683.52550,0.14650
682.03571,0.16826
680.54592,0.19148
679.05613,0.20969
677.56635,0.22793
676.07656,0.28733
674.58677,0.14757
673.09698,0.11899
671.60719,0.15179
670.11740,0.18462
668.62761,0.15180
667.13783,0.17387
665.64804,0.15194
664.15825,0.13005
662.66846,0.19263
661.17867,0.10656
659.68888,0.13600
658.19910,0.12145
656.70931,0.10693
655.21952,0.11048
653.72973,0.01158
652.23994,0.15089
650.75015,0.12711
649.26037,0.10337
647.77058,0.13162
646.28079,0.12526
644.79100,0.10883
643.30121,0.09170
641.81142,0.07461
640.32163,0.03518
638.83185,0.08527
637.34206,0.04879
635.85227,0.04337
634.36248,0.03798
632.87269,0.00015
631.38290,0.10151
629.89312,0.10186
628.40333,0.10296
626.91354,0.10409
625.42375,0.07566
623.93396,0.12088
622.44417,0.14592
620.95438,0.17100
619.46460,0.11527
617.97481,0.06823
616.48502,0.15836
614.99523,0.12943
613.50544,0.10053
612.01565,0.06084
610.52587,0.16553
609.03608,0.10569
607.54629,0.11084
606.05650,0.11602
604.56671,0.14722
603.07692,0.18278
601.58714,0.16496
600.09735,0.14717
598.60756,0.13952
597.11777,0.10159
595.62798,0.13442
594.13819,0.13769
592.64840,0.14099
591.15862,0.14504
589.66883,0.16934
588.17904,0.13737
586.68925,0.11986
585.19946,0.10239
583.70967,0.11527
582.21989,0.14982
580.73010,0.12451
579.24031,0.09922
577.75052,0.18007
576.26073,0.09350
574.77094,0.10656
573.28115,0.15646
571.79137,0.20640
570.30158,0.18058
568.81179,0.17067
567.32200,0.18967
565.83221,0.20870
564.34242,0.27250
562.85264,0.28582
561.36285,0.44063
559.87306,0.43308
558.38327,0.42556
556.89348,0.42889
555.40369,0.44670
553.91391,0.48186
552.42412,0.51704
550.93433,0.49597
549.44454,0.52112
547.95475,0.52320
546.46496,0.57151
544.97517,0.61985
543.48539,0.60326
541.99560,0.62712
540.50581,0.65462
539.01602,0.68216
537.52623,0.63250
536.03644,0.45728
534.54666,0.56214
533.05687,0.59413
531.56708,0.62615
530.07729,0.66470
528.58750,0.54017
527.09771,0.50156
525.60792,0.46297
524.11814,0.40494
522.62835,0.41333
521.13856,0.35391
519.64877,0.33422
518.15898,0.31456
516.66919,0.35773
515.17941,0.33164
513.68962,0.27887
512.19983,0.22614
510.71004,0.31418
509.22025,0.35894
507.73046,0.37343
506.24068,0.36990
504.75089,0.36641
503.26110,0.32036
501.77131,0.30898
500.28152,0.32796
498.79173,0.34696
497.30194,0.38909
495.81216,0.35908
494.32237,0.39045
492.83258,0.42185
491.34279,0.37895
489.85300,0.41402
488.36321,0.36540
486.87343,0.33846
485.38364,0.31156
483.89385,0.23705
482.40406,0.15825
480.91427,0.17258
479.42448,0.18694
477.93469,0.06493
476.44491,0.03244
474.95512,0.08443
473.46533,0.13645
471.97554,0.03621
470.48575,0.00962
468.99596,0.00039
467.50618,0.04387
466.01639,0.08739
464.52660,0.02051
463.03681,0.02440
461.54702,0.07739
460.05723,0.13042
458.56745,0.00015
457.07766,0.12687
455.58787,0.12227
454.09808,0.11769
452.60829,0.14780
451.11850,0.21257
449.62871,0.19222
448.13893,0.17189
446.64914,0.26852
445.15935,0.36229
443.66956,0.36660
442.17977,0.39043
440.68998,0.41429
439.20020,0.43024
437.71041,0.61511
436.22062,0.65711
434.73083,0.69914
433.24104,0.76141
431.75125,0.90455
430.26146,0.93223
428.77168,0.95996
427.28189,1.04833
425.79210,1.03137
424.30231,1.02021
422.81252,1.00908
421.32273,0.95757
419.83295,0.91042
418.34316,0.89505
416.85337,0.87972
415.36358,0.78503
413.87379,0.54024
412.38400,0.54449
410.89422,0.54878
409.40443,0.50185
407.91464,0.39143
406.42485,0.56109
404.93506,0.51714
403.44527,0.47322
401.95548,0.42356
400.46570,0.42590
398.97591,0.43982
397.48612,0.45377
395.99633,0.39702
394.50654,0.43412
393.01675,0.38249
391.52697,0.33088
390.03718,0.40706
388.54739,0.29995
387.05760,0.34948
385.56781,0.39905
384.07802,0.30502
382.58824,0.27309
381.09845,0.23470
379.60866,0.19634
378.11887,0.27566
376.62908,0.16302
375.13929,0.16662
373.64950,0.17025
372.15972,0.17318
370.66993,0.17182
369.18014,0.16833
367.69035,0.16487
366.20056,0.16360
364.71077,0.07720
363.22099,0.11569
361.73120,0.15422
360.24141,0.17328
358.75162,0.06969
357.26183,0.05562
355.77204,0.04158
354.28225,0.00015
352.79247,0.11928
351.30268,0.09338
349.81289,0.06750
348.32310,0.03660
346.83331,0.07791
345.34352,0.03914
343.85374,0.00040
342.36395,0.03026
340.87416,0.06736
339.38437,0.08646
337.89458,0.10558
336.40479,0.05617
334.91501,0.09773
333.42522,0.06860
331.93543,0.03949
330.44564,0.11868
328.95585,0.19357
327.46606,0.16239
325.97627,0.13125
324.48649,0.07487
322.99670,0.06328
321.50691,0.11667
320.01712,0.17010
318.52733,0.22933
317.03754,0.11104
315.54776,0.05558
314.05797,0.00015
312.56818,0.10798
311.07839,0.17831
309.58860,0.19527
308.09881,0.21225
306.60902,0.20040
305.11924,0.22178
303.62945,0.17968
302.13966,0.13761
300.64987,0.04505
299.16008,0.00015
