1778.52000,0.01430
1777.03021,0.04394
1775.54042,0.03734
1774.05063,0.03802
1772.56085,0.02423
1771.07106,0.00756
1769.58127,0.03807
1768.09148,0.02509
1766.60169,0.01576
1765.11190,0.01372
1763.62212,0.02694
1762.13233,0.00609
1760.64254,0.03387
1759.15275,0.03122
1757.66296,0.02932
1756.17317,0.01439
1754.68339,0.02851
1753.19360,0.02234
1751.70381,0.00823
1750.21402,0.00357
1748.72423,0.04609
1747.23444,0.02191
1745.74465,0.02387
1744.25487,0.02803
1742.76508,0.02642
1741.27529,0.01106
1739.78550,0.03925
1738.29571,0.00871
1736.80592,0.01664
1735.31614,0.02968
1733.82635,0.02172
1732.33656,0.00000
1730.84677,0.01888
1729.35698,0.01892
1727.86719,0.00231
1726.37740,0.03028
1724.88762,0.02057
1723.39783,0.01740
1721.90804,0.01210
1720.41825,0.00609
1718.92846,0.03959
1717.43867,0.04483
1715.94889,0.04575
1714.45910,0.02565
1712.96931,0.03461
1711.47952,0.05737
1709.98973,0.01633
1708.49994,0.03698
1707.01016,0.03843
1705.52037,0.03991
1704.03058,0.04541
1702.54079,0.06037
1701.05100,0.05504
1699.56121,0.06498
1698.07142,0.09091
1696.58164,0.10380
1695.09185,0.09062
1693.60206,0.12171
1692.11227,0.12816
1690.62248,0.12884
1689.13269,0.12956
1687.64291,0.13827
1686.15312,0.17169
1684.66333,0.13331
1683.17354,0.15953
1681.68375,0.15966
1680.19396,0.12064
1678.70417,0.16000
1677.21439,0.15732
1675.72460,0.13870
1674.23481,0.13753
1672.74502,0.12840
1671.25523,0.11350
1669.76544,0.13852
1668.27566,0.14327
1666.78587,0.15166
1665.29608,0.12745
1663.80629,0.12212
1662.31650,0.13133
1660.82671,0.13114
1659.33693,0.11429
1657.84714,0.08587
1656.35735,0.10245
1654.86756,0.10165
1653.37777,0.10813
1651.88798,0.10739
1650.39819,0.08201
1648.90841,0.09946
1647.41862,0.09228
1645.92883,0.10942
1644.43904,0.12660
1642.94925,0.10644
1641.45946,0.10735
1639.96968,0.10902
1638.47989,0.08460
1636.99010,0.11098
1635.50031,0.10040
1634.01052,0.11741
1632.52073,0.11705
1631.03094,0.11453
1629.54116,0.10479
1628.05137,0.12773
1626.56158,0.10934
1625.07179,0.14611
1623.58200,0.09877
1622.09221,0.13487
1620.60243,0.13256
1619.11264,0.15567
1617.62285,0.14326
1616.13306,0.15046
1614.64327,0.12650
1613.15348,0.14102
1611.66370,0.12292
1610.17391,0.13170
1608.68412,0.13179
1607.19433,0.11668
1605.70454,0.13424
1604.21475,0.13733
1602.72496,0.14044
1601.23518,0.13053
1599.74539,0.13225
1598.25560,0.09845
1596.76581,0.10313
1595.27602,0.12162
1593.78623,0.10459
1592.29645,0.08760
1590.80666,0.08586
1589.31687,0.04934
1587.82708,0.07233
1586.33729,0.08374
1584.84750,0.04658
1583.35771,0.08126
1581.86793,0.06011
1580.37814,0.05568
1578.88835,0.08319
1577.39856,0.07736
1575.90877,0.06576
1574.41898,0.06798
1572.92920,0.06296
1571.43941,0.04202
1569.94962,0.03053
1568.45983,0.01908
1566.97004,0.02143
1565.48025,0.01004
1563.99047,0.02696
1562.50068,0.03738
1561.01089,0.02317
1559.52110,0.02276
1558.03131,0.04488
1556.54152,0.00609
1555.05173,0.03693
1553.56195,0.02137
1552.07216,0.04719
1550.58237,0.03242
1549.09258,0.05322
1547.60279,0.02907
1546.11300,0.01802
1544.62322,0.04108
1543.13343,0.03225
1541.64364,0.02563
1540.15385,0.02267
1538.66406,0.01973
1537.17427,0.01610
1535.68448,0.01395
1534.19470,0.02706
1532.70491,0.01408
1531.21512,0.02725
1529.72533,0.02956
1528.23554,0.01958
1526.74575,0.01179
1525.25597,0.02145
1523.76618,0.00575
1522.27639,0.02969
1520.78660,0.01158
1519.29681,0.01672
1517.80702,0.02407
1516.31724,0.03579
1514.82745,0.00982
1513.33766,0.01533
1511.84787,0.02087
1510.35808,0.02389
1508.86829,0.01462
1507.37850,0.03511
1505.88872,0.04112
1504.39893,0.02976
1502.90914,0.00609
1501.41935,0.04367
1499.92956,0.04791
1498.43977,0.06813
1496.94999,0.10870
1495.46020,0.11955
1493.97041,0.16090
1492.48062,0.18342
1490.99083,0.22773
1489.50104,0.26409
1488.01125,0.29141
1486.52147,0.31876
1485.03168,0.41468
1483.54189,0.45841
1482.05210,0.51087
1480.56231,0.61849
1479.07252,0.72397
1477.58274,0.83237
1476.09295,0.88204
1474.60316,0.88678
1473.11337,0.90749
1471.62358,0.94637
1470.13379,0.96497
1468.64401,0.95604
1467.15422,0.92247
1465.66443,0.90379
1464.17464,0.88515
1462.68485,0.79364
1461.19506,0.76816
1459.70527,0.70717
1458.21549,0.62662
1456.72570,0.54900
1455.23591,0.55266
1453.74612,0.46857
1452.25633,0.43238
1450.76654,0.40348
1449.27676,0.39710
1447.78697,0.34649
1446.29718,0.34815
1444.80739,0.30630
1443.31760,0.26449
1441.82781,0.24229
1440.33802,0.18023
1438.84824,0.17694
1437.35845,0.17659
1435.86866,0.15886
1434.37887,0.15785
1432.88908,0.12929
1431.39929,0.15299
1429.90951,0.15134
1428.41972,0.12069
1426.92993,0.20977
1425.44014,0.20312
1423.95035,0.19832
1422.46056,0.19354
1420.97078,0.19351
1419.48099,0.22034
1417.99120,0.19063
1416.50141,0.23856
1415.01162,0.19875
1413.52183,0.24891
1412.03204,0.22149
1410.54226,0.26881
1409.05247,0.23491
1407.56268,0.24675
1406.07289,0.25281
1404.58310,0.27014
1403.09331,0.28750
1401.60353,0.29292
1400.11374,0.30998
1398.62395,0.37639
1397.13416,0.40584
1395.64437,0.42806
1394.15458,0.50689
1392.66479,0.50450
1391.17501,0.51158
1389.68522,0.52086
1388.19543,0.52871
1386.70564,0.53805
1385.21585,0.54742
1383.72606,0.53505
1382.23628,0.50965
1380.74649,0.53724
1379.25670,0.57792
1377.76691,0.54245
1376.27712,0.60640
1374.78733,0.63628
1373.29755,0.68069
1371.80776,0.78317
1370.31797,0.91106
1368.82818,1.01106
1367.33839,1.11108
1365.84860,1.30000
1364.35881,1.50345
1362.86903,1.71563
1361.37924,1.81976
1359.88945,1.93625
1358.39966,1.91422
1356.90987,1.95823
1355.42008,1.90797
1353.93030,1.82146
1352.44051,1.76074
1350.95072,1.70004
1349.46093,1.59114
1347.97114,1.36257
1346.48135,1.12098
1344.99156,0.90553
1343.50178,0.86130
1342.01199,0.76487
1340.52220,0.65324
1339.03241,0.58806
1337.54262,0.55628
1336.05283,0.52054
1334.56305,0.48482
1333.07326,0.42339
1331.58347,0.36851
1330.09368,0.36371
1328.60389,0.30527
1327.11410,0.32229
1325.62432,0.28348
1324.13453,0.25196
1322.64474,0.26037
1321.15495,0.27315
1319.66516,0.26819
1318.17537,0.26326
1316.68558,0.23334
1315.19580,0.22303
1313.70601,0.19606
1312.21622,0.20249
1310.72643,0.19372
1309.23664,0.15523
1307.74685,0.15522
1306.25707,0.18788
1304.76728,0.16761
1303.27749,0.14738
1301.78770,0.18448
1300.29791,0.17373
1298.80812,0.17171
1297.31834,0.18424
1295.82855,0.20332
1294.33876,0.24274
1292.84897,0.22198
1291.35918,0.21068
1289.86939,0.18961
1288.37960,0.16858
1286.88982,0.20524
1285.40003,0.20059
1283.91024,0.23586
1282.42045,0.25665
1280.93066,0.24918
1279.44087,0.27510
1277.95109,0.26551
1276.46130,0.26829
1274.97151,0.24932
1273.48172,0.23039
1271.99193,0.30797
1270.50214,0.30070
1269.01235,0.28113
1267.52257,0.31672
1266.03278,0.36974
1264.54299,0.39306
1263.05320,0.38738
1261.56341,0.38138
1260.07362,0.37540
1258.58384,0.40898
1257.09405,0.42011
1255.60426,0.37396
1254.11447,0.38442
1252.62468,0.40361
1251.13489,0.33724
1249.64511,0.29483
1248.15532,0.31774
1246.66553,0.28119
1245.17574,0.24467
1243.68595,0.25171
1242.19616,0.26022
1240.70637,0.23032
1239.21659,0.18449
1237.72680,0.14666
1236.23701,0.17995
1234.74722,0.13711
1233.25743,0.11896
1231.76764,0.10084
1230.27786,0.11756
1228.78807,0.11255
1227.29828,0.13006
1225.80849,0.11496
1224.31870,0.08247
1222.82891,0.06815
1221.33912,0.07344
1219.84934,0.05917
1218.35955,0.04494
1216.86976,0.06845
1215.37997,0.08692
1213.89018,0.09816
1212.40039,0.09782
1210.91061,0.03875
1209.42082,0.03847
1207.93103,0.05491
1206.44124,0.07137
1204.95145,0.08859
1203.46166,0.00718
1201.97188,0.02072
1200.48209,0.03066
1198.99230,0.03991
1197.50251,0.00783
1196.01272,0.04253
1194.52293,0.02429
1193.03314,0.00609
1191.54336,0.01868
1190.05357,0.00664
1188.56378,0.03371
1187.07399,0.01004
1185.58420,0.01323
1184.09441,0.00920
1182.60463,0.01717
1181.11484,0.02516
1179.62505,0.02194
1178.13526,0.00787
1176.64547,0.03433
1175.15568,0.01657
1173.66589,0.03728
1172.17611,0.08196
1170.68632,0.06247
1169.19653,0.04302
1167.70674,0.01597
1166.21695,0.03755
1164.72716,0.04973
1163.23738,0.00609
1161.74759,0.03209
1160.25780,0.01749
1158.76801,0.02396
1157.27822,0.03046
1155.78843,0.05295
1154.29865,0.02541
1152.80886,0.04288
1151.31907,0.02265
1149.82928,0.04525
1148.33949,0.10778
1146.84970,0.09018
1145.35991,0.07261
1143.87013,0.05761
1142.38034,0.07745
1140.89055,0.05235
1139.40076,0.11433
1137.91097,0.12628
1136.42118,0.15494
1134.93140,0.16877
1133.44161,0.18262
1131.95182,0.24474
1130.46203,0.27207
1128.97224,0.22181
1127.48245,0.30143
1125.99266,0.29475
1124.50288,0.34178
1123.01309,0.32936
1121.52330,0.31697
1120.03351,0.37207
1118.54372,0.40180
1117.05393,0.42359
1115.56415,0.39898
1114.07436,0.40269
1112.58457,0.38938
1111.09478,0.37610
1109.60499,0.43721
1108.11520,0.50124
1106.62542,0.57111
1105.13563,0.55395
1103.64584,0.60937
1102.15605,0.69673
1100.66626,0.68982
1099.17647,0.68294
1097.68668,0.71526
1096.19690,0.74615
1094.70711,0.77127
1093.21732,0.83342
1091.72753,0.86078
1090.23774,0.84754
1088.74795,0.83433
1087.25817,0.90022
1085.76838,1.00096
1084.27859,0.98131
1082.78880,1.01391
1081.29901,1.06976
1079.80922,1.09808
1078.31943,1.13730
1076.82965,1.17655
1075.33986,1.21003
1073.85007,1.27835
1072.36028,1.17769
1070.87049,1.24317
1069.38070,1.23252
1067.89092,1.25127
1066.40113,1.27005
1064.91134,1.24424
1063.42155,1.20469
1061.93176,1.14558
1060.44197,0.98711
1058.95219,0.89759
1057.46240,0.85634
1055.97261,0.81511
1054.48282,0.81490
1052.99303,0.80964
1051.50324,0.68980
1050.01345,0.63237
1048.52367,0.60616
1047.03388,0.58433
1045.54409,0.56253
1044.05430,0.42397
1042.56451,0.41383
1041.07472,0.38632
1039.58494,0.32836
1038.09515,0.30816
1036.60536,0.30394
1035.11557,0.29976
1033.62578,0.35145
1032.13599,0.29727
1030.64620,0.32218
1029.15642,0.35728
1027.66663,0.37536
1026.17684,0.39347
1024.68705,0.47291
1023.19726,0.53714
1021.70747,0.68192
1020.21769,0.84631
1018.72790,1.03975
1017.23811,1.13565
1015.74832,1.23158
1014.25853,1.42365
1012.76874,1.68974
1011.27896,1.84415
1009.78917,1.95216
1008.29938,2.00000
1006.80959,1.92092
1005.31980,1.84187
1003.83001,1.83539
1002.34022,1.81515
1000.85044,1.74417
999.36065,1.57891
997.87086,1.53809
996.38107,1.49729
994.89128,1.51057
993.40149,1.46657
991.91171,1.40954
990.42192,1.36560
988.93213,1.25495
987.44234,1.20744
985.95255,1.15995
984.46276,1.17561
982.97297,1.15647
981.48319,1.13156
979.99340,1.04285
978.50361,1.01763
977.01382,0.99245
975.52403,0.97999
974.03424,0.93201
972.54446,0.88551
971.05467,0.86298
969.56488,0.80349
968.07509,0.78537
966.58530,0.76727
965.09551,0.73035
963.60573,0.65791
962.11594,0.63048
960.62615,0.65675
959.13636,0.60507
957.64657,0.55343
956.15678,0.51377
954.66699,0.48358
953.17721,0.46575
951.68742,0.40733
950.19763,0.41857
948.70784,0.42984
947.21805,0.44694
945.72826,0.39299
944.23848,0.40507
942.74869,0.46143
941.25890,0.45616
939.76911,0.49300
938.27932,0.52986
936.78953,0.56820
935.29974,0.57828
933.80996,0.56300
932.32017,0.54993
930.83038,0.58839
929.34059,0.62687
927.85080,0.63782
926.36101,0.57699
924.87123,0.57784
923.38144,0.54971
921.89165,0.55896
920.40186,0.56824
918.91207,0.60548
917.42228,0.57456
915.93250,0.62056
914.44271,0.59115
912.95292,0.60493
911.46313,0.61873
909.97334,0.61988
908.48355,0.67473
906.99376,0.68318
905.50398,0.62493
904.01419,0.62727
902.52440,0.62965
901.03461,0.62443
899.54482,0.63593
898.05503,0.60611
896.56525,0.71197
895.07546,0.71232
893.58567,0.71269
892.09588,0.74609
890.60609,0.66927
889.11630,0.64760
887.62651,0.61146
886.13673,0.63845
884.64694,0.66547
883.15715,0.65698
881.66736,0.70074
880.17757,0.71987
878.68778,0.71981
877.19800,0.71977
875.70821,0.70127
874.21842,0.79305
872.72863,0.82756
871.23884,0.84469
869.74905,0.83645
868.25927,0.82825
866.76948,0.87738
865.27969,0.88592
863.78990,0.95687
862.30011,0.93645
860.81032,0.89103
859.32053,0.84564
857.83075,0.79412
856.34096,0.78324
854.85117,0.77240
853.36138,0.74054
851.87159,0.70981
850.38180,0.67910
848.89202,0.49645
847.40223,0.46181
845.91244,0.41922
844.42265,0.38936
842.93286,0.35952
841.44307,0.31774
839.95329,0.29776
838.46350,0.26474
836.97371,0.24191
835.48392,0.24849
833.99413,0.25509
832.50434,0.23162
831.01455,0.25606
829.52477,0.23047
828.03498,0.22668
826.54519,0.22037
825.05540,0.21409
823.56561,0.18572
822.07582,0.16608
820.58604,0.13269
819.09625,0.13523
817.60646,0.13780
816.11667,0.08418
814.62688,0.07194
813.13709,0.00823
811.64730,0.01055
810.15752,0.01617
808.66773,0.02181
807.17794,0.00609
805.68815,0.05153
804.19836,0.04188
802.70857,0.07867
801.21879,0.11550
799.72900,0.13785
798.23921,0.17183
796.74942,0.25952
795.25963,0.30190
793.76984,0.34431
792.28006,0.38276
790.79027,0.50538
789.30048,0.54824
787.81069,0.61507
786.32090,0.63985
784.83111,0.66467
783.34132,0.62640
781.85154,0.61137
780.36175,0.54197
778.87196,0.58612
777.38217,0.63030
775.89238,0.71114
774.40259,0.80942
772.91281,0.81560
771.42302,0.83414
769.93323,0.85272
768.44344,0.87204
766.95365,0.87471
765.46386,0.78384
763.97407,0.69444
762.48429,0.65658
760.99450,0.61874
759.50471,0.51275
758.01492,0.44161
756.52513,0.38790
755.03534,0.34619
753.54556,0.30451
752.05577,0.19939
750.56598,0.15595
749.07619,0.13721
747.58640,0.13627
746.09661,0.13535
744.60683,0.09711
743.11704,0.06760
741.62725,0.03957
740.13746,0.02282
738.64767,0.00609
737.15788,0.00739
735.66809,0.01017
734.17831,0.02822
732.68852,0.01619
731.19873,0.00418
729.70894,0.04040
728.21915,0.03748
726.72936,0.01935
725.23958,0.01721
723.74979,0.02235
722.26000,0.02752
720.77021,0.01531
719.28042,0.05028
717.79063,0.01854
716.30084,0.02455
714.81106,0.03059
713.32127,0.03594
711.83148,0.00794
710.34169,0.00609
708.85190,0.01809
707.36211,0.03012
705.87233,0.04036
704.38254,0.01654
702.89275,0.08270
701.40296,0.07381
699.91317,0.06495
698.42338,0.06083
696.93360,0.08720
695.44381,0.12304
693.95402,0.12336
692.46423,0.12371
690.97444,0.12263
689.48465,0.18978
687.99486,0.19529
686.50508,0.18451
685.01529,0.17376
683.52550,0.17791
682.03571,0.18644
680.54592,0.17904
679.05613,0.16260
677.56635,0.14620
676.07656,0.17515
674.58677,0.14828
673.09698,0.10258
671.60719,0.07722
670.11740,0.05189
668.62761,0.05633
667.13783,0.06297
665.64804,0.06384
664.15825,0.06474
662.66846,0.05406
661.17867,0.03906
659.68888,0.05020
658.19910,0.03888
656.70931,0.02759
655.21952,0.06784
653.72973,0.03629
652.23994,0.04177
650.75015,0.05200
649.26037,0.06226
647.77058,0.05912
646.28079,0.05819
644.79100,0.04060
643.30121,0.03501
641.81142,0.02945
640.32163,0.04097
638.83185,0.00609
637.34206,0.01255
635.85227,0.01070
634.36248,0.00888
632.87269,0.02050
631.38290,0.01910
629.89312,0.01845
628.40333,0.02617
626.91354,0.03392
625.42375,0.03481
623.93396,0.06112
622.44417,0.06859
620.95438,0.07610
619.46460,0.06622
617.97481,0.06653
616.48502,0.04075
614.99523,0.06869
613.50544,0.09665
612.01565,0.03904
610.52587,0.08446
609.03608,0.13282
607.54629,0.11375
606.05650,0.09470
604.56671,0.10615
603.07692,0.11037
601.58714,0.10411
600.09735,0.09787
598.60756,0.13047
597.11777,0.12103
595.62798,0.10872
594.13819,0.10332
592.64840,0.09796
591.15862,0.08645
589.66883,0.11125
588.17904,0.08312
586.68925,0.09818
585.19946,0.11327
583.70967,0.08958
582.21989,0.09856
580.73010,0.10431
579.24031,0.11008
577.75052,0.11842
576.26073,0.06369
574.77094,0.08950
573.28115,0.11243
571.79137,0.13540
570.30158,0.15041
568.81179,0.21261
567.32200,0.23131
565.83221,0.25004
564.34242,0.27243
562.85264,0.33256
561.36285,0.33759
559.87306,0.35898
558.38327,0.38039
556.89348,0.38624
555.40369,0.44942
553.91391,0.47853
552.42412,0.50768
550.93433,0.52815
549.44454,0.51238
547.95475,0.58731
546.46496,0.59626
544.97517,0.60524
543.48539,0.60046
541.99560,0.63053
540.50581,0.63924
539.01602,0.64797
537.52623,0.60704
536.03644,0.61401
534.54666,0.58693
533.05687,0.59070
531.56708,0.59449
530.07729,0.61029
528.58750,0.55213
527.09771,0.52699
525.60792,0.50189
524.11814,0.46630
522.62835,0.48079
521.13856,0.44308
519.64877,0.41374
518.15898,0.38443
516.66919,0.32215
515.17941,0.29979
513.68962,0.31046
512.19983,0.32116
510.71004,0.28438
509.22025,0.31364
507.73046,0.31971
506.24068,0.34722
504.75089,0.37475
503.26110,0.35770
501.77131,0.35446
500.28152,0.34834
498.79173,0.34226
497.30194,0.33621
495.81216,0.38458
494.32237,0.36916
492.83258,0.35376
491.34279,0.41963
489.85300,0.37020
488.36321,0.34981
486.87343,0.32183
485.38364,0.29388
483.89385,0.26850
482.40406,0.21341
480.91427,0.18410
479.42448,0.15482
477.93469,0.13898
476.44491,0.09416
474.95512,0.07512
473.46533,0.05611
471.97554,0.05780
470.48575,0.03050
468.99596,0.03588
467.50618,0.02097
466.01639,0.00609
464.52660,0.03490
463.03681,0.08768
461.54702,0.05453
460.05723,0.02141
458.56745,0.00609
457.07766,0.07482
455.58787,0.09063
454.09808,0.10647
452.60829,0.14119
451.11850,0.15564
449.62871,0.16866
448.13893,0.18171
446.64914,0.24702
445.15935,0.31743
443.66956,0.46912
442.17977,0.44710
440.68998,0.42512
439.20020,0.50725
437.71041,0.57999
436.22062,0.63353
434.73083,0.68710
433.24104,0.83609
431.75125,0.86252
430.26146,0.93685
428.77168,1.01121
427.28189,1.02974
425.79210,1.13172
424.30231,1.09192
422.81252,1.05214
421.32273,0.99027
419.83295,0.91538
418.34316,0.87605
416.85337,0.83676
415.36358,0.70899
413.87379,0.64944
412.38400,0.60080
410.89422,0.55219
409.40443,0.60154
407.91464,0.51454
406.42485,0.48995
404.93506,0.45814
403.44527,0.42636
401.95548,0.46715
400.46570,0.38755
398.97591,0.41642
397.48612,0.44533
395.99633,0.44488
394.50654,0.46260
393.01675,0.43646
391.52697,0.41035
390.03718,0.38826
388.54739,0.33718
387.05760,0.37644
385.56781,0.41574
384.07802,0.33500
382.58824,0.26590
381.09845,0.25813
379.60866,0.25039
378.11887,0.28293
376.62908,0.21903
375.13929,0.18308
373.64950,0.14716
372.15972,0.13920
370.66993,0.12039
369.18014,0.12554
367.69035,0.13072
366.20056,0.12287
364.71077,0.12159
363.22099,0.11452
361.73120,0.10749
360.24141,0.08090
358.75162,0.09278
357.26183,0.07822
355.77204,0.06368
354.28225,0.03358
352.79247,0.02889
351.30268,0.02533
349.81289,0.02179
348.32310,0.03242
346.83331,0.00609
345.34352,0.01415
343.85374,0.02224
342.36395,0.04522
340.87416,0.04212
339.38437,0.04377
337.89458,0.04544
336.40479,0.02067
334.91501,0.00390
333.42522,0.02017
331.93543,0.03647
330.44564,0.10611
328.95585,0.07713
327.46606,0.04637
325.97627,0.01563
324.48649,0.07835
322.99670,0.01197
321.50691,0.02578
320.01712,0.03962
318.52733,0.07344
317.03754,0.06521
315.54776,0.06717
314.05797,0.06915
312.56818,0.02402
311.07839,0.03549
309.58860,0.02886
308.09881,0.02225
306.60902,0.03236
305.11924,0.08820
303.62945,0.06029
302.13966,0.03240
300.64987,0.00609
299.16008,0.00609
