1778.52000,0.04932
1777.03021,0.05180
1775.54042,0.05882
1774.05063,0.04242
1772.56085,0.05221
1771.07106,0.05752
1769.58127,0.03761
1768.09148,0.02315
1766.60169,0.06822
1765.11190,0.04480
1763.62212,0.00248
1762.13233,0.05036
1760.64254,0.04236
1759.15275,0.01727
1757.66296,0.05532
1756.17317,0.03840
1754.68339,0.04947
1753.19360,0.01999
1751.70381,0.04645
1750.21402,0.03957
1748.72423,0.01831
1747.23444,0.01150
1745.74465,0.02546
1744.25487,0.00248
1742.76508,0.03773
1741.27529,0.04056
1739.78550,0.07587
1738.29571,0.05622
1736.80592,0.02848
1735.31614,0.03955
1733.82635,0.00466
1732.33656,0.02481
1730.84677,0.04408
1729.35698,0.02101
1727.86719,0.06469
1726.37740,0.03628
1724.88762,0.00248
1723.39783,0.01257
1721.90804,0.05243
1720.41825,0.03462
1718.92846,0.04390
1717.43867,0.04689
1715.94889,0.02648
1714.45910,0.04937
1712.96931,0.02631
1711.47952,0.05558
1709.98973,0.05062
1708.49994,0.02315
1707.01016,0.02366
1705.52037,0.02420
1704.03058,0.08338
1702.54079,0.07316
1701.05100,0.10716
1699.56121,0.12676
1698.07142,0.11214
1696.58164,0.15254
1695.09185,0.15871
1693.60206,0.17844
1692.11227,0.15853
1690.62248,0.24594
1689.13269,0.19995
1687.64291,0.20357
1686.15312,0.21354
1684.66333,0.22985
1683.17354,0.19390
1681.68375,0.21028
1680.19396,0.21136
1678.70417,0.22419
1677.21439,0.21992
1675.72460,0.23372
1674.23481,0.21960
1672.74502,0.19739
1671.25523,0.17973
1669.76544,0.21619
1668.27566,0.19859
1666.78587,0.18192
1665.29608,0.18331
1663.80629,0.18204
1662.31650,0.16456
1660.82671,0.19129
1659.33693,0.20003
1657.84714,0.18535
1656.35735,0.16440
1654.86756,0.14708
1653.37777,0.13881
1651.88798,0.18016
1650.39819,0.15572
1648.90841,0.18001
1647.41862,0.12227
1645.92883,0.14707
1644.43904,0.17190
1642.94925,0.12328
1641.45946,0.13780
1639.96968,0.10818
1638.47989,0.12276
1636.99010,0.14369
1635.50031,0.13400
1634.01052,0.07835
1632.52073,0.08225
1631.03094,0.12945
1629.54116,0.14422
1628.05137,0.15903
1626.56158,0.11526
1625.07179,0.16079
1623.58200,0.16397
1622.09221,0.20685
1620.60243,0.17313
1619.11264,0.16829
1617.62285,0.16529
1616.13306,0.15781
1614.64327,0.17651
1613.15348,0.19523
1611.66370,0.13736
1610.17391,0.13001
1608.68412,0.15694
1607.19433,0.13613
1605.70454,0.10903
1604.21475,0.12976
1602.72496,0.15051
1601.23518,0.17851
1599.74539,0.17769
1598.25560,0.11018
1596.76581,0.11573
1595.27602,0.11049
1593.78623,0.09537
1592.29645,0.07397
1590.80666,0.05080
1589.31687,0.06192
1587.82708,0.05053
1586.33729,0.09598
1584.84750,0.06662
1583.35771,0.06164
1581.86793,0.01341
1580.37814,0.02652
1578.88835,0.06672
1577.39856,0.03842
1575.90877,0.03630
1574.41898,0.04323
1572.92920,0.04207
1571.43941,0.06619
1569.94962,0.04436
1568.45983,0.02257
1566.97004,0.04588
1565.48025,0.03497
1563.99047,0.06826
1562.50068,0.03397
1561.01089,0.03397
1559.52110,0.03130
1558.03131,0.06472
1556.54152,0.02604
1555.05173,0.02256
1553.56195,0.04436
1552.07216,0.07430
1550.58237,0.06370
1549.09258,0.03059
1547.60279,0.06063
1546.11300,0.03750
1544.62322,0.04326
1543.13343,0.05806
1541.64364,0.05216
1540.15385,0.04133
1538.66406,0.03054
1537.17427,0.05539
1535.68448,0.01805
1534.19470,0.02674
1532.70491,0.01922
1531.21512,0.02797
1529.72533,0.00248
1528.23554,0.01875
1526.74575,0.02873
1525.25597,0.04686
1523.76618,0.04609
1522.27639,0.06338
1520.78660,0.01129
1519.29681,0.02774
1517.80702,0.04332
1516.31724,0.02107
1514.82745,0.04754
1513.33766,0.03842
1511.84787,0.02934
1510.35808,0.00000
1508.86829,0.01793
1507.37850,0.03228
1505.88872,0.02954
1504.39893,0.00248
1502.90914,0.00646
1501.41935,0.01677
1499.92956,0.02080
1498.43977,0.04470
1496.94999,0.12273
1495.46020,0.16292
1493.97041,0.13192
1492.48062,0.18390
1490.99083,0.20525
1489.50104,0.22844
1488.01125,0.26068
1486.52147,0.29294
1485.03168,0.46409
1483.54189,0.50724
1482.05210,0.54592
1480.56231,0.63150
1479.07252,0.72614
1477.58274,0.78204
1476.09295,0.80822
1474.60316,0.84615
1473.11337,0.97607
1471.62358,0.97079
1470.13379,0.96193
1468.64401,0.93868
1467.15422,0.86497
1465.66443,0.85891
1464.17464,0.85288
1462.68485,0.89557
1461.19506,0.85354
1459.70527,0.71868
1458.21549,0.64877
1456.72570,0.64560
1455.23591,0.62083
1453.74612,0.55732
1452.25633,0.50917
1450.76654,0.49982
1449.27676,0.49231
1447.78697,0.49745
1446.29718,0.48008
1444.80739,0.41811
1443.31760,0.35618
1441.82781,0.28751
1440.33802,0.23691
1438.84824,0.21429
1437.35845,0.22867
1435.86866,0.17816
1434.37887,0.18899
1432.88908,0.19625
1431.39929,0.20174
1429.90951,0.20004
1428.41972,0.17764
1426.92993,0.21929
1425.44014,0.19695
1423.95035,0.17870
1422.46056,0.16049
1420.97078,0.20496
1419.48099,0.18546
1417.99120,0.21197
1416.50141,0.30703
1415.01162,0.21910
1413.52183,0.29529
1412.03204,0.23897
1410.54226,0.23318
1409.05247,0.20128
1407.56268,0.22440
1406.07289,0.22862
1404.58310,0.21123
1403.09331,0.19388
1401.60353,0.21893
1400.11374,0.26926
1398.62395,0.32413
1397.13416,0.31952
1395.64437,0.34380
1394.15458,0.36720
1392.66479,0.36450
1391.17501,0.34920
1389.68522,0.34926
1388.19543,0.39533
1386.70564,0.39861
1385.21585,0.40192
1383.72606,0.34350
1382.23628,0.35364
1380.74649,0.34036
1379.25670,0.33433
1377.76691,0.39866
1376.27712,0.38638
1374.78733,0.39126
1373.29755,0.46741
1371.80776,0.52645
1370.31797,0.60175
1368.82818,0.65139
1367.33839,0.70106
1365.84860,0.85129
1364.35881,1.05204
1362.86903,1.18611
1361.37924,1.28324
1359.88945,1.34073
1358.39966,1.33965
1356.90987,1.40983
1355.42008,1.33578
1353.93030,1.40332
1352.44051,1.33700
1350.95072,1.27071
1349.46093,1.10663
1347.97114,1.03004
1346.48135,0.82635
1344.99156,0.80211
1343.50178,0.70578
1342.01199,0.64464
1340.52220,0.55558
1339.03241,0.49992
1337.54262,0.49748
1336.05283,0.46171
1334.56305,0.42597
1333.07326,0.40559
1331.58347,0.40418
1330.09368,0.33788
1328.60389,0.34915
1327.11410,0.30997
1325.62432,0.30147
1324.13453,0.25513
1322.64474,0.26834
1321.15495,0.28518
1319.66516,0.28672
1318.17537,0.28830
1316.68558,0.30162
1315.19580,0.27802
1313.70601,0.28600
1312.21622,0.19394
1310.72643,0.20559
1309.23664,0.16227
1307.74685,0.17579
1306.25707,0.21098
1304.76728,0.21554
1303.27749,0.22014
1301.78770,0.23739
1300.29791,0.19336
1298.80812,0.17191
1297.31834,0.22892
1295.82855,0.20663
1294.33876,0.21322
1292.84897,0.20722
1291.35918,0.21658
1289.86939,0.20793
1288.37960,0.19932
1286.88982,0.22681
1285.40003,0.30571
1283.91024,0.25392
1282.42045,0.26076
1280.93066,0.30099
1279.44087,0.30249
1277.95109,0.36172
1276.46130,0.27041
1274.97151,0.29770
1273.48172,0.32501
1271.99193,0.27528
1270.50214,0.36442
1269.01235,0.28048
1267.52257,0.35526
1266.03278,0.36335
1264.54299,0.38770
1263.05320,0.41299
1261.56341,0.42929
1260.07362,0.44562
1258.58384,0.46649
1257.09405,0.37018
1255.60426,0.43079
1254.11447,0.44905
1252.62468,0.48357
1251.13489,0.38018
1249.64511,0.38862
1248.15532,0.33758
1246.66553,0.31859
1245.17574,0.29962
1243.68595,0.32081
1242.19616,0.35194
1240.70637,0.31459
1239.21659,0.28087
1237.72680,0.25170
1236.23701,0.21354
1234.74722,0.18803
1233.25743,0.18194
1231.76764,0.17588
1230.27786,0.16850
1228.78807,0.20623
1227.29828,0.17457
1225.80849,0.14294
1224.31870,0.17807
1222.82891,0.09331
1221.33912,0.10505
1219.84934,0.11998
1218.35955,0.13494
1216.86976,0.11613
1215.37997,0.12890
1213.89018,0.13449
1212.40039,0.15544
1210.91061,0.13675
1209.42082,0.09645
1207.93103,0.11028
1206.44124,0.12414
1204.95145,0.07763
1203.46166,0.04738
1201.97188,0.05953
1200.48209,0.12401
1198.99230,0.09926
1197.50251,0.09528
1196.01272,0.07961
1194.52293,0.04684
1193.03314,0.01410
1191.54336,0.02918
1190.05357,0.05872
1188.56378,0.00985
1187.07399,0.00248
1185.58420,0.03424
1184.09441,0.05972
1182.60463,0.05051
1181.11484,0.04134
1179.62505,0.03986
1178.13526,0.05555
1176.64547,0.11814
1175.15568,0.09783
1173.66589,0.06943
1172.17611,0.10147
1170.68632,0.08035
1169.19653,0.05925
1167.70674,0.02377
1166.21695,0.06585
1164.72716,0.04666
1163.23738,0.06626
1161.74759,0.02369
1160.25780,0.01091
1158.76801,0.02204
1157.27822,0.03321
1155.78843,0.00248
1154.29865,0.02299
1152.80886,0.07057
1151.31907,0.04606
1149.82928,0.05224
1148.33949,0.07107
1146.84970,0.07685
1145.35991,0.08267
1143.87013,0.06643
1142.38034,0.05023
1140.89055,0.09536
1139.40076,0.12339
1137.91097,0.15867
1136.42118,0.24447
1134.93140,0.24510
1133.44161,0.24576
1131.95182,0.28477
1130.46203,0.25620
1128.97224,0.26191
1127.48245,0.25594
1125.99266,0.25360
1124.50288,0.29277
1123.01309,0.27021
1121.52330,0.24768
1120.03351,0.34375
1118.54372,0.39747
1117.05393,0.35926
1115.56415,0.43919
1114.07436,0.37760
1112.58457,0.41026
1111.09478,0.44295
1109.60499,0.43285
1108.11520,0.49761
1106.62542,0.48757
1105.13563,0.57674
1103.64584,0.58659
1102.15605,0.68033
1100.66626,0.68575
1099.17647,0.69119
1097.68668,0.70929
1096.19690,0.76799
1094.70711,0.77804
1093.21732,0.79353
1091.72753,0.75946
1090.23774,0.79936
1088.74795,0.83929
1087.25817,0.84949
1085.76838,0.90391
1084.27859,1.03319
1082.78880,0.97046
1081.29901,1.06013
1079.80922,1.10205
1078.31943,1.07323
1076.82965,1.04444
1075.33986,1.14415
1073.85007,1.03834
1072.36028,1.05156
1070.87049,1.08916
1069.38070,1.20704
1067.89092,1.24020
1066.40113,1.27338
1064.91134,1.16866
1063.42155,1.10814
1061.93176,1.02692
1060.44197,0.92410
1058.95219,0.94662
1057.46240,0.91193
1055.97261,0.87727
1054.48282,0.82596
1052.99303,0.74853
1051.50324,0.72614
1050.01345,0.61993
1048.52367,0.50292
1047.03388,0.50136
1045.54409,0.49983
1044.05430,0.57136
1042.56451,0.48514
1041.07472,0.42329
1039.58494,0.38763
1038.09515,0.40428
1036.60536,0.36598
1035.11557,0.32770
1033.62578,0.27683
1032.13599,0.29632
1030.64620,0.33117
1029.15642,0.32638
1027.66663,0.36760
1026.17684,0.40885
1024.68705,0.42129
1023.19726,0.52842
1021.70747,0.64821
1020.21769,0.82032
1018.72790,1.06639
1017.23811,1.21107
1015.74832,1.35578
1014.25853,1.46040
1012.76874,1.79315
1011.27896,1.96906
1009.78917,1.92771
1008.29938,2.00000
1006.80959,1.96548
1005.31980,1.93099
1003.83001,1.78428
1002.34022,1.70883
1000.85044,1.64514
999.36065,1.58598
997.87086,1.51513
996.38107,1.44432
994.89128,1.44116
993.40149,1.36950
991.91171,1.31681
990.42192,1.34079
988.93213,1.27374
987.44234,1.27389
985.95255,1.27408
984.46276,1.25220
982.97297,1.29527
981.48319,1.20404
979.99340,1.18406
978.50361,1.15149
977.01382,1.11895
975.52403,1.05850
974.03424,1.02873
972.54446,0.95301
971.05467,0.95847
969.56488,0.88010
968.07509,0.86263
966.58530,0.84519
965.09551,0.70201
963.60573,0.78697
962.11594,0.75294
960.62615,0.68108
959.13636,0.62909
957.64657,0.57713
956.15678,0.56757
954.66699,0.54723
953.17721,0.52241
951.68742,0.55082
950.19763,0.54004
948.70784,0.52929
947.21805,0.55419
945.72826,0.55928
944.23848,0.53465
942.74869,0.60111
941.25890,0.63515
939.76911,0.66065
938.27932,0.68619
936.78953,0.65901
935.29974,0.70580
933.80996,0.72016
932.32017,0.63808
930.83038,0.68451
929.34059,0.73097
927.85080,0.69137
926.36101,0.57876
924.87123,0.64560
923.38144,0.59437
921.89165,0.62566
920.40186,0.65698
918.91207,0.63740
917.42228,0.63227
915.93250,0.57939
914.44271,0.56892
912.95292,0.57876
911.46313,0.58864
909.97334,0.65850
908.48355,0.74553
906.99376,0.70365
905.50398,0.70239
904.01419,0.69619
902.52440,0.69003
901.03461,0.79614
899.54482,0.77156
898.05503,0.78217
896.56525,0.68823
895.07546,0.72369
893.58567,0.75919
892.09588,0.76632
890.60609,0.82848
889.11630,0.82486
887.62651,0.73922
886.13673,0.72574
884.64694,0.71229
883.15715,0.71150
881.66736,0.73147
880.17757,0.73164
878.68778,0.75393
877.19800,0.77625
875.70821,0.66292
874.21842,0.73264
872.72863,0.84927
871.23884,0.85414
869.74905,0.89285
868.25927,0.93159
866.76948,0.93655
865.27969,0.99654
863.78990,0.89518
862.30011,0.93901
860.81032,0.95537
859.32053,0.97176
857.83075,1.02469
856.34096,0.87751
854.85117,0.90436
853.36138,0.69142
851.87159,0.67596
850.38180,0.66054
848.89202,0.53064
847.40223,0.36290
845.91244,0.35569
844.42265,0.33498
842.93286,0.31430
841.44307,0.24767
839.95329,0.32713
838.46350,0.28942
836.97371,0.23641
835.48392,0.25736
833.99413,0.27834
832.50434,0.28223
831.01455,0.27172
829.52477,0.30903
828.03498,0.25260
826.54519,0.23317
825.05540,0.21378
823.56561,0.16015
822.07582,0.10385
820.58604,0.11881
819.09625,0.11126
817.60646,0.10374
816.11667,0.08904
814.62688,0.10502
813.13709,0.02637
811.64730,0.06947
810.15752,0.03596
808.66773,0.00248
807.17794,0.05650
805.68815,0.05554
804.19836,0.11593
802.70857,0.16011
801.21879,0.20433
799.72900,0.20080
798.23921,0.23517
796.74942,0.37415
795.25963,0.42526
793.76984,0.47640
792.28006,0.45679
790.79027,0.49763
789.30048,0.58357
787.81069,0.56587
786.32090,0.57118
784.83111,0.57653
783.34132,0.66170
781.85154,0.64773
780.36175,0.64641
778.87196,0.69200
777.38217,0.73763
775.89238,0.85271
774.40259,0.79472
772.91281,0.88101
771.42302,0.91234
769.93323,0.94370
768.44344,0.84436
766.95365,0.80365
765.46386,0.89912
763.97407,0.78815
762.48429,0.74123
760.99450,0.69434
759.50471,0.55552
758.01492,0.47263
756.52513,0.41862
755.03534,0.38357
753.54556,0.34856
752.05577,0.26850
750.56598,0.23626
749.07619,0.15175
747.58640,0.11326
746.09661,0.07480
744.60683,0.08145
743.11704,0.00248
741.62725,0.06532
740.13746,0.05652
738.64767,0.04774
737.15788,0.09535
735.66809,0.03840
734.17831,0.06894
732.68852,0.06705
731.19873,0.06520
729.70894,0.01108
728.21915,0.03003
726.72936,0.09949
725.23958,0.03465
723.74979,0.02890
722.26000,0.02318
720.77021,0.02875
719.28042,0.05059
717.79063,0.07787
716.30084,0.07543
714.81106,0.07302
713.32127,0.01745
711.83148,0.00248
710.34169,0.00242
708.85190,0.00193
707.36211,0.00148
705.87233,0.00692
704.38254,0.03583
702.89275,0.08010
701.40296,0.06354
699.91317,0.04702
698.42338,0.06794
696.93360,0.09611
695.44381,0.03325
693.95402,0.08672
692.46423,0.14023
690.97444,0.17574
689.48465,0.09136
687.99486,0.17472
686.50508,0.16975
685.01529,0.16481
683.52550,0.19236
682.03571,0.15773
680.54592,0.17903
679.05613,0.16295
677.56635,0.14690
676.07656,0.13584
674.58677,0.10768
673.09698,0.10480
671.60719,0.09519
670.11740,0.08560
668.62761,0.09183
667.13783,0.10350
665.64804,0.08635
664.15825,0.06923
662.66846,0.08731
661.17867,0.07566
659.68888,0.05593
658.19910,0.07365
656.70931,0.09140
655.21952,0.08890
653.72973,0.10356
652.23994,0.09571
650.75015,0.12846
649.26037,0.16124
647.77058,0.10931
646.28079,0.11240
644.79100,0.03799
643.30121,0.03890
641.81142,0.03983
640.32163,0.00248
638.83185,0.04606
637.34206,0.06353
635.85227,0.04451
634.36248,0.02553
632.87269,0.03407
631.38290,0.03814
629.89312,0.10715
628.40333,0.08784
626.91354,0.06856
625.42375,0.01596
623.93396,0.07338
622.44417,0.06907
620.95438,0.06479
619.46460,0.06280
617.97481,0.04732
616.48502,0.06523
614.99523,0.07235
613.50544,0.07950
612.01565,0.11824
610.52587,0.18406
609.03608,0.11376
607.54629,0.12330
606.05650,0.13286
604.56671,0.13299
603.07692,0.19806
601.58714,0.17932
600.09735,0.16061
598.60756,0.10587
597.11777,0.16926
595.62798,0.11819
594.13819,0.09916
592.64840,0.08015
591.15862,0.04630
589.66883,0.06388
588.17904,0.06886
586.68925,0.07027
585.19946,0.07171
583.70967,0.08040
582.21989,0.12157
580.73010,0.10688
579.24031,0.09222
577.75052,0.19119
576.26073,0.16847
574.77094,0.19989
573.28115,0.17994
571.79137,0.16003
570.30158,0.14285
568.81179,0.21406
567.32200,0.25059
565.83221,0.28716
564.34242,0.28724
562.85264,0.41177
561.36285,0.38486
559.87306,0.38999
558.38327,0.39516
556.89348,0.45671
555.40369,0.51107
553.91391,0.53211
552.42412,0.55318
550.93433,0.57428
549.44454,0.61795
547.95475,0.59043
546.46496,0.62379
544.97517,0.65719
543.48539,0.66042
541.99560,0.66277
540.50581,0.67192
539.01602,0.68111
537.52623,0.62045
536.03644,0.64727
534.54666,0.59389
533.05687,0.58922
531.56708,0.58458
530.07729,0.49793
528.58750,0.54025
527.09771,0.54337
525.60792,0.54652
524.11814,0.50508
522.62835,0.44023
521.13856,0.44573
519.64877,0.44360
518.15898,0.44150
516.66919,0.44079
515.17941,0.33823
513.68962,0.32811
512.19983,0.31803
510.71004,0.36342
509.22025,0.34303
507.73046,0.36865
506.24068,0.37943
504.75089,0.39024
503.26110,0.42498
501.77131,0.37138
500.28152,0.39266
498.79173,0.41396
497.30194,0.41997
495.81216,0.39355
494.32237,0.37438
492.83258,0.35524
491.34279,0.33703
489.85300,0.33779
488.36321,0.34669
486.87343,0.31190
485.38364,0.27714
483.89385,0.19687
482.40406,0.15000
480.91427,0.12886
479.42448,0.10775
477.93469,0.04835
476.44491,0.08456
474.95512,0.10186
473.46533,0.11919
471.97554,0.11311
470.48575,0.08182
468.99596,0.07401
467.50618,0.09012
466.01639,0.10625
464.52660,0.00927
463.03681,0.00248
461.54702,0.02807
460.05723,0.05368
458.56745,0.02073
457.07766,0.08337
455.58787,0.11449
454.09808,0.14564
452.60829,0.12093
451.11850,0.16296
449.62871,0.17482
448.13893,0.18672
446.64914,0.29737
445.15935,0.41256
443.66956,0.47729
442.17977,0.49923
440.68998,0.52120
439.20020,0.54275
437.71041,0.64908
436.22062,0.69143
434.73083,0.73381
433.24104,0.77983
431.75125,0.90792
430.26146,0.98331
428.77168,1.05873
427.28189,1.07422
425.79210,1.11318
424.30231,1.12017
422.81252,1.12719
421.32273,1.20412
419.83295,1.02682
418.34316,0.98120
416.85337,0.93560
415.36358,0.73226
413.87379,0.69574
412.38400,0.65925
410.89422,0.62280
409.40443,0.62785
407.91464,0.58064
406.42485,0.57313
404.93506,0.54672
403.44527,0.52034
401.95548,0.45523
400.46570,0.41899
398.97591,0.43238
397.48612,0.44580
395.99633,0.41778
394.50654,0.43126
393.01675,0.43395
391.52697,0.43668
390.03718,0.43583
388.54739,0.40616
387.05760,0.33505
385.56781,0.26397
384.07802,0.32906
382.58824,0.33919
381.09845,0.32050
379.60866,0.30184
378.11887,0.27870
376.62908,0.27363
375.13929,0.28030
373.64950,0.28702
372.15972,0.23425
370.66993,0.17070
369.18014,0.14280
367.69035,0.11492
366.20056,0.10646
364.71077,0.08992
363.22099,0.14058
361.73120,0.19127
360.24141,0.15950
358.75162,0.08538
357.26183,0.11904
355.77204,0.15272
354.28225,0.16165
352.79247,0.11831
351.30268,0.10205
349.81289,0.08583
348.32310,0.09217
346.83331,0.06609
345.34352,0.04230
343.85374,0.01854
342.36395,0.04323
340.87416,0.11574
339.38437,0.15493
337.89458,0.19414
336.40479,0.12159
334.91501,0.13202
333.42522,0.11047
331.93543,0.08896
330.44564,0.12472
328.95585,0.17585
327.46606,0.15578
325.97627,0.13574
324.48649,0.03730
322.99670,0.07841
321.50691,0.05824
320.01712,0.03810
318.52733,0.12889
317.03754,0.15119
315.54776,0.14242
314.05797,0.13368
312.56818,0.07403
311.07839,0.10998
309.58860,0.06752
308.09881,0.02510
306.60902,0.00615
305.11924,0.06044
303.62945,0.04488
302.13966,0.00979
300.64987,0.00248
299.16008,0.00248
