1778.52000,0.01250
1777.03021,0.01495
1775.54042,0.02607
1774.05063,0.00342
1772.56085,0.01532
1771.07106,0.01718
1769.58127,0.04064
1768.09148,0.02531
1766.60169,0.02583
1765.11190,0.04363
1763.62212,0.02840
1762.13233,0.04842
1760.64254,0.05481
1759.15275,0.05190
1757.66296,0.03607
1756.17317,0.02818
1754.68339,0.02320
1753.19360,0.03047
1751.70381,0.03849
1750.21402,0.03360
1748.72423,0.05246
1747.23444,0.07208
1745.74465,0.02415
1744.25487,0.04124
1742.76508,0.06915
1741.27529,0.09709
1739.78550,0.04455
1738.29571,0.06321
1736.80592,0.05458
1735.31614,0.04095
1733.82635,0.03167
1732.33656,0.04829
1730.84677,0.05488
1729.35698,0.04426
1727.86719,0.04157
1726.37740,0.03819
1724.88762,0.00681
1723.39783,0.00924
1721.90804,0.00596
1720.41825,0.00342
1718.92846,0.01946
1717.43867,0.02114
1715.94889,0.05377
1714.45910,0.07924
1712.96931,0.04364
1711.47952,0.06342
1709.98973,0.04586
1708.49994,0.06570
1707.01016,0.06545
1705.52037,0.06523
1704.03058,0.11177
1702.54079,0.08860
1701.05100,0.11076
1699.56121,0.09341
1698.07142,0.09982
1696.58164,0.11704
1695.09185,0.13573
1693.60206,0.12138
1692.11227,0.17104
1690.62248,0.15604
1689.13269,0.17988
1687.64291,0.22029
1686.15312,0.20179
1684.66333,0.16894
1683.17354,0.24539
1681.68375,0.22266
1680.19396,0.20428
1678.70417,0.17228
1677.21439,0.17912
1675.72460,0.20397
1674.23481,0.19146
1672.74502,0.17396
1671.25523,0.19171
1669.76544,0.22818
1668.27566,0.23881
1666.78587,0.20993
1665.29608,0.19042
1663.80629,0.13357
1662.31650,0.16660
1660.82671,0.15223
1659.33693,0.17598
1657.84714,0.17676
1656.35735,0.13444
1654.86756,0.15181
1653.37777,0.13903
1651.88798,0.17444
1650.39819,0.13009
1648.90841,0.13680
1647.41862,0.14571
1645.92883,0.12949
1644.43904,0.11330
1642.94925,0.14242
1641.45946,0.14427
1639.96968,0.14902
1638.47989,0.15164
1636.99010,0.13848
1635.50031,0.16992
1634.01052,0.16042
1632.52073,0.12219
1631.03094,0.14510
1629.54116,0.13857
1628.05137,0.13494
1626.56158,0.17591
1625.07179,0.18313
1623.58200,0.18032
1622.09221,0.20485
1620.60243,0.21576
1619.11264,0.18141
1617.62285,0.18806
1616.13306,0.17606
1614.64327,0.16049
1613.15348,0.19528
1611.66370,0.15102
1610.17391,0.11183
1608.68412,0.15246
1607.19433,0.14064
1605.70454,0.15258
1604.21475,0.15987
1602.72496,0.16720
1601.23518,0.15767
1599.74539,0.12588
1598.25560,0.09628
1596.76581,0.13644
1595.27602,0.14069
1593.78623,0.12916
1592.29645,0.10328
1590.80666,0.09109
1589.31687,0.08899
1587.82708,0.09771
1586.33729,0.09855
1584.84750,0.10733
1583.35771,0.04498
1581.86793,0.03082
1580.37814,0.04545
1578.88835,0.06370
1577.39856,0.08557
1575.90877,0.04710
1574.41898,0.04460
1572.92920,0.04141
1571.43941,0.03034
1569.94962,0.02973
1568.45983,0.02915
1566.97004,0.04406
1565.48025,0.05756
1563.99047,0.04665
1562.50068,0.00342
1561.01089,0.01112
1559.52110,0.01021
1558.03131,0.06181
1556.54152,0.05378
1555.05173,0.04794
1553.56195,0.05507
1552.07216,0.08236
1550.58237,0.03204
1549.09258,0.03567
1547.60279,0.05298
1546.11300,0.04445
1544.62322,0.02374
1543.13343,0.06055
1541.64364,0.07009
1540.15385,0.05306
1538.66406,0.03606
1537.17427,0.06653
1535.68448,0.00790
1534.19470,0.05641
1532.70491,-0.00000
1531.21512,0.03779
1529.72533,0.01307
1528.23554,0.02432
1526.74575,0.03920
1525.25597,0.05267
1523.76618,0.05755
1522.27639,0.03730
1520.78660,0.00342
1519.29681,0.03978
1517.80702,0.03736
1516.31724,0.03640
1514.82745,0.03116
1513.33766,0.04105
1511.84787,0.05096
1510.35808,0.01778
1508.86829,0.01123
1507.37850,0.00759
1505.88872,0.01260
1504.39893,0.01764
1502.90914,0.02631
1501.41935,0.00553
1499.92956,0.04230
1498.43977,0.05753
1496.94999,0.10299
1495.46020,0.10175
1493.97041,0.16955
1492.48062,0.21222
1490.99083,0.27649
1489.50104,0.27681
1488.01125,0.35732
1486.52147,0.43786
1485.03168,0.54754
1483.54189,0.56955
1482.05210,0.60957
1480.56231,0.71862
1479.07252,0.83778
1477.58274,0.90089
1476.09295,1.01076
1474.60316,1.08543
1473.11337,1.12132
1471.62358,1.23057
1470.13379,1.21117
1468.64401,1.12208
1467.15422,1.07686
1465.66443,1.05360
1464.17464,1.03038
1462.68485,0.99245
1461.19506,0.90854
1459.70527,0.88792
1458.21549,0.88100
1456.72570,0.71164
1455.23591,0.70621
1453.74612,0.65553
1452.25633,0.61710
1450.76654,0.57510
1449.27676,0.53099
1447.78697,0.49121
1446.29718,0.47806
1444.80739,0.44015
1443.31760,0.40226
1441.82781,0.34895
1440.33802,0.28489
1438.84824,0.22949
1437.35845,0.25319
1435.86866,0.19642
1434.37887,0.18136
1432.88908,0.20516
1431.39929,0.21245
1429.90951,0.22193
1428.41972,0.16100
1426.92993,0.25249
1425.44014,0.21821
1423.95035,0.23321
1422.46056,0.24824
1420.97078,0.27372
1419.48099,0.33302
1417.99120,0.32478
1416.50141,0.31226
1415.01162,0.31918
1413.52183,0.30456
1412.03204,0.31154
1410.54226,0.29268
1409.05247,0.25443
1407.56268,0.24066
1406.07289,0.25136
1404.58310,0.26030
1403.09331,0.26926
1401.60353,0.31456
1400.11374,0.33545
1398.62395,0.36068
1397.13416,0.37013
1395.64437,0.38824
1394.15458,0.45023
1392.66479,0.40586
1391.17501,0.42406
1389.68522,0.48111
1388.19543,0.39442
1386.70564,0.41595
1385.21585,0.43751
1383.72606,0.44077
1382.23628,0.38009
1380.74649,0.41073
1379.25670,0.39683
1377.76691,0.39087
1376.27712,0.41010
1374.78733,0.50844
1373.29755,0.57158
1371.80776,0.66783
1370.31797,0.73750
1368.82818,0.82626
1367.33839,0.91505
1365.84860,1.05383
1364.35881,1.20342
1362.86903,1.26391
1361.37924,1.33881
1359.88945,1.39073
1358.39966,1.54404
1356.90987,1.56943
1355.42008,1.49637
1353.93030,1.41040
1352.44051,1.33309
1350.95072,1.25581
1349.46093,1.18863
1347.97114,1.10997
1346.48135,1.00475
1344.99156,0.92328
1343.50178,0.83681
1342.01199,0.77841
1340.52220,0.62012
1339.03241,0.52440
1337.54262,0.51138
1336.05283,0.50917
1334.56305,0.50699
1333.07326,0.46243
1331.58347,0.51423
1330.09368,0.49562
1328.60389,0.37064
1327.11410,0.35353
1325.62432,0.34651
1324.13453,0.30861
1322.64474,0.29087
1321.15495,0.31054
1319.66516,0.29358
1318.17537,0.27665
1316.68558,0.28347
1315.19580,0.30255
1313.70601,0.26918
1312.21622,0.28472
1310.72643,0.22913
1309.23664,0.27134
1307.74685,0.24528
1306.25707,0.24154
1304.76728,0.23892
1303.27749,0.23632
1301.78770,0.25855
1300.29791,0.23409
1298.80812,0.22907
1297.31834,0.22624
1295.82855,0.26297
1294.33876,0.24654
1292.84897,0.26034
1291.35918,0.30004
1289.86939,0.28335
1288.37960,0.26668
1286.88982,0.33380
1285.40003,0.29240
1283.91024,0.30350
1282.42045,0.31752
1280.93066,0.33228
1279.44087,0.38014
1277.95109,0.29433
1276.46130,0.31350
1274.97151,0.33270
1273.48172,0.35193
1271.99193,0.39204
1270.50214,0.42715
1269.01235,0.42491
1267.52257,0.41624
1266.03278,0.40903
1264.54299,0.46367
1263.05320,0.49462
1261.56341,0.51483
1260.07362,0.53506
1258.58384,0.55317
1257.09405,0.53968
1255.60426,0.54706
1254.11447,0.54154
1252.62468,0.53174
1251.13489,0.51478
1249.64511,0.52876
1248.15532,0.39038
1246.66553,0.37208
1245.17574,0.35381
1243.68595,0.31759
1242.19616,0.31304
1240.70637,0.31930
1239.21659,0.28319
1237.72680,0.22625
1236.23701,0.22686
1234.74722,0.19299
1233.25743,0.17856
1231.76764,0.16416
1230.27786,0.20515
1228.78807,0.18219
1227.29828,0.15854
1225.80849,0.18093
1224.31870,0.11134
1222.82891,0.09066
1221.33912,0.07289
1219.84934,0.08210
1218.35955,0.09135
1216.86976,0.12902
1215.37997,0.15810
1213.89018,0.16277
1212.40039,0.14590
1210.91061,0.11469
1209.42082,0.11802
1207.93103,0.10412
1206.44124,0.09026
1204.95145,0.09152
1203.46166,0.05759
1201.97188,0.04597
1200.48209,0.09765
1198.99230,0.03362
1197.50251,0.08895
1196.01272,0.00414
1194.52293,0.02107
1193.03314,0.03804
1191.54336,0.07265
1190.05357,0.04619
1188.56378,0.02192
1187.07399,0.00342
1185.58420,0.04479
1184.09441,0.04089
1182.60463,0.06075
1181.11484,0.08063
1179.62505,0.03586
1178.13526,0.06300
1176.64547,0.04273
1175.15568,0.05914
1173.66589,0.08925
1172.17611,0.00797
1170.68632,0.01802
1169.19653,0.02809
1167.70674,0.04323
1166.21695,0.03755
1164.72716,0.02472
1163.23738,0.06223
1161.74759,0.05521
1160.25780,0.04822
1158.76801,0.02581
1157.27822,0.00342
1155.78843,0.05809
1154.29865,0.10559
1152.80886,0.05896
1151.31907,0.04040
1149.82928,0.07074
1148.33949,0.07309
1146.84970,0.08085
1145.35991,0.08865
1143.87013,0.04436
1142.38034,0.05833
1140.89055,0.10684
1139.40076,0.19707
1137.91097,0.22119
1136.42118,0.20869
1134.93140,0.20988
1133.44161,0.21110
1131.95182,0.28567
1130.46203,0.25316
1128.97224,0.27820
1127.48245,0.33561
1125.99266,0.31039
1124.50288,0.38799
1123.01309,0.37793
1121.52330,0.36789
1120.03351,0.39383
1118.54372,0.40399
1117.05393,0.40196
1115.56415,0.41290
1114.07436,0.44831
1112.58457,0.44780
1111.09478,0.44734
1109.60499,0.49865
1108.11520,0.52125
1106.62542,0.53741
1105.13563,0.68730
1103.64584,0.72796
1102.15605,0.77872
1100.66626,0.80542
1099.17647,0.83216
1097.68668,0.88229
1096.19690,0.84979
1094.70711,0.92442
1093.21732,0.91786
1091.72753,0.94799
1090.23774,0.95622
1088.74795,0.96449
1087.25817,1.02634
1085.76838,1.09038
1084.27859,1.10197
1082.78880,1.20417
1081.29901,1.21152
1079.80922,1.19876
1078.31943,1.21623
1076.82965,1.23374
1075.33986,1.23761
1073.85007,1.32778
1072.36028,1.28283
1070.87049,1.30190
1069.38070,1.37275
1067.89092,1.38541
1066.40113,1.39810
1064.91134,1.32671
1063.42155,1.14250
1061.93176,1.14450
1060.44197,1.13503
1058.95219,1.04939
1057.46240,1.01806
1055.97261,0.98676
1054.48282,0.93284
1052.99303,0.87537
1051.50324,0.77479
1050.01345,0.68719
1048.52367,0.65496
1047.03388,0.59617
1045.54409,0.53741
1044.05430,0.54338
1042.56451,0.45162
1041.07472,0.42746
1039.58494,0.41340
1038.09515,0.33826
1036.60536,0.33792
1035.11557,0.33760
1033.62578,0.36967
1032.13599,0.31191
1030.64620,0.36561
1029.15642,0.38770
1027.66663,0.39869
1026.17684,0.40970
1024.68705,0.48796
1023.19726,0.60076
1021.70747,0.76534
1020.21769,0.85951
1018.72790,1.08526
1017.23811,1.18955
1015.74832,1.29388
1014.25853,1.52619
1012.76874,1.72403
1011.27896,1.82270
1009.78917,1.90199
1008.29938,2.00000
1006.80959,1.98483
1005.31980,1.96968
1003.83001,1.89239
1002.34022,1.82448
1000.85044,1.71849
999.36065,1.57300
997.87086,1.51201
996.38107,1.45105
994.89128,1.51628
993.40149,1.45286
991.91171,1.52103
990.42192,1.49505
988.93213,1.43317
987.44234,1.42954
985.95255,1.42595
984.46276,1.35841
982.97297,1.35344
981.48319,1.26296
979.99340,1.23577
978.50361,1.24024
977.01382,1.24474
975.52403,1.24927
974.03424,1.15894
972.54446,1.07512
971.05467,1.05387
969.56488,1.03768
968.07509,1.00606
966.58530,0.97448
965.09551,0.91741
963.60573,0.91428
962.11594,0.87597
960.62615,0.85349
959.13636,0.79906
957.64657,0.74467
956.15678,0.69066
954.66699,0.64100
953.17721,0.71429
951.68742,0.65606
950.19763,0.66436
948.70784,0.67269
947.21805,0.62390
945.72826,0.57442
944.23848,0.63496
942.74869,0.65312
941.25890,0.62171
939.76911,0.65934
938.27932,0.69700
936.78953,0.82598
935.29974,0.83352
933.80996,0.76416
932.32017,0.72503
930.83038,0.73194
929.34059,0.73888
927.85080,0.72141
926.36101,0.84342
924.87123,0.75413
923.38144,0.73244
921.89165,0.73198
920.40186,0.73156
918.91207,0.70565
917.42228,0.74878
915.93250,0.73300
914.44271,0.74744
912.95292,0.72812
911.46313,0.70884
909.97334,0.72912
908.48355,0.77819
906.99376,0.81291
905.50398,0.74487
904.01419,0.74839
902.52440,0.75194
901.03461,0.80260
899.54482,0.81807
898.05503,0.72431
896.56525,0.82179
895.07546,0.83771
893.58567,0.85367
892.09588,0.79525
890.60609,0.77928
889.11630,0.74322
887.62651,0.77763
886.13673,0.78727
884.64694,0.79694
883.15715,0.76962
881.66736,0.79913
880.17757,0.75893
878.68778,0.79425
877.19800,0.82960
875.70821,0.82832
874.21842,0.88601
872.72863,0.87761
871.23884,0.90877
869.74905,0.93457
868.25927,0.96040
866.76948,0.92839
865.27969,0.91152
863.78990,0.97949
862.30011,0.92602
860.81032,0.95308
859.32053,0.98018
857.83075,1.00443
856.34096,0.93311
854.85117,0.85679
853.36138,0.73593
851.87159,0.71610
850.38180,0.69630
848.89202,0.60213
847.40223,0.49362
845.91244,0.40238
844.42265,0.39098
842.93286,0.37960
841.44307,0.38119
839.95329,0.37419
838.46350,0.29821
836.97371,0.24311
835.48392,0.26927
833.99413,0.29546
832.50434,0.26202
831.01455,0.32350
829.52477,0.30234
828.03498,0.26252
826.54519,0.24394
825.05540,0.22539
823.56561,0.20867
822.07582,0.24518
820.58604,0.17964
819.09625,0.16409
817.60646,0.14857
816.11667,0.07665
814.62688,0.06156
813.13709,0.01127
811.64730,0.00342
810.15752,0.02428
808.66773,0.04517
807.17794,0.06393
805.68815,0.05325
804.19836,0.07927
802.70857,0.10747
801.21879,0.13570
799.72900,0.16469
798.23921,0.23324
796.74942,0.34639
795.25963,0.38948
793.76984,0.43261
792.28006,0.53794
790.79027,0.54052
789.30048,0.59775
787.81069,0.58242
786.32090,0.61708
784.83111,0.65176
783.34132,0.75225
781.85154,0.71260
780.36175,0.73121
778.87196,0.72828
777.38217,0.72539
775.89238,0.81166
774.40259,0.84980
772.91281,0.82903
771.42302,0.84027
769.93323,0.85155
768.44344,0.88694
766.95365,0.85839
765.46386,0.85143
763.97407,0.83515
762.48429,0.77183
760.99450,0.70853
759.50471,0.56440
758.01492,0.46271
756.52513,0.42143
755.03534,0.33239
753.54556,0.24337
752.05577,0.21369
750.56598,0.19626
749.07619,0.16449
747.58640,0.12987
746.09661,0.09528
744.60683,0.06216
743.11704,0.02620
741.62725,0.08156
740.13746,0.06183
738.64767,0.04214
737.15788,0.00342
735.66809,0.04759
734.17831,0.05440
732.68852,0.03968
731.19873,0.02499
729.70894,0.01249
728.21915,0.05249
726.72936,0.07528
725.23958,0.00536
723.74979,0.04474
722.26000,0.08415
720.77021,0.09844
719.28042,0.05309
717.79063,0.04587
716.30084,0.04371
714.81106,0.04159
713.32127,0.03158
711.83148,0.05181
710.34169,0.03180
708.85190,0.05245
707.36211,0.07312
705.87233,0.07550
704.38254,0.02327
702.89275,0.00342
701.40296,0.03908
699.91317,0.07477
698.42338,0.09324
696.93360,0.12828
695.44381,0.17772
693.95402,0.18910
692.46423,0.20050
690.97444,0.19756
689.48465,0.17381
687.99486,0.21622
686.50508,0.23170
685.01529,0.24722
683.52550,0.27535
682.03571,0.27403
680.54592,0.22962
679.05613,0.23017
677.56635,0.23074
676.07656,0.20871
674.58677,0.15364
673.09698,0.13670
671.60719,0.13919
670.11740,0.14172
668.62761,0.15219
667.13783,0.07068
665.64804,0.06037
664.15825,0.05008
662.66846,0.07290
661.17867,0.07418
659.68888,0.15744
658.19910,0.14045
656.70931,0.12349
655.21952,0.13280
653.72973,0.19175
652.23994,0.14433
650.75015,0.14907
649.26037,0.15383
647.77058,0.14677
646.28079,0.09804
644.79100,0.07307
643.30121,0.07544
641.81142,0.07785
640.32163,0.06231
638.83185,0.08059
637.34206,0.02343
635.85227,0.01374
634.36248,0.00408
632.87269,0.00342
631.38290,0.06801
629.89312,0.07367
628.40333,0.06643
626.91354,0.05922
625.42375,0.07792
623.93396,0.07078
622.44417,0.06797
620.95438,0.06520
619.46460,0.09984
617.97481,0.15680
616.48502,0.15340
614.99523,0.15435
613.50544,0.15533
612.01565,0.11465
610.52587,0.11928
609.03608,0.12682
607.54629,0.13943
606.05650,0.15207
604.56671,0.16833
603.07692,0.19541
601.58714,0.18406
600.09735,0.17274
598.60756,0.18984
597.11777,0.16744
595.62798,0.14508
594.13819,0.13280
592.64840,0.12056
591.15862,0.11985
589.66883,0.12852
588.17904,0.12284
586.68925,0.11468
585.19946,0.10655
583.70967,0.14194
582.21989,0.12057
580.73010,0.18011
579.24031,0.23967
577.75052,0.22271
576.26073,0.17846
574.77094,0.14431
573.28115,0.15728
571.79137,0.17028
570.30158,0.25986
568.81179,0.27328
567.32200,0.32842
565.83221,0.38359
564.34242,0.38417
562.85264,0.45666
561.36285,0.46232
559.87306,0.51008
558.38327,0.55786
556.89348,0.57153
555.40369,0.64417
553.91391,0.61729
552.42412,0.59043
550.93433,0.63011
549.44454,0.63099
547.95475,0.64916
546.46496,0.67024
544.97517,0.69134
543.48539,0.69810
541.99560,0.79260
540.50581,0.79043
539.01602,0.78830
537.52623,0.77219
536.03644,0.70794
534.54666,0.70339
533.05687,0.69707
531.56708,0.69078
530.07729,0.64894
528.58750,0.62726
527.09771,0.61101
525.60792,0.59478
524.11814,0.60123
522.62835,0.57105
521.13856,0.61566
519.64877,0.57368
518.15898,0.53173
516.66919,0.41110
515.17941,0.38107
513.68962,0.36761
512.19983,0.35419
510.71004,0.35588
509.22025,0.37846
507.73046,0.38022
506.24068,0.37123
504.75089,0.36227
503.26110,0.35190
501.77131,0.37608
500.28152,0.38159
498.79173,0.38713
497.30194,0.37401
495.81216,0.39112
494.32237,0.41868
492.83258,0.44627
491.34279,0.42825
489.85300,0.36353
488.36321,0.34198
486.87343,0.31255
485.38364,0.28315
483.89385,0.29116
482.40406,0.28411
480.91427,0.23180
479.42448,0.17952
477.93469,0.14740
476.44491,0.11172
474.95512,0.11525
473.46533,0.11880
471.97554,0.00342
470.48575,0.05855
468.99596,0.08926
467.50618,0.09448
466.01639,0.09974
464.52660,0.03134
463.03681,0.10459
461.54702,0.09376
460.05723,0.08297
458.56745,0.08802
457.07766,0.10101
455.58787,0.12122
454.09808,0.14146
452.60829,0.18330
451.11850,0.16191
449.62871,0.18117
448.13893,0.20046
446.64914,0.30568
445.15935,0.43178
443.66956,0.55863
442.17977,0.60069
440.68998,0.64277
439.20020,0.64248
437.71041,0.73207
436.22062,0.75089
434.73083,0.76974
433.24104,0.95576
431.75125,1.13965
430.26146,1.17081
428.77168,1.20201
427.28189,1.29829
425.79210,1.41401
424.30231,1.38168
422.81252,1.34939
421.32273,1.34516
419.83295,1.30717
418.34316,1.17900
416.85337,1.05087
415.36358,0.86849
413.87379,0.84644
412.38400,0.79819
410.89422,0.74997
409.40443,0.81428
407.91464,0.81393
406.42485,0.72662
404.93506,0.68356
403.44527,0.64053
401.95548,0.55691
400.46570,0.49849
398.97591,0.53282
397.48612,0.56719
395.99633,0.59440
394.50654,0.65543
393.01675,0.63885
391.52697,0.62231
390.03718,0.49366
388.54739,0.42326
387.05760,0.45713
385.56781,0.49103
384.07802,0.48974
382.58824,0.47626
381.09845,0.42722
379.60866,0.37822
378.11887,0.40581
376.62908,0.39317
375.13929,0.33671
373.64950,0.28029
372.15972,0.31088
370.66993,0.25523
369.18014,0.21615
367.69035,0.17711
366.20056,0.16972
364.71077,0.14152
363.22099,0.16223
361.73120,0.18297
360.24141,0.16636
358.75162,0.17423
357.26183,0.15589
355.77204,0.13758
354.28225,0.17213
352.79247,0.11543
351.30268,0.06881
349.81289,0.02224
348.32310,0.09093
346.83331,0.04896
345.34352,0.09759
343.85374,0.14626
342.36395,0.12091
340.87416,0.18114
339.38437,0.20043
337.89458,0.21974
336.40479,0.15570
334.91501,0.15568
333.42522,0.18299
331.93543,0.21034
330.44564,0.15649
328.95585,0.11202
327.46606,0.10136
325.97627,0.09074
324.48649,0.05067
322.99670,0.11011
321.50691,0.12322
320.01712,0.13635
318.52733,0.14628
317.03754,0.22454
315.54776,0.20506
314.05797,0.18561
312.56818,0.10078
311.07839,0.03970
309.58860,0.02179
308.09881,0.00390
306.60902,0.03062
305.11924,0.09834
303.62945,0.07983
302.13966,0.04449
300.64987,0.00342
299.16008,0.00342
