1778.52000,0.07816
1777.03021,0.07203
1775.54042,0.06841
1774.05063,0.04670
1772.56085,0.00198
1771.07106,0.00998
1769.58127,0.03941
1768.09148,0.01949
1766.60169,0.06298
1765.11190,0.05629
1763.62212,0.04799
1762.13233,0.08418
1760.64254,0.03396
1759.15275,0.08585
1757.66296,0.04640
1756.17317,0.02180
1754.68339,0.02440
1753.19360,0.02539
1751.70381,0.05440
1750.21402,0.01594
1748.72423,0.00550
1747.23444,0.04613
1745.74465,0.01518
1744.25487,0.00237
1742.76508,0.05545
1741.27529,0.01801
1739.78550,0.06046
1738.29571,0.06260
1736.80592,0.05325
1735.31614,0.02006
1733.82635,0.01654
1732.33656,0.01799
1730.84677,0.03594
1729.35698,0.03499
1727.86719,0.02666
1726.37740,0.04471
1724.88762,0.05538
1723.39783,0.05374
1721.90804,0.04060
1720.41825,0.00198
1718.92846,0.03130
1717.43867,0.02113
1715.94889,0.03817
1714.45910,0.03465
1712.96931,0.03529
1711.47952,0.10511
1709.98973,0.03584
1708.49994,0.03410
1707.01016,0.03981
1705.52037,0.04555
1704.03058,0.06861
1702.54079,0.07689
1701.05100,0.10249
1699.56121,0.11248
1698.07142,0.12744
1696.58164,0.17536
1695.09185,0.18710
1693.60206,0.19475
1692.11227,0.20491
1690.62248,0.19863
1689.13269,0.19486
1687.64291,0.19030
1686.15312,0.22117
1684.66333,0.20844
1683.17354,0.23361
1681.68375,0.22753
1680.19396,0.18445
1678.70417,0.17350
1677.21439,0.22185
1675.72460,0.20274
1674.23481,0.21823
1672.74502,0.19507
1671.25523,0.20240
1669.76544,0.20564
1668.27566,0.21139
1666.78587,0.20071
1665.29608,0.18182
1663.80629,0.19261
1662.31650,0.16968
1660.82671,0.19288
1659.33693,0.20541
1657.84714,0.18422
1656.35735,0.18118
1654.86756,0.15759
1653.37777,0.13980
1651.88798,0.16155
1650.39819,0.11501
1648.90841,0.14177
1647.41862,0.10271
1645.92883,0.11924
1644.43904,0.13581
1642.94925,0.11249
1641.45946,0.15588
1639.96968,0.12603
1638.47989,0.15714
1636.99010,0.14218
1635.50031,0.17418
1634.01052,0.14282
1632.52073,0.12796
1631.03094,0.13125
1629.54116,0.11892
1628.05137,0.17496
1626.56158,0.13389
1625.07179,0.15377
1623.58200,0.20744
1622.09221,0.20022
1620.60243,0.20373
1619.11264,0.21469
1617.62285,0.19605
1616.13306,0.17168
1614.64327,0.15639
1613.15348,0.17078
1611.66370,0.15967
1610.17391,0.19553
1608.68412,0.13181
1607.19433,0.13480
1605.70454,0.17240
1604.21475,0.18492
1602.72496,0.19748
1601.23518,0.12734
1599.74539,0.16260
1598.25560,0.14027
1596.76581,0.08835
1595.27602,0.10477
1593.78623,0.10395
1592.29645,0.13361
1590.80666,0.07276
1589.31687,0.08768
1587.82708,0.09192
1586.33729,0.06821
1584.84750,0.08323
1583.35771,0.06205
1581.86793,0.05409
1580.37814,0.07825
1578.88835,0.08599
1577.39856,0.09623
1575.90877,0.07276
1574.41898,0.06248
1572.92920,0.03084
1571.43941,0.02310
1569.94962,0.03022
1568.45983,0.03737
1566.97004,0.05772
1565.48025,0.03365
1563.99047,0.03431
1562.50068,0.01443
1561.01089,0.00198
1559.52110,0.04689
1558.03131,0.03257
1556.54152,0.05203
1555.05173,0.07564
1553.56195,0.05647
1552.07216,0.07685
1550.58237,0.04459
1549.09258,0.02305
1547.60279,0.03118
1546.11300,0.02289
1544.62322,0.01709
1543.13343,0.07801
1541.64364,0.05500
1540.15385,0.04313
1538.66406,0.03129
1537.17427,0.07012
1535.68448,0.04970
1534.19470,0.04414
1532.70491,0.02297
1531.21512,0.01665
1529.72533,0.03671
1528.23554,0.00000
1526.74575,0.05341
1525.25597,0.03276
1523.76618,0.01298
1522.27639,0.00639
1520.78660,0.00396
1519.29681,0.00728
1517.80702,0.03615
1516.31724,0.03789
1514.82745,0.03391
1513.33766,0.03325
1511.84787,0.03262
1510.35808,0.06824
1508.86829,0.03640
1507.37850,0.02517
1505.88872,0.05348
1504.39893,0.02421
1502.90914,0.05835
1501.41935,0.00198
1499.92956,0.04345
1498.43977,0.05285
1496.94999,0.16107
1495.46020,0.13679
1493.97041,0.17181
1492.48062,0.23732
1490.99083,0.26829
1489.50104,0.31905
1488.01125,0.35626
1486.52147,0.39350
1485.03168,0.48881
1483.54189,0.51007
1482.05210,0.56347
1480.56231,0.67946
1479.07252,0.76996
1477.58274,0.83498
1476.09295,0.87204
1474.60316,0.90749
1473.11337,0.99813
1471.62358,1.01719
1470.13379,1.01981
1468.64401,1.00353
1467.15422,0.93872
1465.66443,0.92127
1464.17464,0.90386
1462.68485,0.89101
1461.19506,0.87737
1459.70527,0.79132
1458.21549,0.75058
1456.72570,0.71975
1455.23591,0.60087
1453.74612,0.62773
1452.25633,0.53197
1450.76654,0.49222
1449.27676,0.54716
1447.78697,0.51489
1446.29718,0.47277
1444.80739,0.43109
1443.31760,0.38945
1441.82781,0.31943
1440.33802,0.31860
1438.84824,0.25195
1437.35845,0.21003
1435.86866,0.20683
1434.37887,0.16250
1432.88908,0.16349
1431.39929,0.22213
1429.90951,0.19683
1428.41972,0.21438
1426.92993,0.19162
1425.44014,0.19277
1423.95035,0.20589
1422.46056,0.21904
1420.97078,0.20876
1419.48099,0.28413
1417.99120,0.28956
1416.50141,0.27609
1415.01162,0.35238
1413.52183,0.37273
1412.03204,0.29350
1410.54226,0.24148
1409.05247,0.27427
1407.56268,0.22314
1406.07289,0.21566
1404.58310,0.23127
1403.09331,0.24691
1401.60353,0.27246
1400.11374,0.36308
1398.62395,0.41668
1397.13416,0.33697
1395.64437,0.38817
1394.15458,0.40401
1392.66479,0.39025
1391.17501,0.40780
1389.68522,0.42456
1388.19543,0.41090
1386.70564,0.44172
1385.21585,0.47258
1383.72606,0.42856
1382.23628,0.39115
1380.74649,0.39988
1379.25670,0.38148
1377.76691,0.39192
1376.27712,0.34231
1374.78733,0.45242
1373.29755,0.50412
1371.80776,0.53034
1370.31797,0.60186
1368.82818,0.69235
1367.33839,0.78287
1365.84860,0.99773
1364.35881,1.12454
1362.86903,1.27444
1361.37924,1.34204
1359.88945,1.33971
1358.39966,1.43290
1356.90987,1.52695
1355.42008,1.40947
1353.93030,1.40892
1352.44051,1.37507
1350.95072,1.34124
1349.46093,1.18356
1347.97114,1.03991
1346.48135,0.88476
1344.99156,0.87535
1343.50178,0.77378
1342.01199,0.71011
1340.52220,0.62507
1339.03241,0.48984
1337.54262,0.52752
1336.05283,0.49527
1334.56305,0.46304
1333.07326,0.47366
1331.58347,0.47196
1330.09368,0.45300
1328.60389,0.39951
1327.11410,0.35181
1325.62432,0.30990
1324.13453,0.28944
1322.64474,0.31016
1321.15495,0.37372
1319.66516,0.35253
1318.17537,0.33137
1316.68558,0.24357
1315.19580,0.26693
1313.70601,0.25575
1312.21622,0.23061
1310.72643,0.18739
1309.23664,0.17713
1307.74685,0.25746
1306.25707,0.21105
1304.76728,0.22394
1303.27749,0.23686
1301.78770,0.25640
1300.29791,0.27598
1298.80812,0.22891
1297.31834,0.19834
1295.82855,0.29293
1294.33876,0.23772
1292.84897,0.23771
1291.35918,0.23690
1289.86939,0.23860
1288.37960,0.24033
1286.88982,0.26597
1285.40003,0.33939
1283.91024,0.29676
1282.42045,0.28299
1280.93066,0.31287
1279.44087,0.29999
1277.95109,0.26820
1276.46130,0.28584
1274.97151,0.30639
1273.48172,0.32697
1271.99193,0.28709
1270.50214,0.34684
1269.01235,0.35229
1267.52257,0.41294
1266.03278,0.37812
1264.54299,0.40755
1263.05320,0.39503
1261.56341,0.44345
1260.07362,0.49192
1258.58384,0.48196
1257.09405,0.49674
1255.60426,0.46627
1254.11447,0.42020
1252.62468,0.46553
1251.13489,0.40965
1249.64511,0.35709
1248.15532,0.36877
1246.66553,0.35003
1245.17574,0.33132
1243.68595,0.31676
1242.19616,0.34586
1240.70637,0.31243
1239.21659,0.21153
1237.72680,0.23744
1236.23701,0.20988
1234.74722,0.20128
1233.25743,0.18654
1231.76764,0.17183
1230.27786,0.14358
1228.78807,0.17709
1227.29828,0.20653
1225.80849,0.08288
1224.31870,0.11897
1222.82891,0.10240
1221.33912,0.08916
1219.84934,0.09777
1218.35955,0.10641
1216.86976,0.14760
1215.37997,0.14520
1213.89018,0.18151
1212.40039,0.13555
1210.91061,0.13571
1209.42082,0.09145
1207.93103,0.08798
1206.44124,0.08454
1204.95145,0.09142
1203.46166,0.05306
1201.97188,0.08964
1200.48209,0.03489
1198.99230,0.08718
1197.50251,0.04236
1196.01272,0.02393
1194.52293,0.03351
1193.03314,0.04313
1191.54336,0.01738
1190.05357,0.01060
1188.56378,0.02361
1187.07399,0.03171
1185.58420,0.00198
1184.09441,0.04050
1182.60463,0.03790
1181.11484,0.03533
1179.62505,0.09700
1178.13526,0.05251
1176.64547,0.11177
1175.15568,0.11921
1173.66589,0.13821
1172.17611,0.13995
1170.68632,0.10263
1169.19653,0.06534
1167.70674,0.06059
1166.21695,0.06823
1164.72716,0.06685
1163.23738,0.10501
1161.74759,0.09217
1160.25780,0.06866
1158.76801,0.03530
1157.27822,0.00198
1155.78843,0.06626
1154.29865,0.07954
1152.80886,0.16117
1151.31907,0.10783
1149.82928,0.11545
1148.33949,0.13215
1146.84970,0.13448
1145.35991,0.13684
1143.87013,0.08284
1142.38034,0.11450
1140.89055,0.13630
1139.40076,0.15485
1137.91097,0.20388
1136.42118,0.28259
1134.93140,0.28230
1133.44161,0.28205
1131.95182,0.32381
1130.46203,0.31539
1128.97224,0.27572
1127.48245,0.24514
1125.99266,0.27387
1124.50288,0.30098
1123.01309,0.32112
1121.52330,0.34130
1120.03351,0.30760
1118.54372,0.37106
1117.05393,0.36376
1115.56415,0.38119
1114.07436,0.37725
1112.58457,0.38323
1111.09478,0.38923
1109.60499,0.41997
1108.11520,0.54046
1106.62542,0.57456
1105.13563,0.63996
1103.64584,0.66178
1102.15605,0.77582
1100.66626,0.76477
1099.17647,0.75375
1097.68668,0.73454
1096.19690,0.74417
1094.70711,0.76289
1093.21732,0.86314
1091.72753,0.90415
1090.23774,0.92708
1088.74795,0.95005
1087.25817,0.96399
1085.76838,1.06111
1084.27859,1.10311
1082.78880,1.07600
1081.29901,1.14194
1079.80922,1.13794
1078.31943,1.10269
1076.82965,1.06748
1075.33986,1.16401
1073.85007,1.13133
1072.36028,1.13491
1070.87049,1.19696
1069.38070,1.25740
1067.89092,1.28866
1066.40113,1.31994
1064.91134,1.17633
1063.42155,1.06404
1061.93176,1.07031
1060.44197,1.05358
1058.95219,0.99159
1057.46240,0.95352
1055.97261,0.91548
1054.48282,0.80585
1052.99303,0.78187
1051.50324,0.74228
1050.01345,0.67721
1048.52367,0.55207
1047.03388,0.56239
1045.54409,0.57273
1044.05430,0.60081
1042.56451,0.48322
1041.07472,0.45621
1039.58494,0.39713
1038.09515,0.39488
1036.60536,0.35233
1035.11557,0.30982
1033.62578,0.28133
1032.13599,0.22241
1030.64620,0.30265
1029.15642,0.38292
1027.66663,0.40890
1026.17684,0.43490
1024.68705,0.48482
1023.19726,0.58086
1021.70747,0.72880
1020.21769,0.88253
1018.72790,1.13838
1017.23811,1.21644
1015.74832,1.29454
1014.25853,1.63033
1012.76874,1.77024
1011.27896,1.84268
1009.78917,1.89539
1008.29938,2.00000
1006.80959,1.92848
1005.31980,1.85699
1003.83001,1.75837
1002.34022,1.62850
1000.85044,1.54147
999.36065,1.48247
997.87086,1.40332
996.38107,1.32422
994.89128,1.36080
993.40149,1.31098
991.91171,1.35997
990.42192,1.30281
988.93213,1.26379
987.44234,1.26226
985.95255,1.26077
984.46276,1.16834
982.97297,1.18790
981.48319,1.20749
979.99340,1.08306
978.50361,1.10108
977.01382,1.11912
975.52403,0.99068
974.03424,0.94705
972.54446,0.92568
971.05467,0.81709
969.56488,0.74722
968.07509,0.71484
966.58530,0.68250
965.09551,0.78560
963.60573,0.78912
962.11594,0.68485
960.62615,0.61930
959.13636,0.60070
957.64657,0.58213
956.15678,0.59900
954.66699,0.48418
953.17721,0.57520
951.68742,0.62098
950.19763,0.58241
948.70784,0.54388
947.21805,0.53131
945.72826,0.46115
944.23848,0.46757
942.74869,0.64197
941.25890,0.61471
939.76911,0.62247
938.27932,0.63027
936.78953,0.66568
935.29974,0.72664
933.80996,0.69955
932.32017,0.63298
930.83038,0.65823
929.34059,0.68351
927.85080,0.76768
926.36101,0.70207
924.87123,0.64801
923.38144,0.63268
921.89165,0.62973
920.40186,0.62681
918.91207,0.61322
917.42228,0.61119
915.93250,0.58203
914.44271,0.69120
912.95292,0.70985
911.46313,0.72854
909.97334,0.75548
908.48355,0.84585
906.99376,0.83088
905.50398,0.81924
904.01419,0.78294
902.52440,0.74667
901.03461,0.81991
899.54482,0.82157
898.05503,0.78623
896.56525,0.82170
895.07546,0.84857
893.58567,0.87548
892.09588,0.83285
890.60609,0.88740
889.11630,0.88106
887.62651,0.79326
886.13673,0.84255
884.64694,0.89188
883.15715,0.82229
881.66736,0.77578
880.17757,0.81245
878.68778,0.79111
877.19800,0.76981
875.70821,0.82057
874.21842,0.86561
872.72863,0.93454
871.23884,0.96071
869.74905,0.96097
868.25927,0.96128
866.76948,0.97272
865.27969,0.97515
863.78990,0.98419
862.30011,0.94058
860.81032,0.92294
859.32053,0.90533
857.83075,0.89804
856.34096,0.86280
854.85117,0.78643
853.36138,0.69692
851.87159,0.64408
850.38180,0.59127
848.89202,0.52656
847.40223,0.39191
845.91244,0.34538
844.42265,0.33716
842.93286,0.32897
841.44307,0.30146
839.95329,0.28552
838.46350,0.25397
836.97371,0.20928
835.48392,0.21072
833.99413,0.21220
832.50434,0.28285
831.01455,0.35107
829.52477,0.26210
828.03498,0.26206
826.54519,0.23941
825.05540,0.21680
823.56561,0.16912
822.07582,0.20955
820.58604,0.18334
819.09625,0.16292
817.60646,0.14253
816.11667,0.02751
814.62688,0.06976
813.13709,0.02230
811.64730,0.01111
810.15752,0.00653
808.66773,0.00198
807.17794,0.01673
805.68815,0.10313
804.19836,0.10559
802.70857,0.11797
801.21879,0.13038
799.72900,0.14859
798.23921,0.26397
796.74942,0.29788
795.25963,0.32401
793.76984,0.35017
792.28006,0.56117
790.79027,0.52442
789.30048,0.60295
787.81069,0.62554
786.32090,0.63087
784.83111,0.63624
783.34132,0.67210
781.85154,0.72610
780.36175,0.68794
778.87196,0.71978
777.38217,0.75166
775.89238,0.87247
774.40259,0.92582
772.91281,0.96767
771.42302,0.97457
769.93323,0.98150
768.44344,0.91644
766.95365,0.86952
765.46386,0.89590
763.97407,0.94619
762.48429,0.86315
760.99450,0.78014
759.50471,0.63131
758.01492,0.53850
756.52513,0.42431
755.03534,0.40029
753.54556,0.37631
752.05577,0.28363
750.56598,0.26506
749.07619,0.15186
747.58640,0.14571
746.09661,0.13959
744.60683,0.10552
743.11704,0.02044
741.62725,0.04077
740.13746,0.04384
738.64767,0.04694
737.15788,0.02538
735.66809,0.02691
734.17831,0.01611
732.68852,0.03581
731.19873,0.05555
729.70894,0.06214
728.21915,0.08853
726.72936,0.07626
725.23958,0.11752
723.74979,0.06457
722.26000,0.01165
720.77021,0.00198
719.28042,0.07597
717.79063,0.03475
716.30084,0.06723
714.81106,0.09975
713.32127,0.03804
711.83148,0.02000
710.34169,0.05797
708.85190,0.05111
707.36211,0.04428
705.87233,0.05682
704.38254,0.07270
702.89275,0.06720
701.40296,0.03458
699.91317,0.00198
698.42338,0.02461
696.93360,0.08514
695.44381,0.10126
693.95402,0.14457
692.46423,0.18791
690.97444,0.18848
689.48465,0.20884
687.99486,0.19878
686.50508,0.23691
685.01529,0.27507
683.52550,0.27333
682.03571,0.20002
680.54592,0.22387
679.05613,0.20454
677.56635,0.18524
676.07656,0.22401
674.58677,0.16897
673.09698,0.10079
671.60719,0.12114
670.11740,0.14152
668.62761,0.10884
667.13783,0.11323
665.64804,0.08967
664.15825,0.06614
662.66846,0.07311
661.17867,0.08834
659.68888,0.05421
658.19910,0.09585
656.70931,0.13752
655.21952,0.16358
653.72973,0.12218
652.23994,0.10962
650.75015,0.13166
649.26037,0.15374
647.77058,0.22113
646.28079,0.10251
644.79100,0.09176
643.30121,0.07611
641.81142,0.06049
640.32163,0.09265
638.83185,0.11496
637.34206,0.07310
635.85227,0.08189
634.36248,0.09072
632.87269,0.11893
631.38290,0.12988
629.89312,0.13922
628.40333,0.10209
626.91354,0.06498
625.42375,0.00198
623.93396,0.08941
622.44417,0.10607
620.95438,0.12277
619.46460,0.15926
617.97481,0.13898
616.48502,0.15578
614.99523,0.16315
613.50544,0.17054
612.01565,0.13887
610.52587,0.15416
609.03608,0.17112
607.54629,0.14655
606.05650,0.12201
604.56671,0.15471
603.07692,0.17922
601.58714,0.18441
600.09735,0.18964
598.60756,0.19943
597.11777,0.16315
595.62798,0.15325
594.13819,0.12362
592.64840,0.09403
591.15862,0.15667
589.66883,0.12385
588.17904,0.12152
586.68925,0.11387
585.19946,0.10626
583.70967,0.13778
582.21989,0.12571
580.73010,0.13837
579.24031,0.15105
577.75052,0.14402
576.26073,0.18312
574.77094,0.18932
573.28115,0.16798
571.79137,0.14667
570.30158,0.18508
568.81179,0.28361
567.32200,0.29409
565.83221,0.30461
564.34242,0.24025
562.85264,0.33645
561.36285,0.36024
559.87306,0.41369
558.38327,0.46718
556.89348,0.45814
555.40369,0.52651
553.91391,0.57722
552.42412,0.62796
550.93433,0.66515
549.44454,0.65546
547.95475,0.60875
546.46496,0.63040
544.97517,0.65208
543.48539,0.66392
541.99560,0.65110
540.50581,0.65148
539.01602,0.65189
537.52623,0.72231
536.03644,0.62401
534.54666,0.54385
533.05687,0.56621
531.56708,0.58860
530.07729,0.56205
528.58750,0.56105
527.09771,0.56337
525.60792,0.56573
524.11814,0.57718
522.62835,0.59771
521.13856,0.57465
519.64877,0.55739
518.15898,0.54015
516.66919,0.49579
515.17941,0.39631
513.68962,0.41128
512.19983,0.42628
510.71004,0.41004
509.22025,0.38971
507.73046,0.40729
506.24068,0.42201
504.75089,0.43677
503.26110,0.39847
501.77131,0.36020
500.28152,0.38164
498.79173,0.40312
497.30194,0.44315
495.81216,0.36632
494.32237,0.37761
492.83258,0.38893
491.34279,0.39452
489.85300,0.31700
488.36321,0.31525
486.87343,0.25756
485.38364,0.19990
483.89385,0.18013
482.40406,0.17440
480.91427,0.14524
479.42448,0.11611
477.93469,0.12611
476.44491,0.13204
474.95512,0.12441
473.46533,0.11682
471.97554,0.10391
470.48575,0.02600
468.99596,0.10617
467.50618,0.07854
466.01639,0.05095
464.52660,0.00198
463.03681,0.07484
461.54702,0.10576
460.05723,0.13670
458.56745,0.12488
457.07766,0.15753
455.58787,0.13631
454.09808,0.11511
452.60829,0.22114
451.11850,0.23417
449.62871,0.21678
448.13893,0.19942
446.64914,0.29982
445.15935,0.40765
443.66956,0.45542
442.17977,0.47854
440.68998,0.50168
439.20020,0.55614
437.71041,0.55713
436.22062,0.60095
434.73083,0.64481
433.24104,0.82041
431.75125,0.90056
430.26146,0.98773
428.77168,1.07494
427.28189,1.11814
425.79210,1.14655
424.30231,1.16554
422.81252,1.18455
421.32273,1.12005
419.83295,1.00207
418.34316,0.95163
416.85337,0.90122
415.36358,0.70925
413.87379,0.72394
412.38400,0.63987
410.89422,0.55585
409.40443,0.57146
407.91464,0.56652
406.42485,0.52046
404.93506,0.51188
403.44527,0.50334
401.95548,0.45491
400.46570,0.37605
398.97591,0.36967
397.48612,0.36332
395.99633,0.46401
394.50654,0.50630
393.01675,0.48070
391.52697,0.45514
390.03718,0.40533
388.54739,0.29216
387.05760,0.31238
385.56781,0.33264
384.07802,0.31506
382.58824,0.36996
381.09845,0.38291
379.60866,0.39589
378.11887,0.35951
376.62908,0.34046
375.13929,0.28233
373.64950,0.22424
372.15972,0.22421
370.66993,0.20529
369.18014,0.19340
367.69035,0.18154
366.20056,0.19235
364.71077,0.10935
363.22099,0.16797
361.73120,0.22662
360.24141,0.17994
358.75162,0.17775
357.26183,0.17311
355.77204,0.16852
354.28225,0.13267
352.79247,0.05240
351.30268,0.05614
349.81289,0.05990
348.32310,0.12380
346.83331,0.12187
345.34352,0.06646
343.85374,0.01109
342.36395,0.02904
340.87416,0.04538
339.38437,0.09468
337.89458,0.14401
336.40479,0.10858
334.91501,0.02545
333.42522,0.03289
331.93543,0.04037
330.44564,0.12691
328.95585,0.13281
327.46606,0.09759
325.97627,0.06240
324.48649,0.02971
322.99670,0.03054
321.50691,0.04581
320.01712,0.06111
318.52733,0.09168
317.03754,0.12227
315.54776,0.10022
314.05797,0.07820
312.56818,0.06939
311.07839,0.01615
309.58860,0.00905
308.09881,0.00198
306.60902,0.00596
305.11924,0.01409
303.62945,0.04366
302.13966,0.05696
300.64987,0.00198
299.16008,0.00198
