299.16008,0.17699
300.64987,0.30710
302.13966,0.26459
303.62945,0.22059
305.11924,0.17660
306.60902,0.20619
308.09881,0.07066
309.58860,0.03722
311.07839,0.00380
312.56818,0.13252
314.05797,0.13965
315.54776,0.15431
317.03754,0.16898
318.52733,0.16565
320.01712,0.10979
321.50691,0.14551
322.99670,0.18125
324.48649,0.29206
325.97627,0.16270
327.46606,0.12042
328.95585,0.07816
330.44564,0.05542
331.93543,0.08674
333.42522,0.04526
334.91501,0.00380
336.40479,0.11704
337.89458,0.27684
339.38437,0.21147
340.87416,0.14612
342.36395,0.13782
343.85374,0.01245
345.34352,0.05371
346.83331,0.09500
348.32310,0.28191
349.81289,0.19262
351.30268,0.14762
352.79247,0.10264
354.28225,0.23857
355.77204,0.17185
357.26183,0.09539
358.75162,0.01894
360.24141,0.03182
361.73120,0.07324
363.22099,0.12368
364.71077,0.17413
366.20056,0.12552
367.69035,0.13847
369.18014,0.12517
370.66993,0.11188
372.15972,0.21194
373.64950,0.22194
375.13929,0.27399
376.62908,0.32605
378.11887,0.24753
379.60866,0.28161
381.09845,0.33596
382.58824,0.39033
384.07802,0.48300
385.56781,0.41204
387.05760,0.43643
388.54739,0.46083
390.03718,0.44096
391.52697,0.42261
393.01675,0.38475
394.50654,0.34691
395.99633,0.53575
397.48612,0.51445
398.97591,0.45938
400.46570,0.40433
401.95548,0.55270
403.44527,0.54947
404.93506,0.56801
406.42485,0.58657
407.91464,0.54435
409.40443,0.68828
410.89422,0.81271
412.38400,0.80881
413.87379,0.80492
415.36358,0.81230
416.85337,0.83921
418.34316,0.94194
419.83295,1.04469
421.32273,1.14370
422.81252,1.11212
424.30231,1.07305
425.79210,1.03399
427.28189,0.91688
428.77168,0.97542
430.26146,1.05800
431.75125,1.14059
433.24104,1.11511
434.73083,1.05362
436.22062,0.99664
437.71041,0.93967
439.20020,0.69207
440.68998,0.65766
442.17977,0.62325
443.66956,0.58886
445.15935,0.42838
446.64914,0.34748
448.13893,0.32364
449.62871,0.30656
451.11850,0.28950
452.60829,0.20865
454.09808,0.17285
455.58787,0.15133
457.07766,0.12982
458.56745,0.17663
460.05723,0.09885
461.54702,0.11116
463.03681,0.12348
464.52660,0.06076
466.01639,0.05959
467.50618,0.07270
468.99596,0.08583
470.48575,0.01115
471.97554,0.03857
473.46533,0.00895
474.95512,0.00637
476.44491,0.00380
477.93469,0.20089
479.42448,0.19684
480.91427,0.15452
482.40406,0.11222
483.89385,0.27934
485.38364,0.29786
486.87343,0.32990
488.36321,0.36196
489.85300,0.47059
491.34279,0.43212
492.83258,0.51076
494.32237,0.52636
495.81216,0.54197
497.30194,0.36995
498.79173,0.34956
500.28152,0.38924
501.77131,0.42892
503.26110,0.54668
504.75089,0.53986
506.24068,0.48351
507.73046,0.42718
509.22025,0.52548
510.71004,0.46617
512.19983,0.51345
513.68962,0.47819
515.17941,0.44294
516.66919,0.36267
518.15898,0.36198
519.64877,0.34778
521.13856,0.33360
522.62835,0.40651
524.11814,0.40136
525.60792,0.51632
527.09771,0.57350
528.58750,0.63070
530.07729,0.69917
531.56708,0.76314
533.05687,0.71154
534.54666,0.65996
536.03644,0.68044
537.52623,0.74597
539.01602,0.84004
540.50581,0.79827
541.99560,0.75651
543.48539,0.71251
544.97517,0.73458
546.46496,0.78818
547.95475,0.84180
549.44454,0.78284
550.93433,0.67136
552.42412,0.55088
553.91391,0.56477
555.40369,0.57868
556.89348,0.50328
558.38327,0.60353
559.87306,0.59196
561.36285,0.58040
562.85264,0.53657
564.34242,0.35466
565.83221,0.40244
567.32200,0.39919
568.81179,0.39595
570.30158,0.41074
571.79137,0.35649
573.28115,0.31802
574.77094,0.27956
576.26073,0.24787
577.75052,0.27624
579.24031,0.25809
580.73010,0.27523
582.21989,0.29238
583.70967,0.20222
585.19946,0.20964
586.68925,0.22833
588.17904,0.24704
589.66883,0.11940
591.15862,0.07133
592.64840,0.06831
594.13819,0.06756
595.62798,0.06682
597.11777,0.00380
598.60756,0.09911
600.09735,0.09986
601.58714,0.13440
603.07692,0.16896
604.56671,0.24481
606.05650,0.27263
607.54629,0.22316
609.03608,0.17371
610.52587,0.23160
612.01565,0.20093
613.50544,0.19580
614.99523,0.19143
616.48502,0.18708
617.97481,0.14146
619.46460,0.18742
620.95438,0.19587
622.44417,0.16830
623.93396,0.14075
625.42375,0.24081
626.91354,0.30035
628.40333,0.23381
629.89312,0.16728
631.38290,0.15781
632.87269,0.11983
634.36248,0.00380
635.85227,0.02353
637.34206,0.04327
638.83185,0.09155
640.32163,0.15035
641.81142,0.03803
643.30121,0.07209
644.79100,0.10616
646.28079,0.16652
647.77058,0.14133
649.26037,0.25275
650.75015,0.24484
652.23994,0.23695
653.72973,0.24033
655.21952,0.25423
656.70931,0.26815
658.19910,0.22128
659.68888,0.17443
661.17867,0.05178
662.66846,0.00870
664.15825,0.04520
665.64804,0.06370
667.13783,0.08222
668.62761,0.21483
670.11740,0.13430
671.60719,0.17837
673.09698,0.22246
674.58677,0.21553
676.07656,0.23412
677.56635,0.30827
679.05613,0.29762
680.54592,0.28699
682.03571,0.26661
683.52550,0.29878
685.01529,0.27092
686.50508,0.26184
687.99486,0.25278
689.48465,0.24147
690.97444,0.24519
692.46423,0.35401
693.95402,0.29771
695.44381,0.24142
696.93360,0.22868
698.42338,0.21596
699.91317,0.23177
701.40296,0.19055
702.89275,0.14935
704.38254,0.09014
705.87233,0.16005
707.36211,0.03932
708.85190,0.10926
710.34169,0.17920
711.83148,0.16060
713.32127,0.10748
714.81106,0.15945
716.30084,0.14014
717.79063,0.12083
719.28042,0.15934
720.77021,0.17534
722.26000,0.20787
723.74979,0.16685
725.23958,0.12585
726.72936,0.00380
728.21915,0.09128
729.70894,0.11122
731.19873,0.11466
732.68852,0.12862
734.17831,0.14260
735.66809,0.14908
737.15788,0.19311
738.64767,0.08403
740.13746,0.15210
741.62725,0.22019
743.11704,0.17871
744.60683,0.14024
746.09661,0.07176
747.58640,0.10237
749.07619,0.13299
750.56598,0.29123
752.05577,0.27835
753.54556,0.22195
755.03534,0.27665
756.52513,0.33136
758.01492,0.37558
759.50471,0.47385
760.99450,0.63369
762.48429,0.68395
763.97407,0.73422
765.46386,0.86408
766.95365,0.82431
768.44344,0.85361
769.93323,0.96699
771.42302,0.95954
772.91281,0.95210
774.40259,0.90490
775.89238,0.83669
777.38217,0.79402
778.87196,0.84443
780.36175,0.89486
781.85154,0.71562
783.34132,0.67600
784.83111,0.63340
786.32090,0.60582
787.81069,0.57825
789.30048,0.63927
790.79027,0.64025
792.28006,0.63974
793.76984,0.56119
795.25963,0.49316
796.74942,0.42514
798.23921,0.28358
799.72900,0.34620
801.21879,0.30074
802.70857,0.27256
804.19836,0.24439
805.68815,0.13742
807.17794,0.13555
808.66773,0.15772
810.15752,0.12960
811.64730,0.10150
813.13709,0.08918
814.62688,0.26001
816.11667,0.22820
817.60646,0.28647
819.09625,0.31098
820.58604,0.33550
822.07582,0.35779
823.56561,0.38009
825.05540,0.29131
826.54519,0.31514
828.03498,0.33898
829.52477,0.37334
831.01455,0.43924
832.50434,0.43010
833.99413,0.43298
835.48392,0.45989
836.97371,0.48681
838.46350,0.47922
839.95329,0.53169
841.44307,0.45808
842.93286,0.57363
844.42265,0.59987
845.91244,0.62613
847.40223,0.60961
848.89202,0.70270
850.38180,0.73124
851.87159,0.77782
853.36138,0.82441
854.85117,0.95207
856.34096,1.00319
857.83075,1.13539
859.32053,1.27210
860.81032,1.27222
862.30011,1.27236
863.78990,1.09687
865.27969,1.10304
866.76948,1.12273
868.25927,1.12892
869.74905,1.08559
871.23884,1.04227
872.72863,1.00197
874.21842,1.09679
875.70821,0.94693
877.19800,0.97722
878.68778,0.99402
880.17757,1.01083
881.66736,0.89255
883.15715,0.97844
884.64694,0.91723
886.13673,0.91608
887.62651,0.91494
889.11630,0.90481
890.60609,0.86918
892.09588,0.89961
893.58567,0.92855
895.07546,0.90497
896.56525,0.88140
898.05503,0.77677
899.54482,0.95739
901.03461,0.98790
902.52440,0.86080
904.01419,0.87933
905.50398,0.89788
906.99376,0.84438
908.48355,0.76087
909.97334,0.74342
911.46313,0.79805
912.95292,0.83017
914.44271,0.86230
915.93250,0.85092
917.42228,0.90110
918.91207,0.82669
920.40186,0.81985
921.89165,0.86256
923.38144,0.90528
924.87123,1.06661
926.36101,0.97276
927.85080,0.84890
929.34059,0.87216
930.83038,0.91871
932.32017,0.96527
933.80996,0.82945
935.29974,0.80623
936.78953,0.79653
938.27932,0.90995
939.76911,0.85300
941.25890,0.79606
942.74869,0.90501
944.23848,0.83984
945.72826,0.72064
947.21805,0.86416
948.70784,0.78252
950.19763,0.79547
951.68742,0.80843
953.17721,0.83792
954.66699,0.79986
956.15678,0.74681
957.64657,0.71179
959.13636,0.80288
960.62615,0.89398
962.11594,0.88302
963.60573,0.90960
965.09551,0.93469
966.58530,1.12342
968.07509,1.14854
969.56488,1.17367
971.05467,1.12226
972.54446,1.03183
974.03424,1.23264
975.52403,1.15424
977.01382,1.21998
978.50361,1.25645
979.99340,1.29294
981.48319,1.25513
982.97297,1.43650
984.46276,1.38822
985.95255,1.53509
987.44234,1.53562
988.93213,1.53616
990.42192,1.61252
991.91171,1.59883
993.40149,1.70524
994.89128,1.71259
996.38107,1.58184
997.87086,1.61399
999.36065,1.64615
1000.85044,1.56799
1002.34022,1.75705
1003.83001,1.63238
1005.31980,1.79744
1006.80959,1.80115
1008.29938,1.80487
1009.78917,2.00000
1011.27896,1.94595
1012.76874,1.95046
1014.25853,1.65475
1015.74832,1.62176
1017.23811,1.53699
1018.72790,1.45224
1020.21769,1.22413
1021.70747,0.96902
1023.19726,0.76797
1024.68705,0.68852
1026.17684,0.51152
1027.66663,0.52892
1029.15642,0.54634
1030.64620,0.53450
1032.13599,0.39658
1033.62578,0.43280
1035.11557,0.45253
1036.60536,0.46176
1038.09515,0.47101
1039.58494,0.41271
1041.07472,0.57210
1042.56451,0.58890
1044.05430,0.69577
1045.54409,0.66305
1047.03388,0.69940
1048.52367,0.73576
1050.01345,0.72410
1051.50324,0.71395
1052.99303,0.91848
1054.48282,1.01795
1055.97261,1.02736
1057.46240,1.02702
1058.95219,1.02670
1060.44197,1.02414
1061.93176,1.14169
1063.42155,1.05359
1064.91134,1.16966
1066.40113,1.33228
1067.89092,1.38759
1069.38070,1.44290
1070.87049,1.43143
1072.36028,1.51905
1073.85007,1.44456
1075.33986,1.26049
1076.82965,1.25208
1078.31943,1.20314
1079.80922,1.15422
1081.29901,1.27045
1082.78880,1.29961
1084.27859,1.20270
1085.76838,1.04275
1087.25817,0.93835
1088.74795,0.87000
1090.23774,0.93151
1091.72753,0.99304
1093.21732,0.98177
1094.70711,0.95550
1096.19690,0.91574
1097.68668,0.95105
1099.17647,0.86478
1100.66626,0.80554
1102.15605,0.74631
1103.64584,0.67960
1105.13563,0.77652
1106.62542,0.69332
1108.11520,0.70020
1109.60499,0.67107
1111.09478,0.70800
1112.58457,0.64888
1114.07436,0.58976
1115.56415,0.50214
1117.05393,0.59917
1118.54372,0.50257
1120.03351,0.40148
1121.52330,0.51807
1123.01309,0.53709
1124.50288,0.55613
1125.99266,0.49713
1127.48245,0.52070
1128.97224,0.41518
1130.46203,0.40426
1131.95182,0.34831
1133.44161,0.27436
1134.93140,0.32802
1136.42118,0.38170
1137.91097,0.30779
1139.40076,0.34198
1140.89055,0.24708
1142.38034,0.24677
1143.87013,0.15640
1145.35991,0.18914
1146.84970,0.15735
1148.33949,0.12557
1149.82928,0.18537
1151.31907,0.18064
1152.80886,0.11737
1154.29865,0.07063
1155.78843,0.08095
1157.27822,0.10030
1158.76801,0.11665
1160.25780,0.13301
1161.74759,0.20493
1163.23738,0.15527
1164.72716,0.13415
1166.21695,0.12655
1167.70674,0.09495
1169.19653,0.07837
1170.68632,0.10759
1172.17611,0.13682
1173.66589,0.06474
1175.15568,0.18482
1176.64547,0.12478
1178.13526,0.16833
1179.62505,0.12332
1181.11484,0.08434
1182.60463,0.12267
1184.09441,0.16102
1185.58420,0.07254
1187.07399,0.11767
1188.56378,0.11177
1190.05357,0.11040
1191.54336,0.14056
1193.03314,0.16623
1194.52293,0.13337
1196.01272,0.10052
1197.50251,0.08570
1198.99230,0.05739
1200.48209,0.04860
1201.97188,0.00380
1203.46166,0.04632
1204.95145,0.19995
1206.44124,0.21098
1207.93103,0.21976
1209.42082,0.22857
1210.91061,0.13756
1212.40039,0.24021
1213.89018,0.18976
1215.37997,0.24440
1216.86976,0.24501
1218.35955,0.23964
1219.84934,0.24403
1221.33912,0.24844
1222.82891,0.21608
1224.31870,0.18674
1225.80849,0.27450
1227.29828,0.25420
1228.78807,0.31196
1230.27786,0.34573
1231.76764,0.34798
1233.25743,0.34949
1234.74722,0.35102
1236.23701,0.39084
1237.72680,0.29557
1239.21659,0.36544
1240.70637,0.42032
1242.19616,0.45419
1243.68595,0.46255
1245.17574,0.59103
1246.66553,0.54388
1248.15532,0.49674
1249.64511,0.45862
1251.13489,0.48357
1252.62468,0.55806
1254.11447,0.58154
1255.60426,0.68608
1257.09405,0.67656
1258.58384,0.61000
1260.07362,0.59450
1261.56341,0.59026
1263.05320,0.58605
1264.54299,0.58109
1266.03278,0.57465
1267.52257,0.57422
1269.01235,0.51977
1270.50214,0.50436
1271.99193,0.53250
1273.48172,0.51862
1274.97151,0.51451
1276.46130,0.51041
1277.95109,0.52960
1279.44087,0.55481
1280.93066,0.46443
1282.42045,0.37107
1283.91024,0.49089
1285.40003,0.44860
1286.88982,0.50840
1288.37960,0.44361
1289.86939,0.44865
1291.35918,0.45369
1292.84897,0.42348
1294.33876,0.38126
1295.82855,0.36759
1297.31834,0.34342
1298.80812,0.36579
1300.29791,0.31913
1301.78770,0.37907
1303.27749,0.34594
1304.76728,0.36688
1306.25707,0.38782
1307.74685,0.34273
1309.23664,0.38472
1310.72643,0.43573
1312.21622,0.39518
1313.70601,0.45823
1315.19580,0.38618
1316.68558,0.35768
1318.17537,0.43878
1319.66516,0.40131
1321.15495,0.36384
1322.64474,0.39695
1324.13453,0.48711
1325.62432,0.49923
1327.11410,0.51285
1328.60389,0.59255
1330.09368,0.53565
1331.58347,0.52530
1333.07326,0.58553
1334.56305,0.52567
1336.05283,0.53563
1337.54262,0.54560
1339.03241,0.68694
1340.52220,0.70069
1342.01199,0.79252
1343.50178,0.78228
1344.99156,0.75254
1346.48135,0.78886
1347.97114,0.80718
1349.46093,0.92460
1350.95072,1.08856
1352.44051,1.12044
1353.93030,1.15233
1355.42008,1.32084
1356.90987,1.44132
1358.39966,1.42672
1359.88945,1.44965
1361.37924,1.27595
1362.86903,1.19833
1364.35881,1.13574
1365.84860,1.01462
1367.33839,0.98208
1368.82818,0.95181
1370.31797,0.92155
1371.80776,0.73143
1373.29755,0.54733
1374.78733,0.49234
1376.27712,0.55746
1377.76691,0.52651
1379.25670,0.53011
1380.74649,0.46917
1382.23628,0.44428
1383.72606,0.39237
1385.21585,0.44106
1386.70564,0.43797
1388.19543,0.43489
1389.68522,0.41907
1391.17501,0.42879
1392.66479,0.39948
1394.15458,0.47977
1395.64437,0.49253
1397.13416,0.43924
1398.62395,0.39048
1400.11374,0.39427
1401.60353,0.39206
1403.09331,0.33583
1404.58310,0.33966
1406.07289,0.34350
1407.56268,0.26179
1409.05247,0.34673
1410.54226,0.39114
1412.03204,0.34550
1413.52183,0.35992
1415.01162,0.38786
1416.50141,0.33326
1417.99120,0.37774
1419.48099,0.36819
1420.97078,0.36617
1422.46056,0.31011
1423.95035,0.28184
1425.44014,0.25359
1426.92993,0.32968
1428.41972,0.26917
1429.90951,0.23571
1431.39929,0.27581
1432.88908,0.31893
1434.37887,0.26298
1435.86866,0.28211
1437.35845,0.32977
1438.84824,0.38195
1440.33802,0.36209
1441.82781,0.39478
1443.31760,0.34191
1444.80739,0.43318
1446.29718,0.52446
1447.78697,0.50616
1449.27676,0.50740
1450.76654,0.46962
1452.25633,0.56095
1453.74612,0.59525
1455.23591,0.60254
1456.72570,0.65188
1458.21549,0.65620
1459.70527,0.67255
1461.19506,0.70842
1462.68485,0.80885
1464.17464,0.84625
1465.66443,0.86340
1467.15422,0.88056
1468.64401,0.93151
1470.13379,0.90591
1471.62358,1.00643
1473.11337,1.01238
1474.60316,0.94029
1476.09295,1.02734
1477.58274,0.96278
1479.07252,0.83368
1480.56231,0.76915
1482.05210,0.75868
1483.54189,0.58759
1485.03168,0.52761
1486.52147,0.41509
1488.01125,0.40017
1489.50104,0.38526
1490.99083,0.30881
1492.48062,0.29243
1493.97041,0.28056
1495.46020,0.20115
1496.94999,0.16229
1498.43977,0.13245
1499.92956,0.13715
1501.41935,0.02327
1502.90914,0.05051
1504.39893,0.05225
1505.88872,0.06001
1507.37850,0.04526
1508.86829,0.04554
1510.35808,0.00380
1511.84787,0.02616
1513.33766,0.03653
1514.82745,0.04691
1516.31724,0.05430
1517.80702,0.07222
1519.29681,0.06462
1520.78660,0.00000
1522.27639,0.09167
1523.76618,0.03473
1525.25597,0.02735
1526.74575,0.05000
1528.23554,0.07717
1529.72533,0.04281
1531.21512,0.07751
1532.70491,0.02817
1534.19470,0.05389
1535.68448,0.03760
1537.17427,0.06335
1538.66406,0.03957
1540.15385,0.05634
1541.64364,0.07313
1543.13343,0.03438
1544.62322,0.11274
1546.11300,0.04250
1547.60279,0.00380
1549.09258,0.03519
1550.58237,0.09361
1552.07216,0.09650
1553.56195,0.11742
1555.05173,0.06480
1556.54152,0.02871
1558.03131,0.10521
1559.52110,0.06614
1561.01089,0.07962
1562.50068,0.09012
1563.99047,0.07360
1565.48025,0.09614
1566.97004,0.01810
1568.45983,0.04066
1569.94962,0.04072
1571.43941,0.04078
1572.92920,0.09040
1574.41898,0.09500
1575.90877,0.07109
1577.39856,0.05920
1578.88835,0.00380
1580.37814,0.02040
1581.86793,0.04752
1583.35771,0.13320
1584.84750,0.10331
1586.33729,0.09744
1587.82708,0.05707
1589.31687,0.05273
1590.80666,0.02590
1592.29645,0.06662
1593.78623,0.09536
1595.27602,0.05805
1596.76581,0.13935
1598.25560,0.12909
1599.74539,0.08733
1601.23518,0.01255
1602.72496,0.07288
1604.21475,0.08445
1605.70454,0.09603
1607.19433,0.19393
1608.68412,0.13573
1610.17391,0.12408
1611.66370,0.15148
1613.15348,0.17138
1614.64327,0.17178
1616.13306,0.10614
1617.62285,0.16362
1619.11264,0.08900
1620.60243,0.11497
1622.09221,0.09142
1623.58200,0.08740
1625.07179,0.12393
1626.56158,0.13494
1628.05137,0.21653
1629.54116,0.16452
1631.03094,0.12905
1632.52073,0.14912
1634.01052,0.12118
1635.50031,0.11877
1636.99010,0.05933
1638.47989,0.07496
1639.96968,0.15065
1641.45946,0.11376
1642.94925,0.11442
1644.43904,0.07306
1645.92883,0.12253
1647.41862,0.17202
1648.90841,0.14872
1650.39819,0.13743
1651.88798,0.14718
1653.37777,0.09990
1654.86756,0.08566
1656.35735,0.17801
1657.84714,0.18931
1659.33693,0.25917
1660.82671,0.21046
1662.31650,0.19328
1663.80629,0.16711
1665.29608,0.15596
1666.78587,0.19136
1668.27566,0.19376
1669.76544,0.26071
1671.25523,0.21359
1672.74502,0.17999
1674.23481,0.26050
1675.72460,0.31850
1677.21439,0.27444
1678.70417,0.32046
1680.19396,0.26141
1681.68375,0.19037
1683.17354,0.22742
1684.66333,0.21345
1686.15312,0.23102
1687.64291,0.20356
1689.13269,0.23316
1690.62248,0.31682
1692.11227,0.29992
1693.60206,0.18545
1695.09185,0.20159
1696.58164,0.21475
1698.07142,0.15887
1699.56121,0.18707
1701.05100,0.18225
1702.54079,0.16094
1704.03058,0.17566
1705.52037,0.13636
1707.01016,0.10008
1708.49994,0.06380
1709.98973,0.11612
1711.47952,0.01982
1712.96931,0.04064
1714.45910,0.07948
1715.94889,0.07930
1717.43867,0.05062
1718.92846,0.01894
1720.41825,0.00380
1721.90804,0.01334
1723.39783,0.03340
1724.88762,0.00694
1726.37740,0.03454
1727.86719,0.08917
1729.35698,0.06876
1730.84677,0.01533
1732.33656,0.00695
1733.82635,0.02711
1735.31614,0.04578
1736.80592,0.11551
1738.29571,0.08016
1739.78550,0.06585
1741.27529,0.08007
1742.76508,0.07779
1744.25487,0.03049
1745.74465,0.06127
1747.23444,0.03201
1748.72423,0.00727
1750.21402,0.04559
1751.70381,0.07942
1753.19360,0.07274
1754.68339,0.03304
1756.17317,0.03238
1757.66296,0.07228
1759.15275,0.12419
1760.64254,0.09956
1762.13233,0.04642
1763.62212,0.00380
1765.11190,0.04094
1766.60169,0.03156
1768.09148,0.06572
1769.58127,0.14194
1771.07106,0.06354
1772.56085,0.06472
1774.05063,0.05391
1775.54042,0.00858
1777.03021,0.00380
1778.52000,0.00380
