299.16008,0.18384
300.64987,0.23208
302.13966,0.25150
303.62945,0.19510
305.11924,0.13870
306.60902,0.00221
308.09881,0.00779
309.58860,0.03474
311.07839,0.06170
312.56818,0.15489
314.05797,0.04088
315.54776,0.03851
317.03754,0.03614
318.52733,0.06422
320.01712,0.06134
321.50691,0.03177
322.99670,0.00221
324.48649,0.10730
325.97627,0.08210
327.46606,0.07880
328.95585,0.07551
330.44564,0.08024
331.93543,0.02304
333.42522,0.02780
334.91501,0.03256
336.40479,0.08754
337.89458,0.04747
339.38437,0.09927
340.87416,0.15108
342.36395,0.05550
343.85374,0.07149
345.34352,0.05277
346.83331,0.03407
348.32310,0.12913
349.81289,0.14516
351.30268,0.09659
352.79247,0.04802
354.28225,0.11108
355.77204,0.14318
357.26183,0.09839
358.75162,0.05361
360.24141,0.05476
361.73120,0.12322
363.22099,0.13294
364.71077,0.14268
366.20056,0.12038
367.69035,0.09169
369.18014,0.11107
370.66993,0.13046
372.15972,0.22997
373.64950,0.17462
375.13929,0.19191
376.62908,0.20921
378.11887,0.26284
379.60866,0.35279
381.09845,0.38348
382.58824,0.41417
384.07802,0.46357
385.56781,0.47774
387.05760,0.50045
388.54739,0.52318
390.03718,0.52457
391.52697,0.50673
393.01675,0.51775
394.50654,0.52877
395.99633,0.62526
397.48612,0.60854
398.97591,0.60411
400.46570,0.59969
401.95548,0.60223
403.44527,0.63896
404.93506,0.65647
406.42485,0.67400
407.91464,0.57298
409.40443,0.66529
410.89422,0.74693
412.38400,0.76930
413.87379,0.79169
415.36358,0.77403
416.85337,1.02554
418.34316,1.07733
419.83295,1.12914
421.32273,1.21193
422.81252,1.17083
424.30231,1.17994
425.79210,1.18907
427.28189,1.09994
428.77168,1.09307
430.26146,1.15937
431.75125,1.22568
433.24104,1.16864
434.73083,0.96208
436.22062,0.94726
437.71041,0.93244
439.20020,0.67465
440.68998,0.63475
442.17977,0.61837
443.66956,0.60199
445.15935,0.54077
446.64914,0.43363
448.13893,0.40127
449.62871,0.29736
451.11850,0.19346
452.60829,0.15579
454.09808,0.12347
455.58787,0.13122
457.07766,0.13898
458.56745,0.17185
460.05723,0.14705
461.54702,0.11853
463.03681,0.09001
464.52660,0.07593
466.01639,0.10992
467.50618,0.09480
468.99596,0.07968
470.48575,0.06351
471.97554,0.00249
473.46533,0.09020
474.95512,0.10369
476.44491,0.11719
477.93469,0.16221
479.42448,0.13034
480.91427,0.13373
482.40406,0.13713
483.89385,0.20249
485.38364,0.27748
486.87343,0.29746
488.36321,0.31746
489.85300,0.36364
491.34279,0.48139
492.83258,0.48380
494.32237,0.45899
495.81216,0.43419
497.30194,0.47295
498.79173,0.36860
500.28152,0.38762
501.77131,0.40665
503.26110,0.52449
504.75089,0.50670
506.24068,0.51241
507.73046,0.51814
509.22025,0.45445
510.71004,0.48583
512.19983,0.41149
513.68962,0.47120
515.17941,0.53092
516.66919,0.43097
518.15898,0.42716
519.64877,0.40788
521.13856,0.38861
522.62835,0.39551
524.11814,0.46651
525.60792,0.50762
527.09771,0.55568
528.58750,0.60375
530.07729,0.70577
531.56708,0.74906
533.05687,0.72400
534.54666,0.69896
536.03644,0.65897
537.52623,0.73221
539.01602,0.74351
540.50581,0.76924
541.99560,0.79498
543.48539,0.71874
544.97517,0.77067
546.46496,0.78843
547.95475,0.80621
549.44454,0.75671
550.93433,0.63673
552.42412,0.63959
553.91391,0.63017
555.40369,0.62077
556.89348,0.68240
558.38327,0.59452
559.87306,0.57340
561.36285,0.55229
562.85264,0.51251
564.34242,0.52293
565.83221,0.40840
567.32200,0.39695
568.81179,0.38551
570.30158,0.26461
571.79137,0.31781
573.28115,0.27543
574.77094,0.23306
576.26073,0.16988
577.75052,0.14195
579.24031,0.18560
580.73010,0.16357
582.21989,0.14155
583.70967,0.14357
585.19946,0.16056
586.68925,0.16635
588.17904,0.17214
589.66883,0.09731
591.15862,0.04492
592.64840,0.05342
594.13819,0.03736
595.62798,0.02132
597.11777,0.02451
598.60756,0.07044
600.09735,0.13560
601.58714,0.09557
603.07692,0.05555
604.56671,0.19444
606.05650,0.18275
607.54629,0.19617
609.03608,0.20959
610.52587,0.09113
612.01565,0.12220
613.50544,0.13086
614.99523,0.12938
616.48502,0.12791
617.97481,0.06504
619.46460,0.09937
620.95438,0.09206
622.44417,0.10719
623.93396,0.12233
625.42375,0.08088
626.91354,0.12168
628.40333,0.10428
629.89312,0.08689
631.38290,0.13733
632.87269,0.04680
634.36248,0.00221
635.85227,0.00944
637.34206,0.01667
638.83185,0.08907
640.32163,0.06963
641.81142,0.04272
643.30121,0.09646
644.79100,0.15022
646.28079,0.00692
647.77058,0.06803
649.26037,0.11634
650.75015,0.14169
652.23994,0.16705
653.72973,0.19189
655.21952,0.12809
656.70931,0.14975
658.19910,0.10680
659.68888,0.06387
661.17867,0.04070
662.66846,0.03997
664.15825,0.10548
665.64804,0.09890
667.13783,0.09233
668.62761,0.12690
670.11740,0.12516
671.60719,0.10474
673.09698,0.08433
674.58677,0.09010
676.07656,0.18240
677.56635,0.22023
679.05613,0.21322
680.54592,0.20622
682.03571,0.25050
683.52550,0.26595
685.01529,0.23548
686.50508,0.21518
687.99486,0.19488
689.48465,0.19115
690.97444,0.15860
692.46423,0.22431
693.95402,0.19712
695.44381,0.16994
696.93360,0.15665
698.42338,0.09424
699.91317,0.12264
701.40296,0.11633
702.89275,0.11003
704.38254,0.07650
705.87233,0.04726
707.36211,0.08639
708.85190,0.06358
710.34169,0.04078
711.83148,0.15684
713.32127,0.09241
714.81106,0.07926
716.30084,0.10190
717.79063,0.12455
719.28042,0.10929
720.77021,0.07803
722.26000,0.05852
723.74979,0.05292
725.23958,0.04732
726.72936,0.00221
728.21915,0.05504
729.70894,0.03417
731.19873,0.09770
732.68852,0.09448
734.17831,0.09128
735.66809,0.05230
737.15788,0.09131
738.64767,0.09507
740.13746,0.08283
741.62725,0.07061
743.11704,0.10325
744.60683,0.08997
746.09661,0.09593
747.58640,0.09710
749.07619,0.09828
750.56598,0.21428
752.05577,0.22243
753.54556,0.25087
755.03534,0.27399
756.52513,0.29712
758.01492,0.38755
759.50471,0.46517
760.99450,0.56523
762.48429,0.64555
763.97407,0.72588
765.46386,0.76723
766.95365,0.78510
768.44344,0.90124
769.93323,0.90738
771.42302,0.89163
772.91281,0.87590
774.40259,0.92266
775.89238,0.84127
777.38217,0.80901
778.87196,0.80881
780.36175,0.80862
781.85154,0.71979
783.34132,0.63952
784.83111,0.60732
786.32090,0.61839
787.81069,0.62947
789.30048,0.59838
790.79027,0.61642
792.28006,0.63341
793.76984,0.51156
795.25963,0.47998
796.74942,0.44840
798.23921,0.35543
799.72900,0.31586
801.21879,0.26563
802.70857,0.24318
804.19836,0.22074
805.68815,0.16734
807.17794,0.10433
808.66773,0.05950
810.15752,0.06487
811.64730,0.07025
813.13709,0.10342
814.62688,0.19320
816.11667,0.15911
817.60646,0.20512
819.09625,0.24100
820.58604,0.27689
822.07582,0.30051
823.56561,0.30279
825.05540,0.36701
826.54519,0.36130
828.03498,0.35559
829.52477,0.38888
831.01455,0.34528
832.50434,0.41704
833.99413,0.45463
835.48392,0.43991
836.97371,0.42519
838.46350,0.42543
839.95329,0.42142
841.44307,0.46761
842.93286,0.52664
844.42265,0.51678
845.91244,0.50693
847.40223,0.62260
848.89202,0.69662
850.38180,0.72152
851.87159,0.77847
853.36138,0.83544
854.85117,0.99174
856.34096,1.06368
857.83075,1.10573
859.32053,1.22469
860.81032,1.21015
862.30011,1.19562
863.78990,1.16615
865.27969,1.12494
866.76948,1.21725
868.25927,1.11198
869.74905,1.12635
871.23884,1.14073
872.72863,1.12200
874.21842,1.11397
875.70821,1.10275
877.19800,1.02318
878.68778,1.01946
880.17757,1.01574
881.66736,0.98107
883.15715,0.98592
884.64694,0.96088
886.13673,0.92357
887.62651,0.88626
889.11630,0.94777
890.60609,0.91957
892.09588,0.95119
893.58567,0.98176
895.07546,0.96106
896.56525,0.94038
898.05503,0.91972
899.54482,0.93537
901.03461,0.94356
902.52440,0.92186
904.01419,0.89323
905.50398,0.86460
906.99376,0.89206
908.48355,0.93663
909.97334,0.87653
911.46313,0.83033
912.95292,0.85944
914.44271,0.88855
915.93250,0.92997
917.42228,0.89129
918.91207,0.85903
920.40186,0.89940
921.89165,0.88693
923.38144,0.87446
924.87123,0.94477
926.36101,0.99054
927.85080,0.95941
929.34059,0.99986
930.83038,0.98638
932.32017,0.97291
933.80996,0.90765
935.29974,0.84026
936.78953,0.88717
938.27932,0.86894
939.76911,0.86194
941.25890,0.85494
942.74869,0.87733
944.23848,0.84419
945.72826,0.72455
947.21805,0.80786
948.70784,0.78650
950.19763,0.79987
951.68742,0.81324
953.17721,0.87523
954.66699,0.79304
956.15678,0.76105
957.64657,0.87114
959.13636,0.91020
960.62615,0.94928
962.11594,1.02522
963.60573,0.95591
965.09551,0.99983
966.58530,1.10677
968.07509,1.14591
969.56488,1.18505
971.05467,1.27494
972.54446,1.26231
974.03424,1.34901
975.52403,1.27873
977.01382,1.45731
978.50361,1.44579
979.99340,1.43428
981.48319,1.55949
982.97297,1.61423
984.46276,1.66897
985.95255,1.80810
987.44234,1.75873
988.93213,1.70937
990.42192,1.70221
991.91171,1.83071
993.40149,1.88125
994.89128,1.83994
996.38107,1.70786
997.87086,1.69168
999.36065,1.67551
1000.85044,1.80835
1002.34022,1.88886
1003.83001,1.87219
1005.31980,1.99117
1006.80959,1.97559
1008.29938,1.96002
1009.78917,2.00000
1011.27896,1.95455
1012.76874,1.93153
1014.25853,1.79211
1015.74832,1.64096
1017.23811,1.55015
1018.72790,1.45937
1020.21769,1.23561
1021.70747,1.03644
1023.19726,0.85116
1024.68705,0.71502
1026.17684,0.56073
1027.66663,0.55439
1029.15642,0.54805
1030.64620,0.52517
1032.13599,0.49590
1033.62578,0.46877
1035.11557,0.46942
1036.60536,0.49038
1038.09515,0.51135
1039.58494,0.50028
1041.07472,0.61099
1042.56451,0.62131
1044.05430,0.64766
1045.54409,0.64946
1047.03388,0.72016
1048.52367,0.79087
1050.01345,0.84290
1051.50324,0.88854
1052.99303,0.96302
1054.48282,1.12082
1055.97261,1.05861
1057.46240,1.08934
1058.95219,1.12008
1060.44197,1.21064
1061.93176,1.28412
1063.42155,1.26789
1064.91134,1.36703
1066.40113,1.47579
1067.89092,1.52422
1069.38070,1.57265
1070.87049,1.62911
1072.36028,1.61830
1073.85007,1.59040
1075.33986,1.40124
1076.82965,1.36376
1078.31943,1.39197
1079.80922,1.42019
1081.29901,1.45964
1082.78880,1.36025
1084.27859,1.27155
1085.76838,1.21064
1087.25817,1.13478
1088.74795,1.08457
1090.23774,1.08083
1091.72753,1.07710
1093.21732,1.10595
1094.70711,1.08142
1096.19690,1.10389
1097.68668,1.03025
1099.17647,0.96730
1100.66626,0.94815
1102.15605,0.92901
1103.64584,0.88104
1105.13563,0.88436
1106.62542,0.83535
1108.11520,0.81091
1109.60499,0.75552
1111.09478,0.72897
1112.58457,0.69228
1114.07436,0.65561
1115.56415,0.62803
1117.05393,0.54385
1118.54372,0.58892
1120.03351,0.49942
1121.52330,0.50393
1123.01309,0.53194
1124.50288,0.55996
1125.99266,0.52605
1127.48245,0.48681
1128.97224,0.41020
1130.46203,0.40409
1131.95182,0.34352
1133.44161,0.31714
1134.93140,0.31854
1136.42118,0.31995
1137.91097,0.30001
1139.40076,0.26513
1140.89055,0.19715
1142.38034,0.23492
1143.87013,0.21930
1145.35991,0.16417
1146.84970,0.16726
1148.33949,0.17037
1149.82928,0.15158
1151.31907,0.13068
1152.80886,0.07240
1154.29865,0.07074
1155.78843,0.11395
1157.27822,0.07600
1158.76801,0.08453
1160.25780,0.09306
1161.74759,0.09466
1163.23738,0.08346
1164.72716,0.09790
1166.21695,0.06429
1167.70674,0.05846
1169.19653,0.01953
1170.68632,0.03455
1172.17611,0.04958
1173.66589,0.09613
1175.15568,0.08287
1176.64547,0.08245
1178.13526,0.04039
1179.62505,0.05921
1181.11484,0.00221
1182.60463,0.02629
1184.09441,0.05039
1185.58420,0.02429
1187.07399,0.03666
1188.56378,0.00845
1190.05357,0.07104
1191.54336,0.03751
1193.03314,0.05099
1194.52293,0.03724
1196.01272,0.02351
1197.50251,0.01566
1198.99230,0.00782
1200.48209,0.01067
1201.97188,0.02208
1203.46166,0.00894
1204.95145,0.05028
1206.44124,0.11192
1207.93103,0.12925
1209.42082,0.14659
1210.91061,0.12709
1212.40039,0.11615
1213.89018,0.14794
1215.37997,0.12848
1216.86976,0.25962
1218.35955,0.18678
1219.84934,0.18070
1221.33912,0.17463
1222.82891,0.15736
1224.31870,0.15612
1225.80849,0.16984
1227.29828,0.20173
1228.78807,0.22082
1230.27786,0.26555
1231.76764,0.25155
1233.25743,0.24130
1234.74722,0.23106
1236.23701,0.25982
1237.72680,0.32596
1239.21659,0.32697
1240.70637,0.34401
1242.19616,0.34611
1243.68595,0.40803
1245.17574,0.44220
1246.66553,0.44646
1248.15532,0.45074
1249.64511,0.39949
1251.13489,0.40059
1252.62468,0.51278
1254.11447,0.53312
1255.60426,0.61756
1257.09405,0.63045
1258.58384,0.59957
1260.07362,0.64132
1261.56341,0.59817
1263.05320,0.55503
1264.54299,0.55730
1266.03278,0.58948
1267.52257,0.60031
1269.01235,0.55348
1270.50214,0.54832
1271.99193,0.54957
1273.48172,0.46646
1274.97151,0.46667
1276.46130,0.46689
1277.95109,0.49489
1279.44087,0.51542
1280.93066,0.49431
1282.42045,0.39204
1283.91024,0.42543
1285.40003,0.44173
1286.88982,0.46767
1288.37960,0.51497
1289.86939,0.43785
1291.35918,0.36075
1292.84897,0.40702
1294.33876,0.42553
1295.82855,0.36501
1297.31834,0.33762
1298.80812,0.35937
1300.29791,0.29889
1301.78770,0.38047
1303.27749,0.35526
1304.76728,0.36263
1306.25707,0.37002
1307.74685,0.34377
1309.23664,0.42113
1310.72643,0.38850
1312.21622,0.43171
1313.70601,0.41619
1315.19580,0.41990
1316.68558,0.38838
1318.17537,0.39852
1319.66516,0.39853
1321.15495,0.39855
1322.64474,0.41087
1324.13453,0.45630
1325.62432,0.50389
1327.11410,0.54507
1328.60389,0.54461
1330.09368,0.52708
1331.58347,0.45615
1333.07326,0.52942
1334.56305,0.55464
1336.05283,0.56652
1337.54262,0.57842
1339.03241,0.72970
1340.52220,0.75283
1342.01199,0.79199
1343.50178,0.83757
1344.99156,0.81267
1346.48135,0.88925
1347.97114,0.99681
1349.46093,1.14176
1350.95072,1.32945
1352.44051,1.33184
1353.93030,1.33425
1355.42008,1.46109
1356.90987,1.60396
1358.39966,1.70947
1359.88945,1.70497
1361.37924,1.55630
1362.86903,1.56357
1364.35881,1.40211
1365.84860,1.31435
1367.33839,1.11552
1368.82818,1.07051
1370.31797,1.02550
1371.80776,0.86195
1373.29755,0.70376
1374.78733,0.65345
1376.27712,0.55509
1377.76691,0.57636
1379.25670,0.52928
1380.74649,0.53563
1382.23628,0.52916
1383.72606,0.53019
1385.21585,0.57822
1386.70564,0.57339
1388.19543,0.56857
1389.68522,0.49594
1391.17501,0.48207
1392.66479,0.50666
1394.15458,0.53980
1395.64437,0.55586
1397.13416,0.54204
1398.62395,0.51327
1400.11374,0.42576
1401.60353,0.50489
1403.09331,0.42702
1404.58310,0.42660
1406.07289,0.42619
1407.56268,0.49575
1409.05247,0.43394
1410.54226,0.39458
1412.03204,0.41718
1413.52183,0.40134
1415.01162,0.40900
1416.50141,0.40279
1417.99120,0.41155
1419.48099,0.44168
1420.97078,0.39172
1422.46056,0.39196
1423.95035,0.39489
1425.44014,0.39783
1426.92993,0.32548
1428.41972,0.36208
1429.90951,0.31005
1431.39929,0.31036
1432.88908,0.33098
1434.37887,0.34734
1435.86866,0.32632
1437.35845,0.33416
1438.84824,0.32491
1440.33802,0.32636
1441.82781,0.44637
1443.31760,0.37735
1444.80739,0.42796
1446.29718,0.47859
1447.78697,0.48970
1449.27676,0.55317
1450.76654,0.49808
1452.25633,0.56050
1453.74612,0.65711
1455.23591,0.67789
1456.72570,0.70403
1458.21549,0.79533
1459.70527,0.80013
1461.19506,0.85193
1462.68485,0.87277
1464.17464,0.97052
1465.66443,1.02877
1467.15422,1.08702
1468.64401,1.06305
1470.13379,1.17046
1471.62358,1.27254
1473.11337,1.20694
1474.60316,1.14457
1476.09295,1.14415
1477.58274,1.08286
1479.07252,1.08994
1480.56231,0.99129
1482.05210,0.89799
1483.54189,0.80577
1485.03168,0.69968
1486.52147,0.57865
1488.01125,0.55429
1489.50104,0.52993
1490.99083,0.45593
1492.48062,0.30290
1493.97041,0.25348
1495.46020,0.20087
1496.94999,0.17070
1498.43977,0.14268
1499.92956,0.08370
1501.41935,0.11658
1502.90914,0.09072
1504.39893,0.08197
1505.88872,0.08177
1507.37850,0.07091
1508.86829,0.02694
1510.35808,0.00221
1511.84787,0.04132
1513.33766,0.04467
1514.82745,0.04802
1516.31724,0.05192
1517.80702,0.05582
1519.29681,0.05654
1520.78660,0.05086
1522.27639,0.07937
1523.76618,0.03632
1525.25597,0.00718
1526.74575,0.04961
1528.23554,0.03544
1529.72533,0.01807
1531.21512,0.05199
1532.70491,0.07737
1534.19470,0.03761
1535.68448,0.04379
1537.17427,0.06921
1538.66406,0.03589
1540.15385,0.04637
1541.64364,0.05687
1543.13343,0.01931
1544.62322,0.02556
1546.11300,0.02861
1547.60279,0.02954
1549.09258,0.00591
1550.58237,0.07308
1552.07216,0.08686
1553.56195,0.06007
1555.05173,0.08455
1556.54152,0.06205
1558.03131,0.09616
1559.52110,0.07475
1561.01089,0.04267
1562.50068,0.10031
1563.99047,0.03728
1565.48025,0.03087
1566.97004,0.00738
1568.45983,0.06934
1569.94962,0.05228
1571.43941,0.03523
1572.92920,0.05771
1574.41898,0.04816
1575.90877,0.07172
1577.39856,0.05899
1578.88835,0.06122
1580.37814,0.05492
1581.86793,0.09455
1583.35771,0.11925
1584.84750,0.09909
1586.33729,0.08322
1587.82708,0.07484
1589.31687,0.07074
1590.80666,0.09869
1592.29645,0.12452
1593.78623,0.11725
1595.27602,0.11747
1596.76581,0.15722
1598.25560,0.14678
1599.74539,0.16839
1601.23518,0.15156
1602.72496,0.14009
1604.21475,0.15159
1605.70454,0.16310
1607.19433,0.16874
1608.68412,0.14877
1610.17391,0.17793
1611.66370,0.19536
1613.15348,0.21174
1614.64327,0.20783
1616.13306,0.20500
1617.62285,0.15091
1619.11264,0.16733
1620.60243,0.18269
1622.09221,0.15106
1623.58200,0.16538
1625.07179,0.13484
1626.56158,0.15773
1628.05137,0.20518
1629.54116,0.21527
1631.03094,0.16342
1632.52073,0.14042
1634.01052,0.14947
1635.50031,0.15747
1636.99010,0.11207
1638.47989,0.20340
1639.96968,0.13666
1641.45946,0.18849
1642.94925,0.17732
1644.43904,0.20140
1645.92883,0.16996
1647.41862,0.13852
1648.90841,0.18721
1650.39819,0.13657
1651.88798,0.15430
1653.37777,0.18379
1654.86756,0.16523
1656.35735,0.17018
1657.84714,0.16552
1659.33693,0.23351
1660.82671,0.19256
1662.31650,0.16338
1663.80629,0.20042
1665.29608,0.18301
1666.78587,0.19231
1668.27566,0.22618
1669.76544,0.24939
1671.25523,0.22240
1672.74502,0.23282
1674.23481,0.25926
1675.72460,0.25153
1677.21439,0.26305
1678.70417,0.25107
1680.19396,0.26047
1681.68375,0.20793
1683.17354,0.24406
1684.66333,0.20542
1686.15312,0.21487
1687.64291,0.19548
1689.13269,0.22952
1690.62248,0.27424
1692.11227,0.21644
1693.60206,0.22594
1695.09185,0.23331
1696.58164,0.17234
1698.07142,0.11993
1699.56121,0.14763
1701.05100,0.15184
1702.54079,0.11334
1704.03058,0.14428
1705.52037,0.11115
1707.01016,0.09565
1708.49994,0.08016
1709.98973,0.08658
1711.47952,0.06310
1712.96931,0.10158
1714.45910,0.05143
1715.94889,0.07818
1717.43867,0.06970
1718.92846,0.02385
1720.41825,0.05278
1721.90804,0.03472
1723.39783,0.00279
1724.88762,0.03495
1726.37740,0.02975
1727.86719,0.02776
1729.35698,0.03539
1730.84677,0.02488
1732.33656,0.00797
1733.82635,0.00709
1735.31614,0.07458
1736.80592,0.06732
1738.29571,0.03870
1739.78550,0.02826
1741.27529,0.05627
1742.76508,0.05760
1744.25487,0.06748
1745.74465,0.03786
1747.23444,0.06699
1748.72423,-0.00000
1750.21402,0.01439
1751.70381,0.06511
1753.19360,0.01117
1754.68339,0.04236
1756.17317,0.02763
1757.66296,0.05029
1759.15275,0.05374
1760.64254,0.04973
1762.13233,0.07136
1763.62212,0.00221
1765.11190,0.02652
1766.60169,0.00810
1768.09148,0.04525
1769.58127,0.07172
1771.07106,0.02878
1772.56085,0.04032
1774.05063,0.02410
1775.54042,0.04100
1777.03021,0.03015
1778.52000,0.00221
