299.16008,0.18298
300.64987,0.15984
302.13966,0.17986
303.62945,0.18159
305.11924,0.18333
306.60902,0.21254
308.09881,0.11885
309.58860,0.11932
311.07839,0.11980
312.56818,0.00000
314.05797,0.09074
315.54776,0.06772
317.03754,0.04472
318.52733,0.12504
320.01712,0.05891
321.50691,0.08629
322.99670,0.11369
324.48649,0.05676
325.97627,0.05606
327.46606,0.08481
328.95585,0.11356
330.44564,0.21229
331.93543,0.10704
333.42522,0.10903
334.91501,0.11103
336.40479,0.07512
337.89458,0.08630
339.38437,0.06808
340.87416,0.04986
342.36395,0.06370
343.85374,0.05663
345.34352,0.06983
346.83331,0.08305
348.32310,0.09825
349.81289,0.06900
351.30268,0.09011
352.79247,0.11123
354.28225,0.20232
355.77204,0.11558
357.26183,0.11647
358.75162,0.11738
360.24141,0.06730
361.73120,0.15191
363.22099,0.14893
364.71077,0.14597
366.20056,0.19924
367.69035,0.14661
369.18014,0.17899
370.66993,0.21138
372.15972,0.14310
373.64950,0.20690
375.13929,0.25633
376.62908,0.30577
378.11887,0.38791
379.60866,0.34585
381.09845,0.41756
382.58824,0.48929
384.07802,0.44595
385.56781,0.52293
387.05760,0.54893
388.54739,0.57494
390.03718,0.63889
391.52697,0.62046
393.01675,0.63932
394.50654,0.65819
395.99633,0.60450
397.48612,0.74435
398.97591,0.69331
400.46570,0.64227
401.95548,0.62656
403.44527,0.62001
404.93506,0.63832
406.42485,0.65664
407.91464,0.66713
409.40443,0.77701
410.89422,0.82283
412.38400,0.82747
413.87379,0.83213
415.36358,0.93814
416.85337,1.09647
418.34316,1.08024
419.83295,1.06403
421.32273,1.09818
422.81252,1.28402
424.30231,1.29727
425.79210,1.31053
427.28189,1.43233
428.77168,1.40378
430.26146,1.32293
431.75125,1.24210
433.24104,1.21750
434.73083,1.01247
436.22062,0.94083
437.71041,0.86920
439.20020,0.90088
440.68998,0.77698
442.17977,0.76161
443.66956,0.74627
445.15935,0.62109
446.64914,0.43970
448.13893,0.45054
449.62871,0.40844
451.11850,0.36635
452.60829,0.22162
454.09808,0.16583
455.58787,0.18001
457.07766,0.19420
458.56745,0.18290
460.05723,0.18208
461.54702,0.13616
463.03681,0.09025
464.52660,0.10255
466.01639,0.13316
467.50618,0.17817
468.99596,0.22320
470.48575,0.20024
471.97554,0.16814
473.46533,0.10205
474.95512,0.05102
476.44491,0.00000
477.93469,0.16013
479.42448,0.15812
480.91427,0.17117
482.40406,0.18422
483.89385,0.28817
485.38364,0.26399
486.87343,0.26990
488.36321,0.27582
489.85300,0.32882
491.34279,0.30861
492.83258,0.36688
494.32237,0.39573
495.81216,0.42460
497.30194,0.36260
498.79173,0.43137
500.28152,0.44917
501.77131,0.46697
503.26110,0.42464
504.75089,0.45293
506.24068,0.47208
507.73046,0.49125
509.22025,0.46727
510.71004,0.35309
512.19983,0.33699
513.68962,0.37451
515.17941,0.41205
516.66919,0.47444
518.15898,0.49108
519.64877,0.50382
521.13856,0.51656
522.62835,0.50055
524.11814,0.44271
525.60792,0.54964
527.09771,0.55721
528.58750,0.56479
530.07729,0.70315
531.56708,0.81275
533.05687,0.83344
534.54666,0.85415
536.03644,0.90495
537.52623,0.93745
539.01602,0.95297
540.50581,0.90704
541.99560,0.86112
543.48539,0.79299
544.97517,0.77195
546.46496,0.80453
547.95475,0.83712
549.44454,0.72459
550.93433,0.69967
552.42412,0.84345
553.91391,0.83230
555.40369,0.82115
556.89348,0.71652
558.38327,0.76621
559.87306,0.72438
561.36285,0.68255
562.85264,0.66036
564.34242,0.63295
565.83221,0.60817
567.32200,0.53894
568.81179,0.46972
570.30158,0.27368
571.79137,0.47386
573.28115,0.44129
574.77094,0.40874
576.26073,0.25721
577.75052,0.19854
579.24031,0.32163
580.73010,0.25121
582.21989,0.18081
583.70967,0.09995
585.19946,0.04788
586.68925,0.02393
588.17904,0.00000
589.66883,0.11598
591.15862,0.04629
592.64840,0.01715
594.13819,0.04686
595.62798,0.07659
597.11777,0.03572
598.60756,0.05109
600.09735,0.18547
601.58714,0.17079
603.07692,0.15613
604.56671,0.12186
606.05650,0.13337
607.54629,0.18151
609.03608,0.22967
610.52587,0.14184
612.01565,0.14164
613.50544,0.04861
614.99523,0.06543
616.48502,0.08226
617.97481,0.13311
619.46460,0.07674
620.95438,0.14069
622.44417,0.18896
623.93396,0.23725
625.42375,0.16001
626.91354,0.22532
628.40333,0.20303
629.89312,0.18076
631.38290,0.14150
632.87269,0.12186
634.36248,0.02640
635.85227,0.02772
637.34206,0.02904
638.83185,0.06438
640.32163,0.05920
641.81142,0.03964
643.30121,0.09921
644.79100,0.15879
646.28079,0.10005
647.77058,0.12370
649.26037,0.24412
650.75015,0.23511
652.23994,0.22610
653.72973,0.27988
655.21952,0.12707
656.70931,0.20571
658.19910,0.13727
659.68888,0.06883
661.17867,0.11221
662.66846,0.00000
664.15825,0.05216
665.64804,0.07034
667.13783,0.08853
668.62761,0.05573
670.11740,0.10664
671.60719,0.09872
673.09698,0.09081
674.58677,0.09076
676.07656,0.16656
677.56635,0.17177
679.05613,0.17437
680.54592,0.17699
682.03571,0.08547
683.52550,0.20841
685.01529,0.26468
686.50508,0.23989
687.99486,0.21511
689.48465,0.21257
690.97444,0.10414
692.46423,0.09901
693.95402,0.15470
695.44381,0.21041
696.93360,0.18048
698.42338,0.03811
699.91317,0.03697
701.40296,0.08162
702.89275,0.12627
704.38254,0.11471
705.87233,0.12932
707.36211,0.07595
708.85190,0.04351
710.34169,0.01108
711.83148,0.14473
713.32127,0.09795
714.81106,0.05510
716.30084,0.06064
717.79063,0.06620
719.28042,0.07439
720.77021,0.11136
722.26000,0.08688
723.74979,0.08792
725.23958,0.08897
726.72936,0.00699
728.21915,0.04272
729.70894,0.00000
731.19873,0.11894
732.68852,0.10713
734.17831,0.09534
735.66809,0.12410
737.15788,0.15156
738.64767,0.03650
740.13746,0.04699
741.62725,0.05749
743.11704,0.09939
744.60683,0.15045
746.09661,0.11653
747.58640,0.12447
749.07619,0.13242
750.56598,0.21884
752.05577,0.25297
753.54556,0.28842
755.03534,0.28531
756.52513,0.28221
758.01492,0.41316
759.50471,0.47089
760.99450,0.66463
762.48429,0.67335
763.97407,0.68209
765.46386,0.79741
766.95365,0.88267
768.44344,0.85287
769.93323,0.92900
771.42302,0.97703
772.91281,1.02507
774.40259,0.96917
775.89238,0.80083
777.38217,0.77372
778.87196,0.78651
780.36175,0.79932
781.85154,0.76571
783.34132,0.70466
784.83111,0.61747
786.32090,0.66825
787.81069,0.71903
789.30048,0.67896
790.79027,0.63105
792.28006,0.69168
793.76984,0.63465
795.25963,0.61489
796.74942,0.59515
798.23921,0.36947
799.72900,0.30071
801.21879,0.28951
802.70857,0.29074
804.19836,0.29198
805.68815,0.20367
807.17794,0.12452
808.66773,0.09246
810.15752,0.13952
811.64730,0.18660
813.13709,0.17811
814.62688,0.24025
816.11667,0.23964
817.60646,0.24950
819.09625,0.24957
820.58604,0.24965
822.07582,0.33670
823.56561,0.28777
825.05540,0.33039
826.54519,0.36844
828.03498,0.40651
829.52477,0.45701
831.01455,0.43299
832.50434,0.38806
833.99413,0.54714
835.48392,0.55193
836.97371,0.55673
838.46350,0.58900
839.95329,0.50622
841.44307,0.49406
842.93286,0.54860
844.42265,0.60512
845.91244,0.66165
847.40223,0.82738
848.89202,0.76298
850.38180,0.83851
851.87159,0.83691
853.36138,0.83531
854.85117,0.94880
856.34096,1.13292
857.83075,1.22421
859.32053,1.22136
860.81032,1.21002
862.30011,1.19870
863.78990,1.24558
865.27969,1.06626
866.76948,1.19031
868.25927,1.07247
869.74905,1.12072
871.23884,1.16897
872.72863,1.23947
874.21842,1.12691
875.70821,1.06275
877.19800,1.08228
878.68778,1.06195
880.17757,1.04164
881.66736,1.08214
883.15715,1.14880
884.64694,1.04418
886.13673,1.09322
887.62651,1.14227
889.11630,1.21291
890.60609,1.21949
892.09588,1.12540
893.58567,1.12939
895.07546,1.15105
896.56525,1.17272
898.05503,1.15583
899.54482,1.21479
901.03461,1.18223
902.52440,1.10654
904.01419,1.11454
905.50398,1.12256
906.99376,1.08090
908.48355,1.14125
909.97334,1.10093
911.46313,1.07108
912.95292,1.08897
914.44271,1.10688
915.93250,1.13068
917.42228,1.25518
918.91207,1.21493
920.40186,1.22047
921.89165,1.20967
923.38144,1.19889
924.87123,1.25546
926.36101,1.23751
927.85080,1.24964
929.34059,1.23041
930.83038,1.24192
932.32017,1.25345
933.80996,1.20549
935.29974,1.10262
936.78953,1.09261
938.27932,1.07999
939.76911,1.08962
941.25890,1.09926
942.74869,1.15860
944.23848,1.21011
945.72826,1.10080
947.21805,1.10657
948.70784,1.18297
950.19763,1.19138
951.68742,1.19980
953.17721,1.17686
954.66699,1.13693
956.15678,1.29838
957.64657,1.27678
959.13636,1.28985
960.62615,1.30293
962.11594,1.41083
963.60573,1.46381
965.09551,1.39129
966.58530,1.54106
968.07509,1.57317
969.56488,1.60529
971.05467,1.68711
972.54446,1.63426
974.03424,1.58535
975.52403,1.68028
977.01382,1.74516
978.50361,1.69628
979.99340,1.64742
981.48319,1.69011
982.97297,1.80211
984.46276,1.88666
985.95255,2.00000
987.44234,1.96428
988.93213,1.92857
990.42192,1.90334
991.91171,1.83366
993.40149,1.71169
994.89128,1.75972
996.38107,1.80515
997.87086,1.74207
999.36065,1.67899
1000.85044,1.73885
1002.34022,1.64572
1003.83001,1.76706
1005.31980,1.85180
1006.80959,1.86267
1008.29938,1.87355
1009.78917,1.98187
1011.27896,1.87182
1012.76874,1.79840
1014.25853,1.63085
1015.74832,1.52738
1017.23811,1.41543
1018.72790,1.30349
1020.21769,1.10460
1021.70747,0.97242
1023.19726,0.90171
1024.68705,0.75125
1026.17684,0.60864
1027.66663,0.57458
1029.15642,0.54054
1030.64620,0.66080
1032.13599,0.53656
1033.62578,0.52348
1035.11557,0.54440
1036.60536,0.51696
1038.09515,0.48953
1039.58494,0.45819
1041.07472,0.53932
1042.56451,0.60477
1044.05430,0.71600
1045.54409,0.80633
1047.03388,0.81036
1048.52367,0.81440
1050.01345,0.91130
1051.50324,0.94153
1052.99303,0.96392
1054.48282,1.02163
1055.97261,1.09504
1057.46240,1.08936
1058.95219,1.08369
1060.44197,1.15584
1061.93176,1.23192
1063.42155,1.20341
1064.91134,1.27036
1066.40113,1.29810
1067.89092,1.29774
1069.38070,1.29739
1070.87049,1.44417
1072.36028,1.42881
1073.85007,1.30754
1075.33986,1.30136
1076.82965,1.22720
1078.31943,1.24982
1079.80922,1.27244
1081.29901,1.27155
1082.78880,1.32689
1084.27859,1.21618
1085.76838,1.22186
1087.25817,1.13864
1088.74795,1.05412
1090.23774,1.09841
1091.72753,1.14272
1093.21732,1.04255
1094.70711,1.04177
1096.19690,0.96124
1097.68668,1.04287
1099.17647,1.02120
1100.66626,1.02309
1102.15605,1.02500
1103.64584,0.90530
1105.13563,0.86931
1106.62542,0.74180
1108.11520,0.73590
1109.60499,0.67118
1111.09478,0.66924
1112.58457,0.67973
1114.07436,0.69024
1115.56415,0.66480
1117.05393,0.59622
1118.54372,0.56165
1120.03351,0.49310
1121.52330,0.48079
1123.01309,0.51295
1124.50288,0.54512
1125.99266,0.49362
1127.48245,0.48267
1128.97224,0.47696
1130.46203,0.46865
1131.95182,0.46166
1133.44161,0.40107
1134.93140,0.40130
1136.42118,0.40154
1137.91097,0.33576
1139.40076,0.28961
1140.89055,0.22778
1142.38034,0.26403
1143.87013,0.18131
1145.35991,0.10382
1146.84970,0.15385
1148.33949,0.20388
1149.82928,0.11728
1151.31907,0.17192
1152.80886,0.12850
1154.29865,0.15571
1155.78843,0.03909
1157.27822,0.07155
1158.76801,0.04191
1160.25780,0.01229
1161.74759,0.12194
1163.23738,0.14661
1164.72716,0.12160
1166.21695,0.09660
1167.70674,0.07555
1169.19653,0.03227
1170.68632,0.05635
1172.17611,0.08044
1173.66589,0.03982
1175.15568,0.10382
1176.64547,0.14169
1178.13526,0.09980
1179.62505,0.06969
1181.11484,0.09975
1182.60463,0.09451
1184.09441,0.08929
1185.58420,0.08669
1187.07399,0.09588
1188.56378,0.11815
1190.05357,0.08160
1191.54336,0.11175
1193.03314,0.09745
1194.52293,0.11389
1196.01272,0.13035
1197.50251,0.06509
1198.99230,0.01816
1200.48209,0.00000
1201.97188,0.10005
1203.46166,0.07588
1204.95145,0.08180
1206.44124,0.08382
1207.93103,0.14665
1209.42082,0.20949
1210.91061,0.25208
1212.40039,0.24761
1213.89018,0.28107
1215.37997,0.25178
1216.86976,0.28658
1218.35955,0.21677
1219.84934,0.24898
1221.33912,0.28120
1222.82891,0.21405
1224.31870,0.27245
1225.80849,0.27071
1227.29828,0.25199
1228.78807,0.28035
1230.27786,0.35318
1231.76764,0.34234
1233.25743,0.31713
1234.74722,0.29194
1236.23701,0.33867
1237.72680,0.41157
1239.21659,0.42041
1240.70637,0.37303
1242.19616,0.55320
1243.68595,0.50716
1245.17574,0.52128
1246.66553,0.51515
1248.15532,0.50903
1249.64511,0.59642
1251.13489,0.59098
1252.62468,0.59601
1254.11447,0.59452
1255.60426,0.71465
1257.09405,0.76288
1258.58384,0.74966
1260.07362,0.67630
1261.56341,0.68076
1263.05320,0.68523
1264.54299,0.65376
1266.03278,0.56084
1267.52257,0.60524
1269.01235,0.65357
1270.50214,0.61953
1271.99193,0.57897
1273.48172,0.53319
1274.97151,0.51880
1276.46130,0.50443
1277.95109,0.53846
1279.44087,0.48881
1280.93066,0.46009
1282.42045,0.42616
1283.91024,0.49424
1285.40003,0.52441
1286.88982,0.43690
1288.37960,0.49455
1289.86939,0.51495
1291.35918,0.53537
1292.84897,0.44138
1294.33876,0.41016
1295.82855,0.37374
1297.31834,0.36086
1298.80812,0.32576
1300.29791,0.38744
1301.78770,0.37460
1303.27749,0.40362
1304.76728,0.40519
1306.25707,0.40677
1307.74685,0.31291
1309.23664,0.43875
1310.72643,0.49137
1312.21622,0.46816
1313.70601,0.43711
1315.19580,0.38124
1316.68558,0.39730
1318.17537,0.44083
1319.66516,0.48307
1321.15495,0.52532
1322.64474,0.44859
1324.13453,0.41633
1325.62432,0.54623
1327.11410,0.57546
1328.60389,0.56678
1330.09368,0.47311
1331.58347,0.42654
1333.07326,0.51597
1334.56305,0.55311
1336.05283,0.50265
1337.54262,0.45220
1339.03241,0.43315
1340.52220,0.46380
1342.01199,0.52323
1343.50178,0.55391
1344.99156,0.58983
1346.48135,0.62969
1347.97114,0.61072
1349.46093,0.58653
1350.95072,0.58458
1352.44051,0.61796
1353.93030,0.65134
1355.42008,0.52260
1356.90987,0.52070
1358.39966,0.59728
1359.88945,0.55618
1361.37924,0.57002
1362.86903,0.49103
1364.35881,0.47481
1365.84860,0.41023
1367.33839,0.36135
1368.82818,0.34845
1370.31797,0.33556
1371.80776,0.34033
1373.29755,0.31243
1374.78733,0.29239
1376.27712,0.26843
1377.76691,0.31511
1379.25670,0.27549
1380.74649,0.27642
1382.23628,0.23944
1383.72606,0.22209
1385.21585,0.35644
1386.70564,0.31231
1388.19543,0.26819
1389.68522,0.30581
1391.17501,0.29637
1392.66479,0.30002
1394.15458,0.35599
1395.64437,0.32567
1397.13416,0.31367
1398.62395,0.40106
1400.11374,0.38647
1401.60353,0.37712
1403.09331,0.34294
1404.58310,0.36043
1406.07289,0.37793
1407.56268,0.40786
1409.05247,0.39989
1410.54226,0.43769
1412.03204,0.38921
1413.52183,0.40220
1415.01162,0.47012
1416.50141,0.44652
1417.99120,0.47131
1419.48099,0.48043
1420.97078,0.38495
1422.46056,0.45424
1423.95035,0.44051
1425.44014,0.42680
1426.92993,0.45298
1428.41972,0.33011
1429.90951,0.31316
1431.39929,0.33808
1432.88908,0.35908
1434.37887,0.38140
1435.86866,0.37105
1437.35845,0.37248
1438.84824,0.43015
1440.33802,0.46821
1441.82781,0.46184
1443.31760,0.52085
1444.80739,0.55830
1446.29718,0.59577
1447.78697,0.62214
1449.27676,0.64851
1450.76654,0.69190
1452.25633,0.73138
1453.74612,0.79049
1455.23591,0.79861
1456.72570,0.76229
1458.21549,0.85544
1459.70527,0.82437
1461.19506,0.84562
1462.68485,0.89827
1464.17464,1.03331
1465.66443,1.06572
1467.15422,1.09814
1468.64401,0.97823
1470.13379,1.10025
1471.62358,1.12944
1473.11337,1.11287
1474.60316,1.03879
1476.09295,1.04317
1477.58274,0.97957
1479.07252,0.83753
1480.56231,0.76873
1482.05210,0.74570
1483.54189,0.70046
1485.03168,0.65654
1486.52147,0.47403
1488.01125,0.43798
1489.50104,0.40195
1490.99083,0.33062
1492.48062,0.27107
1493.97041,0.21285
1495.46020,0.15725
1496.94999,0.13698
1498.43977,0.12325
1499.92956,0.12392
1501.41935,0.07753
1502.90914,0.06907
1504.39893,0.08286
1505.88872,0.03912
1507.37850,0.05555
1508.86829,0.03538
1510.35808,0.03876
1511.84787,0.02646
1513.33766,0.02659
1514.82745,0.02674
1516.31724,0.04586
1517.80702,0.01792
1519.29681,0.07237
1520.78660,0.00000
1522.27639,0.06510
1523.76618,0.08052
1525.25597,0.02142
1526.74575,0.03817
1528.23554,0.03271
1529.72533,0.07825
1531.21512,0.04928
1532.70491,0.06347
1534.19470,0.04891
1535.68448,0.02782
1537.17427,0.05643
1538.66406,0.10075
1540.15385,0.07643
1541.64364,0.05213
1543.13343,0.03633
1544.62322,0.04148
1546.11300,0.06755
1547.60279,0.03872
1549.09258,0.04914
1550.58237,0.08048
1552.07216,0.11446
1553.56195,0.06607
1555.05173,0.09222
1556.54152,0.10139
1558.03131,0.08965
1559.52110,0.09100
1561.01089,0.12375
1562.50068,0.06628
1563.99047,0.13436
1565.48025,0.06515
1566.97004,0.05349
1568.45983,0.08108
1569.94962,0.07598
1571.43941,0.07090
1572.92920,0.06452
1574.41898,0.04246
1575.90877,0.05442
1577.39856,0.04939
1578.88835,0.02999
1580.37814,0.06944
1581.86793,0.09060
1583.35771,0.10916
1584.84750,0.16696
1586.33729,0.07571
1587.82708,0.05900
1589.31687,0.07892
1590.80666,0.05962
1592.29645,0.11357
1593.78623,0.08645
1595.27602,0.15219
1596.76581,0.16302
1598.25560,0.11633
1599.74539,0.08403
1601.23518,0.12759
1602.72496,0.09663
1604.21475,0.12388
1605.70454,0.15113
1607.19433,0.19867
1608.68412,0.17953
1610.17391,0.18132
1611.66370,0.24328
1613.15348,0.23987
1614.64327,0.22994
1616.13306,0.22133
1617.62285,0.17481
1619.11264,0.22114
1620.60243,0.12496
1622.09221,0.15432
1623.58200,0.15362
1625.07179,0.15162
1626.56158,0.12741
1628.05137,0.19997
1629.54116,0.22417
1631.03094,0.18169
1632.52073,0.13660
1634.01052,0.14907
1635.50031,0.13801
1636.99010,0.16227
1638.47989,0.18001
1639.96968,0.12061
1641.45946,0.16060
1642.94925,0.18099
1644.43904,0.15432
1645.92883,0.18847
1647.41862,0.22263
1648.90841,0.22476
1650.39819,0.24260
1651.88798,0.26177
1653.37777,0.13841
1654.86756,0.20729
1656.35735,0.22387
1657.84714,0.27185
1659.33693,0.26231
1660.82671,0.28417
1662.31650,0.32565
1663.80629,0.28215
1665.29608,0.27005
1666.78587,0.31418
1668.27566,0.32564
1669.76544,0.36327
1671.25523,0.34860
1672.74502,0.35880
1674.23481,0.36115
1675.72460,0.35699
1677.21439,0.34891
1678.70417,0.34477
1680.19396,0.29619
1681.68375,0.32084
1683.17354,0.30105
1684.66333,0.26558
1686.15312,0.33081
1687.64291,0.30190
1689.13269,0.27039
1690.62248,0.29512
1692.11227,0.29110
1693.60206,0.26486
1695.09185,0.25956
1696.58164,0.25296
1698.07142,0.22023
1699.56121,0.22542
1701.05100,0.21494
1702.54079,0.13648
1704.03058,0.21494
1705.52037,0.20188
1707.01016,0.16138
1708.49994,0.12088
1709.98973,0.12356
1711.47952,0.04648
1712.96931,0.07141
1714.45910,0.11597
1715.94889,0.13438
1717.43867,0.07043
1718.92846,0.09541
1720.41825,0.04326
1721.90804,0.03557
1723.39783,0.02791
1724.88762,0.05686
1726.37740,0.08975
1727.86719,0.07036
1729.35698,0.03135
1730.84677,0.08652
1732.33656,0.03054
1733.82635,0.03866
1735.31614,0.07947
1736.80592,0.14122
1738.29571,0.07615
1739.78550,0.05293
1741.27529,0.07811
1742.76508,0.00000
1744.25487,0.05046
1745.74465,0.02510
1747.23444,0.04682
1748.72423,0.03718
1750.21402,0.05501
1751.70381,0.01270
1753.19360,0.04232
1754.68339,0.07849
1756.17317,0.05845
1757.66296,0.04757
1759.15275,0.06286
1760.64254,0.06248
1762.13233,0.07518
1763.62212,0.01990
1765.11190,0.04047
1766.60169,0.01398
1768.09148,0.07381
1769.58127,0.10750
1771.07106,0.06405
1772.56085,0.05069
1774.05063,0.02819
1775.54042,0.03709
1777.03021,0.02508
1778.52000,0.00000
