299.16008,0.14197
300.64987,0.16627
302.13966,0.22717
303.62945,0.20640
305.11924,0.18564
306.60902,0.29103
308.09881,0.13895
309.58860,0.15484
311.07839,0.17074
312.56818,0.12196
314.05797,0.00000
315.54776,0.03228
317.03754,0.06458
318.52733,0.11912
320.01712,0.10701
321.50691,0.07727
322.99670,0.04755
324.48649,0.04202
325.97627,0.06787
327.46606,0.10420
328.95585,0.14054
330.44564,0.18605
331.93543,0.17667
333.42522,0.18365
334.91501,0.19064
336.40479,0.11988
337.89458,0.03215
339.38437,0.05814
340.87416,0.08414
342.36395,0.04873
343.85374,0.10222
345.34352,0.09625
346.83331,0.09029
348.32310,0.13336
349.81289,0.00000
351.30268,0.06635
352.79247,0.13271
354.28225,0.14943
355.77204,0.13871
357.26183,0.11951
358.75162,0.10032
360.24141,0.06350
361.73120,0.04108
363.22099,0.06442
364.71077,0.08777
366.20056,0.16996
367.69035,0.09401
369.18014,0.08211
370.66993,0.07024
372.15972,0.16294
373.64950,0.09227
375.13929,0.19677
376.62908,0.30128
378.11887,0.34306
379.60866,0.24632
381.09845,0.35741
382.58824,0.46851
384.07802,0.54696
385.56781,0.48164
387.05760,0.55946
388.54739,0.63730
390.03718,0.57334
391.52697,0.62702
393.01675,0.66177
394.50654,0.69653
395.99633,0.69145
397.48612,0.61580
398.97591,0.65191
400.46570,0.68804
401.95548,0.67387
403.44527,0.75512
404.93506,0.72399
406.42485,0.69286
407.91464,0.72319
409.40443,0.87377
410.89422,0.88191
412.38400,0.91751
413.87379,0.95312
415.36358,1.13775
416.85337,1.30932
418.34316,1.36328
419.83295,1.41725
421.32273,1.37843
422.81252,1.39322
424.30231,1.47207
425.79210,1.55094
427.28189,1.46905
428.77168,1.42770
430.26146,1.39159
431.75125,1.35550
433.24104,1.35602
434.73083,1.12913
436.22062,1.04865
437.71041,0.96817
439.20020,0.94261
440.68998,0.94713
442.17977,0.86605
443.66956,0.78498
445.15935,0.65884
446.64914,0.39548
448.13893,0.49678
449.62871,0.44519
451.11850,0.39361
452.60829,0.22310
454.09808,0.05392
455.58787,0.07688
457.07766,0.09986
458.56745,0.19735
460.05723,0.14063
461.54702,0.10680
463.03681,0.07298
464.52660,0.04637
466.01639,0.04591
467.50618,0.10690
468.99596,0.16790
470.48575,0.18840
471.97554,0.04031
473.46533,0.06869
474.95512,0.03433
476.44491,0.00000
477.93469,0.10982
479.42448,0.18436
480.91427,0.19683
482.40406,0.20932
483.89385,0.30744
485.38364,0.28532
486.87343,0.33445
488.36321,0.38359
489.85300,0.35499
491.34279,0.41004
492.83258,0.48472
494.32237,0.51498
495.81216,0.54525
497.30194,0.47489
498.79173,0.47513
500.28152,0.45447
501.77131,0.43382
503.26110,0.41581
504.75089,0.38735
506.24068,0.44125
507.73046,0.49517
509.22025,0.41186
510.71004,0.34556
512.19983,0.34070
513.68962,0.36397
515.17941,0.38724
516.66919,0.48177
518.15898,0.52141
519.64877,0.51075
521.13856,0.50010
522.62835,0.51888
524.11814,0.45533
525.60792,0.47544
527.09771,0.52171
528.58750,0.56799
530.07729,0.64174
531.56708,0.83052
533.05687,0.84352
534.54666,0.85654
536.03644,0.97870
537.52623,0.94274
539.01602,0.99043
540.50581,0.96887
541.99560,0.94733
543.48539,0.96893
544.97517,0.84024
546.46496,0.78018
547.95475,0.72014
549.44454,0.81761
550.93433,0.78831
552.42412,0.85052
553.91391,0.87157
555.40369,0.89264
556.89348,0.78890
558.38327,0.67603
559.87306,0.67819
561.36285,0.68037
562.85264,0.80673
564.34242,0.69391
565.83221,0.58112
567.32200,0.55721
568.81179,0.53333
570.30158,0.43103
571.79137,0.41109
573.28115,0.36634
574.77094,0.32160
576.26073,0.28079
577.75052,0.28313
579.24031,0.24105
580.73010,0.26238
582.21989,0.28371
583.70967,0.16848
585.19946,0.11601
586.68925,0.08903
588.17904,0.06207
589.66883,0.11812
591.15862,0.06962
592.64840,0.09042
594.13819,0.07528
595.62798,0.06015
597.11777,0.09014
598.60756,0.11361
600.09735,0.04037
601.58714,0.10699
603.07692,0.17363
604.56671,0.23637
606.05650,0.21547
607.54629,0.19982
609.03608,0.18417
610.52587,0.14502
612.01565,0.18823
613.50544,0.12950
614.99523,0.12895
616.48502,0.12842
617.97481,0.13639
619.46460,0.20843
620.95438,0.17200
622.44417,0.16564
623.93396,0.15930
625.42375,0.13990
626.91354,0.20809
628.40333,0.19134
629.89312,0.17461
631.38290,0.12390
632.87269,0.12811
634.36248,0.08135
635.85227,0.08297
637.34206,0.08461
638.83185,0.00000
640.32163,0.08620
641.81142,0.02472
643.30121,0.08808
644.79100,0.15145
646.28079,0.04166
647.77058,0.08872
649.26037,0.23513
650.75015,0.27635
652.23994,0.31758
653.72973,0.24837
655.21952,0.16743
656.70931,0.14923
658.19910,0.13366
659.68888,0.11811
661.17867,0.16270
662.66846,0.09751
664.15825,0.11860
665.64804,0.09657
667.13783,0.07456
668.62761,0.13621
670.11740,0.17827
671.60719,0.17330
673.09698,0.16833
674.58677,0.14117
676.07656,0.17806
677.56635,0.18622
679.05613,0.18785
680.54592,0.18950
682.03571,0.20424
683.52550,0.25558
685.01529,0.34746
686.50508,0.31519
687.99486,0.28293
689.48465,0.23762
690.97444,0.15311
692.46423,0.12874
693.95402,0.20045
695.44381,0.27218
696.93360,0.18250
698.42338,0.14773
699.91317,0.08554
701.40296,0.17170
702.89275,0.25788
704.38254,0.13560
705.87233,0.12443
707.36211,0.10675
708.85190,0.11587
710.34169,0.12501
711.83148,0.21194
713.32127,0.11066
714.81106,0.09828
716.30084,0.11859
717.79063,0.13891
719.28042,0.08606
720.77021,0.21620
722.26000,0.00000
723.74979,0.05742
725.23958,0.11485
726.72936,0.03245
728.21915,0.08076
729.70894,0.09511
731.19873,0.11078
732.68852,0.12646
734.17831,0.14216
735.66809,0.14350
737.15788,0.08081
738.64767,0.18151
740.13746,0.18354
741.62725,0.18559
743.11704,0.11120
744.60683,0.12569
746.09661,0.11014
747.58640,0.14035
749.07619,0.17058
750.56598,0.20867
752.05577,0.26768
753.54556,0.33716
755.03534,0.33085
756.52513,0.32455
758.01492,0.44244
759.50471,0.53943
760.99450,0.60376
762.48429,0.67333
763.97407,0.74292
765.46386,0.88310
766.95365,0.93573
768.44344,0.85636
769.93323,1.06063
771.42302,1.07801
772.91281,1.09541
774.40259,1.00826
775.89238,0.93289
777.38217,0.86799
778.87196,0.86780
780.36175,0.86763
781.85154,0.88250
783.34132,0.64775
784.83111,0.62083
786.32090,0.65797
787.81069,0.69512
789.30048,0.71660
790.79027,0.75509
792.28006,0.71648
793.76984,0.61384
795.25963,0.60467
796.74942,0.59552
798.23921,0.43411
799.72900,0.31846
801.21879,0.33353
802.70857,0.31594
804.19836,0.29836
805.68815,0.18147
807.17794,0.08027
808.66773,0.00000
810.15752,0.01513
811.64730,0.03028
813.13709,0.17222
814.62688,0.23445
816.11667,0.24834
817.60646,0.20734
819.09625,0.24478
820.58604,0.28224
822.07582,0.34585
823.56561,0.33237
825.05540,0.35157
826.54519,0.34203
828.03498,0.33251
829.52477,0.42757
831.01455,0.47689
832.50434,0.40860
833.99413,0.50370
835.48392,0.53804
836.97371,0.57240
838.46350,0.62703
839.95329,0.47255
841.44307,0.44878
842.93286,0.50868
844.42265,0.59147
845.91244,0.67428
847.40223,0.79174
848.89202,0.84908
850.38180,0.83064
851.87159,0.84423
853.36138,0.85784
854.85117,1.02112
856.34096,1.15173
857.83075,1.22747
859.32053,1.26532
860.81032,1.29011
862.30011,1.31492
863.78990,1.35281
865.27969,1.28223
866.76948,1.11626
868.25927,1.19080
869.74905,1.15229
871.23884,1.11380
872.72863,1.17923
874.21842,1.11528
875.70821,1.03174
877.19800,0.99004
878.68778,0.99279
880.17757,0.99556
881.66736,1.07285
883.15715,0.93971
884.64694,1.01180
886.13673,1.01267
887.62651,1.01355
889.11630,1.17848
890.60609,1.00360
892.09588,0.97904
893.58567,1.04076
895.07546,1.03323
896.56525,1.02570
898.05503,0.92671
899.54482,0.97149
901.03461,1.04375
902.52440,0.98792
904.01419,0.98701
905.50398,0.98612
906.99376,0.94995
908.48355,0.98045
909.97334,0.90118
911.46313,0.95131
912.95292,0.91716
914.44271,0.88303
915.93250,0.98418
917.42228,1.07621
918.91207,1.05715
920.40186,1.07339
921.89165,1.04325
923.38144,1.01313
924.87123,1.10915
926.36101,1.14375
927.85080,1.16661
929.34059,1.17641
930.83038,1.16139
932.32017,1.14639
933.80996,1.10918
935.29974,1.07199
936.78953,0.96292
938.27932,0.91269
939.76911,0.96115
941.25890,1.00963
942.74869,1.10191
944.23848,1.06350
945.72826,1.00289
947.21805,0.99196
948.70784,1.03724
950.19763,1.05248
951.68742,1.06774
953.17721,1.08039
954.66699,1.03947
956.15678,1.13581
957.64657,1.14720
959.13636,1.17756
960.62615,1.20794
962.11594,1.25597
963.60573,1.31448
965.09551,1.19655
966.58530,1.34266
968.07509,1.39990
969.56488,1.45716
971.05467,1.58371
972.54446,1.56127
974.03424,1.46304
975.52403,1.56610
977.01382,1.63520
978.50361,1.65138
979.99340,1.66757
981.48319,1.58771
982.97297,1.72484
984.46276,1.80708
985.95255,1.92594
987.44234,1.91802
988.93213,1.91013
990.42192,1.80291
991.91171,1.73623
993.40149,1.70616
994.89128,1.61729
996.38107,1.71795
997.87086,1.72387
999.36065,1.72980
1000.85044,1.77823
1002.34022,1.76524
1003.83001,1.86859
1005.31980,1.92360
1006.80959,1.95509
1008.29938,1.98660
1009.78917,1.99983
1011.27896,2.00000
1012.76874,1.97143
1014.25853,1.77427
1015.74832,1.57452
1017.23811,1.48260
1018.72790,1.39070
1020.21769,1.02761
1021.70747,0.92072
1023.19726,0.84128
1024.68705,0.72526
1026.17684,0.59880
1027.66663,0.59849
1029.15642,0.59818
1030.64620,0.49399
1032.13599,0.42379
1033.62578,0.52091
1035.11557,0.48865
1036.60536,0.50933
1038.09515,0.53003
1039.58494,0.42593
1041.07472,0.58194
1042.56451,0.65954
1044.05430,0.67442
1045.54409,0.71807
1047.03388,0.70618
1048.52367,0.69432
1050.01345,0.77853
1051.50324,0.85753
1052.99303,0.87772
1054.48282,0.92669
1055.97261,0.99528
1057.46240,1.02271
1058.95219,1.05016
1060.44197,1.06782
1061.93176,1.19398
1063.42155,1.21036
1064.91134,1.19016
1066.40113,1.31375
1067.89092,1.30142
1069.38070,1.28911
1070.87049,1.36177
1072.36028,1.38608
1073.85007,1.35552
1075.33986,1.17727
1076.82965,1.22908
1078.31943,1.21294
1079.80922,1.19681
1081.29901,1.30225
1082.78880,1.21427
1084.27859,1.20472
1085.76838,1.14029
1087.25817,1.05105
1088.74795,1.02455
1090.23774,1.04970
1091.72753,1.07487
1093.21732,1.02228
1094.70711,0.89390
1096.19690,0.98903
1097.68668,1.06065
1099.17647,0.91925
1100.66626,0.89222
1102.15605,0.86521
1103.64584,0.82188
1105.13563,0.74065
1106.62542,0.74048
1108.11520,0.63968
1109.60499,0.60817
1111.09478,0.62896
1112.58457,0.62492
1114.07436,0.62090
1115.56415,0.58030
1117.05393,0.56194
1118.54372,0.46647
1120.03351,0.47166
1121.52330,0.48210
1123.01309,0.49647
1124.50288,0.51085
1125.99266,0.49519
1127.48245,0.48347
1128.97224,0.42078
1130.46203,0.44307
1131.95182,0.38956
1133.44161,0.33607
1134.93140,0.30024
1136.42118,0.26443
1137.91097,0.33123
1139.40076,0.24382
1140.89055,0.18256
1142.38034,0.20366
1143.87013,0.18426
1145.35991,0.08253
1146.84970,0.08342
1148.33949,0.08432
1149.82928,0.12641
1151.31907,0.14107
1152.80886,0.10346
1154.29865,0.03972
1155.78843,0.05573
1157.27822,0.02731
1158.76801,0.02963
1160.25780,0.03196
1161.74759,0.06763
1163.23738,0.02359
1164.72716,0.14425
1166.21695,0.02313
1167.70674,0.08631
1169.19653,0.06193
1170.68632,0.08201
1172.17611,0.10211
1173.66589,0.01373
1175.15568,0.04301
1176.64547,0.12850
1178.13526,0.07285
1179.62505,0.03681
1181.11484,0.06746
1182.60463,0.08243
1184.09441,0.09741
1185.58420,0.05621
1187.07399,0.06470
1188.56378,0.00000
1190.05357,0.06967
1191.54336,0.08577
1193.03314,0.06659
1194.52293,0.06899
1196.01272,0.07141
1197.50251,0.00000
1198.99230,0.06850
1200.48209,0.07166
1201.97188,0.03171
1203.46166,0.08196
1204.95145,0.05380
1206.44124,0.08709
1207.93103,0.15045
1209.42082,0.21383
1210.91061,0.17658
1212.40039,0.25437
1213.89018,0.19754
1215.37997,0.30673
1216.86976,0.25647
1218.35955,0.23237
1219.84934,0.23050
1221.33912,0.22865
1222.82891,0.16146
1224.31870,0.24198
1225.80849,0.20357
1227.29828,0.21354
1228.78807,0.22484
1230.27786,0.23484
1231.76764,0.28798
1233.25743,0.29932
1234.74722,0.31067
1236.23701,0.29329
1237.72680,0.33212
1239.21659,0.40364
1240.70637,0.46080
1242.19616,0.48791
1243.68595,0.51112
1245.17574,0.48990
1246.66553,0.50137
1248.15532,0.51286
1249.64511,0.55181
1251.13489,0.59208
1252.62468,0.54349
1254.11447,0.60340
1255.60426,0.56399
1257.09405,0.70366
1258.58384,0.70087
1260.07362,0.69549
1261.56341,0.66856
1263.05320,0.64164
1264.54299,0.59447
1266.03278,0.59438
1267.52257,0.60476
1269.01235,0.63475
1270.50214,0.58635
1271.99193,0.47783
1273.48172,0.54577
1274.97151,0.52159
1276.46130,0.49742
1277.95109,0.46477
1279.44087,0.47658
1280.93066,0.49624
1282.42045,0.45710
1283.91024,0.46241
1285.40003,0.44029
1286.88982,0.52406
1288.37960,0.47060
1289.86939,0.48186
1291.35918,0.49313
1292.84897,0.35215
1294.33876,0.33927
1295.82855,0.33817
1297.31834,0.36322
1298.80812,0.32163
1300.29791,0.29967
1301.78770,0.39012
1303.27749,0.36556
1304.76728,0.37632
1306.25707,0.38708
1307.74685,0.31945
1309.23664,0.37207
1310.72643,0.47176
1312.21622,0.39894
1313.70601,0.39932
1315.19580,0.41410
1316.68558,0.43282
1318.17537,0.47246
1319.66516,0.46376
1321.15495,0.45507
1322.64474,0.39543
1324.13453,0.37762
1325.62432,0.47877
1327.11410,0.49236
1328.60389,0.48375
1330.09368,0.46077
1331.58347,0.46003
1333.07326,0.48937
1334.56305,0.53833
1336.05283,0.53567
1337.54262,0.53303
1339.03241,0.54152
1340.52220,0.50035
1342.01199,0.50887
1343.50178,0.65986
1344.99156,0.67494
1346.48135,0.72663
1347.97114,0.68293
1349.46093,0.74903
1350.95072,0.75371
1352.44051,0.76494
1353.93030,0.77619
1355.42008,0.78092
1356.90987,0.73731
1358.39966,0.82179
1359.88945,0.83441
1361.37924,0.74902
1362.86903,0.77996
1364.35881,0.75733
1365.84860,0.62232
1367.33839,0.53567
1368.82818,0.49806
1370.31797,0.46046
1371.80776,0.53332
1373.29755,0.39969
1374.78733,0.42944
1376.27712,0.38080
1377.76691,0.32040
1379.25670,0.35282
1380.74649,0.32643
1382.23628,0.28046
1383.72606,0.35475
1385.21585,0.30227
1386.70564,0.32561
1388.19543,0.34897
1389.68522,0.35274
1391.17501,0.28463
1392.66479,0.31850
1394.15458,0.32884
1395.64437,0.33659
1397.13416,0.40056
1398.62395,0.34691
1400.11374,0.38869
1401.60353,0.38996
1403.09331,0.36380
1404.58310,0.35400
1406.07289,0.34421
1407.56268,0.35730
1409.05247,0.40179
1410.54226,0.39269
1412.03204,0.38231
1413.52183,0.40592
1415.01162,0.40080
1416.50141,0.42967
1417.99120,0.40105
1419.48099,0.41950
1420.97078,0.41443
1422.46056,0.38193
1423.95035,0.39585
1425.44014,0.40978
1426.92993,0.32243
1428.41972,0.32006
1429.90951,0.33469
1431.39929,0.36763
1432.88908,0.37707
1434.37887,0.34861
1435.86866,0.33455
1437.35845,0.32834
1438.84824,0.34175
1440.33802,0.41400
1441.82781,0.41437
1443.31760,0.50886
1444.80739,0.52169
1446.29718,0.53452
1447.78697,0.64082
1449.27676,0.67787
1450.76654,0.70317
1452.25633,0.77161
1453.74612,0.78779
1455.23591,0.80006
1456.72570,0.80973
1458.21549,0.85863
1459.70527,0.92846
1461.19506,0.92903
1462.68485,0.96490
1464.17464,0.98641
1465.66443,1.05042
1467.15422,1.11444
1468.64401,1.10985
1470.13379,1.14972
1471.62358,1.15824
1473.11337,1.13802
1474.60316,1.15702
1476.09295,1.00874
1477.58274,0.98333
1479.07252,0.91220
1480.56231,0.75743
1482.05210,0.73599
1483.54189,0.72763
1485.03168,0.70361
1486.52147,0.50707
1488.01125,0.48635
1489.50104,0.46564
1490.99083,0.35410
1492.48062,0.23736
1493.97041,0.24087
1495.46020,0.24571
1496.94999,0.13031
1498.43977,0.18746
1499.92956,0.08908
1501.41935,0.07830
1502.90914,0.08844
1504.39893,0.03847
1505.88872,0.05648
1507.37850,0.02223
1508.86829,0.04550
1510.35808,0.02303
1511.84787,0.04895
1513.33766,0.05135
1514.82745,0.05377
1516.31724,0.00000
1517.80702,0.03610
1519.29681,0.08660
1520.78660,0.05738
1522.27639,0.04387
1523.76618,0.07872
1525.25597,0.07961
1526.74575,0.08052
1528.23554,0.03308
1529.72533,0.07061
1531.21512,0.05457
1532.70491,0.04900
1534.19470,0.02776
1535.68448,0.00000
1537.17427,0.09991
1538.66406,0.07306
1540.15385,0.08739
1541.64364,0.10174
1543.13343,0.05925
1544.62322,0.10696
1546.11300,0.09194
1547.60279,0.09262
1549.09258,0.04496
1550.58237,0.04960
1552.07216,0.15751
1553.56195,0.10336
1555.05173,0.10673
1556.54152,0.09705
1558.03131,0.10699
1559.52110,0.12347
1561.01089,0.10338
1562.50068,0.15388
1563.99047,0.07893
1565.48025,0.08502
1566.97004,0.09244
1568.45983,0.02537
1569.94962,0.05699
1571.43941,0.08863
1572.92920,0.05951
1574.41898,0.05131
1575.90877,0.10065
1577.39856,0.02713
1578.88835,0.11570
1580.37814,0.08927
1581.86793,0.11383
1583.35771,0.12141
1584.84750,0.13815
1586.33729,0.09348
1587.82708,0.09980
1589.31687,0.10483
1590.80666,0.10987
1592.29645,0.13192
1593.78623,0.12522
1595.27602,0.15384
1596.76581,0.19162
1598.25560,0.15752
1599.74539,0.15743
1601.23518,0.15473
1602.72496,0.14944
1604.21475,0.16246
1605.70454,0.17549
1607.19433,0.16240
1608.68412,0.17546
1610.17391,0.25651
1611.66370,0.22124
1613.15348,0.26703
1614.64327,0.21349
1616.13306,0.29198
1617.62285,0.22280
1619.11264,0.25949
1620.60243,0.20079
1622.09221,0.19439
1623.58200,0.24289
1625.07179,0.22344
1626.56158,0.22623
1628.05137,0.17022
1629.54116,0.26061
1631.03094,0.23600
1632.52073,0.19310
1634.01052,0.17767
1635.50031,0.13219
1636.99010,0.13508
1638.47989,0.20203
1639.96968,0.23894
1641.45946,0.19744
1642.94925,0.22000
1644.43904,0.19683
1645.92883,0.19916
1647.41862,0.20150
1648.90841,0.22804
1650.39819,0.22062
1651.88798,0.21713
1653.37777,0.23456
1654.86756,0.22718
1656.35735,0.23942
1657.84714,0.28174
1659.33693,0.29923
1660.82671,0.31675
1662.31650,0.33950
1663.80629,0.33482
1665.29608,0.33931
1666.78587,0.31375
1668.27566,0.37578
1669.76544,0.32149
1671.25523,0.35349
1672.74502,0.36066
1674.23481,0.42406
1675.72460,0.32801
1677.21439,0.36137
1678.70417,0.37906
1680.19396,0.32619
1681.68375,0.38835
1683.17354,0.32636
1684.66333,0.32974
1686.15312,0.37887
1687.64291,0.35614
1689.13269,0.34649
1690.62248,0.28196
1692.11227,0.24881
1693.60206,0.27319
1695.09185,0.28974
1696.58164,0.29585
1698.07142,0.24970
1699.56121,0.18787
1701.05100,0.26591
1702.54079,0.18843
1704.03058,0.18939
1705.52037,0.15507
1707.01016,0.14103
1708.49994,0.12700
1709.98973,0.09273
1711.47952,0.09768
1712.96931,0.06997
1714.45910,0.08541
1715.94889,0.10348
1717.43867,0.08889
1718.92846,0.01942
1720.41825,0.02446
1721.90804,0.05043
1723.39783,0.03590
1724.88762,0.02530
1726.37740,0.07354
1727.86719,0.07343
1729.35698,0.04328
1730.84677,0.03927
1732.33656,0.00000
1733.82635,0.04247
1735.31614,0.07189
1736.80592,0.04643
1738.29571,0.06803
1739.78550,0.07659
1741.27529,0.04463
1742.76508,0.03492
1744.25487,0.07227
1745.74465,0.04297
1747.23444,0.05029
1748.72423,0.03672
1750.21402,0.02969
1751.70381,0.05012
1753.19360,0.08364
1754.68339,0.04529
1756.17317,0.03179
1757.66296,0.00000
1759.15275,0.06955
1760.64254,0.05546
1762.13233,0.05315
1763.62212,0.02472
1765.11190,0.01198
1766.60169,0.00711
1768.09148,0.02316
1769.58127,0.07451
1771.07106,0.03308
1772.56085,0.03611
1774.05063,0.01954
1775.54042,0.02391
1777.03021,0.01521
1778.52000,0.00000
