299.16008,0.27561
300.64987,0.39104
302.13966,0.41824
303.62945,0.34641
305.11924,0.27459
306.60902,0.17365
308.09881,0.05941
309.58860,0.03257
311.07839,0.00575
312.56818,0.12460
314.05797,0.27010
315.54776,0.28327
317.03754,0.29645
318.52733,0.10405
320.01712,0.08979
321.50691,0.10967
322.99670,0.12956
324.48649,0.10701
325.97627,0.14773
327.46606,0.20428
328.95585,0.26085
330.44564,0.31826
331.93543,0.12930
333.42522,0.08685
334.91501,0.04441
336.40479,0.21174
337.89458,0.19263
339.38437,0.17437
340.87416,0.15612
342.36395,0.13539
343.85374,0.07804
345.34352,0.15722
346.83331,0.23640
348.32310,0.16245
349.81289,0.32490
351.30268,0.23182
352.79247,0.13876
354.28225,0.23799
355.77204,0.19239
357.26183,0.13266
358.75162,0.07295
360.24141,0.00575
361.73120,0.14223
363.22099,0.13805
364.71077,0.13388
366.20056,0.28205
367.69035,0.10395
369.18014,0.09898
370.66993,0.09403
372.15972,0.24225
373.64950,0.22068
375.13929,0.26072
376.62908,0.30076
378.11887,0.20432
379.60866,0.29766
381.09845,0.30445
382.58824,0.31126
384.07802,0.27979
385.56781,0.32823
387.05760,0.33757
388.54739,0.34692
390.03718,0.41372
391.52697,0.21583
393.01675,0.27100
394.50654,0.32618
395.99633,0.44630
397.48612,0.52148
398.97591,0.46933
400.46570,0.41718
401.95548,0.44745
403.44527,0.55099
404.93506,0.52551
406.42485,0.50006
407.91464,0.48543
409.40443,0.49912
410.89422,0.61436
412.38400,0.67885
413.87379,0.74335
415.36358,0.71880
416.85337,0.66263
418.34316,0.71718
419.83295,0.77174
421.32273,0.93368
422.81252,1.03571
424.30231,1.00125
425.79210,0.96679
427.28189,0.93402
428.77168,0.84133
430.26146,0.88932
431.75125,0.93732
433.24104,0.90459
434.73083,0.86356
436.22062,0.85250
437.71041,0.84145
439.20020,0.67893
440.68998,0.60132
442.17977,0.62693
443.66956,0.65256
445.15935,0.36190
446.64914,0.43417
448.13893,0.32832
449.62871,0.36315
451.11850,0.39800
452.60829,0.12905
454.09808,0.06487
455.58787,0.11640
457.07766,0.16794
458.56745,0.18204
460.05723,0.18616
461.54702,0.13702
463.03681,0.08790
464.52660,0.15865
466.01639,0.18280
467.50618,0.19281
468.99596,0.20284
470.48575,0.15045
471.97554,0.06644
473.46533,0.00575
474.95512,0.08294
476.44491,0.16013
477.93469,0.15410
479.42448,0.08316
480.91427,0.07716
482.40406,0.07117
483.89385,0.12180
485.38364,0.25067
486.87343,0.25804
488.36321,0.26541
489.85300,0.29611
491.34279,0.41505
492.83258,0.50736
494.32237,0.44487
495.81216,0.38240
497.30194,0.34490
498.79173,0.32240
500.28152,0.34486
501.77131,0.36733
503.26110,0.44642
504.75089,0.38069
506.24068,0.39820
507.73046,0.41573
509.22025,0.47489
510.71004,0.31265
512.19983,0.40679
513.68962,0.40107
515.17941,0.39535
516.66919,0.48953
518.15898,0.33235
519.64877,0.31835
521.13856,0.30436
522.62835,0.27374
524.11814,0.39628
525.60792,0.47222
527.09771,0.49740
528.58750,0.52260
530.07729,0.60191
531.56708,0.69455
533.05687,0.66817
534.54666,0.64181
536.03644,0.52473
537.52623,0.67402
539.01602,0.67350
540.50581,0.67882
541.99560,0.68415
543.48539,0.67201
544.97517,0.73813
546.46496,0.69522
547.95475,0.65232
549.44454,0.74511
550.93433,0.63481
552.42412,0.64939
553.91391,0.61986
555.40369,0.59034
556.89348,0.49175
558.38327,0.55964
559.87306,0.51851
561.36285,0.47739
562.85264,0.50038
564.34242,0.37022
565.83221,0.42985
567.32200,0.38795
568.81179,0.34606
570.30158,0.34247
571.79137,0.28229
573.28115,0.21464
574.77094,0.14699
576.26073,0.21004
577.75052,0.25646
579.24031,0.23796
580.73010,0.20782
582.21989,0.17770
583.70967,0.14592
585.19946,0.18074
586.68925,0.23223
588.17904,0.28372
589.66883,0.15045
591.15862,0.12206
592.64840,0.02044
594.13819,0.03204
595.62798,0.04364
597.11777,0.10187
598.60756,0.11850
600.09735,0.06688
601.58714,0.09685
603.07692,0.12683
604.56671,0.17513
606.05650,0.16685
607.54629,0.15192
609.03608,0.13700
610.52587,0.15206
612.01565,0.05393
613.50544,0.12228
614.99523,0.16901
616.48502,0.21575
617.97481,0.10602
619.46460,0.22270
620.95438,0.16293
622.44417,0.14064
623.93396,0.11835
625.42375,0.19347
626.91354,0.25194
628.40333,0.25051
629.89312,0.24908
631.38290,0.14945
632.87269,0.11808
634.36248,0.02014
635.85227,0.01294
637.34206,0.00575
638.83185,0.07821
640.32163,0.11407
641.81142,0.15659
643.30121,0.16583
644.79100,0.17509
646.28079,0.15772
647.77058,0.19030
649.26037,0.21624
650.75015,0.22971
652.23994,0.24318
653.72973,0.24252
655.21952,0.15531
656.70931,0.26455
658.19910,0.21149
659.68888,0.15844
661.17867,0.03965
662.66846,0.02575
664.15825,0.17167
665.64804,0.15862
667.13783,0.14559
668.62761,0.10344
670.11740,0.21778
671.60719,0.15485
673.09698,0.09192
674.58677,0.05814
676.07656,0.12592
677.56635,0.24199
679.05613,0.21241
680.54592,0.18285
682.03571,0.24568
683.52550,0.27690
685.01529,0.17995
686.50508,0.18872
687.99486,0.19751
689.48465,0.17717
690.97444,0.27670
692.46423,0.28636
693.95402,0.26023
695.44381,0.23412
696.93360,0.17722
698.42338,0.20856
699.91317,0.15669
701.40296,0.15226
702.89275,0.14785
704.38254,0.12764
705.87233,0.17570
707.36211,0.15218
708.85190,0.16530
710.34169,0.17843
711.83148,0.02511
713.32127,0.15146
714.81106,0.22123
716.30084,0.19030
717.79063,0.15938
719.28042,0.12764
720.77021,0.16250
722.26000,0.11913
723.74979,0.07744
725.23958,0.03576
726.72936,0.00575
728.21915,0.06958
729.70894,0.12511
731.19873,0.13736
732.68852,0.18292
734.17831,0.22849
735.66809,0.15921
737.15788,0.15320
738.64767,0.16885
740.13746,0.12125
741.62725,0.07366
743.11704,0.23583
744.60683,0.21657
746.09661,0.11908
747.58640,0.13813
749.07619,0.15719
750.56598,0.21122
752.05577,0.30688
753.54556,0.32432
755.03534,0.34343
756.52513,0.36255
758.01492,0.40999
759.50471,0.49240
760.99450,0.55984
762.48429,0.67972
763.97407,0.79963
765.46386,0.86377
766.95365,0.75480
768.44344,0.87724
769.93323,0.94641
771.42302,0.93986
772.91281,0.93332
774.40259,0.86103
775.89238,0.82205
777.38217,0.75812
778.87196,0.73248
780.36175,0.70686
781.85154,0.68291
783.34132,0.64899
784.83111,0.53517
786.32090,0.57702
787.81069,0.61888
789.30048,0.52508
790.79027,0.61274
792.28006,0.55725
793.76984,0.57502
795.25963,0.46379
796.74942,0.35257
798.23921,0.28381
799.72900,0.24337
801.21879,0.39438
802.70857,0.32733
804.19836,0.26029
805.68815,0.20491
807.17794,0.10626
808.66773,0.12749
810.15752,0.11793
811.64730,0.10838
813.13709,0.06472
814.62688,0.15924
816.11667,0.24046
817.60646,0.19184
819.09625,0.25061
820.58604,0.30939
822.07582,0.33739
823.56561,0.39203
825.05540,0.33182
826.54519,0.32573
828.03498,0.31965
829.52477,0.40265
831.01455,0.40408
832.50434,0.51540
833.99413,0.62840
835.48392,0.63403
836.97371,0.63968
838.46350,0.54629
839.95329,0.54614
841.44307,0.50438
842.93286,0.55585
844.42265,0.59902
845.91244,0.64220
847.40223,0.68539
848.89202,0.67532
850.38180,0.67359
851.87159,0.71682
853.36138,0.76006
854.85117,0.89487
856.34096,0.99474
857.83075,1.00805
859.32053,1.11959
860.81032,1.10047
862.30011,1.08136
863.78990,1.21458
865.27969,1.14972
866.76948,1.11150
868.25927,1.05332
869.74905,1.06090
871.23884,1.06850
872.72863,0.91547
874.21842,1.05211
875.70821,0.95237
877.19800,0.89759
878.68778,0.89360
880.17757,0.88962
881.66736,1.06295
883.15715,0.93664
884.64694,1.03841
886.13673,0.97788
887.62651,0.91736
889.11630,0.93260
890.60609,0.91289
892.09588,0.88321
893.58567,0.97673
895.07546,0.96122
896.56525,0.94573
898.05503,0.92608
899.54482,0.97637
901.03461,1.02667
902.52440,0.96877
904.01419,0.89757
905.50398,0.82639
906.99376,0.80848
908.48355,0.88548
909.97334,0.84263
911.46313,0.84807
912.95292,0.86933
914.44271,0.89061
915.93250,0.89609
917.42228,0.97150
918.91207,0.82218
920.40186,0.82936
921.89165,0.85403
923.38144,0.87871
924.87123,0.89924
926.36101,0.90148
927.85080,1.01526
929.34059,1.05248
930.83038,1.01313
932.32017,0.97380
933.80996,0.82461
935.29974,0.82858
936.78953,0.90415
938.27932,0.92979
939.76911,0.92797
941.25890,0.92617
942.74869,1.03342
944.23848,0.82605
945.72826,0.84010
947.21805,0.85749
948.70784,0.89321
950.19763,0.91728
951.68742,0.94137
953.17721,0.88889
954.66699,0.93631
956.15678,0.85389
957.64657,0.87304
959.13636,0.93880
960.62615,1.00458
962.11594,1.14529
963.60573,0.94807
965.09551,0.99225
966.58530,1.15130
968.07509,1.23379
969.56488,1.31629
971.05467,1.30225
972.54446,1.18002
974.03424,1.29419
975.52403,1.16865
977.01382,1.28451
978.50361,1.28635
979.99340,1.28820
981.48319,1.41742
982.97297,1.35187
984.46276,1.42118
985.95255,1.35566
987.44234,1.42250
988.93213,1.48935
990.42192,1.45383
991.91171,1.59645
993.40149,1.68747
994.89128,1.72524
996.38107,1.50166
997.87086,1.53779
999.36065,1.57393
1000.85044,1.56014
1002.34022,1.77609
1003.83001,1.82559
1005.31980,1.79519
1006.80959,1.87384
1008.29938,1.95250
1009.78917,1.89051
1011.27896,2.00000
1012.76874,1.85313
1014.25853,1.81782
1015.74832,1.71259
1017.23811,1.55411
1018.72790,1.39564
1020.21769,1.11566
1021.70747,1.09372
1023.19726,0.91864
1024.68705,0.80018
1026.17684,0.64010
1027.66663,0.64319
1029.15642,0.64628
1030.64620,0.54618
1032.13599,0.45940
1033.62578,0.51414
1035.11557,0.45403
1036.60536,0.50879
1038.09515,0.56357
1039.58494,0.52014
1041.07472,0.64486
1042.56451,0.61310
1044.05430,0.62798
1045.54409,0.67449
1047.03388,0.67857
1048.52367,0.68266
1050.01345,0.79247
1051.50324,0.78743
1052.99303,1.03710
1054.48282,0.93553
1055.97261,0.94384
1057.46240,0.96632
1058.95219,0.98881
1060.44197,1.05709
1061.93176,1.08210
1063.42155,1.01723
1064.91134,1.12716
1066.40113,1.21048
1067.89092,1.26134
1069.38070,1.31222
1070.87049,1.34396
1072.36028,1.33910
1073.85007,1.30927
1075.33986,1.21620
1076.82965,1.16642
1078.31943,1.22653
1079.80922,1.28665
1081.29901,1.22858
1082.78880,1.14556
1084.27859,1.20572
1085.76838,1.14936
1087.25817,1.00478
1088.74795,0.93013
1090.23774,0.94123
1091.72753,0.95234
1093.21732,0.90270
1094.70711,0.90968
1096.19690,0.92998
1097.68668,0.88537
1099.17647,0.86242
1100.66626,0.81784
1102.15605,0.77326
1103.64584,0.77532
1105.13563,0.76740
1106.62542,0.79445
1108.11520,0.80486
1109.60499,0.65215
1111.09478,0.62263
1112.58457,0.61644
1114.07436,0.61026
1115.56415,0.57745
1117.05393,0.50804
1118.54372,0.49690
1120.03351,0.42085
1121.52330,0.41639
1123.01309,0.48769
1124.50288,0.55901
1125.99266,0.52795
1127.48245,0.46861
1128.97224,0.40429
1130.46203,0.44486
1131.95182,0.39388
1133.44161,0.28298
1134.93140,0.28863
1136.42118,0.29428
1137.91097,0.36987
1139.40076,0.24238
1140.89055,0.26805
1142.38034,0.26543
1143.87013,0.18626
1145.35991,0.11541
1146.84970,0.12116
1148.33949,0.12691
1149.82928,0.12103
1151.31907,0.10351
1152.80886,0.11763
1154.29865,0.03520
1155.78843,0.01439
1157.27822,0.06350
1158.76801,0.08267
1160.25780,0.10184
1161.74759,0.16431
1163.23738,0.12858
1164.72716,0.19274
1166.21695,0.17700
1167.70674,0.09636
1169.19653,0.12726
1170.68632,0.10158
1172.17611,0.07590
1173.66589,0.13181
1175.15568,0.13280
1176.64547,0.16543
1178.13526,0.12982
1179.62505,0.04095
1181.11484,0.10192
1182.60463,0.11629
1184.09441,0.13067
1185.58420,0.10178
1187.07399,0.04127
1188.56378,0.00575
1190.05357,0.04512
1191.54336,0.12279
1193.03314,0.08893
1194.52293,0.09088
1196.01272,0.09284
1197.50251,0.00575
1198.99230,0.01515
1200.48209,0.05953
1201.97188,0.03067
1203.46166,0.04177
1204.95145,0.17108
1206.44124,0.20718
1207.93103,0.21583
1209.42082,0.22449
1210.91061,0.22067
1212.40039,0.27680
1213.89018,0.30464
1215.37997,0.37577
1216.86976,0.27046
1218.35955,0.26504
1219.84934,0.24798
1221.33912,0.23094
1222.82891,0.21557
1224.31870,0.20188
1225.80849,0.27976
1227.29828,0.30271
1228.78807,0.31070
1230.27786,0.37197
1231.76764,0.35501
1233.25743,0.34056
1234.74722,0.32613
1236.23701,0.36414
1237.72680,0.33724
1239.21659,0.41524
1240.70637,0.47826
1242.19616,0.50967
1243.68595,0.58270
1245.17574,0.54754
1246.66553,0.55984
1248.15532,0.57215
1249.64511,0.55701
1251.13489,0.53355
1252.62468,0.48847
1254.11447,0.64483
1255.60426,0.73295
1257.09405,0.70122
1258.58384,0.62289
1260.07362,0.61616
1261.56341,0.58197
1263.05320,0.54779
1264.54299,0.65097
1266.03278,0.67258
1267.52257,0.69255
1269.01235,0.60931
1270.50214,0.56272
1271.99193,0.59104
1273.48172,0.50118
1274.97151,0.51705
1276.46130,0.53293
1277.95109,0.55631
1279.44087,0.49480
1280.93066,0.49324
1282.42045,0.39846
1283.91024,0.42522
1285.40003,0.51026
1286.88982,0.48378
1288.37960,0.52223
1289.86939,0.45498
1291.35918,0.38775
1292.84897,0.39294
1294.33876,0.38816
1295.82855,0.42834
1297.31834,0.42858
1298.80812,0.45713
1300.29791,0.33753
1301.78770,0.38275
1303.27749,0.30646
1304.76728,0.35088
1306.25707,0.39531
1307.74685,0.41061
1309.23664,0.46922
1310.72643,0.45292
1312.21622,0.54317
1313.70601,0.49361
1315.19580,0.43906
1316.68558,0.46110
1318.17537,0.38827
1319.66516,0.40783
1321.15495,0.42742
1322.64474,0.38125
1324.13453,0.52155
1325.62432,0.53035
1327.11410,0.59909
1328.60389,0.59460
1330.09368,0.57513
1331.58347,0.53404
1333.07326,0.50128
1334.56305,0.54178
1336.05283,0.55899
1337.54262,0.57621
1339.03241,0.65171
1340.52220,0.69726
1342.01199,0.73616
1343.50178,0.73845
1344.99156,0.71412
1346.48135,0.71310
1347.97114,0.66548
1349.46093,0.90754
1350.95072,0.89491
1352.44051,0.91892
1353.93030,0.94293
1355.42008,1.04354
1356.90987,1.10920
1358.39966,1.24646
1359.88945,1.16398
1361.37924,0.99495
1362.86903,0.99241
1364.35881,0.86170
1365.84860,0.76929
1367.33839,0.75180
1368.82818,0.71435
1370.31797,0.67691
1371.80776,0.58454
1373.29755,0.46722
1374.78733,0.46478
1376.27712,0.48066
1377.76691,0.40833
1379.25670,0.42590
1380.74649,0.43016
1382.23628,0.25465
1383.72606,0.37214
1385.21585,0.35647
1386.70564,0.37577
1388.19543,0.39508
1389.68522,0.41107
1391.17501,0.36548
1392.66479,0.37984
1394.15458,0.47078
1395.64437,0.40692
1397.13416,0.39134
1398.62395,0.39909
1400.11374,0.35857
1401.60353,0.40130
1403.09331,0.27424
1404.58310,0.34196
1406.07289,0.40970
1407.56268,0.36924
1409.05247,0.30549
1410.54226,0.37493
1412.03204,0.29955
1413.52183,0.43061
1415.01162,0.38522
1416.50141,0.38978
1417.99120,0.37605
1419.48099,0.45222
1420.97078,0.42519
1422.46056,0.39152
1423.95035,0.37700
1425.44014,0.36250
1426.92993,0.37381
1428.41972,0.26861
1429.90951,0.42810
1431.39929,0.40283
1432.88908,0.34427
1434.37887,0.30404
1435.86866,0.35205
1437.35845,0.33348
1438.84824,0.41148
1440.33802,0.40792
1441.82781,0.41603
1443.31760,0.47575
1444.80739,0.51468
1446.29718,0.55362
1447.78697,0.63003
1449.27676,0.72310
1450.76654,0.61475
1452.25633,0.63127
1453.74612,0.82259
1455.23591,0.78087
1456.72570,0.72751
1458.21549,0.83230
1459.70527,0.84389
1461.19506,0.78557
1462.68485,0.85045
1464.17464,0.92367
1465.66443,0.90867
1467.15422,0.89368
1468.64401,1.02354
1470.13379,0.96529
1471.62358,1.07686
1473.11337,0.99866
1474.60316,1.00538
1476.09295,0.95884
1477.58274,0.91564
1479.07252,0.81585
1480.56231,0.76435
1482.05210,0.70954
1483.54189,0.66805
1485.03168,0.52836
1486.52147,0.39700
1488.01125,0.43713
1489.50104,0.47726
1490.99083,0.29933
1492.48062,0.25959
1493.97041,0.21486
1495.46020,0.16515
1496.94999,0.15041
1498.43977,0.07742
1499.92956,0.06604
1501.41935,0.04301
1502.90914,0.03831
1504.39893,0.02031
1505.88872,0.01230
1507.37850,0.04094
1508.86829,0.00965
1510.35808,0.03664
1511.84787,0.04700
1513.33766,0.03656
1514.82745,0.02613
1516.31724,0.12975
1517.80702,0.02030
1519.29681,0.00575
1520.78660,0.06486
1522.27639,0.05073
1523.76618,0.08822
1525.25597,0.05580
1526.74575,0.06169
1528.23554,0.09755
1529.72533,0.03021
1531.21512,0.03281
1532.70491,0.08036
1534.19470,0.02804
1535.68448,0.10392
1537.17427,0.06827
1538.66406,0.05761
1540.15385,0.06195
1541.64364,0.06629
1543.13343,0.04401
1544.62322,0.09833
1546.11300,0.07940
1547.60279,0.06216
1549.09258,0.11317
1550.58237,0.10261
1552.07216,0.11537
1553.56195,0.10150
1555.05173,0.12760
1556.54152,0.11043
1558.03131,0.10492
1559.52110,0.12440
1561.01089,0.15222
1562.50068,0.08848
1563.99047,0.11466
1565.48025,0.11421
1566.97004,0.00723
1568.45983,0.07339
1569.94962,0.04801
1571.43941,0.02264
1572.92920,0.09717
1574.41898,0.07515
1575.90877,0.08311
1577.39856,0.10107
1578.88835,0.09741
1580.37814,0.04714
1581.86793,0.13506
1583.35771,0.14641
1584.84750,0.11283
1586.33729,0.15417
1587.82708,0.12062
1589.31687,0.10372
1590.80666,0.06353
1592.29645,0.06164
1593.78623,0.13468
1595.27602,0.14447
1596.76581,0.15926
1598.25560,0.12746
1599.74539,0.16558
1601.23518,0.09551
1602.72496,0.13866
1604.21475,0.16351
1605.70454,0.18836
1607.19433,0.20491
1608.68412,0.16321
1610.17391,0.19975
1611.66370,0.21301
1613.15348,0.20797
1614.64327,0.24788
1616.13306,0.22122
1617.62285,0.17959
1619.11264,0.18292
1620.60243,0.17128
1622.09221,0.23456
1623.58200,0.14637
1625.07179,0.19969
1626.56158,0.21307
1628.05137,0.18984
1629.54116,0.26983
1631.03094,0.18503
1632.52073,0.16850
1634.01052,0.13200
1635.50031,0.13713
1636.99010,0.17723
1638.47989,0.13245
1639.96968,0.11098
1641.45946,0.15944
1642.94925,0.16131
1644.43904,0.17817
1645.92883,0.15841
1647.41862,0.13868
1648.90841,0.24547
1650.39819,0.17914
1651.88798,0.15278
1653.37777,0.18636
1654.86756,0.19498
1656.35735,0.12870
1657.84714,0.22059
1659.33693,0.31415
1660.82671,0.24791
1662.31650,0.29488
1663.80629,0.26030
1665.29608,0.19410
1666.78587,0.28605
1668.27566,0.38801
1669.76544,0.39343
1671.25523,0.35724
1672.74502,0.33272
1674.23481,0.33152
1675.72460,0.36196
1677.21439,0.35412
1678.70417,0.29636
1680.19396,0.33515
1681.68375,0.33235
1683.17354,0.37450
1684.66333,0.31179
1686.15312,0.31069
1687.64291,0.32458
1689.13269,0.29853
1690.62248,0.34241
1692.11227,0.31805
1693.60206,0.26707
1695.09185,0.29934
1696.58164,0.26836
1698.07142,0.24405
1699.56121,0.25138
1701.05100,0.17216
1702.54079,0.11792
1704.03058,0.16857
1705.52037,0.09771
1707.01016,0.09179
1708.49994,0.08588
1709.98973,0.07665
1711.47952,0.06744
1712.96931,0.09153
1714.45910,0.05570
1715.94889,0.08149
1717.43867,0.09729
1718.92846,0.05318
1720.41825,0.00575
1721.90804,0.05083
1723.39783,0.04765
1724.88762,0.07777
1726.37740,0.02800
1727.86719,0.04317
1729.35698,0.07167
1730.84677,0.00862
1732.33656,0.07376
1733.82635,0.03238
1735.31614,0.03928
1736.80592,0.05785
1738.29571,0.01151
1739.78550,0.03677
1741.27529,0.03040
1742.76508,0.03238
1744.25487,0.08430
1745.74465,0.02637
1747.23444,0.03504
1748.72423,0.02874
1750.21402,0.08238
1751.70381,0.02783
1753.19360,0.09149
1754.68339,0.02031
1756.17317,0.00575
1757.66296,0.03873
1759.15275,0.12165
1760.64254,0.07142
1762.13233,0.08779
1763.62212,0.00761
1765.11190,0.07561
1766.60169,0.02542
1768.09148,0.06681
1769.58127,-0.00000
1771.07106,0.06305
1772.56085,0.05121
1774.05063,0.02272
1775.54042,0.04420
1777.03021,0.00575
1778.52000,0.00575
