299.16008,0.17512
300.64987,0.22772
302.13966,0.31624
303.62945,0.22940
305.11924,0.14258
306.60902,0.20122
308.09881,0.16889
309.58860,0.13298
311.07839,0.09709
312.56818,0.04206
314.05797,0.01098
315.54776,0.02841
317.03754,0.04584
318.52733,0.13692
320.01712,0.15977
321.50691,0.11380
322.99670,0.06784
324.48649,0.07398
325.97627,0.03823
327.46606,0.09886
328.95585,0.15951
330.44564,0.23393
331.93543,0.06536
333.42522,0.06559
334.91501,0.06584
336.40479,0.09962
337.89458,0.12144
339.38437,0.14148
340.87416,0.16154
342.36395,0.07806
343.85374,0.12627
345.34352,0.08412
346.83331,0.04198
348.32310,0.11658
349.81289,0.09063
351.30268,0.11797
352.79247,0.14532
354.28225,0.17089
355.77204,0.15816
357.26183,0.16700
358.75162,0.17585
360.24141,0.09134
361.73120,0.07748
363.22099,0.12827
364.71077,0.17908
366.20056,0.23110
367.69035,0.23165
369.18014,0.20289
370.66993,0.17415
372.15972,0.14961
373.64950,0.13346
375.13929,0.21370
376.62908,0.29395
378.11887,0.46938
379.60866,0.45329
381.09845,0.42405
382.58824,0.39482
384.07802,0.43144
385.56781,0.47287
387.05760,0.51132
388.54739,0.54978
390.03718,0.61160
391.52697,0.55732
393.01675,0.58205
394.50654,0.60681
395.99633,0.59446
397.48612,0.71621
398.97591,0.66020
400.46570,0.60420
401.95548,0.65296
403.44527,0.62752
404.93506,0.62065
406.42485,0.61379
407.91464,0.62909
409.40443,0.79405
410.89422,0.81536
412.38400,0.83550
413.87379,0.85564
415.36358,0.95601
416.85337,1.18329
418.34316,1.19211
419.83295,1.20094
421.32273,1.30136
422.81252,1.25695
424.30231,1.29216
425.79210,1.32738
427.28189,1.24350
428.77168,1.23147
430.26146,1.16617
431.75125,1.10089
433.24104,1.07573
434.73083,1.06016
436.22062,0.93567
437.71041,0.81119
439.20020,0.83037
440.68998,0.79690
442.17977,0.77961
443.66956,0.76233
445.15935,0.60439
446.64914,0.43451
448.13893,0.41667
449.62871,0.43236
451.11850,0.44807
452.60829,0.29500
454.09808,0.16589
455.58787,0.16368
457.07766,0.16149
458.56745,0.19523
460.05723,0.12243
461.54702,0.07539
463.03681,0.02837
464.52660,0.06336
466.01639,0.18575
467.50618,0.19563
468.99596,0.20552
470.48575,0.16994
471.97554,0.17387
473.46533,0.13233
474.95512,0.07165
476.44491,0.01098
477.93469,0.16550
479.42448,0.19673
480.91427,0.19685
482.40406,0.19698
483.89385,0.32162
485.38364,0.30263
486.87343,0.26090
488.36321,0.21919
489.85300,0.23495
491.34279,0.34171
492.83258,0.32040
494.32237,0.38109
495.81216,0.44181
497.30194,0.47799
498.79173,0.49025
500.28152,0.44566
501.77131,0.40108
503.26110,0.50915
504.75089,0.38978
506.24068,0.34344
507.73046,0.29713
509.22025,0.48785
510.71004,0.41403
512.19983,0.41085
513.68962,0.43103
515.17941,0.45122
516.66919,0.46125
518.15898,0.66763
519.64877,0.60167
521.13856,0.53573
522.62835,0.51828
524.11814,0.51402
525.60792,0.46906
527.09771,0.50912
528.58750,0.54920
530.07729,0.66231
531.56708,0.89514
533.05687,0.89755
534.54666,0.89997
536.03644,0.99518
537.52623,0.87731
539.01602,0.92586
540.50581,0.92894
541.99560,0.93203
543.48539,0.90999
544.97517,0.87121
546.46496,0.79173
547.95475,0.71228
549.44454,0.84831
550.93433,0.80959
552.42412,0.86425
553.91391,0.81478
555.40369,0.76532
556.89348,0.74221
558.38327,0.70116
559.87306,0.68586
561.36285,0.67057
562.85264,0.62717
564.34242,0.63645
565.83221,0.43386
567.32200,0.44796
568.81179,0.46208
570.30158,0.47501
571.79137,0.43887
573.28115,0.37761
574.77094,0.31636
576.26073,0.26351
577.75052,0.26095
579.24031,0.28713
580.73010,0.26605
582.21989,0.24497
583.70967,0.11078
585.19946,0.04365
586.68925,0.05195
588.17904,0.06026
589.66883,0.14401
591.15862,0.11643
592.64840,0.03500
594.13819,0.08587
595.62798,0.13675
597.11777,0.07092
598.60756,0.09729
600.09735,0.07220
601.58714,0.10159
603.07692,0.13099
604.56671,0.18734
606.05650,0.25089
607.54629,0.21270
609.03608,0.17452
610.52587,0.15910
612.01565,0.15806
613.50544,0.01098
614.99523,0.07983
616.48502,0.14869
617.97481,0.13915
619.46460,0.16434
620.95438,0.07701
622.44417,0.08907
623.93396,0.10113
625.42375,0.13117
626.91354,0.16481
628.40333,0.16375
629.89312,0.16270
631.38290,0.11618
632.87269,0.13551
634.36248,0.06028
635.85227,0.05211
637.34206,0.04395
638.83185,0.04897
640.32163,0.04084
641.81142,0.04589
643.30121,0.06413
644.79100,0.08238
646.28079,0.14374
647.77058,0.09378
649.26037,0.26051
650.75015,0.25248
652.23994,0.24446
653.72973,0.20892
655.21952,0.20332
656.70931,0.24563
658.19910,0.20115
659.68888,0.15669
661.17867,0.05778
662.66846,0.13246
664.15825,0.04434
665.64804,0.06638
667.13783,0.08843
668.62761,0.09972
670.11740,0.14454
671.60719,0.16245
673.09698,0.18036
674.58677,0.16896
676.07656,0.17793
677.56635,0.09353
679.05613,0.10612
680.54592,0.11872
682.03571,0.17682
683.52550,0.19185
685.01529,0.36371
686.50508,0.31950
687.99486,0.27531
689.48465,0.16229
690.97444,0.10675
692.46423,0.10390
693.95402,0.15613
695.44381,0.20838
696.93360,0.19839
698.42338,0.09983
699.91317,0.16887
701.40296,0.15593
702.89275,0.14300
704.38254,0.11273
705.87233,0.10522
707.36211,0.20786
708.85190,0.17045
710.34169,0.13305
711.83148,0.08848
713.32127,0.11935
714.81106,0.09396
716.30084,0.12126
717.79063,0.14858
719.28042,0.15317
720.77021,0.09192
722.26000,0.07020
723.74979,0.10176
725.23958,0.13334
726.72936,0.03265
728.21915,0.01098
729.70894,0.03398
731.19873,0.09290
732.68852,0.10695
734.17831,0.12101
735.66809,0.14646
737.15788,0.12044
738.64767,0.10880
740.13746,0.13669
741.62725,0.16458
743.11704,0.16137
744.60683,0.21204
746.09661,0.16456
747.58640,0.15959
749.07619,0.15464
750.56598,0.23529
752.05577,0.31357
753.54556,0.33799
755.03534,0.37319
756.52513,0.40841
758.01492,0.50111
759.50471,0.56150
760.99450,0.62669
762.48429,0.71643
763.97407,0.80619
765.46386,0.91692
766.95365,1.00371
768.44344,1.15397
769.93323,1.01095
771.42302,1.03673
772.91281,1.06253
774.40259,0.98060
775.89238,0.96333
777.38217,0.77488
778.87196,0.83186
780.36175,0.88886
781.85154,0.86326
783.34132,0.69881
784.83111,0.69240
786.32090,0.67343
787.81069,0.65448
789.30048,0.78818
790.79027,0.66809
792.28006,0.71203
793.76984,0.66500
795.25963,0.60003
796.74942,0.53507
798.23921,0.39830
799.72900,0.34414
801.21879,0.28760
802.70857,0.26999
804.19836,0.25239
805.68815,0.14322
807.17794,0.11906
808.66773,0.98079
810.15752,1.04106
811.64730,1.10134
813.13709,1.50701
814.62688,0.62218
816.11667,0.20545
817.60646,0.24245
819.09625,0.25013
820.58604,0.25782
822.07582,0.33675
823.56561,0.34268
825.05540,0.29355
826.54519,0.32704
828.03498,0.36054
829.52477,0.44793
831.01455,0.47307
832.50434,0.41324
833.99413,0.49109
835.48392,0.57794
836.97371,0.66480
838.46350,0.68044
839.95329,0.57758
841.44307,0.45079
842.93286,0.56584
844.42265,0.64139
845.91244,0.71696
847.40223,0.74945
848.89202,0.83582
850.38180,0.80848
851.87159,0.81407
853.36138,0.81968
854.85117,1.00308
856.34096,1.13621
857.83075,1.23823
859.32053,1.35223
860.81032,1.30943
862.30011,1.26663
863.78990,1.36991
865.27969,1.18708
866.76948,1.24369
868.25927,1.19497
869.74905,1.17859
871.23884,1.16221
872.72863,1.21529
874.21842,1.23008
875.70821,1.14431
877.19800,1.20821
878.68778,1.20986
880.17757,1.21154
881.66736,1.19407
883.15715,1.14549
884.64694,1.25614
886.13673,1.28719
887.62651,1.31827
889.11630,1.34995
890.60609,1.32658
892.09588,1.35470
893.58567,1.36248
895.07546,1.40919
896.56525,1.45591
898.05503,1.39669
899.54482,1.36622
901.03461,1.33218
902.52440,1.26223
904.01419,1.30483
905.50398,1.34744
906.99376,1.42838
908.48355,1.26391
909.97334,1.22037
911.46313,1.23431
912.95292,1.21415
914.44271,1.19399
915.93250,1.14213
917.42228,1.40034
918.91207,1.41554
920.40186,1.38767
921.89165,1.36699
923.38144,1.34632
924.87123,1.33046
926.36101,1.37686
927.85080,1.35982
929.34059,1.34999
930.83038,1.29348
932.32017,1.23698
933.80996,1.24993
935.29974,1.30121
936.78953,1.14659
938.27932,1.24458
939.76911,1.27913
941.25890,1.31370
942.74869,1.28723
944.23848,1.26796
945.72826,1.25469
947.21805,1.17918
948.70784,1.14439
950.19763,1.21915
951.68742,1.29392
953.17721,1.32980
954.66699,1.26992
956.15678,1.34294
957.64657,1.34893
959.13636,1.35195
960.62615,1.35498
962.11594,1.46038
963.60573,1.36108
965.09551,1.40186
966.58530,1.57314
968.07509,1.64627
969.56488,1.71942
971.05467,1.66808
972.54446,1.65865
974.03424,1.74141
975.52403,1.78349
977.01382,1.81720
978.50361,1.77670
979.99340,1.73622
981.48319,1.75321
982.97297,1.88155
984.46276,1.98716
985.95255,1.99462
987.44234,1.99730
988.93213,2.00000
990.42192,1.98356
991.91171,1.85939
993.40149,1.73044
994.89128,1.69489
996.38107,1.75392
997.87086,1.72917
999.36065,1.70443
1000.85044,1.74076
1002.34022,1.76394
1003.83001,1.76318
1005.31980,1.78040
1006.80959,1.85749
1008.29938,1.93459
1009.78917,1.88122
1011.27896,1.97511
1012.76874,1.89543
1014.25853,1.70085
1015.74832,1.56972
1017.23811,1.46075
1018.72790,1.35180
1020.21769,1.08065
1021.70747,0.89930
1023.19726,0.93704
1024.68705,0.81557
1026.17684,0.70010
1027.66663,0.67084
1029.15642,0.64160
1030.64620,0.60159
1032.13599,0.63223
1033.62578,0.53000
1035.11557,0.61454
1036.60536,0.62487
1038.09515,0.63522
1039.58494,0.59769
1041.07472,0.66553
1042.56451,0.72619
1044.05430,0.76533
1045.54409,0.82363
1047.03388,0.83824
1048.52367,0.85288
1050.01345,0.86812
1051.50324,0.91570
1052.99303,0.97647
1054.48282,0.97021
1055.97261,0.94481
1057.46240,1.01040
1058.95219,1.07601
1060.44197,1.19671
1061.93176,1.15580
1063.42155,1.19631
1064.91134,1.25839
1066.40113,1.19118
1067.89092,1.28860
1069.38070,1.38603
1070.87049,1.37394
1072.36028,1.28884
1073.85007,1.20255
1075.33986,1.14142
1076.82965,1.11622
1078.31943,1.15148
1079.80922,1.18676
1081.29901,1.26575
1082.78880,1.24899
1084.27859,1.22984
1085.76838,1.16402
1087.25817,1.10180
1088.74795,1.07312
1090.23774,1.07976
1091.72753,1.08643
1093.21732,1.06257
1094.70711,0.91902
1096.19690,0.95266
1097.68668,0.99589
1099.17647,0.94935
1100.66626,0.97166
1102.15605,0.99398
1103.64584,0.80263
1105.13563,0.81600
1106.62542,0.69411
1108.11520,0.62132
1109.60499,0.58086
1111.09478,0.65055
1112.58457,0.61252
1114.07436,0.57450
1115.56415,0.55206
1117.05393,0.58589
1118.54372,0.48566
1120.03351,0.45967
1121.52330,0.43249
1123.01309,0.45501
1124.50288,0.47754
1125.99266,0.41091
1127.48245,0.39097
1128.97224,0.40097
1130.46203,0.34276
1131.95182,0.29533
1133.44161,0.34847
1134.93140,0.33878
1136.42118,0.32911
1137.91097,0.26497
1139.40076,0.25951
1140.89055,0.28160
1142.38034,0.23667
1143.87013,0.16661
1145.35991,0.14444
1146.84970,0.14145
1148.33949,0.13847
1149.82928,0.05529
1151.31907,0.18403
1152.80886,0.15715
1154.29865,0.08359
1155.78843,0.10343
1157.27822,0.01434
1158.76801,0.01265
1160.25780,0.01098
1161.74759,0.04377
1163.23738,0.09094
1164.72716,0.11299
1166.21695,0.11230
1167.70674,0.05297
1169.19653,0.04872
1170.68632,0.04508
1172.17611,0.04146
1173.66589,0.06838
1175.15568,0.14918
1176.64547,0.05761
1178.13526,0.06541
1179.62505,0.01098
1181.11484,0.06548
1182.60463,0.03739
1184.09441,0.00931
1185.58420,0.01158
1187.07399,0.02464
1188.56378,0.05806
1190.05357,0.01489
1191.54336,0.08425
1193.03314,0.02794
1194.52293,0.04286
1196.01272,0.05780
1197.50251,0.06258
1198.99230,0.05660
1200.48209,0.02908
1201.97188,0.10812
1203.46166,0.06387
1204.95145,0.06992
1206.44124,0.05323
1207.93103,0.09821
1209.42082,0.14321
1210.91061,0.18043
1212.40039,0.19254
1213.89018,0.24176
1215.37997,0.20242
1216.86976,0.24449
1218.35955,0.31411
1219.84934,0.24487
1221.33912,0.17566
1222.82891,0.24891
1224.31870,0.22162
1225.80849,0.16202
1227.29828,0.23531
1228.78807,0.25236
1230.27786,0.30892
1231.76764,0.29846
1233.25743,0.29939
1234.74722,0.30033
1236.23701,0.29469
1237.72680,0.41238
1239.21659,0.40199
1240.70637,0.43950
1242.19616,0.44350
1243.68595,0.40921
1245.17574,0.43240
1246.66553,0.42208
1248.15532,0.41177
1249.64511,0.48528
1251.13489,0.54563
1252.62468,0.52220
1254.11447,0.59096
1255.60426,0.67888
1257.09405,0.69260
1258.58384,0.71472
1260.07362,0.65544
1261.56341,0.66681
1263.05320,0.67819
1264.54299,0.56988
1266.03278,0.60403
1267.52257,0.50412
1269.01235,0.55148
1270.50214,0.54377
1271.99193,0.49898
1273.48172,0.49130
1274.97151,0.49861
1276.46130,0.50593
1277.95109,0.50668
1279.44087,0.48709
1280.93066,0.49625
1282.42045,0.40725
1283.91024,0.36137
1285.40003,0.38852
1286.88982,0.47316
1288.37960,0.44647
1289.86939,0.42279
1291.35918,0.39913
1292.84897,0.34136
1294.33876,0.34824
1295.82855,0.39944
1297.31834,0.31059
1298.80812,0.32231
1300.29791,0.28975
1301.78770,0.29072
1303.27749,0.30967
1304.76728,0.31546
1306.25707,0.32126
1307.74685,0.30793
1309.23664,0.37841
1310.72643,0.37108
1312.21622,0.41525
1313.70601,0.43549
1315.19580,0.40786
1316.68558,0.43172
1318.17537,0.44363
1319.66516,0.45016
1321.15495,0.45670
1322.64474,0.40041
1324.13453,0.38124
1325.62432,0.45427
1327.11410,0.55484
1328.60389,0.49861
1330.09368,0.39211
1331.58347,0.39576
1333.07326,0.45329
1334.56305,0.44141
1336.05283,0.41756
1337.54262,0.39373
1339.03241,0.46928
1340.52220,0.39041
1342.01199,0.38698
1343.50178,0.41828
1344.99156,0.42923
1346.48135,0.55274
1347.97114,0.44162
1349.46093,0.44065
1350.95072,0.50434
1352.44051,0.47047
1353.93030,0.43662
1355.42008,0.43332
1356.90987,0.34143
1358.39966,0.33456
1359.88945,0.35284
1361.37924,0.30410
1362.86903,0.32241
1364.35881,0.25095
1365.84860,0.26450
1367.33839,0.29243
1368.82818,0.27309
1370.31797,0.25376
1371.80776,0.23744
1373.29755,0.23789
1374.78733,0.25511
1376.27712,0.21250
1377.76691,0.18546
1379.25670,0.12850
1380.74649,0.14698
1382.23628,0.19301
1383.72606,0.13849
1385.21585,0.20610
1386.70564,0.20189
1388.19543,0.19769
1389.68522,0.23661
1391.17501,0.23363
1392.66479,0.22828
1394.15458,0.21098
1395.64437,0.20565
1397.13416,0.26858
1398.62395,0.30399
1400.11374,0.35976
1401.60353,0.33055
1403.09331,0.28939
1404.58310,0.29672
1406.07289,0.30406
1407.56268,0.35871
1409.05247,0.35351
1410.54226,0.42614
1412.03204,0.39584
1413.52183,0.41822
1415.01162,0.36998
1416.50141,0.41633
1417.99120,0.41242
1419.48099,0.43605
1420.97078,0.41899
1422.46056,0.37562
1423.95035,0.37236
1425.44014,0.36911
1426.92993,0.35570
1428.41972,0.34710
1429.90951,0.30140
1431.39929,0.29641
1432.88908,0.35249
1434.37887,0.34275
1435.86866,0.34619
1437.35845,0.31253
1438.84824,0.37465
1440.33802,0.41165
1441.82781,0.49295
1443.31760,0.50604
1444.80739,0.55804
1446.29718,0.61006
1447.78697,0.56333
1449.27676,0.65548
1450.76654,0.65427
1452.25633,0.74286
1453.74612,0.77041
1455.23591,0.73452
1456.72570,0.75971
1458.21549,0.81962
1459.70527,0.87715
1461.19506,0.82337
1462.68485,0.80192
1464.17464,0.85111
1465.66443,0.91888
1467.15422,0.98665
1468.64401,0.96526
1470.13379,0.99656
1471.62358,1.01709
1473.11337,0.96581
1474.60316,0.89539
1476.09295,0.86808
1477.58274,0.85276
1479.07252,0.74048
1480.56231,0.67730
1482.05210,0.64765
1483.54189,0.58450
1485.03168,0.51897
1486.52147,0.47260
1488.01125,0.41907
1489.50104,0.36555
1490.99083,0.24501
1492.48062,0.22145
1493.97041,0.15360
1495.46020,0.15760
1496.94999,0.11972
1498.43977,0.06030
1499.92956,0.08708
1501.41935,0.06959
1502.90914,0.10718
1504.39893,0.02028
1505.88872,0.05191
1507.37850,0.11469
1508.86829,0.12121
1510.35808,0.09063
1511.84787,0.01098
1513.33766,0.02816
1514.82745,0.04536
1516.31724,0.05119
1517.80702,0.07260
1519.29681,0.01861
1520.78660,0.03167
1522.27639,0.08185
1523.76618,0.06381
1525.25597,0.05297
1526.74575,0.05053
1528.23554,0.01098
1529.72533,0.09777
1531.21512,0.01098
1532.70491,0.05350
1534.19470,0.04815
1535.68448,0.03921
1537.17427,0.08896
1538.66406,0.05132
1540.15385,0.04962
1541.64364,0.04793
1543.13343,0.08456
1544.62322,0.06254
1546.11300,0.10758
1547.60279,0.09038
1549.09258,0.11390
1550.58237,0.10990
1552.07216,0.13943
1553.56195,0.14863
1555.05173,0.13270
1556.54152,0.09284
1558.03131,0.10806
1559.52110,0.11492
1561.01089,0.09186
1562.50068,0.13586
1563.99047,0.06734
1565.48025,0.10059
1566.97004,0.08717
1568.45983,0.07256
1569.94962,0.07054
1571.43941,0.06853
1572.92920,0.11741
1574.41898,0.09448
1575.90877,0.15776
1577.39856,0.02352
1578.88835,0.05929
1580.37814,0.11304
1581.86793,0.11412
1583.35771,0.13078
1584.84750,0.08400
1586.33729,0.10548
1587.82708,0.14014
1589.31687,0.10178
1590.80666,0.13527
1592.29645,0.11610
1593.78623,0.16758
1595.27602,0.16280
1596.76581,0.13889
1598.25560,0.16766
1599.74539,0.16532
1601.23518,0.12708
1602.72496,0.18103
1604.21475,0.16556
1605.70454,0.15011
1607.19433,0.20291
1608.68412,0.20185
1610.17391,0.18405
1611.66370,0.23210
1613.15348,0.20355
1614.64327,0.24085
1616.13306,0.18121
1617.62285,0.25445
1619.11264,0.29300
1620.60243,0.28128
1622.09221,0.21929
1623.58200,0.24352
1625.07179,0.24860
1626.56158,0.19144
1628.05137,0.24204
1629.54116,0.20886
1631.03094,0.22118
1632.52073,0.17486
1634.01052,0.15847
1635.50031,0.22351
1636.99010,0.21194
1638.47989,0.24110
1639.96968,0.20921
1641.45946,0.19050
1642.94925,0.23765
1644.43904,0.18785
1645.92883,0.18834
1647.41862,0.18884
1648.90841,0.24443
1650.39819,0.27728
1651.88798,0.26466
1653.37777,0.23769
1654.86756,0.19636
1656.35735,0.24125
1657.84714,0.28494
1659.33693,0.29993
1660.82671,0.30175
1662.31650,0.35986
1663.80629,0.32102
1665.29608,0.34803
1666.78587,0.31519
1668.27566,0.33744
1669.76544,0.37886
1671.25523,0.35924
1672.74502,0.39230
1674.23481,0.40623
1675.72460,0.37348
1677.21439,0.32040
1678.70417,0.36429
1680.19396,0.37827
1681.68375,0.37192
1683.17354,0.34283
1684.66333,0.31975
1686.15312,0.32900
1687.64291,0.34903
1689.13269,0.30564
1690.62248,0.32092
1692.11227,0.26199
1693.60206,0.25574
1695.09185,0.26747
1696.58164,0.28999
1698.07142,0.20837
1699.56121,0.19141
1701.05100,0.24509
1702.54079,0.16112
1704.03058,0.16934
1705.52037,0.14406
1707.01016,0.14034
1708.49994,0.13663
1709.98973,0.12456
1711.47952,0.07778
1712.96931,0.12200
1714.45910,0.06328
1715.94889,0.09436
1717.43867,0.05722
1718.92846,0.07516
1720.41825,0.09909
1721.90804,0.03805
1723.39783,0.05723
1724.88762,0.02973
1726.37740,0.07049
1727.86719,0.06337
1729.35698,0.06824
1730.84677,0.04439
1732.33656,0.01098
1733.82635,0.09590
1735.31614,0.07547
1736.80592,0.08140
1738.29571,0.06460
1739.78550,0.08971
1741.27529,0.02865
1742.76508,0.08012
1744.25487,0.04183
1745.74465,0.05862
1747.23444,0.00000
1748.72423,0.04914
1750.21402,0.03245
1751.70381,0.01458
1753.19360,0.03622
1754.68339,0.03035
1756.17317,0.05562
1757.66296,0.05336
1759.15275,0.06310
1760.64254,0.07164
1762.13233,0.06584
1763.62212,0.04090
1765.11190,0.04231
1766.60169,0.03894
1768.09148,0.07509
1769.58127,0.03584
1771.07106,0.02653
1772.56085,0.07111
1774.05063,0.02711
1775.54042,0.01904
1777.03021,0.01098
1778.52000,0.01098
