299.16008,0.21357
300.64987,0.27694
302.13966,0.25378
303.62945,0.23722
305.11924,0.22067
306.60902,0.00000
308.09881,0.08789
309.58860,0.14381
311.07839,0.19975
312.56818,0.15222
314.05797,0.17431
315.54776,0.15879
317.03754,0.14328
318.52733,0.07698
320.01712,0.11606
321.50691,0.12034
322.99670,0.12464
324.48649,0.10919
325.97627,0.08811
327.46606,0.10185
328.95585,0.11560
330.44564,0.11149
331.93543,0.11492
333.42522,0.12306
334.91501,0.13122
336.40479,0.16102
337.89458,0.17767
339.38437,0.12002
340.87416,0.06237
342.36395,0.01509
343.85374,0.00000
345.34352,0.00158
346.83331,0.00318
348.32310,0.17317
349.81289,0.13622
351.30268,0.16983
352.79247,0.20346
354.28225,0.02732
355.77204,0.18609
357.26183,0.15672
358.75162,0.12737
360.24141,0.06982
361.73120,0.08752
363.22099,0.10431
364.71077,0.12110
366.20056,0.17459
367.69035,0.04560
369.18014,0.05491
370.66993,0.06423
372.15972,0.16104
373.64950,0.20331
375.13929,0.15434
376.62908,0.10538
378.11887,0.11382
379.60866,0.19377
381.09845,0.25585
382.58824,0.31795
384.07802,0.26435
385.56781,0.34246
387.05760,0.33969
388.54739,0.33693
390.03718,0.24387
391.52697,0.25994
393.01675,0.29391
394.50654,0.32788
395.99633,0.36093
397.48612,0.40527
398.97591,0.32922
400.46570,0.25319
401.95548,0.46878
403.44527,0.44168
404.93506,0.43341
406.42485,0.42515
407.91464,0.39245
409.40443,0.34659
410.89422,0.58671
412.38400,0.56909
413.87379,0.55149
415.36358,0.58846
416.85337,0.70070
418.34316,0.74992
419.83295,0.79916
421.32273,0.84182
422.81252,0.95035
424.30231,0.85852
425.79210,0.76670
427.28189,0.80941
428.77168,0.81451
430.26146,0.85631
431.75125,0.89812
433.24104,0.75274
434.73083,0.67511
436.22062,0.67368
437.71041,0.67227
439.20020,0.41970
440.68998,0.47946
442.17977,0.55993
443.66956,0.64040
445.15935,0.43680
446.64914,0.37996
448.13893,0.34007
449.62871,0.26632
451.11850,0.19258
452.60829,0.07559
454.09808,0.00000
455.58787,0.03325
457.07766,0.06652
458.56745,0.07628
460.05723,0.17071
461.54702,0.13252
463.03681,0.09434
464.52660,0.05712
466.01639,0.20240
467.50618,0.19248
468.99596,0.18257
470.48575,0.02875
471.97554,0.03674
473.46533,0.01840
474.95512,0.04805
476.44491,0.07772
477.93469,0.21181
479.42448,0.18224
480.91427,0.09529
482.40406,0.00836
483.89385,0.20647
485.38364,0.27477
486.87343,0.28383
488.36321,0.29289
489.85300,0.33114
491.34279,0.29790
492.83258,0.38508
494.32237,0.32835
495.81216,0.27163
497.30194,0.28735
498.79173,0.23913
500.28152,0.31790
501.77131,0.39669
503.26110,0.47079
504.75089,0.38875
506.24068,0.36410
507.73046,0.33946
509.22025,0.35905
510.71004,0.35231
512.19983,0.37757
513.68962,0.38779
515.17941,0.39802
516.66919,0.33865
518.15898,0.27930
519.64877,0.26229
521.13856,0.24529
522.62835,0.20666
524.11814,0.35807
525.60792,0.41354
527.09771,0.44363
528.58750,0.47373
530.07729,0.52171
531.56708,0.63179
533.05687,0.61583
534.54666,0.59989
536.03644,0.56326
537.52623,0.55110
539.01602,0.57093
540.50581,0.57949
541.99560,0.58807
543.48539,0.66062
544.97517,0.62218
546.46496,0.61574
547.95475,0.60931
549.44454,0.52576
550.93433,0.56639
552.42412,0.47722
553.91391,0.48777
555.40369,0.49834
556.89348,0.49386
558.38327,0.57595
559.87306,0.59314
561.36285,0.61034
562.85264,0.40648
564.34242,0.37009
565.83221,0.37698
567.32200,0.40270
568.81179,0.42843
570.30158,0.27732
571.79137,0.26920
573.28115,0.29685
574.77094,0.32451
576.26073,0.26376
577.75052,0.15410
579.24031,0.26834
580.73010,0.24525
582.21989,0.22218
583.70967,0.14643
585.19946,0.15349
586.68925,0.17278
588.17904,0.19208
589.66883,0.20294
591.15862,0.09527
592.64840,0.07040
594.13819,0.03519
595.62798,0.00000
597.11777,0.07057
598.60756,0.11481
600.09735,0.07628
601.58714,0.12431
603.07692,0.17235
604.56671,0.20724
606.05650,0.26471
607.54629,0.25917
609.03608,0.25364
610.52587,0.14559
612.01565,0.19559
613.50544,0.24184
614.99523,0.23071
616.48502,0.21960
617.97481,0.11161
619.46460,0.14286
620.95438,0.19669
622.44417,0.20633
623.93396,0.21597
625.42375,0.19647
626.91354,0.21837
628.40333,0.20642
629.89312,0.19448
631.38290,0.15809
632.87269,0.12548
634.36248,0.04585
635.85227,0.02549
637.34206,0.00515
638.83185,0.11557
640.32163,0.17710
641.81142,0.12010
643.30121,0.14684
644.79100,0.17359
646.28079,0.07148
647.77058,0.27794
649.26037,0.35646
650.75015,0.35787
652.23994,0.35928
653.72973,0.31180
655.21952,0.27937
656.70931,0.26013
658.19910,0.19198
659.68888,0.12385
661.17867,0.11781
662.66846,0.16071
664.15825,0.08132
665.64804,0.10260
667.13783,0.12390
668.62761,0.19318
670.11740,0.14019
671.60719,0.15964
673.09698,0.17910
674.58677,0.15812
676.07656,0.13340
677.56635,0.18206
679.05613,0.21098
680.54592,0.23991
682.03571,0.28297
683.52550,0.25266
685.01529,0.25247
686.50508,0.25981
687.99486,0.26717
689.48465,0.19740
690.97444,0.22172
692.46423,0.27238
693.95402,0.30613
695.44381,0.33989
696.93360,0.25890
698.42338,0.20237
699.91317,0.22112
701.40296,0.19661
702.89275,0.17210
704.38254,0.07236
705.87233,0.21156
707.36211,0.12877
708.85190,0.16076
710.34169,0.19277
711.83148,0.17022
713.32127,0.06867
714.81106,0.10447
716.30084,0.12335
717.79063,0.14224
719.28042,0.16868
720.77021,0.16314
722.26000,0.03908
723.74979,0.03827
725.23958,0.03747
726.72936,0.00000
728.21915,0.05330
729.70894,0.06522
731.19873,0.19004
732.68852,0.17659
734.17831,0.16315
735.66809,0.16383
737.15788,0.13254
738.64767,0.14077
740.13746,0.19794
741.62725,0.25511
743.11704,0.07148
744.60683,0.22839
746.09661,0.11816
747.58640,0.13870
749.07619,0.15925
750.56598,0.31056
752.05577,0.29257
753.54556,0.19369
755.03534,0.22087
756.52513,0.24807
758.01492,0.34301
759.50471,0.47558
760.99450,0.52539
762.48429,0.62884
763.97407,0.73229
765.46386,0.71064
766.95365,0.70783
768.44344,0.87623
769.93323,0.89601
771.42302,0.83490
772.91281,0.77381
774.40259,0.85571
775.89238,0.81346
777.38217,0.69596
778.87196,0.70453
780.36175,0.71311
781.85154,0.67279
783.34132,0.50078
784.83111,0.52068
786.32090,0.54907
787.81069,0.57747
789.30048,0.57671
790.79027,0.54211
792.28006,0.65050
793.76984,0.49928
795.25963,0.44872
796.74942,0.39817
798.23921,0.20747
799.72900,0.26137
801.21879,0.25883
802.70857,0.26195
804.19836,0.26509
805.68815,0.19862
807.17794,0.09078
808.66773,0.07326
810.15752,0.05669
811.64730,0.04013
813.13709,0.04522
814.62688,0.22717
816.11667,0.25487
817.60646,0.23554
819.09625,0.24726
820.58604,0.25900
822.07582,0.40339
823.56561,0.34460
825.05540,0.32533
826.54519,0.35499
828.03498,0.38466
829.52477,0.33909
831.01455,0.34809
832.50434,0.40414
833.99413,0.50159
835.48392,0.48335
836.97371,0.46512
838.46350,0.53251
839.95329,0.53406
841.44307,0.40205
842.93286,0.64256
844.42265,0.61404
845.91244,0.58554
847.40223,0.65112
848.89202,0.61512
850.38180,0.66756
851.87159,0.70025
853.36138,0.73295
854.85117,0.93594
856.34096,0.88871
857.83075,0.89793
859.32053,1.05957
860.81032,1.09139
862.30011,1.12323
863.78990,1.04032
865.27969,1.05149
866.76948,1.00058
868.25927,0.98355
869.74905,0.99664
871.23884,1.00974
872.72863,0.91750
874.21842,0.83279
875.70821,0.81018
877.19800,0.91175
878.68778,0.82990
880.17757,0.74807
881.66736,0.87602
883.15715,0.94378
884.64694,0.92124
886.13673,0.89872
887.62651,0.87621
889.11630,0.83678
890.60609,0.86697
892.09588,0.79370
893.58567,0.79570
895.07546,0.74315
896.56525,0.69061
898.05503,0.79424
899.54482,0.87907
901.03461,0.81904
902.52440,0.73457
904.01419,0.77146
905.50398,0.80836
906.99376,0.82364
908.48355,0.79378
909.97334,0.84106
911.46313,0.81123
912.95292,0.77388
914.44271,0.73654
915.93250,0.87230
917.42228,0.85944
918.91207,0.75253
920.40186,0.68514
921.89165,0.79461
923.38144,0.90410
924.87123,0.85179
926.36101,0.94437
927.85080,0.93725
929.34059,0.99786
930.83038,0.95408
932.32017,0.91030
933.80996,0.75084
935.29974,0.78328
936.78953,0.73296
938.27932,0.81999
939.76911,0.82520
941.25890,0.83041
942.74869,0.87797
944.23848,0.79197
945.72826,0.66458
947.21805,0.71594
948.70784,0.84633
950.19763,0.80929
951.68742,0.77226
953.17721,0.78040
954.66699,0.84875
956.15678,0.75156
957.64657,0.74468
959.13636,0.78109
960.62615,0.81751
962.11594,0.93108
963.60573,0.81890
965.09551,0.83089
966.58530,1.01411
968.07509,1.04965
969.56488,1.08521
971.05467,1.15558
972.54446,1.03406
974.03424,1.12892
975.52403,1.29340
977.01382,1.21895
978.50361,1.16898
979.99340,1.11902
981.48319,1.24027
982.97297,1.29193
984.46276,1.29092
985.95255,1.30874
987.44234,1.38113
988.93213,1.45353
990.42192,1.40177
991.91171,1.53064
993.40149,1.46386
994.89128,1.52690
996.38107,1.34914
997.87086,1.42632
999.36065,1.50352
1000.85044,1.51581
1002.34022,1.63912
1003.83001,1.57243
1005.31980,1.78231
1006.80959,1.83322
1008.29938,1.88415
1009.78917,2.00000
1011.27896,1.91831
1012.76874,1.64286
1014.25853,1.55555
1015.74832,1.51529
1017.23811,1.35652
1018.72790,1.19776
1020.21769,1.04654
1021.70747,1.01573
1023.19726,0.78928
1024.68705,0.68137
1026.17684,0.55465
1027.66663,0.52578
1029.15642,0.49692
1030.64620,0.48689
1032.13599,0.51826
1033.62578,0.44429
1035.11557,0.40607
1036.60536,0.46758
1038.09515,0.52911
1039.58494,0.53608
1041.07472,0.62585
1042.56451,0.59334
1044.05430,0.60223
1045.54409,0.54717
1047.03388,0.57585
1048.52367,0.60453
1050.01345,0.68497
1051.50324,0.77483
1052.99303,0.79696
1054.48282,0.95269
1055.97261,0.91841
1057.46240,0.94812
1058.95219,0.97783
1060.44197,1.03954
1061.93176,1.03541
1063.42155,0.93723
1064.91134,1.00838
1066.40113,1.13599
1067.89092,1.13944
1069.38070,1.14290
1070.87049,1.28747
1072.36028,1.15174
1073.85007,1.19098
1075.33986,1.09478
1076.82965,1.11147
1078.31943,1.05668
1079.80922,1.00190
1081.29901,1.20677
1082.78880,1.14826
1084.27859,0.98440
1085.76838,0.92026
1087.25817,0.97279
1088.74795,0.89363
1090.23774,0.87375
1091.72753,0.85388
1093.21732,0.78792
1094.70711,0.73892
1096.19690,0.75953
1097.68668,0.90433
1099.17647,0.84784
1100.66626,0.79888
1102.15605,0.74993
1103.64584,0.61634
1105.13563,0.75556
1106.62542,0.72922
1108.11520,0.68973
1109.60499,0.66155
1111.09478,0.71427
1112.58457,0.62684
1114.07436,0.53943
1115.56415,0.54327
1117.05393,0.50009
1118.54372,0.41742
1120.03351,0.35922
1121.52330,0.37628
1123.01309,0.41970
1124.50288,0.46312
1125.99266,0.39744
1127.48245,0.47476
1128.97224,0.40535
1130.46203,0.33218
1131.95182,0.40389
1133.44161,0.30064
1134.93140,0.29054
1136.42118,0.28045
1137.91097,0.30329
1139.40076,0.26594
1140.89055,0.30386
1142.38034,0.28536
1143.87013,0.14457
1145.35991,0.16371
1146.84970,0.17440
1148.33949,0.18511
1149.82928,0.12527
1151.31907,0.05415
1152.80886,0.12040
1154.29865,0.03802
1155.78843,0.01398
1157.27822,0.03322
1158.76801,0.06377
1160.25780,0.09432
1161.74759,0.17193
1163.23738,0.19122
1164.72716,0.20676
1166.21695,0.10379
1167.70674,0.10242
1169.19653,0.04839
1170.68632,0.07339
1172.17611,0.09840
1173.66589,0.12154
1175.15568,0.08073
1176.64547,0.16222
1178.13526,0.05935
1179.62505,0.07313
1181.11484,0.14713
1182.60463,0.12049
1184.09441,0.09387
1185.58420,0.09641
1187.07399,0.09521
1188.56378,0.10530
1190.05357,0.05333
1191.54336,0.08979
1193.03314,0.03596
1194.52293,0.08937
1196.01272,0.14280
1197.50251,0.04762
1198.99230,0.10107
1200.48209,0.13385
1201.97188,0.02364
1203.46166,0.00000
1204.95145,0.12158
1206.44124,0.19237
1207.93103,0.16722
1209.42082,0.14209
1210.91061,0.15083
1212.40039,0.17464
1213.89018,0.35838
1215.37997,0.33329
1216.86976,0.30257
1218.35955,0.30385
1219.84934,0.28257
1221.33912,0.26130
1222.82891,0.19112
1224.31870,0.31850
1225.80849,0.23706
1227.29828,0.26664
1228.78807,0.36772
1230.27786,0.34276
1231.76764,0.33474
1233.25743,0.35025
1234.74722,0.36578
1236.23701,0.39919
1237.72680,0.39499
1239.21659,0.42090
1240.70637,0.43365
1242.19616,0.57059
1243.68595,0.51376
1245.17574,0.63003
1246.66553,0.59768
1248.15532,0.56534
1249.64511,0.57064
1251.13489,0.54586
1252.62468,0.51167
1254.11447,0.75595
1255.60426,0.73496
1257.09405,0.66507
1258.58384,0.59708
1260.07362,0.57801
1261.56341,0.55331
1263.05320,0.52862
1264.54299,0.58484
1266.03278,0.61474
1267.52257,0.60326
1269.01235,0.62754
1270.50214,0.70639
1271.99193,0.55196
1273.48172,0.51983
1274.97151,0.58837
1276.46130,0.65692
1277.95109,0.54582
1279.44087,0.51938
1280.93066,0.48167
1282.42045,0.46091
1283.91024,0.38560
1285.40003,0.52478
1286.88982,0.51346
1288.37960,0.46076
1289.86939,0.45887
1291.35918,0.45700
1292.84897,0.50593
1294.33876,0.46457
1295.82855,0.41382
1297.31834,0.36684
1298.80812,0.35561
1300.29791,0.42719
1301.78770,0.43293
1303.27749,0.42174
1304.76728,0.40210
1306.25707,0.38248
1307.74685,0.40896
1309.23664,0.37337
1310.72643,0.47137
1312.21622,0.54116
1313.70601,0.45481
1315.19580,0.44748
1316.68558,0.45899
1318.17537,0.38584
1319.66516,0.41619
1321.15495,0.44654
1322.64474,0.43176
1324.13453,0.52611
1325.62432,0.47184
1327.11410,0.56621
1328.60389,0.65119
1330.09368,0.67974
1331.58347,0.48253
1333.07326,0.51675
1334.56305,0.55286
1336.05283,0.56829
1337.54262,0.58373
1339.03241,0.70266
1340.52220,0.71060
1342.01199,0.71291
1343.50178,0.75474
1344.99156,0.64231
1346.48135,0.67852
1347.97114,0.74673
1349.46093,0.94853
1350.95072,0.88130
1352.44051,0.93826
1353.93030,0.99522
1355.42008,1.01081
1356.90987,1.02077
1358.39966,1.06084
1359.88945,1.14232
1361.37924,0.98487
1362.86903,0.86130
1364.35881,0.87697
1365.84860,0.80234
1367.33839,0.76911
1368.82818,0.70673
1370.31797,0.64437
1371.80776,0.46443
1373.29755,0.55543
1374.78733,0.52602
1376.27712,0.43267
1377.76691,0.45785
1379.25670,0.36452
1380.74649,0.41418
1382.23628,0.39049
1383.72606,0.35363
1385.21585,0.42403
1386.70564,0.43518
1388.19543,0.44634
1389.68522,0.41894
1391.17501,0.36145
1392.66479,0.40181
1394.15458,0.39703
1395.64437,0.43741
1397.13416,0.41196
1398.62395,0.44296
1400.11374,0.39495
1401.60353,0.48054
1403.09331,0.46266
1404.58310,0.43539
1406.07289,0.40813
1407.56268,0.39217
1409.05247,0.38939
1410.54226,0.43554
1412.03204,0.39328
1413.52183,0.43005
1415.01162,0.37464
1416.50141,0.41520
1417.99120,0.44260
1419.48099,0.43238
1420.97078,0.41842
1422.46056,0.41951
1423.95035,0.45261
1425.44014,0.48571
1426.92993,0.45110
1428.41972,0.36758
1429.90951,0.38003
1431.39929,0.36991
1432.88908,0.39932
1434.37887,0.40240
1435.86866,0.39608
1437.35845,0.42364
1438.84824,0.44557
1440.33802,0.46375
1441.82781,0.49323
1443.31760,0.54906
1444.80739,0.56445
1446.29718,0.57985
1447.78697,0.66018
1449.27676,0.69913
1450.76654,0.68165
1452.25633,0.66230
1453.74612,0.76525
1455.23591,0.78355
1456.72570,0.73978
1458.21549,0.79385
1459.70527,0.80467
1461.19506,0.86441
1462.68485,0.79623
1464.17464,0.95383
1465.66443,0.93836
1467.15422,0.92289
1468.64401,0.94131
1470.13379,0.97855
1471.62358,0.95936
1473.11337,1.09634
1474.60316,0.96053
1476.09295,0.97336
1477.58274,0.91847
1479.07252,0.73754
1480.56231,0.79745
1482.05210,0.66734
1483.54189,0.55795
1485.03168,0.55016
1486.52147,0.46148
1488.01125,0.42549
1489.50104,0.38952
1490.99083,0.32910
1492.48062,0.31761
1493.97041,0.19889
1495.46020,0.31348
1496.94999,0.21549
1498.43977,0.21533
1499.92956,0.12677
1501.41935,0.17368
1502.90914,0.20366
1504.39893,0.09632
1505.88872,0.11693
1507.37850,0.09051
1508.86829,0.08668
1510.35808,0.10544
1511.84787,0.04520
1513.33766,0.02259
1514.82745,0.00000
1516.31724,0.10821
1517.80702,0.08286
1519.29681,0.13277
1520.78660,0.08862
1522.27639,0.18372
1523.76618,0.10385
1525.25597,0.06915
1526.74575,0.05327
1528.23554,0.12772
1529.72533,0.11940
1531.21512,0.09791
1532.70491,0.13289
1534.19470,0.07945
1535.68448,0.10880
1537.17427,0.08737
1538.66406,0.09041
1540.15385,0.09064
1541.64364,0.09088
1543.13343,0.16169
1544.62322,0.15725
1546.11300,0.06440
1547.60279,0.07504
1549.09258,0.06123
1550.58237,0.08695
1552.07216,0.16347
1553.56195,0.10831
1555.05173,0.15852
1556.54152,0.15607
1558.03131,0.22700
1559.52110,0.17000
1561.01089,0.13748
1562.50068,0.16142
1563.99047,0.09882
1565.48025,0.21308
1566.97004,0.10535
1568.45983,0.13498
1569.94962,0.08842
1571.43941,0.04188
1572.92920,0.12046
1574.41898,0.12756
1575.90877,0.03872
1577.39856,0.08159
1578.88835,0.09813
1580.37814,0.03567
1581.86793,0.10868
1583.35771,0.16101
1584.84750,0.11551
1586.33729,0.10390
1587.82708,0.06031
1589.31687,0.12586
1590.80666,0.07853
1592.29645,0.14222
1593.78623,0.13631
1595.27602,0.12289
1596.76581,0.15652
1598.25560,0.23155
1599.74539,0.20311
1601.23518,0.16340
1602.72496,0.13499
1604.21475,0.16867
1605.70454,0.20237
1607.19433,0.20410
1608.68412,0.21337
1610.17391,0.15303
1611.66370,0.24134
1613.15348,0.21490
1614.64327,0.26184
1616.13306,0.15641
1617.62285,0.16951
1619.11264,0.19391
1620.60243,0.11673
1622.09221,0.14869
1623.58200,0.19947
1625.07179,0.15055
1626.56158,0.18254
1628.05137,0.27475
1629.54116,0.21646
1631.03094,0.22779
1632.52073,0.19963
1634.01052,0.17900
1635.50031,0.13581
1636.99010,0.17730
1638.47989,0.20374
1639.96968,0.17753
1641.45946,0.18142
1642.94925,0.19850
1644.43904,0.21182
1645.92883,0.20164
1647.41862,0.19148
1648.90841,0.17850
1650.39819,0.23327
1651.88798,0.16952
1653.37777,0.19421
1654.86756,0.21327
1656.35735,0.16272
1657.84714,0.23637
1659.33693,0.32507
1660.82671,0.30279
1662.31650,0.19586
1663.80629,0.30718
1665.29608,0.21532
1666.78587,0.25893
1668.27566,0.26869
1669.76544,0.34996
1671.25523,0.32965
1672.74502,0.35638
1674.23481,0.38500
1675.72460,0.40235
1677.21439,0.31812
1678.70417,0.33173
1680.19396,0.32654
1681.68375,0.37028
1683.17354,0.33125
1684.66333,0.35244
1686.15312,0.27957
1687.64291,0.29890
1689.13269,0.31824
1690.62248,0.27363
1692.11227,0.31557
1693.60206,0.31802
1695.09185,0.29414
1696.58164,0.27027
1698.07142,0.25394
1699.56121,0.21128
1701.05100,0.23073
1702.54079,0.23701
1704.03058,0.22073
1705.52037,0.25714
1707.01016,0.22866
1708.49994,0.20019
1709.98973,0.08236
1711.47952,0.08684
1712.96931,0.09321
1714.45910,0.10336
1715.94889,0.12668
1717.43867,0.16508
1718.92846,0.06050
1720.41825,0.07446
1721.90804,0.00000
1723.39783,0.06555
1724.88762,0.08219
1726.37740,0.08944
1727.86719,0.14938
1729.35698,0.10774
1730.84677,0.05294
1732.33656,0.04518
1733.82635,0.06566
1735.31614,0.06734
1736.80592,0.13676
1738.29571,0.04816
1739.78550,0.08562
1741.27529,0.04596
1742.76508,0.04582
1744.25487,0.15105
1745.74465,0.09073
1747.23444,0.10944
1748.72423,0.06608
1750.21402,0.09610
1751.70381,0.06217
1753.19360,0.11479
1754.68339,0.03385
1756.17317,0.04323
1757.66296,0.08461
1759.15275,0.09213
1760.64254,0.11847
1762.13233,0.06958
1763.62212,0.00000
1765.11190,0.02384
1766.60169,0.10037
1768.09148,0.06026
1769.58127,0.09166
1771.07106,0.11367
1772.56085,0.06043
1774.05063,0.09187
1775.54042,0.07817
1777.03021,0.07200
1778.52000,0.00000
