299.16008,0.03321
300.64987,0.03251
302.13966,0.09774
303.62945,0.12262
305.11924,0.14751
306.60902,0.10919
308.09881,0.00765
309.58860,0.01980
311.07839,0.03196
312.56818,0.04077
314.05797,0.13300
315.54776,0.06649
317.03754,0.00000
318.52733,0.04518
320.01712,0.12669
321.50691,0.08848
322.99670,0.05029
324.48649,0.00000
325.97627,0.07661
327.46606,0.09202
328.95585,0.10745
330.44564,0.13701
331.93543,0.08452
333.42522,0.09863
334.91501,0.11276
336.40479,0.06972
337.89458,0.15450
339.38437,0.12561
340.87416,0.09673
342.36395,0.12235
343.85374,0.00000
345.34352,0.03206
346.83331,0.06414
348.32310,0.10295
349.81289,0.05434
351.30268,0.10461
352.79247,0.15489
354.28225,0.13725
355.77204,0.16402
357.26183,0.10739
358.75162,0.05077
360.24141,0.02376
361.73120,0.07212
363.22099,0.10704
364.71077,0.14197
366.20056,0.18767
367.69035,0.14460
369.18014,0.16275
370.66993,0.18091
372.15972,0.08406
373.64950,0.11368
375.13929,0.16349
376.62908,0.21331
378.11887,0.31292
379.60866,0.33452
381.09845,0.34469
382.58824,0.35487
384.07802,0.44915
385.56781,0.45734
387.05760,0.45679
388.54739,0.45626
390.03718,0.50753
391.52697,0.48079
393.01675,0.56841
394.50654,0.65604
395.99633,0.55669
397.48612,0.52327
398.97591,0.50129
400.46570,0.47933
401.95548,0.51993
403.44527,0.56055
404.93506,0.57494
406.42485,0.58935
407.91464,0.53314
409.40443,0.72851
410.89422,0.80685
412.38400,0.80449
413.87379,0.80214
415.36358,0.95585
416.85337,0.99926
418.34316,1.04739
419.83295,1.09554
421.32273,1.16993
422.81252,1.10980
424.30231,1.13712
425.79210,1.16446
427.28189,1.21737
428.77168,1.24608
430.26146,1.21359
431.75125,1.18111
433.24104,0.98115
434.73083,0.94130
436.22062,0.83621
437.71041,0.73113
439.20020,0.80297
440.68998,0.72011
442.17977,0.69645
443.66956,0.67281
445.15935,0.44739
446.64914,0.33094
448.13893,0.37057
449.62871,0.34428
451.11850,0.31800
452.60829,0.30654
454.09808,0.19688
455.58787,0.17737
457.07766,0.15787
458.56745,0.15721
460.05723,0.15253
461.54702,0.08127
463.03681,0.01003
464.52660,0.00000
466.01639,0.10062
467.50618,0.08556
468.99596,0.07051
470.48575,0.09853
471.97554,0.14808
473.46533,0.07656
474.95512,0.06156
476.44491,0.04657
477.93469,0.09616
479.42448,0.13501
480.91427,0.16647
482.40406,0.19794
483.89385,0.27718
485.38364,0.21113
486.87343,0.22649
488.36321,0.24187
489.85300,0.27676
491.34279,0.21076
492.83258,0.33985
494.32237,0.35056
495.81216,0.36128
497.30194,0.46888
498.79173,0.37065
500.28152,0.41370
501.77131,0.45676
503.26110,0.42852
504.75089,0.34918
506.24068,0.35864
507.73046,0.36811
509.22025,0.36818
510.71004,0.31713
512.19983,0.25534
513.68962,0.30252
515.17941,0.34972
516.66919,0.45478
518.15898,0.37151
519.64877,0.38780
521.13856,0.40410
522.62835,0.43252
524.11814,0.40176
525.60792,0.39523
527.09771,0.42907
528.58750,0.46292
530.07729,0.53714
531.56708,0.69478
533.05687,0.70445
534.54666,0.71413
536.03644,0.69422
537.52623,0.71604
539.01602,0.72979
540.50581,0.75431
541.99560,0.77885
543.48539,0.69174
544.97517,0.64635
546.46496,0.62855
547.95475,0.61075
549.44454,0.65149
550.93433,0.59942
552.42412,0.67247
553.91391,0.67490
555.40369,0.67735
556.89348,0.64416
558.38327,0.53968
559.87306,0.53543
561.36285,0.53120
562.85264,0.56801
564.34242,0.53353
565.83221,0.41296
567.32200,0.39801
568.81179,0.38307
570.30158,0.29618
571.79137,0.30884
573.28115,0.27981
574.77094,0.25080
576.26073,0.18009
577.75052,0.18607
579.24031,0.14767
580.73010,0.16983
582.21989,0.19199
583.70967,0.05407
585.19946,0.01169
586.68925,0.04465
588.17904,0.07762
589.66883,0.08370
591.15862,0.05077
592.64840,0.09589
594.13819,0.07308
595.62798,0.05028
597.11777,0.03085
598.60756,0.04238
600.09735,0.04047
601.58714,0.06010
603.07692,0.07973
604.56671,0.08593
606.05650,0.23204
607.54629,0.17369
609.03608,0.11535
610.52587,0.12159
612.01565,0.13591
613.50544,0.04128
614.99523,0.06841
616.48502,0.09555
617.97481,0.11665
619.46460,0.07049
620.95438,0.08623
622.44417,0.12284
623.93396,0.15946
625.42375,0.14967
626.91354,0.07936
628.40333,0.08171
629.89312,0.08406
631.38290,0.13755
632.87269,0.06998
634.36248,0.07372
635.85227,0.05729
637.34206,0.04087
638.83185,0.06617
640.32163,0.00000
641.81142,0.00452
643.30121,0.03864
644.79100,0.07278
646.28079,0.09617
647.77058,0.15051
649.26037,0.18872
650.75015,0.20137
652.23994,0.21405
653.72973,0.15274
655.21952,0.13180
656.70931,0.21850
658.19910,0.13570
659.68888,0.05291
661.17867,0.10736
662.66846,0.08110
664.15825,0.09655
665.64804,0.06494
667.13783,0.03333
668.62761,0.07034
670.11740,0.14504
671.60719,0.15046
673.09698,0.15590
674.58677,0.08399
676.07656,0.09954
677.56635,0.09896
679.05613,0.17103
680.54592,0.24312
682.03571,0.19549
683.52550,0.20168
685.01529,0.26034
686.50508,0.25109
687.99486,0.24184
689.48465,0.13911
690.97444,0.11038
692.46423,0.16104
693.95402,0.18883
695.44381,0.21664
696.93360,0.10993
698.42338,0.14180
699.91317,0.06606
701.40296,0.06634
702.89275,0.06662
704.38254,0.06894
705.87233,0.14392
707.36211,0.08438
708.85190,0.07059
710.34169,0.05681
711.83148,0.09013
713.32127,0.10193
714.81106,0.10164
716.30084,0.11078
717.79063,0.11993
719.28042,0.09546
720.77021,0.04140
722.26000,0.02637
723.74979,0.06651
725.23958,0.10666
726.72936,0.06072
728.21915,0.00000
729.70894,0.02527
731.19873,0.05055
732.68852,0.09804
734.17831,0.14555
735.66809,0.10360
737.15788,0.07915
738.64767,0.08566
740.13746,0.09419
741.62725,0.10274
743.11704,0.10928
744.60683,0.10642
746.09661,0.10626
747.58640,0.09871
749.07619,0.09117
750.56598,0.16638
752.05577,0.22950
753.54556,0.23612
755.03534,0.26226
756.52513,0.28842
758.01492,0.37041
759.50471,0.51295
760.99450,0.46852
762.48429,0.52297
763.97407,0.57743
765.46386,0.69580
766.95365,0.76845
768.44344,0.80883
769.93323,0.85190
771.42302,0.85597
772.91281,0.86006
774.40259,0.80765
775.89238,0.71894
777.38217,0.69212
778.87196,0.71105
780.36175,0.72999
781.85154,0.63325
783.34132,0.57418
784.83111,0.59047
786.32090,0.59668
787.81069,0.60290
789.30048,0.64881
790.79027,0.58578
792.28006,0.56176
793.76984,0.50413
795.25963,0.51310
796.74942,0.52208
798.23921,0.36762
799.72900,0.31541
801.21879,0.29550
802.70857,0.24803
804.19836,0.20056
805.68815,0.22643
807.17794,0.03303
808.66773,0.04412
810.15752,0.06464
811.64730,0.08517
813.13709,0.08823
814.62688,0.19219
816.11667,0.17105
817.60646,0.17011
819.09625,0.18734
820.58604,0.20458
822.07582,0.23057
823.56561,0.27407
825.05540,0.27991
826.54519,0.30123
828.03498,0.32256
829.52477,0.39974
831.01455,0.37737
832.50434,0.38327
833.99413,0.37976
835.48392,0.43748
836.97371,0.49520
838.46350,0.52671
839.95329,0.45868
841.44307,0.41621
842.93286,0.45986
844.42265,0.53244
845.91244,0.60504
847.40223,0.63527
848.89202,0.63995
850.38180,0.71460
851.87159,0.74284
853.36138,0.77110
854.85117,0.87942
856.34096,1.11824
857.83075,1.09743
859.32053,1.19098
860.81032,1.17759
862.30011,1.16422
863.78990,1.11252
865.27969,1.05679
866.76948,1.03201
868.25927,0.99111
869.74905,0.95761
871.23884,0.92413
872.72863,1.00837
874.21842,1.01190
875.70821,1.01948
877.19800,0.87372
878.68778,0.87258
880.17757,0.87145
881.66736,0.83334
883.15715,0.88807
884.64694,0.86612
886.13673,0.85428
887.62651,0.84245
889.11630,0.91606
890.60609,0.83093
892.09588,0.85478
893.58567,0.82349
895.07546,0.87091
896.56525,0.91835
898.05503,0.80906
899.54482,0.89620
901.03461,0.83269
902.52440,0.79339
904.01419,0.79313
905.50398,0.79287
906.99376,0.86258
908.48355,0.80988
909.97334,0.79621
911.46313,0.80138
912.95292,0.80522
914.44271,0.80907
915.93250,0.83715
917.42228,0.90694
918.91207,0.86240
920.40186,0.82325
921.89165,0.86146
923.38144,0.89968
924.87123,0.90496
926.36101,0.95061
927.85080,0.96936
929.34059,0.97333
930.83038,0.98336
932.32017,0.99341
933.80996,0.94494
935.29974,0.92743
936.78953,0.86151
938.27932,0.86554
939.76911,0.87968
941.25890,0.89383
942.74869,0.97459
944.23848,0.85221
945.72826,0.91416
947.21805,0.89001
948.70784,0.74077
950.19763,0.81620
951.68742,0.89165
953.17721,0.83795
954.66699,0.87575
956.15678,1.05616
957.64657,1.01058
959.13636,0.98249
960.62615,0.95442
962.11594,1.10259
963.60573,1.09068
965.09551,1.02632
966.58530,1.21219
968.07509,1.23530
969.56488,1.25841
971.05467,1.30441
972.54446,1.41096
974.03424,1.37492
975.52403,1.38598
977.01382,1.42799
978.50361,1.42629
979.99340,1.42460
981.48319,1.49355
982.97297,1.51273
984.46276,1.64763
985.95255,1.70854
987.44234,1.74323
988.93213,1.77794
990.42192,1.73395
991.91171,1.66442
993.40149,1.63795
994.89128,1.66799
996.38107,1.65500
997.87086,1.57878
999.36065,1.50258
1000.85044,1.62012
1002.34022,1.59910
1003.83001,1.80813
1005.31980,1.99162
1006.80959,1.96189
1008.29938,1.93217
1009.78917,2.00000
1011.27896,1.98039
1012.76874,1.90161
1014.25853,1.69100
1015.74832,1.62031
1017.23811,1.51398
1018.72790,1.40766
1020.21769,1.03297
1021.70747,0.89641
1023.19726,0.81636
1024.68705,0.63812
1026.17684,0.63746
1027.66663,0.59377
1029.15642,0.55009
1030.64620,0.56562
1032.13599,0.48295
1033.62578,0.46083
1035.11557,0.42258
1036.60536,0.45026
1038.09515,0.47795
1039.58494,0.52852
1041.07472,0.54278
1042.56451,0.61087
1044.05430,0.69914
1045.54409,0.72420
1047.03388,0.72707
1048.52367,0.72996
1050.01345,0.88016
1051.50324,0.82993
1052.99303,0.90617
1054.48282,0.95148
1055.97261,1.04254
1057.46240,1.06635
1058.95219,1.09016
1060.44197,1.19740
1061.93176,1.15533
1063.42155,1.16842
1064.91134,1.27569
1066.40113,1.21212
1067.89092,1.26695
1069.38070,1.32180
1070.87049,1.41297
1072.36028,1.33331
1073.85007,1.33303
1075.33986,1.20900
1076.82965,1.14417
1078.31943,1.17957
1079.80922,1.21499
1081.29901,1.25378
1082.78880,1.35716
1084.27859,1.23454
1085.76838,1.12539
1087.25817,1.07140
1088.74795,1.05644
1090.23774,1.05629
1091.72753,1.05615
1093.21732,1.03046
1094.70711,0.94290
1096.19690,1.02890
1097.68668,0.94271
1099.17647,1.06639
1100.66626,1.01722
1102.15605,0.96806
1103.64584,0.76219
1105.13563,0.79578
1106.62542,0.68276
1108.11520,0.71100
1109.60499,0.68409
1111.09478,0.63299
1112.58457,0.62225
1114.07436,0.61152
1115.56415,0.59004
1117.05393,0.58338
1118.54372,0.52426
1120.03351,0.55932
1121.52330,0.51905
1123.01309,0.52454
1124.50288,0.53004
1125.99266,0.50057
1127.48245,0.59085
1128.97224,0.42150
1130.46203,0.48893
1131.95182,0.37744
1133.44161,0.39243
1134.93140,0.37447
1136.42118,0.35652
1137.91097,0.31100
1139.40076,0.25743
1140.89055,0.22942
1142.38034,0.19067
1143.87013,0.25416
1145.35991,0.19795
1146.84970,0.18008
1148.33949,0.16222
1149.82928,0.12352
1151.31907,0.18708
1152.80886,0.15917
1154.29865,0.07477
1155.78843,0.09666
1157.27822,0.09300
1158.76801,0.06513
1160.25780,0.03728
1161.74759,0.08209
1163.23738,0.08654
1164.72716,0.14348
1166.21695,0.10626
1167.70674,0.13497
1169.19653,0.10180
1170.68632,0.10766
1172.17611,0.11354
1173.66589,0.04409
1175.15568,0.13205
1176.64547,0.09490
1178.13526,0.06450
1179.62505,0.08658
1181.11484,0.05754
1182.60463,0.07695
1184.09441,0.09637
1185.58420,0.07275
1187.07399,0.08951
1188.56378,0.09954
1190.05357,0.13112
1191.54336,0.10620
1193.03314,0.09610
1194.52293,0.11156
1196.01272,0.12704
1197.50251,0.10621
1198.99230,0.07059
1200.48209,0.00000
1201.97188,0.01398
1203.46166,0.07909
1204.95145,0.08771
1206.44124,0.15553
1207.93103,0.17360
1209.42082,0.19167
1210.91061,0.27029
1212.40039,0.25475
1213.89018,0.27959
1215.37997,0.31116
1216.86976,0.33736
1218.35955,0.34340
1219.84934,0.32119
1221.33912,0.29900
1222.82891,0.22166
1224.31870,0.31115
1225.80849,0.28092
1227.29828,0.28030
1228.78807,0.38328
1230.27786,0.37461
1231.76764,0.43725
1233.25743,0.40103
1234.74722,0.36481
1236.23701,0.38175
1237.72680,0.38390
1239.21659,0.46947
1240.70637,0.48914
1242.19616,0.52496
1243.68595,0.46124
1245.17574,0.53744
1246.66553,0.52822
1248.15532,0.51902
1249.64511,0.58180
1251.13489,0.66074
1252.62468,0.68857
1254.11447,0.67471
1255.60426,0.70659
1257.09405,0.85822
1258.58384,0.84439
1260.07362,0.84807
1261.56341,0.77843
1263.05320,0.70881
1264.54299,0.69772
1266.03278,0.65570
1267.52257,0.67826
1269.01235,0.67124
1270.50214,0.71939
1271.99193,0.69894
1273.48172,0.60586
1274.97151,0.59686
1276.46130,0.58789
1277.95109,0.57286
1279.44087,0.59418
1280.93066,0.53747
1282.42045,0.57899
1283.91024,0.56805
1285.40003,0.53156
1286.88982,0.57446
1288.37960,0.61064
1289.86939,0.57284
1291.35918,0.53505
1292.84897,0.44885
1294.33876,0.42588
1295.82855,0.45136
1297.31834,0.43246
1298.80812,0.44450
1300.29791,0.47405
1301.78770,0.45653
1303.27749,0.50090
1304.76728,0.50761
1306.25707,0.51433
1307.74685,0.39327
1309.23664,0.46594
1310.72643,0.51440
1312.21622,0.52924
1313.70601,0.51316
1315.19580,0.56704
1316.68558,0.45949
1318.17537,0.54703
1319.66516,0.59422
1321.15495,0.64142
1322.64474,0.50702
1324.13453,0.47756
1325.62432,0.59610
1327.11410,0.64872
1328.60389,0.60450
1330.09368,0.61142
1331.58347,0.65735
1333.07326,0.64411
1334.56305,0.63357
1336.05283,0.65532
1337.54262,0.67709
1339.03241,0.69080
1340.52220,0.59421
1342.01199,0.73036
1343.50178,0.74814
1344.99156,0.87894
1346.48135,0.87656
1347.97114,0.96029
1349.46093,1.02655
1350.95072,1.07802
1352.44051,1.06964
1353.93030,1.06127
1355.42008,1.04685
1356.90987,1.08088
1358.39966,1.17815
1359.88945,1.26736
1361.37924,1.08079
1362.86903,1.06509
1364.35881,0.98752
1365.84860,0.92745
1367.33839,0.73690
1368.82818,0.70241
1370.31797,0.66793
1371.80776,0.64558
1373.29755,0.56942
1374.78733,0.48655
1376.27712,0.46826
1377.76691,0.48497
1379.25670,0.48957
1380.74649,0.45922
1382.23628,0.40734
1383.72606,0.42813
1385.21585,0.44220
1386.70564,0.42669
1388.19543,0.41118
1389.68522,0.46027
1391.17501,0.39636
1392.66479,0.49793
1394.15458,0.48113
1395.64437,0.47914
1397.13416,0.45833
1398.62395,0.46982
1400.11374,0.50553
1401.60353,0.48071
1403.09331,0.48416
1404.58310,0.45063
1406.07289,0.41711
1407.56268,0.48786
1409.05247,0.48866
1410.54226,0.48813
1412.03204,0.43784
1413.52183,0.46693
1415.01162,0.45433
1416.50141,0.43905
1417.99120,0.51526
1419.48099,0.47579
1420.97078,0.47265
1422.46056,0.55832
1423.95035,0.52628
1425.44014,0.49426
1426.92993,0.49520
1428.41972,0.39392
1429.90951,0.39220
1431.39929,0.40797
1432.88908,0.38072
1434.37887,0.43150
1435.86866,0.36390
1437.35845,0.43892
1438.84824,0.49781
1440.33802,0.45312
1441.82781,0.51606
1443.31760,0.58978
1444.80739,0.59692
1446.29718,0.60407
1447.78697,0.72895
1449.27676,0.73411
1450.76654,0.77560
1452.25633,0.86419
1453.74612,0.81557
1455.23591,0.92301
1456.72570,0.83540
1458.21549,0.96171
1459.70527,0.94811
1461.19506,0.97220
1462.68485,1.03531
1464.17464,1.17511
1465.66443,1.22411
1467.15422,1.27313
1468.64401,1.31746
1470.13379,1.26762
1471.62358,1.28910
1473.11337,1.35229
1474.60316,1.32401
1476.09295,1.18274
1477.58274,1.11009
1479.07252,1.01997
1480.56231,0.92851
1482.05210,0.76038
1483.54189,0.80617
1485.03168,0.80084
1486.52147,0.64486
1488.01125,0.57566
1489.50104,0.50647
1490.99083,0.37339
1492.48062,0.33045
1493.97041,0.26331
1495.46020,0.24462
1496.94999,0.19768
1498.43977,0.04717
1499.92956,0.07560
1501.41935,0.08251
1502.90914,0.06387
1504.39893,0.06273
1505.88872,0.05085
1507.37850,0.04704
1508.86829,0.04998
1510.35808,0.02467
1511.84787,0.00610
1513.33766,0.01715
1514.82745,0.02820
1516.31724,0.04599
1517.80702,0.03958
1519.29681,0.01031
1520.78660,0.01468
1522.27639,0.02713
1523.76618,0.02077
1525.25597,0.06150
1526.74575,0.00000
1528.23554,0.01201
1529.72533,0.08591
1531.21512,0.08583
1532.70491,0.01849
1534.19470,0.01575
1535.68448,0.04127
1537.17427,0.03720
1538.66406,0.01162
1540.15385,0.03851
1541.64364,0.06542
1543.13343,0.03450
1544.62322,0.06412
1546.11300,0.03321
1547.60279,0.07497
1549.09258,0.04543
1550.58237,0.07645
1552.07216,0.11151
1553.56195,0.10085
1555.05173,0.13997
1556.54152,0.13067
1558.03131,0.09582
1559.52110,0.08655
1561.01089,0.11899
1562.50068,0.03844
1563.99047,0.07629
1565.48025,0.07513
1566.97004,0.09820
1568.45983,0.08631
1569.94962,0.05290
1571.43941,0.01951
1572.92920,0.08837
1574.41898,0.08728
1575.90877,0.11446
1577.39856,0.05017
1578.88835,0.07468
1580.37814,0.11534
1581.86793,0.12508
1583.35771,0.12676
1584.84750,0.09481
1586.33729,0.12342
1587.82708,0.11705
1589.31687,0.01384
1590.80666,0.09361
1592.29645,0.13436
1593.78623,0.11191
1595.27602,0.20247
1596.76581,0.19617
1598.25560,0.15492
1599.74539,0.10426
1601.23518,0.12221
1602.72496,0.17785
1604.21475,0.18777
1605.70454,0.19769
1607.19433,0.21569
1608.68412,0.21084
1610.17391,0.28268
1611.66370,0.26306
1613.15348,0.25959
1614.64327,0.26958
1616.13306,0.28496
1617.62285,0.23848
1619.11264,0.28079
1620.60243,0.22222
1622.09221,0.27398
1623.58200,0.28001
1625.07179,0.21743
1626.56158,0.21138
1628.05137,0.25511
1629.54116,0.25177
1631.03094,0.21884
1632.52073,0.19803
1634.01052,0.20010
1635.50031,0.21968
1636.99010,0.24061
1638.47989,0.23733
1639.96968,0.22466
1641.45946,0.19316
1642.94925,0.22489
1644.43904,0.28624
1645.92883,0.26016
1647.41862,0.23409
1648.90841,0.29681
1650.39819,0.23579
1651.88798,0.29181
1653.37777,0.25233
1654.86756,0.23305
1656.35735,0.23799
1657.84714,0.29002
1659.33693,0.34610
1660.82671,0.38337
1662.31650,0.36145
1663.80629,0.32070
1665.29608,0.30015
1666.78587,0.33612
1668.27566,0.36671
1669.76544,0.40808
1671.25523,0.38085
1672.74502,0.44107
1674.23481,0.41386
1675.72460,0.37187
1677.21439,0.40388
1678.70417,0.45070
1680.19396,0.37376
1681.68375,0.43944
1683.17354,0.41499
1684.66333,0.41342
1686.15312,0.34999
1687.64291,0.39419
1689.13269,0.32808
1690.62248,0.31177
1692.11227,0.28335
1693.60206,0.30069
1695.09185,0.31401
1696.58164,0.27352
1698.07142,0.27341
1699.56121,0.22487
1701.05100,0.18981
1702.54079,0.18973
1704.03058,0.22329
1705.52037,0.17480
1707.01016,0.15256
1708.49994,0.13033
1709.98973,0.09803
1711.47952,0.06169
1712.96931,0.07111
1714.45910,0.04288
1715.94889,0.12227
1717.43867,0.06581
1718.92846,0.09007
1720.41825,0.00000
1721.90804,0.02378
1723.39783,0.04622
1724.88762,0.03236
1726.37740,0.04944
1727.86719,0.01811
1729.35698,0.00428
1730.84677,0.04696
1732.33656,0.01297
1733.82635,0.03415
1735.31614,0.04997
1736.80592,0.11556
1738.29571,0.08970
1739.78550,0.06518
1741.27529,0.07970
1742.76508,0.04579
1744.25487,0.08454
1745.74465,0.03721
1747.23444,0.02352
1748.72423,0.06230
1750.21402,0.00693
1751.70381,0.00000
1753.19360,0.04116
1754.68339,0.04466
1756.17317,0.06162
1757.66296,0.04496
1759.15275,0.07809
1760.64254,0.06012
1762.13233,0.05829
1763.62212,0.06186
1765.11190,0.05468
1766.60169,0.06097
1768.09148,0.08072
1769.58127,0.06550
1771.07106,0.05567
1772.56085,0.07277
1774.05063,0.11812
1775.54042,0.02358
1777.03021,0.02725
1778.52000,0.00000
