299.16008,0.03047
300.64987,0.20099
302.13966,0.18220
303.62945,0.12947
305.11924,0.07676
306.60902,0.06336
308.09881,0.12141
309.58860,0.06070
311.07839,0.00000
312.56818,0.07417
314.05797,0.07690
315.54776,0.06893
317.03754,0.06096
318.52733,0.08517
320.01712,0.03972
321.50691,0.10949
322.99670,0.17928
324.48649,0.12851
325.97627,0.10991
327.46606,0.11453
328.95585,0.11917
330.44564,0.19348
331.93543,0.08562
333.42522,0.10101
334.91501,0.11641
336.40479,0.03180
337.89458,0.11986
339.38437,0.13023
340.87416,0.14061
342.36395,0.11260
343.85374,0.05066
345.34352,0.07091
346.83331,0.09116
348.32310,0.23110
349.81289,0.20315
351.30268,0.14217
352.79247,0.08120
354.28225,0.16045
355.77204,0.15756
357.26183,0.14485
358.75162,0.13216
360.24141,0.13823
361.73120,0.14610
363.22099,0.19060
364.71077,0.23511
366.20056,0.27160
367.69035,0.22414
369.18014,0.27048
370.66993,0.31682
372.15972,0.19974
373.64950,0.17377
375.13929,0.20587
376.62908,0.23797
378.11887,0.36743
379.60866,0.33079
381.09845,0.32542
382.58824,0.32007
384.07802,0.40492
385.56781,0.58624
387.05760,0.55770
388.54739,0.52917
390.03718,0.63194
391.52697,0.49537
393.01675,0.53565
394.50654,0.57593
395.99633,0.51442
397.48612,0.64582
398.97591,0.57630
400.46570,0.50678
401.95548,0.65073
403.44527,0.73574
404.93506,0.73771
406.42485,0.73969
407.91464,0.61397
409.40443,0.66688
410.89422,0.71266
412.38400,0.76023
413.87379,0.80782
415.36358,0.89114
416.85337,0.88874
418.34316,1.00424
419.83295,1.11975
421.32273,1.26206
422.81252,1.07931
424.30231,1.10198
425.79210,1.12465
427.28189,1.25094
428.77168,1.18433
430.26146,1.19008
431.75125,1.19584
433.24104,1.24001
434.73083,1.02163
436.22062,0.94972
437.71041,0.87783
439.20020,0.66842
440.68998,0.65906
442.17977,0.67294
443.66956,0.68683
445.15935,0.60964
446.64914,0.44494
448.13893,0.38921
449.62871,0.35314
451.11850,0.31708
452.60829,0.19708
454.09808,0.11817
455.58787,0.16610
457.07766,0.21404
458.56745,0.16732
460.05723,0.25458
461.54702,0.19627
463.03681,0.13798
464.52660,0.08417
466.01639,0.00000
467.50618,0.08120
468.99596,0.16242
470.48575,0.09272
471.97554,0.06411
473.46533,0.15518
474.95512,0.12481
476.44491,0.09446
477.93469,0.10876
479.42448,0.18560
480.91427,0.17224
482.40406,0.15890
483.89385,0.22506
485.38364,0.30908
486.87343,0.34490
488.36321,0.38072
489.85300,0.42906
491.34279,0.55422
492.83258,0.56686
494.32237,0.49914
495.81216,0.43143
497.30194,0.44589
498.79173,0.46037
500.28152,0.46592
501.77131,0.47149
503.26110,0.58246
504.75089,0.57019
506.24068,0.51328
507.73046,0.45638
509.22025,0.51738
510.71004,0.47301
512.19983,0.43044
513.68962,0.47808
515.17941,0.52573
516.66919,0.48319
518.15898,0.51033
519.64877,0.45978
521.13856,0.40924
522.62835,0.40069
524.11814,0.49396
525.60792,0.60511
527.09771,0.64839
528.58750,0.69168
530.07729,0.83680
531.56708,0.81761
533.05687,0.78681
534.54666,0.75603
536.03644,0.76188
537.52623,0.77488
539.01602,0.85220
540.50581,0.85272
541.99560,0.85326
543.48539,0.81094
544.97517,0.74720
546.46496,0.77010
547.95475,0.79301
549.44454,0.74716
550.93433,0.69954
552.42412,0.70910
553.91391,0.67222
555.40369,0.63535
556.89348,0.63601
558.38327,0.65275
559.87306,0.71059
561.36285,0.76844
562.85264,0.55123
564.34242,0.55552
565.83221,0.46694
567.32200,0.42393
568.81179,0.38092
570.30158,0.39418
571.79137,0.40568
573.28115,0.35556
574.77094,0.30546
576.26073,0.29913
577.75052,0.20886
579.24031,0.25078
580.73010,0.24002
582.21989,0.22927
583.70967,0.16762
585.19946,0.19530
586.68925,0.20066
588.17904,0.20604
589.66883,0.19624
591.15862,0.25076
592.64840,0.05523
594.13819,0.02761
595.62798,0.00000
597.11777,0.00383
598.60756,0.12678
600.09735,0.13185
601.58714,0.12176
603.07692,0.11167
604.56671,0.13286
606.05650,0.26302
607.54629,0.28601
609.03608,0.30902
610.52587,0.26953
612.01565,0.25505
613.50544,0.24059
614.99523,0.19399
616.48502,0.14739
617.97481,0.16869
619.46460,0.08640
620.95438,0.18453
622.44417,0.17281
623.93396,0.16111
625.42375,0.10924
626.91354,0.20026
628.40333,0.16002
629.89312,0.11979
631.38290,0.12869
632.87269,0.13224
634.36248,0.06436
635.85227,0.08402
637.34206,0.10368
638.83185,0.09478
640.32163,0.19306
641.81142,0.09845
643.30121,0.10209
644.79100,0.10574
646.28079,0.13620
647.77058,0.25419
649.26037,0.22036
650.75015,0.21692
652.23994,0.21348
653.72973,0.14219
655.21952,0.19951
656.70931,0.21754
658.19910,0.17308
659.68888,0.12862
661.17867,0.06810
662.66846,0.05225
664.15825,0.12215
665.64804,0.11971
667.13783,0.11729
668.62761,0.12114
670.11740,0.18036
671.60719,0.15208
673.09698,0.12381
674.58677,0.10805
676.07656,0.17090
677.56635,0.27305
679.05613,0.27609
680.54592,0.27914
682.03571,0.24379
683.52550,0.24418
685.01529,0.29281
686.50508,0.31466
687.99486,0.33652
689.48465,0.18871
690.97444,0.24275
692.46423,0.27715
693.95402,0.21779
695.44381,0.15844
696.93360,0.12679
698.42338,0.16481
699.91317,0.12425
701.40296,0.15605
702.89275,0.18785
704.38254,0.09018
705.87233,0.10504
707.36211,0.08955
708.85190,0.09550
710.34169,0.10147
711.83148,0.16818
713.32127,0.06878
714.81106,0.15874
716.30084,0.12813
717.79063,0.09755
719.28042,0.19289
720.77021,0.12393
722.26000,0.13892
723.74979,0.09677
725.23958,0.05463
726.72936,0.00000
728.21915,0.02186
729.70894,0.12769
731.19873,0.16208
732.68852,0.13664
734.17831,0.11122
735.66809,0.12421
737.15788,0.15150
738.64767,0.03949
740.13746,0.07484
741.62725,0.11021
743.11704,0.11790
744.60683,0.15240
746.09661,0.19227
747.58640,0.21965
749.07619,0.24704
750.56598,0.27801
752.05577,0.28042
753.54556,0.35250
755.03534,0.33975
756.52513,0.32701
758.01492,0.37233
759.50471,0.58556
760.99450,0.60233
762.48429,0.67449
763.97407,0.74665
765.46386,0.74916
766.95365,0.85350
768.44344,0.86676
769.93323,1.00327
771.42302,1.01120
772.91281,1.01913
774.40259,0.95920
775.89238,0.85463
777.38217,0.86618
778.87196,0.86166
780.36175,0.85715
781.85154,0.72226
783.34132,0.72314
784.83111,0.64900
786.32090,0.65615
787.81069,0.66332
789.30048,0.64816
790.79027,0.61695
792.28006,0.66255
793.76984,0.55455
795.25963,0.51355
796.74942,0.47255
798.23921,0.32530
799.72900,0.28879
801.21879,0.40413
802.70857,0.36854
804.19836,0.33297
805.68815,0.26079
807.17794,0.15290
808.66773,0.10575
810.15752,0.12471
811.64730,0.14367
813.13709,0.17158
814.62688,0.21379
816.11667,0.25422
817.60646,0.19107
819.09625,0.23868
820.58604,0.28629
822.07582,0.37143
823.56561,0.46193
825.05540,0.45064
826.54519,0.44383
828.03498,0.43703
829.52477,0.44006
831.01455,0.43239
832.50434,0.57120
833.99413,0.53854
835.48392,0.54430
836.97371,0.55008
838.46350,0.55676
839.95329,0.52236
841.44307,0.53978
842.93286,0.56793
844.42265,0.62914
845.91244,0.69035
847.40223,0.75069
848.89202,0.69851
850.38180,0.84817
851.87159,0.86032
853.36138,0.87248
854.85117,0.97574
856.34096,1.06294
857.83075,1.07692
859.32053,1.22130
860.81032,1.23531
862.30011,1.24932
863.78990,1.31515
865.27969,1.18094
866.76948,1.26286
868.25927,1.30729
869.74905,1.22938
871.23884,1.15148
872.72863,1.18166
874.21842,1.12968
875.70821,1.20811
877.19800,1.11150
878.68778,1.07742
880.17757,1.04336
881.66736,1.13612
883.15715,1.14137
884.64694,1.00553
886.13673,1.02153
887.62651,1.03753
889.11630,1.01068
890.60609,1.03207
892.09588,0.98024
893.58567,1.04810
895.07546,0.99986
896.56525,0.95164
898.05503,0.93737
899.54482,0.98741
901.03461,1.09104
902.52440,1.00714
904.01419,0.96881
905.50398,0.93048
906.99376,0.93771
908.48355,0.95746
909.97334,0.94685
911.46313,0.99520
912.95292,0.96051
914.44271,0.92583
915.93250,1.00458
917.42228,1.00475
918.91207,0.97279
920.40186,0.95691
921.89165,0.95801
923.38144,0.95912
924.87123,0.95221
926.36101,1.05427
927.85080,1.11525
929.34059,1.01549
930.83038,1.01399
932.32017,1.01249
933.80996,0.98065
935.29974,0.91488
936.78953,1.02952
938.27932,0.97628
939.76911,0.98824
941.25890,1.00022
942.74869,1.00059
944.23848,0.84201
945.72826,0.81205
947.21805,0.87141
948.70784,0.87362
950.19763,0.93836
951.68742,1.00311
953.17721,0.87497
954.66699,0.92902
956.15678,0.78662
957.64657,0.84070
959.13636,0.88318
960.62615,0.92568
962.11594,1.13162
963.60573,1.05179
965.09551,1.03627
966.58530,1.16545
968.07509,1.27230
969.56488,1.37917
971.05467,1.33334
972.54446,1.31252
974.03424,1.35781
975.52403,1.37274
977.01382,1.42698
978.50361,1.39549
979.99340,1.36402
981.48319,1.50760
982.97297,1.56725
984.46276,1.68764
985.95255,1.88305
987.44234,1.82038
988.93213,1.75773
990.42192,1.72098
991.91171,1.89323
993.40149,1.77613
994.89128,1.67690
996.38107,1.71165
997.87086,1.72855
999.36065,1.74545
1000.85044,1.86598
1002.34022,1.84719
1003.83001,1.84270
1005.31980,1.92574
1006.80959,1.93646
1008.29938,1.94719
1009.78917,1.99634
1011.27896,1.87581
1012.76874,2.00000
1014.25853,1.71696
1015.74832,1.58753
1017.23811,1.44741
1018.72790,1.30729
1020.21769,1.24757
1021.70747,1.15391
1023.19726,0.90488
1024.68705,0.75231
1026.17684,0.63369
1027.66663,0.61957
1029.15642,0.60546
1030.64620,0.58690
1032.13599,0.48977
1033.62578,0.46766
1035.11557,0.44377
1036.60536,0.46545
1038.09515,0.48714
1039.58494,0.43829
1041.07472,0.59843
1042.56451,0.67106
1044.05430,0.70083
1045.54409,0.64488
1047.03388,0.72827
1048.52367,0.81166
1050.01345,0.82541
1051.50324,0.95706
1052.99303,0.94225
1054.48282,1.03820
1055.97261,1.21275
1057.46240,1.18905
1058.95219,1.16536
1060.44197,1.23277
1061.93176,1.20018
1063.42155,1.23368
1064.91134,1.31364
1066.40113,1.40254
1067.89092,1.52002
1069.38070,1.63753
1070.87049,1.69252
1072.36028,1.65465
1073.85007,1.60429
1075.33986,1.49857
1076.82965,1.39286
1078.31943,1.41666
1079.80922,1.44048
1081.29901,1.30980
1082.78880,1.30773
1084.27859,1.35034
1085.76838,1.18933
1087.25817,1.10871
1088.74795,1.12992
1090.23774,1.11363
1091.72753,1.09735
1093.21732,1.08465
1094.70711,1.06482
1096.19690,1.04501
1097.68668,1.07164
1099.17647,1.05900
1100.66626,0.98027
1102.15605,0.90156
1103.64584,0.85501
1105.13563,0.81741
1106.62542,0.82447
1108.11520,0.83333
1109.60499,0.84756
1111.09478,0.81536
1112.58457,0.77692
1114.07436,0.73849
1115.56415,0.62060
1117.05393,0.60988
1118.54372,0.58489
1120.03351,0.66350
1121.52330,0.59031
1123.01309,0.61625
1124.50288,0.64221
1125.99266,0.57441
1127.48245,0.64416
1128.97224,0.48707
1130.46203,0.49075
1131.95182,0.45694
1133.44161,0.35704
1134.93140,0.37952
1136.42118,0.40200
1137.91097,0.32358
1139.40076,0.40056
1140.89055,0.25072
1142.38034,0.28486
1143.87013,0.22614
1145.35991,0.22636
1146.84970,0.21857
1148.33949,0.21078
1149.82928,0.21462
1151.31907,0.23812
1152.80886,0.19197
1154.29865,0.17620
1155.78843,0.14614
1157.27822,0.14647
1158.76801,0.11823
1160.25780,0.09000
1161.74759,0.15109
1163.23738,0.16397
1164.72716,0.20901
1166.21695,0.17190
1167.70674,0.14730
1169.19653,0.19595
1170.68632,0.16602
1172.17611,0.13610
1173.66589,0.16514
1175.15568,0.13703
1176.64547,0.18574
1178.13526,0.11657
1179.62505,0.12601
1181.11484,0.13903
1182.60463,0.12706
1184.09441,0.11510
1185.58420,0.16030
1187.07399,0.07871
1188.56378,0.02034
1190.05357,0.16204
1191.54336,0.15371
1193.03314,0.15969
1194.52293,0.15585
1196.01272,0.15202
1197.50251,0.13124
1198.99230,0.08010
1200.48209,0.05934
1201.97188,0.09218
1203.46166,0.00000
1204.95145,0.09688
1206.44124,0.16163
1207.93103,0.19245
1209.42082,0.22328
1210.91061,0.16660
1212.40039,0.28140
1213.89018,0.28905
1215.37997,0.31278
1216.86976,0.24186
1218.35955,0.23704
1219.84934,0.25724
1221.33912,0.27745
1222.82891,0.23516
1224.31870,0.23574
1225.80849,0.31851
1227.29828,0.34055
1228.78807,0.27866
1230.27786,0.41861
1231.76764,0.34245
1233.25743,0.36455
1234.74722,0.38665
1236.23701,0.38912
1237.72680,0.40232
1239.21659,0.38159
1240.70637,0.46090
1242.19616,0.48843
1243.68595,0.50346
1245.17574,0.52743
1246.66553,0.55857
1248.15532,0.58971
1249.64511,0.58514
1251.13489,0.56451
1252.62468,0.55640
1254.11447,0.63760
1255.60426,0.74204
1257.09405,0.69109
1258.58384,0.74733
1260.07362,0.66961
1261.56341,0.64728
1263.05320,0.62496
1264.54299,0.58122
1266.03278,0.57678
1267.52257,0.64202
1269.01235,0.63046
1270.50214,0.53497
1271.99193,0.49307
1273.48172,0.52800
1274.97151,0.55846
1276.46130,0.58894
1277.95109,0.60247
1279.44087,0.61600
1280.93066,0.47951
1282.42045,0.49664
1283.91024,0.52272
1285.40003,0.49701
1286.88982,0.53561
1288.37960,0.49027
1289.86939,0.48960
1291.35918,0.48895
1292.84897,0.42400
1294.33876,0.52339
1295.82855,0.47276
1297.31834,0.44178
1298.80812,0.42511
1300.29791,0.42631
1301.78770,0.44717
1303.27749,0.47162
1304.76728,0.44874
1306.25707,0.42588
1307.74685,0.39677
1309.23664,0.50343
1310.72643,0.56366
1312.21622,0.50065
1313.70601,0.48410
1315.19580,0.51222
1316.68558,0.47604
1318.17537,0.46845
1319.66516,0.44570
1321.15495,0.42296
1322.64474,0.38861
1324.13453,0.36857
1325.62432,0.50394
1327.11410,0.63218
1328.60389,0.56931
1330.09368,0.72257
1331.58347,0.65972
1333.07326,0.58796
1334.56305,0.57872
1336.05283,0.61146
1337.54262,0.64422
1339.03241,0.71540
1340.52220,0.73657
1342.01199,0.73811
1343.50178,0.88970
1344.99156,0.86447
1346.48135,0.84818
1347.97114,0.96766
1349.46093,1.09428
1350.95072,1.21021
1352.44051,1.30918
1353.93030,1.40816
1355.42008,1.35979
1356.90987,1.41682
1358.39966,1.56139
1359.88945,1.56307
1361.37924,1.37364
1362.86903,1.46287
1364.35881,1.33420
1365.84860,1.21447
1367.33839,1.01795
1368.82818,1.00095
1370.31797,0.98397
1371.80776,0.79463
1373.29755,0.70354
1374.78733,0.64640
1376.27712,0.54640
1377.76691,0.55895
1379.25670,0.51077
1380.74649,0.53942
1382.23628,0.53949
1383.72606,0.57174
1385.21585,0.58613
1386.70564,0.59517
1388.19543,0.60423
1389.68522,0.54542
1391.17501,0.48127
1392.66479,0.50465
1394.15458,0.48696
1395.64437,0.58182
1397.13416,0.59273
1398.62395,0.53936
1400.11374,0.45920
1401.60353,0.45943
1403.09331,0.40074
1404.58310,0.42421
1406.07289,0.44770
1407.56268,0.46942
1409.05247,0.43756
1410.54226,0.37714
1412.03204,0.45605
1413.52183,0.38851
1415.01162,0.39421
1416.50141,0.45886
1417.99120,0.42351
1419.48099,0.42210
1420.97078,0.40642
1422.46056,0.39789
1423.95035,0.38223
1425.44014,0.36658
1426.92993,0.39202
1428.41972,0.37461
1429.90951,0.31613
1431.39929,0.29160
1432.88908,0.32067
1434.37887,0.28365
1435.86866,0.34668
1437.35845,0.29183
1438.84824,0.36203
1440.33802,0.41795
1441.82781,0.34885
1443.31760,0.39943
1444.80739,0.45717
1446.29718,0.51492
1447.78697,0.52268
1449.27676,0.59117
1450.76654,0.45070
1452.25633,0.63710
1453.74612,0.65383
1455.23591,0.59734
1456.72570,0.66589
1458.21549,0.78090
1459.70527,0.77089
1461.19506,0.81090
1462.68485,0.90451
1464.17464,1.01599
1465.66443,1.03728
1467.15422,1.05859
1468.64401,1.11116
1470.13379,1.05479
1471.62358,1.24314
1473.11337,1.18322
1474.60316,1.04473
1476.09295,1.03842
1477.58274,1.07320
1479.07252,0.98654
1480.56231,0.87846
1482.05210,0.83648
1483.54189,0.77486
1485.03168,0.58465
1486.52147,0.45875
1488.01125,0.47576
1489.50104,0.49278
1490.99083,0.27046
1492.48062,0.32145
1493.97041,0.35994
1495.46020,0.22161
1496.94999,0.22261
1498.43977,0.20577
1499.92956,0.09606
1501.41935,0.10424
1502.90914,0.06243
1504.39893,0.05456
1505.88872,0.01992
1507.37850,0.04244
1508.86829,0.05783
1510.35808,0.00000
1511.84787,0.02473
1513.33766,0.06823
1514.82745,0.11174
1516.31724,0.12400
1517.80702,0.11306
1519.29681,0.05569
1520.78660,0.09657
1522.27639,0.08030
1523.76618,0.01404
1525.25597,0.06388
1526.74575,0.02443
1528.23554,0.09931
1529.72533,0.04738
1531.21512,0.07941
1532.70491,0.01143
1534.19470,0.12565
1535.68448,0.07020
1537.17427,0.00404
1538.66406,0.00756
1540.15385,0.03698
1541.64364,0.06642
1543.13343,0.05211
1544.62322,0.07175
1546.11300,0.06103
1547.60279,0.00568
1549.09258,0.08965
1550.58237,0.05218
1552.07216,0.14154
1553.56195,0.07194
1555.05173,0.13632
1556.54152,0.06317
1558.03131,0.12936
1559.52110,0.03123
1561.01089,0.11531
1562.50068,0.12080
1563.99047,0.09951
1565.48025,0.06573
1566.97004,0.07484
1568.45983,0.00000
1569.94962,0.00158
1571.43941,0.00317
1572.92920,0.04763
1574.41898,0.07782
1575.90877,0.09731
1577.39856,0.07394
1578.88835,0.04523
1580.37814,0.09869
1581.86793,0.07535
1583.35771,0.04310
1584.84750,0.08409
1586.33729,0.06615
1587.82708,0.00000
1589.31687,0.00704
1590.80666,0.04446
1592.29645,0.10512
1593.78623,0.07290
1595.27602,0.14965
1596.76581,0.13711
1598.25560,0.08706
1599.74539,0.17635
1601.23518,0.12276
1602.72496,0.15314
1604.21475,0.14422
1605.70454,0.13532
1607.19433,0.17466
1608.68412,0.22652
1610.17391,0.25695
1611.66370,0.21416
1613.15348,0.18389
1614.64327,0.21435
1616.13306,0.16982
1617.62285,0.15208
1619.11264,0.09685
1620.60243,0.11129
1622.09221,0.07394
1623.58200,0.10091
1625.07179,0.11717
1626.56158,0.18703
1628.05137,0.20511
1629.54116,0.23391
1631.03094,0.17877
1632.52073,0.20760
1634.01052,0.15070
1635.50031,0.11704
1636.99010,0.06731
1638.47989,0.11940
1639.96968,0.14293
1641.45946,0.15754
1642.94925,0.18109
1644.43904,0.14214
1645.92883,0.15768
1647.41862,0.17323
1648.90841,0.20755
1650.39819,0.17758
1651.88798,0.13690
1653.37777,0.14267
1654.86756,0.14489
1656.35735,0.17391
1657.84714,0.13864
1659.33693,0.23377
1660.82671,0.16994
1662.31650,0.19008
1663.80629,0.20308
1665.29608,0.21967
1666.78587,0.19876
1668.27566,0.26539
1669.76544,0.29630
1671.25523,0.33080
1672.74502,0.27421
1674.23481,0.29087
1675.72460,0.32541
1677.21439,0.27422
1678.70417,0.27841
1680.19396,0.32549
1681.68375,0.31363
1683.17354,0.26785
1684.66333,0.25959
1686.15312,0.25134
1687.64291,0.31097
1689.13269,0.26524
1690.62248,0.26417
1692.11227,0.29705
1693.60206,0.26743
1695.09185,0.25211
1696.58164,0.21000
1698.07142,0.19113
1699.56121,0.21157
1701.05100,0.16593
1702.54079,0.19354
1704.03058,0.19437
1705.52037,0.15412
1707.01016,0.13979
1708.49994,0.12547
1709.98973,0.01560
1711.47952,0.05042
1712.96931,0.05847
1714.45910,0.09153
1715.94889,0.15140
1717.43867,0.09160
1718.92846,0.03003
1720.41825,0.02563
1721.90804,0.03196
1723.39783,0.07402
1724.88762,0.00000
1726.37740,0.09441
1727.86719,0.04414
1729.35698,0.02605
1730.84677,0.04368
1732.33656,0.03097
1733.82635,0.03077
1735.31614,0.17169
1736.80592,0.11614
1738.29571,0.05167
1739.78550,0.05331
1741.27529,0.05138
1742.76508,0.05304
1744.25487,0.07615
1745.74465,0.06532
1747.23444,0.07595
1748.72423,0.09730
1750.21402,0.03293
1751.70381,0.07932
1753.19360,0.11857
1754.68339,0.06138
1756.17317,0.03993
1757.66296,0.04885
1759.15275,0.12745
1760.64254,0.08460
1762.13233,0.08284
1763.62212,0.06323
1765.11190,0.03292
1766.60169,0.03120
1768.09148,0.10808
1769.58127,0.13675
1771.07106,0.07433
1772.56085,0.11910
1774.05063,0.11923
1775.54042,0.06756
1777.03021,0.03020
1778.52000,0.00000
