299.16008,0.10357
300.64987,0.03999
302.13966,0.20170
303.62945,0.21828
305.11924,0.23487
306.60902,0.21057
308.09881,0.05740
309.58860,0.06226
311.07839,0.06714
312.56818,0.08213
314.05797,0.00746
315.54776,0.07346
317.03754,0.13948
318.52733,0.19487
320.01712,0.20992
321.50691,0.16558
322.99670,0.12126
324.48649,0.00746
325.97627,0.06799
327.46606,0.11396
328.95585,0.15994
330.44564,0.21827
331.93543,0.15109
333.42522,0.16797
334.91501,0.18487
336.40479,0.14687
337.89458,0.15483
339.38437,0.17009
340.87416,0.18536
342.36395,0.12611
343.85374,0.05792
345.34352,0.06146
346.83331,0.06502
348.32310,0.02489
349.81289,0.08339
351.30268,0.12566
352.79247,0.16794
354.28225,0.22313
355.77204,0.16176
357.26183,0.17551
358.75162,0.18926
360.24141,0.06742
361.73120,0.12043
363.22099,0.10845
364.71077,0.09648
366.20056,0.13048
367.69035,0.12751
369.18014,0.11839
370.66993,0.10928
372.15972,0.05703
373.64950,0.03282
375.13929,0.12052
376.62908,0.20823
378.11887,0.28698
379.60866,0.25368
381.09845,0.31677
382.58824,0.37988
384.07802,0.41050
385.56781,0.40975
387.05760,0.43871
388.54739,0.46769
390.03718,0.44008
391.52697,0.45059
393.01675,0.46672
394.50654,0.48287
395.99633,0.48558
397.48612,0.58245
398.97591,0.53419
400.46570,0.48594
401.95548,0.48534
403.44527,0.47579
404.93506,0.45897
406.42485,0.44216
407.91464,0.41023
409.40443,0.70895
410.89422,0.67817
412.38400,0.73483
413.87379,0.79150
415.36358,0.87284
416.85337,1.11223
418.34316,1.11234
419.83295,1.11247
421.32273,1.19947
422.81252,1.21363
424.30231,1.19531
425.79210,1.17700
427.28189,1.16206
428.77168,1.18861
430.26146,1.13447
431.75125,1.08035
433.24104,1.04978
434.73083,0.96766
436.22062,0.88837
437.71041,0.80908
439.20020,0.76399
440.68998,0.81755
442.17977,0.78594
443.66956,0.75434
445.15935,0.57818
446.64914,0.32021
448.13893,0.33573
449.62871,0.32100
451.11850,0.30628
452.60829,0.28149
454.09808,0.19171
455.58787,0.13557
457.07766,0.07944
458.56745,0.11971
460.05723,0.11628
461.54702,0.10559
463.03681,0.09490
464.52660,0.00746
466.01639,0.09780
467.50618,0.12707
468.99596,0.15636
470.48575,0.11001
471.97554,0.14661
473.46533,0.15296
474.95512,0.13131
476.44491,0.10966
477.93469,0.11718
479.42448,0.20428
480.91427,0.23872
482.40406,0.27317
483.89385,0.36928
485.38364,0.30065
486.87343,0.29816
488.36321,0.29569
489.85300,0.44341
491.34279,0.42527
492.83258,0.51361
494.32237,0.53305
495.81216,0.55249
497.30194,0.57027
498.79173,0.51297
500.28152,0.48483
501.77131,0.45669
503.26110,0.32771
504.75089,0.49798
506.24068,0.42954
507.73046,0.36112
509.22025,0.41711
510.71004,0.30052
512.19983,0.30275
513.68962,0.27416
515.17941,0.24560
516.66919,0.38908
518.15898,0.39809
519.64877,0.44689
521.13856,0.49571
522.62835,0.45320
524.11814,0.29975
525.60792,0.40409
527.09771,0.44736
528.58750,0.49065
530.07729,0.52890
531.56708,0.72968
533.05687,0.73434
534.54666,0.73902
536.03644,0.78405
537.52623,0.70245
539.01602,0.76881
540.50581,0.78250
541.99560,0.79621
543.48539,0.71354
544.97517,0.63874
546.46496,0.64632
547.95475,0.65392
549.44454,0.61614
550.93433,0.63329
552.42412,0.60899
553.91391,0.60431
555.40369,0.59965
556.89348,0.59781
558.38327,0.64193
559.87306,0.60312
561.36285,0.56433
562.85264,0.58496
564.34242,0.51145
565.83221,0.37631
567.32200,0.40594
568.81179,0.43559
570.30158,0.23213
571.79137,0.35034
573.28115,0.29429
574.77094,0.23825
576.26073,0.19175
577.75052,0.18001
579.24031,0.13690
580.73010,0.15825
582.21989,0.17961
583.70967,0.10965
585.19946,0.07780
586.68925,0.06614
588.17904,0.05450
589.66883,0.08321
591.15862,0.08617
592.64840,0.07905
594.13819,0.09996
595.62798,0.12089
597.11777,0.13510
598.60756,0.09441
600.09735,0.18375
601.58714,0.17503
603.07692,0.16632
604.56671,0.16380
606.05650,0.11981
607.54629,0.14757
609.03608,0.17535
610.52587,0.17400
612.01565,0.07963
613.50544,0.07607
614.99523,0.09549
616.48502,0.11493
617.97481,0.16184
619.46460,0.21101
620.95438,0.16044
622.44417,0.14126
623.93396,0.12210
625.42375,0.13770
626.91354,0.20935
628.40333,0.19527
629.89312,0.18121
631.38290,0.16324
632.87269,0.13743
634.36248,0.13070
635.85227,0.09259
637.34206,0.05450
638.83185,0.00746
640.32163,0.02592
641.81142,0.05785
643.30121,0.12285
644.79100,0.18786
646.28079,0.09430
647.77058,0.16439
649.26037,0.19974
650.75015,0.24296
652.23994,0.28619
653.72973,0.20951
655.21952,0.25276
656.70931,0.19404
658.19910,0.16223
659.68888,0.13044
661.17867,0.13004
662.66846,0.09491
664.15825,0.12143
665.64804,0.09137
667.13783,0.06133
668.62761,0.10359
670.11740,0.24225
671.60719,0.25147
673.09698,0.26071
674.58677,0.21224
676.07656,0.18396
677.56635,0.26440
679.05613,0.24287
680.54592,0.22136
682.03571,0.26710
683.52550,0.28933
685.01529,0.36200
686.50508,0.33493
687.99486,0.30788
689.48465,0.21360
690.97444,0.17200
692.46423,0.19206
693.95402,0.23792
695.44381,0.28379
696.93360,0.18845
698.42338,0.14692
699.91317,0.15809
701.40296,0.16423
702.89275,0.17037
704.38254,0.16029
705.87233,0.18383
707.36211,0.17153
708.85190,0.20015
710.34169,0.22878
711.83148,0.14255
713.32127,0.14263
714.81106,0.05867
716.30084,0.09184
717.79063,0.12502
719.28042,0.13861
720.77021,0.13540
722.26000,0.11314
723.74979,0.11949
725.23958,0.12584
726.72936,0.02630
728.21915,0.00746
729.70894,0.08964
731.19873,0.14381
732.68852,0.13524
734.17831,0.12668
735.66809,0.19546
737.15788,0.15891
738.64767,0.19410
740.13746,0.15477
741.62725,0.11545
743.11704,0.13611
744.60683,0.19041
746.09661,0.19877
747.58640,0.19201
749.07619,0.18527
750.56598,0.23850
752.05577,0.28838
753.54556,0.36854
755.03534,0.34728
756.52513,0.32603
758.01492,0.43201
759.50471,0.45955
760.99450,0.50279
762.48429,0.59424
763.97407,0.68570
765.46386,0.77381
766.95365,0.85858
768.44344,0.88395
769.93323,0.87460
771.42302,0.88767
772.91281,0.90076
774.40259,0.82084
775.89238,0.83060
777.38217,0.68233
778.87196,0.71117
780.36175,0.74002
781.85154,0.67922
783.34132,0.60610
784.83111,0.52067
786.32090,0.55294
787.81069,0.58522
789.30048,0.60182
790.79027,0.54671
792.28006,0.55213
793.76984,0.53739
795.25963,0.45430
796.74942,0.37122
798.23921,0.33859
799.72900,0.37883
801.21879,0.27113
802.70857,0.24415
804.19836,0.21718
805.68815,0.18014
807.17794,0.03327
808.66773,0.00746
810.15752,0.08238
811.64730,0.15732
813.13709,0.20257
814.62688,0.19628
816.11667,0.26509
817.60646,0.22408
819.09625,0.22511
820.58604,0.22616
822.07582,0.32753
823.56561,0.35943
825.05540,0.38685
826.54519,0.35993
828.03498,0.33303
829.52477,0.49051
831.01455,0.44290
832.50434,0.42556
833.99413,0.50239
835.48392,0.52094
836.97371,0.53951
838.46350,0.57939
839.95329,0.53971
841.44307,0.44848
842.93286,0.49737
844.42265,0.53842
845.91244,0.57949
847.40223,0.72481
848.89202,0.73676
850.38180,0.69829
851.87159,0.71868
853.36138,0.73909
854.85117,0.89007
856.34096,1.05789
857.83075,1.22235
859.32053,1.17388
860.81032,1.16017
862.30011,1.14647
863.78990,1.14175
865.27969,1.04738
866.76948,0.98777
868.25927,0.92369
869.74905,0.94817
871.23884,0.97266
872.72863,0.97923
874.21842,0.92417
875.70821,0.81308
877.19800,0.77599
878.68778,0.82072
880.17757,0.86546
881.66736,0.78358
883.15715,0.78576
884.64694,0.71286
886.13673,0.70387
887.62651,0.69489
889.11630,0.76325
890.60609,0.79689
892.09588,0.73303
893.58567,0.72970
895.07546,0.75161
896.56525,0.77353
898.05503,0.74223
899.54482,0.78827
901.03461,0.65725
902.52440,0.66185
904.01419,0.63565
905.50398,0.60946
906.99376,0.68023
908.48355,0.71291
909.97334,0.66154
911.46313,0.62140
912.95292,0.64347
914.44271,0.66555
915.93250,0.72184
917.42228,0.81176
918.91207,0.83444
920.40186,0.75964
921.89165,0.75265
923.38144,0.74568
924.87123,0.77178
926.36101,0.81023
927.85080,0.83524
929.34059,0.88156
930.83038,0.85841
932.32017,0.83527
933.80996,0.81662
935.29974,0.81480
936.78953,0.77377
938.27932,0.76862
939.76911,0.77973
941.25890,0.79085
942.74869,0.81264
944.23848,0.81539
945.72826,0.67581
947.21805,0.63263
948.70784,0.66792
950.19763,0.69426
951.68742,0.72061
953.17721,0.78060
954.66699,0.77896
956.15678,0.75940
957.64657,0.80262
959.13636,0.82792
960.62615,0.85323
962.11594,0.85726
963.60573,0.78734
965.09551,0.84519
966.58530,0.92548
968.07509,0.98561
969.56488,1.04575
971.05467,1.02969
972.54446,0.98114
974.03424,1.06486
975.52403,1.04884
977.01382,1.13931
978.50361,1.12332
979.99340,1.10734
981.48319,1.14405
982.97297,1.27380
984.46276,1.26908
985.95255,1.37644
987.44234,1.42217
988.93213,1.46792
990.42192,1.44307
991.91171,1.39583
993.40149,1.34971
994.89128,1.35965
996.38107,1.40883
997.87086,1.40030
999.36065,1.39179
1000.85044,1.43316
1002.34022,1.51602
1003.83001,1.64260
1005.31980,1.78937
1006.80959,1.86666
1008.29938,1.94397
1009.78917,2.00000
1011.27896,1.94396
1012.76874,1.83414
1014.25853,1.74339
1015.74832,1.37021
1017.23811,1.30750
1018.72790,1.24481
1020.21769,0.96694
1021.70747,0.82694
1023.19726,0.72954
1024.68705,0.63777
1026.17684,0.59532
1027.66663,0.58034
1029.15642,0.56537
1030.64620,0.45572
1032.13599,0.38979
1033.62578,0.41241
1035.11557,0.47203
1036.60536,0.49076
1038.09515,0.50950
1039.58494,0.39320
1041.07472,0.49547
1042.56451,0.56413
1044.05430,0.62608
1045.54409,0.67010
1047.03388,0.65082
1048.52367,0.63155
1050.01345,0.67226
1051.50324,0.77911
1052.99303,0.78286
1054.48282,0.76981
1055.97261,0.84195
1057.46240,0.83789
1058.95219,0.83385
1060.44197,0.89707
1061.93176,0.97375
1063.42155,1.07398
1064.91134,1.02629
1066.40113,1.06378
1067.89092,1.08784
1069.38070,1.11192
1070.87049,1.10798
1072.36028,1.08165
1073.85007,1.07438
1075.33986,1.02454
1076.82965,0.90410
1078.31943,0.96861
1079.80922,1.03312
1081.29901,1.08421
1082.78880,1.11737
1084.27859,0.98691
1085.76838,0.93380
1087.25817,0.83924
1088.74795,0.79624
1090.23774,0.84124
1091.72753,0.88626
1093.21732,0.80968
1094.70711,0.80485
1096.19690,0.73502
1097.68668,0.75712
1099.17647,0.77698
1100.66626,0.77556
1102.15605,0.77416
1103.64584,0.69544
1105.13563,0.56181
1106.62542,0.49881
1108.11520,0.55574
1109.60499,0.49725
1111.09478,0.49256
1112.58457,0.48566
1114.07436,0.47876
1115.56415,0.47748
1117.05393,0.45716
1118.54372,0.42565
1120.03351,0.40984
1121.52330,0.45233
1123.01309,0.43879
1124.50288,0.42526
1125.99266,0.41063
1127.48245,0.43972
1128.97224,0.37020
1130.46203,0.35225
1131.95182,0.29284
1133.44161,0.27828
1134.93140,0.22618
1136.42118,0.17410
1137.91097,0.19992
1139.40076,0.17309
1140.89055,0.08126
1142.38034,0.13066
1143.87013,0.13637
1145.35991,0.12640
1146.84970,0.09122
1148.33949,0.05606
1149.82928,0.12795
1151.31907,0.07096
1152.80886,0.12943
1154.29865,0.00746
1155.78843,0.03010
1157.27822,0.01800
1158.76801,0.01993
1160.25780,0.02187
1161.74759,0.01094
1163.23738,0.02355
1164.72716,0.07765
1166.21695,0.02754
1167.70674,0.11417
1169.19653,0.06744
1170.68632,0.06051
1172.17611,0.05359
1173.66589,0.10105
1175.15568,0.04989
1176.64547,0.05703
1178.13526,0.07875
1179.62505,0.00746
1181.11484,0.04729
1182.60463,0.04510
1184.09441,0.04292
1185.58420,0.00657
1187.07399,0.01843
1188.56378,0.01350
1190.05357,0.10720
1191.54336,0.02720
1193.03314,0.04920
1194.52293,0.05049
1196.01272,0.05178
1197.50251,0.07158
1198.99230,0.04209
1200.48209,0.01484
1201.97188,0.03917
1203.46166,0.05342
1204.95145,0.00941
1206.44124,0.08197
1207.93103,0.13157
1209.42082,0.18118
1210.91061,0.19663
1212.40039,0.20648
1213.89018,0.24212
1215.37997,0.17243
1216.86976,0.22603
1218.35955,0.25836
1219.84934,0.21952
1221.33912,0.18070
1222.82891,0.20410
1224.31870,0.19837
1225.80849,0.20947
1227.29828,0.15782
1228.78807,0.20257
1230.27786,0.31570
1231.76764,0.32909
1233.25743,0.31392
1234.74722,0.29876
1236.23701,0.27184
1237.72680,0.34694
1239.21659,0.38057
1240.70637,0.42991
1242.19616,0.46134
1243.68595,0.42777
1245.17574,0.49060
1246.66553,0.44697
1248.15532,0.40335
1249.64511,0.49873
1251.13489,0.50221
1252.62468,0.57744
1254.11447,0.55518
1255.60426,0.65733
1257.09405,0.70682
1258.58384,0.75185
1260.07362,0.62316
1261.56341,0.60433
1263.05320,0.58550
1264.54299,0.58127
1266.03278,0.62188
1267.52257,0.50671
1269.01235,0.53838
1270.50214,0.51963
1271.99193,0.46502
1273.48172,0.43397
1274.97151,0.45673
1276.46130,0.47950
1277.95109,0.53703
1279.44087,0.53741
1280.93066,0.46608
1282.42045,0.41493
1283.91024,0.47028
1285.40003,0.44157
1286.88982,0.46444
1288.37960,0.41335
1289.86939,0.40767
1291.35918,0.40199
1292.84897,0.40474
1294.33876,0.37500
1295.82855,0.34528
1297.31834,0.36936
1298.80812,0.33069
1300.29791,0.30101
1301.78770,0.35988
1303.27749,0.30220
1304.76728,0.32860
1306.25707,0.35500
1307.74685,0.30521
1309.23664,0.33277
1310.72643,0.35586
1312.21622,0.42603
1313.70601,0.48725
1315.19580,0.44089
1316.68558,0.43938
1318.17537,0.48159
1319.66516,0.49971
1321.15495,0.51785
1322.64474,0.48165
1324.13453,0.38269
1325.62432,0.45411
1327.11410,0.58607
1328.60389,0.53983
1330.09368,0.48576
1331.58347,0.44628
1333.07326,0.53345
1334.56305,0.57806
1336.05283,0.56719
1337.54262,0.55634
1339.03241,0.55279
1340.52220,0.56270
1342.01199,0.58272
1343.50178,0.64085
1344.99156,0.72590
1346.48135,0.78966
1347.97114,0.75033
1349.46093,0.82197
1350.95072,0.81965
1352.44051,0.86946
1353.93030,0.91928
1355.42008,0.89795
1356.90987,0.82731
1358.39966,0.92481
1359.88945,0.92145
1361.37924,0.85983
1362.86903,0.80494
1364.35881,0.77024
1365.84860,0.65150
1367.33839,0.53165
1368.82818,0.50315
1370.31797,0.47467
1371.80776,0.47030
1373.29755,0.42560
1374.78733,0.40332
1376.27712,0.40124
1377.76691,0.37002
1379.25670,0.30520
1380.74649,0.30988
1382.23628,0.27086
1383.72606,0.32376
1385.21585,0.35314
1386.70564,0.33266
1388.19543,0.31219
1389.68522,0.37075
1391.17501,0.36992
1392.66479,0.38591
1394.15458,0.37951
1395.64437,0.32380
1397.13416,0.41829
1398.62395,0.40408
1400.11374,0.37756
1401.60353,0.34769
1403.09331,0.33240
1404.58310,0.34738
1406.07289,0.36238
1407.56268,0.37628
1409.05247,0.40251
1410.54226,0.45342
1412.03204,0.40234
1413.52183,0.45104
1415.01162,0.39887
1416.50141,0.38370
1417.99120,0.45261
1419.48099,0.41506
1420.97078,0.39097
1422.46056,0.43862
1423.95035,0.40951
1425.44014,0.38042
1426.92993,0.44268
1428.41972,0.32228
1429.90951,0.28706
1431.39929,0.36169
1432.88908,0.32650
1434.37887,0.34961
1435.86866,0.34247
1437.35845,0.31629
1438.84824,0.44815
1440.33802,0.36708
1441.82781,0.47879
1443.31760,0.56138
1444.80739,0.59355
1446.29718,0.62573
1447.78697,0.59853
1449.27676,0.69014
1450.76654,0.75262
1452.25633,0.69856
1453.74612,0.78237
1455.23591,0.79221
1456.72570,0.82337
1458.21549,0.85342
1459.70527,0.91823
1461.19506,0.84295
1462.68485,0.95374
1464.17464,1.01299
1465.66443,1.04647
1467.15422,1.07996
1468.64401,1.08993
1470.13379,1.12570
1471.62358,1.10431
1473.11337,1.15692
1474.60316,1.05150
1476.09295,0.94834
1477.58274,0.85753
1479.07252,0.81492
1480.56231,0.74879
1482.05210,0.65689
1483.54189,0.65019
1485.03168,0.57738
1486.52147,0.44069
1488.01125,0.38864
1489.50104,0.33660
1490.99083,0.31539
1492.48062,0.20678
1493.97041,0.22932
1495.46020,0.21936
1496.94999,0.16011
1498.43977,0.12104
1499.92956,0.05284
1501.41935,0.08777
1502.90914,0.05659
1504.39893,0.04560
1505.88872,0.03350
1507.37850,0.05616
1508.86829,0.07434
1510.35808,0.07237
1511.84787,0.06145
1513.33766,0.04381
1514.82745,0.02619
1516.31724,0.00746
1517.80702,0.07462
1519.29681,0.00729
1520.78660,0.00897
1522.27639,0.05438
1523.76618,0.07851
1525.25597,0.06342
1526.74575,0.06852
1528.23554,0.01984
1529.72533,0.04402
1531.21512,0.06261
1532.70491,0.03302
1534.19470,0.02811
1535.68448,0.06131
1537.17427,0.06539
1538.66406,0.07060
1540.15385,0.06517
1541.64364,0.05976
1543.13343,0.08295
1544.62322,0.01312
1546.11300,0.05987
1547.60279,0.07413
1549.09258,0.13323
1550.58237,0.09596
1552.07216,0.12708
1553.56195,0.16156
1555.05173,0.10977
1556.54152,0.10393
1558.03131,0.12950
1559.52110,0.15395
1561.01089,0.14032
1562.50068,0.10540
1563.99047,0.09291
1565.48025,0.10397
1566.97004,0.02763
1568.45983,0.06673
1569.94962,0.08736
1571.43941,0.10801
1572.92920,0.08215
1574.41898,0.07088
1575.90877,0.15601
1577.39856,0.08200
1578.88835,0.08534
1580.37814,0.11335
1581.86793,0.09094
1583.35771,0.16269
1584.84750,0.13582
1586.33729,0.10673
1587.82708,0.09446
1589.31687,0.14833
1590.80666,0.10022
1592.29645,0.16869
1593.78623,0.19795
1595.27602,0.18126
1596.76581,0.17692
1598.25560,0.15242
1599.74539,0.15371
1601.23518,0.16510
1602.72496,0.19108
1604.21475,0.22211
1605.70454,0.25316
1607.19433,0.23434
1608.68412,0.22675
1610.17391,0.26064
1611.66370,0.22841
1613.15348,0.28138
1614.64327,0.21556
1616.13306,0.25399
1617.62285,0.26665
1619.11264,0.29054
1620.60243,0.28530
1622.09221,0.23748
1623.58200,0.21097
1625.07179,0.25396
1626.56158,0.25438
1628.05137,0.22455
1629.54116,0.21378
1631.03094,0.22545
1632.52073,0.20687
1634.01052,0.16028
1635.50031,0.21458
1636.99010,0.21397
1638.47989,0.19992
1639.96968,0.21279
1641.45946,0.22680
1642.94925,0.17917
1644.43904,0.23691
1645.92883,0.22518
1647.41862,0.21346
1648.90841,0.27236
1650.39819,0.21696
1651.88798,0.25123
1653.37777,0.27095
1654.86756,0.22007
1656.35735,0.26111
1657.84714,0.27302
1659.33693,0.37349
1660.82671,0.37310
1662.31650,0.37945
1663.80629,0.34435
1665.29608,0.38771
1666.78587,0.38513
1668.27566,0.33102
1669.76544,0.42261
1671.25523,0.42680
1672.74502,0.43549
1674.23481,0.48790
1675.72460,0.38790
1677.21439,0.37534
1678.70417,0.43564
1680.19396,0.39956
1681.68375,0.39712
1683.17354,0.37901
1684.66333,0.39341
1686.15312,0.41567
1687.64291,0.41889
1689.13269,0.41428
1690.62248,0.33459
1692.11227,0.30983
1693.60206,0.32320
1695.09185,0.31416
1696.58164,0.22668
1698.07142,0.28603
1699.56121,0.24565
1701.05100,0.25348
1702.54079,0.21761
1704.03058,0.21538
1705.52037,0.13358
1707.01016,0.14259
1708.49994,0.15160
1709.98973,0.10348
1711.47952,0.04639
1712.96931,0.10589
1714.45910,0.09703
1715.94889,0.06576
1717.43867,0.08607
1718.92846,0.03466
1720.41825,0.07853
1721.90804,0.03051
1723.39783,0.03743
1724.88762,0.02866
1726.37740,0.02664
1727.86719,0.05376
1729.35698,0.01702
1730.84677,0.02848
1732.33656,0.00746
1733.82635,0.04146
1735.31614,0.04633
1736.80592,0.08484
1738.29571,0.03370
1739.78550,0.06439
1741.27529,0.05474
1742.76508,0.01821
1744.25487,0.04670
1745.74465,0.03486
1747.23444,0.04880
1748.72423,0.00000
1750.21402,0.00277
1751.70381,0.02348
1753.19360,0.02852
1754.68339,0.04365
1756.17317,0.09018
1757.66296,0.06276
1759.15275,0.08242
1760.64254,0.04605
1762.13233,0.00746
1763.62212,0.02808
1765.11190,0.04198
1766.60169,0.04917
1768.09148,0.02724
1769.58127,0.10507
1771.07106,0.07532
1772.56085,0.04222
1774.05063,0.05060
1775.54042,0.07020
1777.03021,0.02369
1778.52000,0.00746
