299.16008,0.00000
300.64987,0.06557
302.13966,0.28563
303.62945,0.25139
305.11924,0.21717
306.60902,0.06805
308.09881,0.17514
309.58860,0.12024
311.07839,0.06536
312.56818,0.06700
314.05797,0.10069
315.54776,0.09954
317.03754,0.09841
318.52733,0.17735
320.01712,0.27515
321.50691,0.18458
322.99670,0.09402
324.48649,0.18859
325.97627,0.24172
327.46606,0.23930
328.95585,0.23689
330.44564,0.28819
331.93543,0.26792
333.42522,0.25331
334.91501,0.23872
336.40479,0.22603
337.89458,0.24726
339.38437,0.25721
340.87416,0.26717
342.36395,0.21686
343.85374,0.12136
345.34352,0.12289
346.83331,0.12444
348.32310,0.27408
349.81289,0.17318
351.30268,0.20134
352.79247,0.22952
354.28225,0.29445
355.77204,0.31606
357.26183,0.25763
358.75162,0.19921
360.24141,0.24159
361.73120,0.25950
363.22099,0.30380
364.71077,0.34811
366.20056,0.20029
367.69035,0.30115
369.18014,0.23719
370.66993,0.17324
372.15972,0.17242
373.64950,0.21494
375.13929,0.31211
376.62908,0.40929
378.11887,0.40853
379.60866,0.43416
381.09845,0.44850
382.58824,0.46286
384.07802,0.50361
385.56781,0.61030
387.05760,0.61717
388.54739,0.62405
390.03718,0.66486
391.52697,0.76785
393.01675,0.72862
394.50654,0.68941
395.99633,0.75665
397.48612,0.88796
398.97591,0.83938
400.46570,0.79081
401.95548,0.79407
403.44527,0.67489
404.93506,0.71773
406.42485,0.76059
407.91464,0.79028
409.40443,0.90099
410.89422,0.92883
412.38400,0.95385
413.87379,0.97889
415.36358,1.18574
416.85337,1.24378
418.34316,1.32726
419.83295,1.41076
421.32273,1.45189
422.81252,1.42334
424.30231,1.50312
425.79210,1.58291
427.28189,1.53368
428.77168,1.52591
430.26146,1.37027
431.75125,1.21465
433.24104,1.28228
434.73083,1.24255
436.22062,1.16232
437.71041,1.08212
439.20020,0.89361
440.68998,0.86712
442.17977,0.84065
443.66956,0.81420
445.15935,0.66154
446.64914,0.47688
448.13893,0.59552
449.62871,0.54935
451.11850,0.50319
452.60829,0.36003
454.09808,0.25079
455.58787,0.21504
457.07766,0.17930
458.56745,0.26415
460.05723,0.13048
461.54702,0.08443
463.03681,0.03840
464.52660,0.17040
466.01639,0.16113
467.50618,0.16129
468.99596,0.16147
470.48575,0.21253
471.97554,0.16564
473.46533,0.14515
474.95512,0.08605
476.44491,0.02697
477.93469,0.13941
479.42448,0.27824
480.91427,0.33138
482.40406,0.38453
483.89385,0.43110
485.38364,0.18193
486.87343,0.26715
488.36321,0.35239
489.85300,0.37265
491.34279,0.39669
492.83258,0.51117
494.32237,0.52206
495.81216,0.53297
497.30194,0.50621
498.79173,0.53410
500.28152,0.49136
501.77131,0.44863
503.26110,0.49917
504.75089,0.48756
506.24068,0.52589
507.73046,0.56423
509.22025,0.42834
510.71004,0.37158
512.19983,0.39960
513.68962,0.40598
515.17941,0.41238
516.66919,0.45552
518.15898,0.65880
519.64877,0.57199
521.13856,0.48520
522.62835,0.48885
524.11814,0.41527
525.60792,0.48111
527.09771,0.55450
528.58750,0.62791
530.07729,0.65047
531.56708,0.87838
533.05687,0.89250
534.54666,0.90663
536.03644,0.96316
537.52623,0.95189
539.01602,0.88035
540.50581,0.88983
541.99560,0.89933
543.48539,0.90507
544.97517,0.80534
546.46496,0.81394
547.95475,0.82256
549.44454,0.85097
550.93433,0.83607
552.42412,0.84756
553.91391,0.84964
555.40369,0.85174
556.89348,0.83690
558.38327,0.73919
559.87306,0.72062
561.36285,0.70206
562.85264,0.74945
564.34242,0.59340
565.83221,0.56923
567.32200,0.53472
568.81179,0.50023
570.30158,0.49118
571.79137,0.52547
573.28115,0.47219
574.77094,0.41892
576.26073,0.34588
577.75052,0.30300
579.24031,0.33737
580.73010,0.29829
582.21989,0.25922
583.70967,0.09207
585.19946,0.07188
586.68925,0.07807
588.17904,0.08427
589.66883,0.21483
591.15862,0.12499
592.64840,0.14443
594.13819,0.13657
595.62798,0.12873
597.11777,0.14068
598.60756,0.03396
600.09735,0.19100
601.58714,0.17945
603.07692,0.16791
604.56671,0.26094
606.05650,0.12605
607.54629,0.14093
609.03608,0.15584
610.52587,0.16792
612.01565,0.20452
613.50544,0.00000
614.99523,0.09749
616.48502,0.19499
617.97481,0.15594
619.46460,0.22993
620.95438,0.22481
622.44417,0.21877
623.93396,0.21274
625.42375,0.09652
626.91354,0.13856
628.40333,0.15142
629.89312,0.16429
631.38290,0.11219
632.87269,0.18443
634.36248,0.15873
635.85227,0.07936
637.34206,0.00000
638.83185,0.03214
640.32163,0.05675
641.81142,0.12283
643.30121,0.10980
644.79100,0.09678
646.28079,0.14595
647.77058,0.10471
649.26037,0.21042
650.75015,0.23609
652.23994,0.26177
653.72973,0.20552
655.21952,0.12103
656.70931,0.12320
658.19910,0.12540
659.68888,0.12761
661.17867,0.08274
662.66846,0.06991
664.15825,0.02696
665.64804,0.06879
667.13783,0.11063
668.62761,0.10163
670.11740,0.11902
671.60719,0.13925
673.09698,0.15950
674.58677,0.16940
676.07656,0.27539
677.56635,0.27025
679.05613,0.26324
680.54592,0.25624
682.03571,0.25115
683.52550,0.24607
685.01529,0.33331
686.50508,0.31414
687.99486,0.29498
689.48465,0.21084
690.97444,0.05513
692.46423,0.19520
693.95402,0.19494
695.44381,0.19469
696.93360,0.20859
698.42338,0.06050
699.91317,0.08950
701.40296,0.07424
702.89275,0.05900
704.38254,0.12384
705.87233,0.07378
707.36211,0.02186
708.85190,0.05942
710.34169,0.09701
711.83148,0.19772
713.32127,0.02152
714.81106,0.00546
716.30084,0.06100
717.79063,0.11656
719.28042,0.12881
720.77021,0.05253
722.26000,0.14958
723.74979,0.14209
725.23958,0.13461
726.72936,0.00000
728.21915,0.02507
729.70894,0.01814
731.19873,0.10353
732.68852,0.12017
734.17831,0.13683
735.66809,0.08851
737.15788,0.05905
738.64767,0.05221
740.13746,0.05856
741.62725,0.06494
743.11704,0.05814
744.60683,0.05701
746.09661,0.08039
747.58640,0.09719
749.07619,0.11400
750.56598,0.25045
752.05577,0.14956
753.54556,0.29546
755.03534,0.28878
756.52513,0.28212
758.01492,0.33200
759.50471,0.40261
760.99450,0.54670
762.48429,0.63712
763.97407,0.72756
765.46386,0.74360
766.95365,0.95745
768.44344,0.76065
769.93323,0.93498
771.42302,0.94543
772.91281,0.95589
774.40259,0.86088
775.89238,0.80356
777.38217,0.86305
778.87196,0.82460
780.36175,0.78617
781.85154,0.86454
783.34132,0.71688
784.83111,0.66153
786.32090,0.66366
787.81069,0.66580
789.30048,0.58601
790.79027,0.58159
792.28006,0.63559
793.76984,0.61613
795.25963,0.59292
796.74942,0.56972
798.23921,0.33932
799.72900,0.29543
801.21879,0.16114
802.70857,0.19546
804.19836,0.22980
805.68815,0.06729
807.17794,0.06493
808.66773,0.06069
810.15752,0.10263
811.64730,0.14458
813.13709,0.14227
814.62688,0.16447
816.11667,0.10380
817.60646,0.20703
819.09625,0.17653
820.58604,0.14605
822.07582,0.30208
823.56561,0.28858
825.05540,0.37305
826.54519,0.36994
828.03498,0.36685
829.52477,0.39486
831.01455,0.42099
832.50434,0.35672
833.99413,0.40926
835.48392,0.46276
836.97371,0.51628
838.46350,0.44265
839.95329,0.46888
841.44307,0.43673
842.93286,0.45357
844.42265,0.55991
845.91244,0.66626
847.40223,0.73212
848.89202,0.72831
850.38180,0.67741
851.87159,0.80078
853.36138,0.92416
854.85117,0.90157
856.34096,1.21431
857.83075,1.12392
859.32053,1.22005
860.81032,1.20506
862.30011,1.19007
863.78990,1.32016
865.27969,1.12059
866.76948,1.11508
868.25927,1.04176
869.74905,1.04192
871.23884,1.04210
872.72863,1.12895
874.21842,1.07265
875.70821,0.99940
877.19800,0.87343
878.68778,0.91890
880.17757,0.96438
881.66736,0.87425
883.15715,0.92918
884.64694,0.88241
886.13673,0.89781
887.62651,0.91323
889.11630,1.00213
890.60609,1.00440
892.09588,0.97654
893.58567,0.84508
895.07546,0.85398
896.56525,0.86290
898.05503,0.88597
899.54482,0.80355
901.03461,0.82099
902.52440,0.85540
904.01419,0.90113
905.50398,0.94688
906.99376,0.91164
908.48355,0.90090
909.97334,0.98625
911.46313,0.90773
912.95292,0.82545
914.44271,0.74319
915.93250,0.79658
917.42228,0.96113
918.91207,1.09178
920.40186,0.93800
921.89165,0.97732
923.38144,1.01666
924.87123,0.87611
926.36101,0.96540
927.85080,1.14136
929.34059,1.02534
930.83038,1.04026
932.32017,1.05520
933.80996,1.04096
935.29974,0.92124
936.78953,0.85428
938.27932,0.96818
939.76911,0.97378
941.25890,0.97939
942.74869,1.02552
944.23848,1.00574
945.72826,0.95017
947.21805,0.83057
948.70784,0.88430
950.19763,0.95312
951.68742,1.02194
953.17721,1.00037
954.66699,0.99576
956.15678,1.02130
957.64657,1.07701
959.13636,1.11107
960.62615,1.14514
962.11594,1.28942
963.60573,1.13985
965.09551,1.13724
966.58530,1.27404
968.07509,1.39955
969.56488,1.52508
971.05467,1.48862
972.54446,1.40319
974.03424,1.47036
975.52403,1.45467
977.01382,1.62172
978.50361,1.55896
979.99340,1.49621
981.48319,1.53332
982.97297,1.58741
984.46276,1.74135
985.95255,1.86704
987.44234,1.87313
988.93213,1.87924
990.42192,1.69792
991.91171,1.70500
993.40149,1.74035
994.89128,1.67400
996.38107,1.69807
997.87086,1.68167
999.36065,1.66528
1000.85044,1.76099
1002.34022,1.72861
1003.83001,1.90913
1005.31980,1.79013
1006.80959,1.80961
1008.29938,1.82910
1009.78917,1.96823
1011.27896,2.00000
1012.76874,1.87166
1014.25853,1.57756
1015.74832,1.63387
1017.23811,1.47166
1018.72790,1.30948
1020.21769,1.06254
1021.70747,0.93617
1023.19726,0.87199
1024.68705,0.61567
1026.17684,0.55341
1027.66663,0.55709
1029.15642,0.56078
1030.64620,0.53812
1032.13599,0.45708
1033.62578,0.38170
1035.11557,0.45893
1036.60536,0.44669
1038.09515,0.43447
1039.58494,0.50797
1041.07472,0.50991
1042.56451,0.54765
1044.05430,0.66830
1045.54409,0.57986
1047.03388,0.65156
1048.52367,0.72327
1050.01345,0.82891
1051.50324,0.75749
1052.99303,1.04212
1054.48282,1.01028
1055.97261,0.89369
1057.46240,1.01165
1058.95219,1.12963
1060.44197,1.24856
1061.93176,1.22622
1063.42155,1.19448
1064.91134,1.23999
1066.40113,1.29117
1067.89092,1.31599
1069.38070,1.34082
1070.87049,1.38828
1072.36028,1.40561
1073.85007,1.28732
1075.33986,1.36496
1076.82965,1.16193
1078.31943,1.19911
1079.80922,1.23629
1081.29901,1.37805
1082.78880,1.35781
1084.27859,1.16993
1085.76838,1.17232
1087.25817,1.07490
1088.74795,1.07733
1090.23774,1.07977
1091.72753,1.08223
1093.21732,1.02066
1094.70711,0.97417
1096.19690,0.98609
1097.68668,0.96412
1099.17647,0.85363
1100.66626,0.88915
1102.15605,0.92469
1103.64584,0.80294
1105.13563,0.73772
1106.62542,0.61600
1108.11520,0.65819
1109.60499,0.69286
1111.09478,0.71813
1112.58457,0.65675
1114.07436,0.59539
1115.56415,0.65650
1117.05393,0.52735
1118.54372,0.56588
1120.03351,0.43865
1121.52330,0.55068
1123.01309,0.55064
1124.50288,0.55061
1125.99266,0.54212
1127.48245,0.53930
1128.97224,0.47056
1130.46203,0.39430
1131.95182,0.38964
1133.44161,0.39065
1134.93140,0.37755
1136.42118,0.36446
1137.91097,0.23364
1139.40076,0.21211
1140.89055,0.24898
1142.38034,0.20299
1143.87013,0.23801
1145.35991,0.19016
1146.84970,0.17906
1148.33949,0.16798
1149.82928,0.20683
1151.31907,0.24570
1152.80886,0.18286
1154.29865,0.05033
1155.78843,0.08360
1157.27822,0.03210
1158.76801,0.06257
1160.25780,0.09306
1161.74759,0.09059
1163.23738,0.12204
1164.72716,0.16482
1166.21695,0.16993
1167.70674,0.08276
1169.19653,0.11051
1170.68632,0.10342
1172.17611,0.09635
1173.66589,0.20892
1175.15568,0.20282
1176.64547,0.07241
1178.13526,0.07200
1179.62505,0.09232
1181.11484,0.12208
1182.60463,0.11700
1184.09441,0.11194
1185.58420,0.11160
1187.07399,0.26387
1188.56378,0.09967
1190.05357,0.06736
1191.54336,0.14432
1193.03314,0.15913
1194.52293,0.14475
1196.01272,0.13040
1197.50251,0.13395
1198.99230,0.00000
1200.48209,0.04579
1201.97188,0.10290
1203.46166,0.07902
1204.95145,0.07211
1206.44124,0.15187
1207.93103,0.17702
1209.42082,0.20218
1210.91061,0.25561
1212.40039,0.28080
1213.89018,0.23819
1215.37997,0.33689
1216.86976,0.22461
1218.35955,0.23291
1219.84934,0.23651
1221.33912,0.24013
1222.82891,0.22776
1224.31870,0.22858
1225.80849,0.26145
1227.29828,0.25289
1228.78807,0.28767
1230.27786,0.35072
1231.76764,0.28757
1233.25743,0.30450
1234.74722,0.32145
1236.23701,0.32805
1237.72680,0.42697
1239.21659,0.39969
1240.70637,0.47793
1242.19616,0.53545
1243.68595,0.44982
1245.17574,0.50549
1246.66553,0.48677
1248.15532,0.46806
1249.64511,0.62739
1251.13489,0.61154
1252.62468,0.62396
1254.11447,0.60626
1255.60426,0.71855
1257.09405,0.77435
1258.58384,0.66626
1260.07362,0.73339
1261.56341,0.71294
1263.05320,0.69250
1264.54299,0.60897
1266.03278,0.58009
1267.52257,0.58136
1269.01235,0.59584
1270.50214,0.57642
1271.99193,0.58150
1273.48172,0.50183
1274.97151,0.48435
1276.46130,0.46687
1277.95109,0.56621
1279.44087,0.59963
1280.93066,0.51816
1282.42045,0.52523
1283.91024,0.47016
1285.40003,0.49799
1286.88982,0.54468
1288.37960,0.47835
1289.86939,0.47891
1291.35918,0.47949
1292.84897,0.47725
1294.33876,0.35070
1295.82855,0.38241
1297.31834,0.31429
1298.80812,0.37993
1300.29791,0.35141
1301.78770,0.35680
1303.27749,0.39235
1304.76728,0.38647
1306.25707,0.38061
1307.74685,0.44258
1309.23664,0.44617
1310.72643,0.44035
1312.21622,0.41195
1313.70601,0.51542
1315.19580,0.44184
1316.68558,0.45115
1318.17537,0.48309
1319.66516,0.49997
1321.15495,0.51687
1322.64474,0.46597
1324.13453,0.44898
1325.62432,0.45274
1327.11410,0.56766
1328.60389,0.50928
1330.09368,0.53946
1331.58347,0.56023
1333.07326,0.59044
1334.56305,0.59240
1336.05283,0.52845
1337.54262,0.46452
1339.03241,0.51551
1340.52220,0.53449
1342.01199,0.54972
1343.50178,0.70248
1344.99156,0.76107
1346.48135,0.74055
1347.97114,0.80859
1349.46093,0.84839
1350.95072,0.79212
1352.44051,0.86303
1353.93030,0.93396
1355.42008,0.88339
1356.90987,0.85733
1358.39966,1.06676
1359.88945,1.00683
1361.37924,0.97893
1362.86903,0.78527
1364.35881,0.70466
1365.84860,0.74462
1367.33839,0.64143
1368.82818,0.65317
1370.31797,0.66493
1371.80776,0.65597
1373.29755,0.53401
1374.78733,0.43278
1376.27712,0.46720
1377.76691,0.42629
1379.25670,0.39481
1380.74649,0.31625
1382.23628,0.35073
1383.72606,0.39842
1385.21585,0.33874
1386.70564,0.34125
1388.19543,0.34377
1389.68522,0.38963
1391.17501,0.44493
1392.66479,0.37968
1394.15458,0.38414
1395.64437,0.35848
1397.13416,0.45905
1398.62395,0.50124
1400.11374,0.43607
1401.60353,0.41047
1403.09331,0.33402
1404.58310,0.33389
1406.07289,0.33377
1407.56268,0.37040
1409.05247,0.39762
1410.54226,0.35328
1412.03204,0.37677
1413.52183,0.44737
1415.01162,0.39365
1416.50141,0.40023
1417.99120,0.42378
1419.48099,0.40779
1420.97078,0.42760
1422.46056,0.33063
1423.95035,0.40134
1425.44014,0.47206
1426.92993,0.41470
1428.41972,0.42141
1429.90951,0.21149
1431.39929,0.34821
1432.88908,0.30221
1434.37887,0.32405
1435.86866,0.30634
1437.35845,0.34139
1438.84824,0.46877
1440.33802,0.41343
1441.82781,0.45041
1443.31760,0.46669
1444.80739,0.49711
1446.29718,0.52755
1447.78697,0.61734
1449.27676,0.66382
1450.76654,0.67452
1452.25633,0.61742
1453.74612,0.70351
1455.23591,0.71991
1456.72570,0.73821
1458.21549,0.78101
1459.70527,0.84832
1461.19506,0.81769
1462.68485,0.86996
1464.17464,1.04469
1465.66443,1.05272
1467.15422,1.06077
1468.64401,1.06789
1470.13379,1.09763
1471.62358,1.12927
1473.11337,1.14020
1474.60316,1.08145
1476.09295,0.98315
1477.58274,1.06572
1479.07252,0.84689
1480.56231,0.82399
1482.05210,0.72576
1483.54189,0.69535
1485.03168,0.64424
1486.52147,0.51968
1488.01125,0.45636
1489.50104,0.39305
1490.99083,0.32317
1492.48062,0.28532
1493.97041,0.24938
1495.46020,0.26242
1496.94999,0.15493
1498.43977,0.11714
1499.92956,0.10951
1501.41935,0.11697
1502.90914,0.12068
1504.39893,0.10368
1505.88872,0.06786
1507.37850,0.03958
1508.86829,0.04901
1510.35808,0.06974
1511.84787,0.08861
1513.33766,0.09808
1514.82745,0.10756
1516.31724,0.05677
1517.80702,0.07947
1519.29681,0.05509
1520.78660,0.03638
1522.27639,0.10057
1523.76618,0.09319
1525.25597,0.11973
1526.74575,0.11615
1528.23554,0.06360
1529.72533,0.02426
1531.21512,0.00000
1532.70491,0.02708
1534.19470,0.08997
1535.68448,0.07187
1537.17427,0.13856
1538.66406,0.10919
1540.15385,0.08171
1541.64364,0.05426
1543.13343,0.13796
1544.62322,0.06721
1546.11300,0.10762
1547.60279,0.06892
1549.09258,0.10936
1550.58237,0.12343
1552.07216,0.07348
1553.56195,0.15917
1555.05173,0.15446
1556.54152,0.13281
1558.03131,0.18276
1559.52110,0.18940
1561.01089,0.14330
1562.50068,0.11229
1563.99047,0.12086
1565.48025,0.12756
1566.97004,0.10413
1568.45983,0.11463
1569.94962,0.12326
1571.43941,0.13190
1572.92920,0.09912
1574.41898,0.06635
1575.90877,0.13720
1577.39856,0.09128
1578.88835,0.15463
1580.37814,0.18220
1581.86793,0.09676
1583.35771,0.19407
1584.84750,0.11243
1586.33729,0.17209
1587.82708,0.07353
1589.31687,0.08612
1590.80666,0.11757
1592.29645,0.07557
1593.78623,0.11082
1595.27602,0.18564
1596.76581,0.13992
1598.25560,0.20912
1599.74539,0.20487
1601.23518,0.15731
1602.72496,0.07962
1604.21475,0.14983
1605.70454,0.22005
1607.19433,0.22906
1608.68412,0.21360
1610.17391,0.24525
1611.66370,0.25996
1613.15348,0.26904
1614.64327,0.16322
1616.13306,0.24391
1617.62285,0.20028
1619.11264,0.19058
1620.60243,0.18466
1622.09221,0.14108
1623.58200,0.25011
1625.07179,0.29510
1626.56158,0.14796
1628.05137,0.24572
1629.54116,0.24555
1631.03094,0.22278
1632.52073,0.23771
1634.01052,0.17542
1635.50031,0.15835
1636.99010,0.14695
1638.47989,0.28250
1639.96968,0.19013
1641.45946,0.19008
1642.94925,0.16179
1644.43904,0.27103
1645.92883,0.24276
1647.41862,0.21452
1648.90841,0.24092
1650.39819,0.22400
1651.88798,0.22783
1653.37777,0.24297
1654.86756,0.18089
1656.35735,0.21867
1657.84714,0.21690
1659.33693,0.26979
1660.82671,0.33210
1662.31650,0.24749
1663.80629,0.32868
1665.29608,0.29685
1666.78587,0.22736
1668.27566,0.28221
1669.76544,0.30506
1671.25523,0.36372
1672.74502,0.31313
1674.23481,0.34167
1675.72460,0.38530
1677.21439,0.32345
1678.70417,0.32944
1680.19396,0.31849
1681.68375,0.36406
1683.17354,0.32300
1684.66333,0.25746
1686.15312,0.31815
1687.64291,0.36379
1689.13269,0.42263
1690.62248,0.29687
1692.11227,0.22576
1693.60206,0.24132
1695.09185,0.31529
1696.58164,0.28190
1698.07142,0.21650
1699.56121,0.23212
1701.05100,0.17429
1702.54079,0.21443
1704.03058,0.20561
1705.52037,0.12898
1707.01016,0.11171
1708.49994,0.09446
1709.98973,0.09888
1711.47952,0.10144
1712.96931,0.09083
1714.45910,0.07458
1715.94889,0.05457
1717.43867,0.14950
1718.92846,0.02403
1720.41825,0.07001
1721.90804,0.07267
1723.39783,0.00000
1724.88762,0.07720
1726.37740,0.06399
1727.86719,0.07340
1729.35698,0.10920
1730.84677,0.06966
1732.33656,0.00000
1733.82635,0.02365
1735.31614,0.08688
1736.80592,0.12186
1738.29571,0.12107
1739.78550,0.03364
1741.27529,0.05736
1742.76508,0.09994
1744.25487,0.02198
1745.74465,0.03445
1747.23444,0.04505
1748.72423,0.07074
1750.21402,0.05688
1751.70381,0.02232
1753.19360,0.05748
1754.68339,0.01729
1756.17317,0.07885
1757.66296,0.09710
1759.15275,0.11347
1760.64254,0.12233
1762.13233,0.10483
1763.62212,0.01011
1765.11190,0.07176
1766.60169,0.06561
1768.09148,0.08585
1769.58127,0.12494
1771.07106,0.08116
1772.56085,0.08072
1774.05063,0.07088
1775.54042,0.11191
1777.03021,0.02110
1778.52000,0.00000
