299.16008,0.00069
300.64987,0.07130
302.13966,0.08223
303.62945,0.13863
305.11924,0.19504
306.60902,0.14902
308.09881,0.11115
309.58860,0.13436
311.07839,0.15759
312.56818,0.12926
314.05797,0.08331
315.54776,0.09437
317.03754,0.10544
318.52733,0.31463
320.01712,0.28638
321.50691,0.22694
322.99670,0.16751
324.48649,0.14473
325.97627,0.09889
327.46606,0.20098
328.95585,0.30308
330.44564,0.38213
331.93543,0.37163
333.42522,0.29059
334.91501,0.20957
336.40479,0.20047
337.89458,0.15476
339.38437,0.19649
340.87416,0.23824
342.36395,0.18366
343.85374,0.19288
345.34352,0.15801
346.83331,0.12315
348.32310,0.28573
349.81289,0.30993
351.30268,0.26223
352.79247,0.21454
354.28225,0.22521
355.77204,0.17347
357.26183,0.19232
358.75162,0.21117
360.24141,0.13099
361.73120,0.19558
363.22099,0.21134
364.71077,0.22712
366.20056,0.21848
367.69035,0.22750
369.18014,0.20804
370.66993,0.18859
372.15972,0.13388
373.64950,0.18637
375.13929,0.25517
376.62908,0.32398
378.11887,0.38195
379.60866,0.41686
381.09845,0.43415
382.58824,0.45146
384.07802,0.50813
385.56781,0.60552
387.05760,0.60455
388.54739,0.60360
390.03718,0.58976
391.52697,0.69942
393.01675,0.68494
394.50654,0.67048
395.99633,0.65399
397.48612,0.73386
398.97591,0.62581
400.46570,0.51777
401.95548,0.66689
403.44527,0.72103
404.93506,0.68903
406.42485,0.65703
407.91464,0.63931
409.40443,0.84684
410.89422,0.93905
412.38400,0.93765
413.87379,0.93626
415.36358,1.02309
416.85337,1.30125
418.34316,1.31823
419.83295,1.33522
421.32273,1.39496
422.81252,1.37874
424.30231,1.44733
425.79210,1.51594
427.28189,1.46312
428.77168,1.40217
430.26146,1.35888
431.75125,1.31560
433.24104,1.28320
434.73083,1.15853
436.22062,1.07459
437.71041,0.99066
439.20020,0.86061
440.68998,0.81200
442.17977,0.87398
443.66956,0.93598
445.15935,0.65673
446.64914,0.48604
448.13893,0.42121
449.62871,0.41882
451.11850,0.41644
452.60829,0.29602
454.09808,0.16476
455.58787,0.15021
457.07766,0.13567
458.56745,0.21070
460.05723,0.17177
461.54702,0.11657
463.03681,0.06139
464.52660,0.14326
466.01639,0.15052
467.50618,0.19036
468.99596,0.23022
470.48575,0.10998
471.97554,0.25027
473.46533,0.09885
474.95512,0.06888
476.44491,0.03893
477.93469,0.17526
479.42448,0.23292
480.91427,0.23834
482.40406,0.24378
483.89385,0.42088
485.38364,0.42703
486.87343,0.37348
488.36321,0.31995
489.85300,0.29901
491.34279,0.46668
492.83258,0.47697
494.32237,0.51441
495.81216,0.55187
497.30194,0.55542
498.79173,0.54270
500.28152,0.51100
501.77131,0.47931
503.26110,0.45849
504.75089,0.44040
506.24068,0.47592
507.73046,0.51146
509.22025,0.32244
510.71004,0.34376
512.19983,0.37731
513.68962,0.42715
515.17941,0.47701
516.66919,0.50652
518.15898,0.53741
519.64877,0.49776
521.13856,0.45812
522.62835,0.46463
524.11814,0.46843
525.60792,0.52518
527.09771,0.52020
528.58750,0.51523
530.07729,0.63850
531.56708,0.84321
533.05687,0.86610
534.54666,0.88901
536.03644,0.93093
537.52623,0.81953
539.01602,0.95103
540.50581,0.92515
541.99560,0.89928
543.48539,0.86257
544.97517,0.92493
546.46496,0.85025
547.95475,0.77560
549.44454,0.79458
550.93433,0.77015
552.42412,0.77831
553.91391,0.80412
555.40369,0.82994
556.89348,0.79065
558.38327,0.67674
559.87306,0.66597
561.36285,0.65521
562.85264,0.58613
564.34242,0.66224
565.83221,0.55790
567.32200,0.50718
568.81179,0.45647
570.30158,0.47158
571.79137,0.42158
573.28115,0.41026
574.77094,0.39896
576.26073,0.22280
577.75052,0.28955
579.24031,0.32918
580.73010,0.28197
582.21989,0.23479
583.70967,0.15912
585.19946,0.00069
586.68925,0.06004
588.17904,0.11940
589.66883,0.16657
591.15862,0.12013
592.64840,0.03706
594.13819,0.08495
595.62798,0.13285
597.11777,0.17195
598.60756,0.07266
600.09735,0.11450
601.58714,0.13532
603.07692,0.15616
604.56671,0.14919
606.05650,0.19652
607.54629,0.18009
609.03608,0.16367
610.52587,0.17304
612.01565,0.11323
613.50544,0.07379
614.99523,0.05200
616.48502,0.03022
617.97481,0.14280
619.46460,0.18754
620.95438,0.17667
622.44417,0.13527
623.93396,0.09390
625.42375,0.12513
626.91354,0.18351
628.40333,0.18424
629.89312,0.18499
631.38290,0.16336
632.87269,0.09968
634.36248,0.09707
635.85227,0.07074
637.34206,0.04442
638.83185,0.01472
640.32163,0.04474
641.81142,0.08699
643.30121,0.10075
644.79100,0.11453
646.28079,0.08355
647.77058,0.16249
649.26037,0.21431
650.75015,0.25325
652.23994,0.29220
653.72973,0.14867
655.21952,0.19783
656.70931,0.20087
658.19910,0.19647
659.68888,0.19207
661.17867,0.11103
662.66846,0.09920
664.15825,0.07653
665.64804,0.06474
667.13783,0.05295
668.62761,0.13888
670.11740,0.07963
671.60719,0.10860
673.09698,0.13758
674.58677,0.20457
676.07656,0.21187
677.56635,0.09706
679.05613,0.14714
680.54592,0.19722
682.03571,0.20187
683.52550,0.27302
685.01529,0.35639
686.50508,0.29934
687.99486,0.24230
689.48465,0.23073
690.97444,0.25039
692.46423,0.17237
693.95402,0.23344
695.44381,0.29452
696.93360,0.23283
698.42338,0.16843
699.91317,0.11490
701.40296,0.13398
702.89275,0.15307
704.38254,0.19864
705.87233,0.18995
707.36211,0.17177
708.85190,0.15293
710.34169,0.13410
711.83148,0.13361
713.32127,0.08428
714.81106,0.05532
716.30084,0.10983
717.79063,0.16435
719.28042,0.13000
720.77021,0.00069
722.26000,0.14028
723.74979,0.15776
725.23958,0.17526
726.72936,0.05572
728.21915,0.05018
729.70894,0.15728
731.19873,0.10970
732.68852,0.09335
734.17831,0.07701
735.66809,0.07290
737.15788,0.13394
738.64767,0.07286
740.13746,0.06337
741.62725,0.05388
743.11704,0.13533
744.60683,0.12859
746.09661,0.18836
747.58640,0.13212
749.07619,0.07590
750.56598,0.21034
752.05577,0.30408
753.54556,0.37613
755.03534,0.34982
756.52513,0.32352
758.01492,0.33184
759.50471,0.45551
760.99450,0.55070
762.48429,0.67033
763.97407,0.78997
765.46386,0.81600
766.95365,0.87868
768.44344,0.88167
769.93323,0.91046
771.42302,0.95826
772.91281,1.00607
774.40259,0.91549
775.89238,0.84393
777.38217,0.74931
778.87196,0.81957
780.36175,0.88984
781.85154,0.82648
783.34132,0.65593
784.83111,0.61702
786.32090,0.63986
787.81069,0.66271
789.30048,0.72018
790.79027,0.59856
792.28006,0.59228
793.76984,0.55617
795.25963,0.53567
796.74942,0.51519
798.23921,0.39635
799.72900,0.27617
801.21879,0.30119
802.70857,0.26856
804.19836,0.23594
805.68815,0.14431
807.17794,0.03777
808.66773,0.03572
810.15752,0.05947
811.64730,0.08324
813.13709,0.05953
814.62688,0.20680
816.11667,0.18719
817.60646,0.24901
819.09625,0.21721
820.58604,0.18543
822.07582,0.33142
823.56561,0.31866
825.05540,0.30050
826.54519,0.32780
828.03498,0.35512
829.52477,0.41026
831.01455,0.35823
832.50434,0.36185
833.99413,0.47539
835.48392,0.56112
836.97371,0.64687
838.46350,0.51078
839.95329,0.48462
841.44307,0.37027
842.93286,0.50696
844.42265,0.60093
845.91244,0.69491
847.40223,0.65118
848.89202,0.72415
850.38180,0.74830
851.87159,0.76906
853.36138,0.78984
854.85117,0.97143
856.34096,1.08383
857.83075,1.14604
859.32053,1.27610
860.81032,1.22843
862.30011,1.18077
863.78990,1.26611
865.27969,1.25512
866.76948,1.08945
868.25927,0.98079
869.74905,0.99901
871.23884,1.01725
872.72863,1.01990
874.21842,1.02935
875.70821,0.98453
877.19800,0.90310
878.68778,0.88545
880.17757,0.86782
881.66736,0.95875
883.15715,0.94251
884.64694,0.88693
886.13673,0.93245
887.62651,0.97799
889.11630,1.00929
890.60609,0.96598
892.09588,1.05159
893.58567,0.93910
895.07546,0.91415
896.56525,0.88921
898.05503,0.90704
899.54482,0.93844
901.03461,0.88437
902.52440,0.89274
904.01419,0.89027
905.50398,0.88781
906.99376,0.92064
908.48355,0.87750
909.97334,0.90087
911.46313,0.82926
912.95292,0.79838
914.44271,0.76751
915.93250,0.85743
917.42228,0.96364
918.91207,0.89482
920.40186,0.99563
921.89165,0.97908
923.38144,0.96255
924.87123,1.01591
926.36101,0.91867
927.85080,1.00327
929.34059,1.06482
930.83038,1.04700
932.32017,1.02919
933.80996,1.03922
935.29974,0.91629
936.78953,0.87614
938.27932,0.98526
939.76911,0.94039
941.25890,0.89554
942.74869,0.96129
944.23848,0.97549
945.72826,0.97749
947.21805,0.99850
948.70784,0.89741
950.19763,0.96798
951.68742,1.03856
953.17721,0.93616
954.66699,0.94096
956.15678,1.10996
957.64657,1.01438
959.13636,1.02330
960.62615,1.03223
962.11594,1.14973
963.60573,1.16141
965.09551,1.07404
966.58530,1.28657
968.07509,1.33289
969.56488,1.37922
971.05467,1.35569
972.54446,1.35931
974.03424,1.38601
975.52403,1.44394
977.01382,1.56837
978.50361,1.51573
979.99340,1.46311
981.48319,1.46546
982.97297,1.59402
984.46276,1.69952
985.95255,1.70192
987.44234,1.76132
988.93213,1.82073
990.42192,1.70512
991.91171,1.59359
993.40149,1.63133
994.89128,1.58496
996.38107,1.72179
997.87086,1.71073
999.36065,1.69969
1000.85044,1.61403
1002.34022,1.68714
1003.83001,1.80233
1005.31980,1.82527
1006.80959,1.88689
1008.29938,1.94853
1009.78917,2.00000
1011.27896,1.94836
1012.76874,1.73662
1014.25853,1.54390
1015.74832,1.53573
1017.23811,1.41427
1018.72790,1.29282
1020.21769,1.05130
1021.70747,0.86000
1023.19726,0.82748
1024.68705,0.60907
1026.17684,0.61593
1027.66663,0.58413
1029.15642,0.55234
1030.64620,0.47782
1032.13599,0.46845
1033.62578,0.41568
1035.11557,0.48640
1036.60536,0.48521
1038.09515,0.48404
1039.58494,0.44761
1041.07472,0.56994
1042.56451,0.63124
1044.05430,0.59891
1045.54409,0.68873
1047.03388,0.68629
1048.52367,0.68386
1050.01345,0.76965
1051.50324,0.90702
1052.99303,0.85715
1054.48282,0.94298
1055.97261,0.95826
1057.46240,0.94778
1058.95219,0.93732
1060.44197,1.07206
1061.93176,1.13489
1063.42155,1.18825
1064.91134,1.19141
1066.40113,1.17016
1067.89092,1.23238
1069.38070,1.29461
1070.87049,1.27476
1072.36028,1.39605
1073.85007,1.20797
1075.33986,1.17053
1076.82965,1.16295
1078.31943,1.12689
1079.80922,1.09084
1081.29901,1.15930
1082.78880,1.12193
1084.27859,1.11306
1085.76838,1.05672
1087.25817,0.98683
1088.74795,0.96580
1090.23774,0.99024
1091.72753,1.01469
1093.21732,0.92315
1094.70711,0.93474
1096.19690,0.87986
1097.68668,0.91997
1099.17647,0.89362
1100.66626,0.83946
1102.15605,0.78531
1103.64584,0.81056
1105.13563,0.65943
1106.62542,0.68470
1108.11520,0.68422
1109.60499,0.67289
1111.09478,0.56252
1112.58457,0.52679
1114.07436,0.49108
1115.56415,0.60600
1117.05393,0.58389
1118.54372,0.44917
1120.03351,0.52207
1121.52330,0.51357
1123.01309,0.48541
1124.50288,0.45726
1125.99266,0.44066
1127.48245,0.46207
1128.97224,0.46179
1130.46203,0.38553
1131.95182,0.36627
1133.44161,0.33754
1134.93140,0.32577
1136.42118,0.31403
1137.91097,0.29483
1139.40076,0.29058
1140.89055,0.22527
1142.38034,0.16541
1143.87013,0.11778
1145.35991,0.18007
1146.84970,0.15621
1148.33949,0.13237
1149.82928,0.13364
1151.31907,0.10915
1152.80886,0.10095
1154.29865,0.03578
1155.78843,0.05476
1157.27822,0.02218
1158.76801,0.01404
1160.25780,0.00592
1161.74759,0.03852
1163.23738,0.05349
1164.72716,0.09697
1166.21695,0.04549
1167.70674,0.09850
1169.19653,0.03754
1170.68632,0.02477
1172.17611,0.01201
1173.66589,0.10308
1175.15568,0.11409
1176.64547,0.11563
1178.13526,0.11175
1179.62505,0.00069
1181.11484,0.03914
1182.60463,0.04979
1184.09441,0.06045
1185.58420,0.08131
1187.07399,0.06418
1188.56378,0.05386
1190.05357,0.02455
1191.54336,0.04953
1193.03314,0.00940
1194.52293,0.05884
1196.01272,0.10829
1197.50251,0.09669
1198.99230,0.07290
1200.48209,0.06676
1201.97188,0.07963
1203.46166,0.05317
1204.95145,0.02536
1206.44124,0.06949
1207.93103,0.10752
1209.42082,0.14557
1210.91061,0.22095
1212.40039,0.20543
1213.89018,0.21028
1215.37997,0.29791
1216.86976,0.24308
1218.35955,0.27511
1219.84934,0.26712
1221.33912,0.25915
1222.82891,0.23424
1224.31870,0.21204
1225.80849,0.23058
1227.29828,0.23013
1228.78807,0.28940
1230.27786,0.30661
1231.76764,0.30621
1233.25743,0.33228
1234.74722,0.35836
1236.23701,0.35935
1237.72680,0.33865
1239.21659,0.42787
1240.70637,0.44655
1242.19616,0.47881
1243.68595,0.53551
1245.17574,0.45925
1246.66553,0.42506
1248.15532,0.39089
1249.64511,0.57384
1251.13489,0.62519
1252.62468,0.58020
1254.11447,0.57187
1255.60426,0.64090
1257.09405,0.68009
1258.58384,0.76814
1260.07362,0.62689
1261.56341,0.65934
1263.05320,0.69181
1264.54299,0.63066
1266.03278,0.56138
1267.52257,0.61153
1269.01235,0.63455
1270.50214,0.51783
1271.99193,0.51239
1273.48172,0.54359
1274.97151,0.50086
1276.46130,0.45815
1277.95109,0.53825
1279.44087,0.53695
1280.93066,0.53295
1282.42045,0.51133
1283.91024,0.45172
1285.40003,0.43555
1286.88982,0.53610
1288.37960,0.46161
1289.86939,0.45295
1291.35918,0.44430
1292.84897,0.37529
1294.33876,0.34699
1295.82855,0.37028
1297.31834,0.41936
1298.80812,0.33954
1300.29791,0.36423
1301.78770,0.37264
1303.27749,0.37022
1304.76728,0.38341
1306.25707,0.39662
1307.74685,0.34946
1309.23664,0.35659
1310.72643,0.43430
1312.21622,0.36412
1313.70601,0.43778
1315.19580,0.45582
1316.68558,0.43318
1318.17537,0.49467
1319.66516,0.49716
1321.15495,0.49965
1322.64474,0.46078
1324.13453,0.41378
1325.62432,0.46585
1327.11410,0.53150
1328.60389,0.57953
1330.09368,0.48238
1331.58347,0.50737
1333.07326,0.54459
1334.56305,0.51940
1336.05283,0.53086
1337.54262,0.54234
1339.03241,0.57961
1340.52220,0.57076
1342.01199,0.53344
1343.50178,0.67116
1344.99156,0.61758
1346.48135,0.76755
1347.97114,0.72621
1349.46093,0.75409
1350.95072,0.80640
1352.44051,0.84584
1353.93030,0.88530
1355.42008,0.75312
1356.90987,0.84620
1358.39966,0.87009
1359.88945,0.85872
1361.37924,0.82972
1362.86903,0.80888
1364.35881,0.77719
1365.84860,0.60983
1367.33839,0.56325
1368.82818,0.49091
1370.31797,0.41857
1371.80776,0.40732
1373.29755,0.45035
1374.78733,0.42284
1376.27712,0.46183
1377.76691,0.36515
1379.25670,0.37161
1380.74649,0.22882
1382.23628,0.32079
1383.72606,0.34221
1385.21585,0.32023
1386.70564,0.30912
1388.19543,0.29802
1389.68522,0.39413
1391.17501,0.37899
1392.66479,0.39644
1394.15458,0.37997
1395.64437,0.34588
1397.13416,0.31180
1398.62395,0.44328
1400.11374,0.34953
1401.60353,0.40912
1403.09331,0.35067
1404.58310,0.35263
1406.07289,0.35459
1407.56268,0.38304
1409.05247,0.37893
1410.54226,0.44539
1412.03204,0.45352
1413.52183,0.38432
1415.01162,0.47390
1416.50141,0.35588
1417.99120,0.44684
1419.48099,0.37092
1420.97078,0.44155
1422.46056,0.44843
1423.95035,0.44311
1425.44014,0.43780
1426.92993,0.34838
1428.41972,0.39195
1429.90951,0.36226
1431.39929,0.37465
1432.88908,0.32057
1434.37887,0.35741
1435.86866,0.28300
1437.35845,0.37144
1438.84824,0.39340
1440.33802,0.41538
1441.82781,0.42922
1443.31760,0.54350
1444.80739,0.58248
1446.29718,0.62148
1447.78697,0.63674
1449.27676,0.67373
1450.76654,0.72023
1452.25633,0.68805
1453.74612,0.79971
1455.23591,0.83540
1456.72570,0.77883
1458.21549,0.92039
1459.70527,0.90320
1461.19506,0.87111
1462.68485,0.95708
1464.17464,1.04984
1465.66443,1.06732
1467.15422,1.08480
1468.64401,1.19661
1470.13379,1.14967
1471.62358,1.18010
1473.11337,1.16440
1474.60316,1.12022
1476.09295,1.05298
1477.58274,0.96134
1479.07252,0.85614
1480.56231,0.82288
1482.05210,0.80998
1483.54189,0.75503
1485.03168,0.67296
1486.52147,0.53934
1488.01125,0.45933
1489.50104,0.37934
1490.99083,0.27426
1492.48062,0.29131
1493.97041,0.22833
1495.46020,0.21556
1496.94999,0.14174
1498.43977,0.09915
1499.92956,0.09864
1501.41935,0.03708
1502.90914,0.05967
1504.39893,0.06191
1505.88872,0.05739
1507.37850,0.05559
1508.86829,0.06195
1510.35808,0.09546
1511.84787,0.02722
1513.33766,0.01395
1514.82745,0.00069
1516.31724,0.04482
1517.80702,0.02520
1519.29681,0.03951
1520.78660,0.05247
1522.27639,0.05189
1523.76618,0.11373
1525.25597,0.09825
1526.74575,0.05835
1528.23554,0.05375
1529.72533,0.04781
1531.21512,0.03374
1532.70491,0.00069
1534.19470,0.02465
1535.68448,0.00113
1537.17427,0.09939
1538.66406,0.15697
1540.15385,0.11618
1541.64364,0.07540
1543.13343,0.09774
1544.62322,0.07803
1546.11300,0.05290
1547.60279,0.06172
1549.09258,0.07733
1550.58237,0.12552
1552.07216,0.15473
1553.56195,0.15817
1555.05173,0.10871
1556.54152,0.13932
1558.03131,0.15094
1559.52110,0.15580
1561.01089,0.10775
1562.50068,0.11399
1563.99047,0.10668
1565.48025,0.11024
1566.97004,0.10974
1568.45983,0.06448
1569.94962,0.08979
1571.43941,0.11512
1572.92920,0.08483
1574.41898,0.08983
1575.90877,0.10570
1577.39856,0.07002
1578.88835,0.08185
1580.37814,0.12762
1581.86793,0.17340
1583.35771,0.19749
1584.84750,0.14560
1586.33729,0.16293
1587.82708,0.15042
1589.31687,0.18949
1590.80666,0.14852
1592.29645,0.13334
1593.78623,0.16024
1595.27602,0.19530
1596.76581,0.17881
1598.25560,0.17319
1599.74539,0.16894
1601.23518,0.18641
1602.72496,0.21069
1604.21475,0.22208
1605.70454,0.23350
1607.19433,0.21168
1608.68412,0.21973
1610.17391,0.24136
1611.66370,0.23180
1613.15348,0.30502
1614.64327,0.29956
1616.13306,0.23984
1617.62285,0.26833
1619.11264,0.24391
1620.60243,0.18559
1622.09221,0.22226
1623.58200,0.23588
1625.07179,0.23459
1626.56158,0.25367
1628.05137,0.26598
1629.54116,0.23352
1631.03094,0.20516
1632.52073,0.24736
1634.01052,0.20816
1635.50031,0.20155
1636.99010,0.17595
1638.47989,0.26706
1639.96968,0.14650
1641.45946,0.23086
1642.94925,0.16326
1644.43904,0.26121
1645.92883,0.24112
1647.41862,0.22106
1648.90841,0.28920
1650.39819,0.25966
1651.88798,0.27763
1653.37777,0.25897
1654.86756,0.23762
1656.35735,0.25020
1657.84714,0.30758
1659.33693,0.33240
1660.82671,0.36946
1662.31650,0.37260
1663.80629,0.33234
1665.29608,0.28802
1666.78587,0.37533
1668.27566,0.39074
1669.76544,0.42245
1671.25523,0.36191
1672.74502,0.40586
1674.23481,0.39420
1675.72460,0.43275
1677.21439,0.43739
1678.70417,0.45698
1680.19396,0.38295
1681.68375,0.40799
1683.17354,0.32993
1684.66333,0.31836
1686.15312,0.42350
1687.64291,0.36854
1689.13269,0.33667
1690.62248,0.32380
1692.11227,0.33267
1693.60206,0.26012
1695.09185,0.27987
1696.58164,0.24942
1698.07142,0.22985
1699.56121,0.26592
1701.05100,0.23552
1702.54079,0.20648
1704.03058,0.24260
1705.52037,0.16882
1707.01016,0.16493
1708.49994,0.16106
1709.98973,0.09547
1711.47952,0.10994
1712.96931,0.11086
1714.45910,0.06838
1715.94889,0.12361
1717.43867,0.11779
1718.92846,0.06449
1720.41825,0.03835
1721.90804,0.04478
1723.39783,0.03767
1724.88762,0.07127
1726.37740,0.02483
1727.86719,0.01776
1729.35698,0.06090
1730.84677,0.05250
1732.33656,0.00069
1733.82635,0.00432
1735.31614,0.06632
1736.80592,0.11069
1738.29571,0.06145
1739.78550,0.05836
1741.27529,0.03628
1742.76508,0.07664
1744.25487,0.00982
1745.74465,0.00000
1747.23444,0.08111
1748.72423,0.04011
1750.21402,0.00727
1751.70381,0.02057
1753.19360,0.02982
1754.68339,0.02145
1756.17317,0.03073
1757.66296,0.06852
1759.15275,0.06561
1760.64254,0.10343
1762.13233,0.08292
1763.62212,0.03528
1765.11190,0.03650
1766.60169,0.03503
1768.09148,0.09599
1769.58127,0.12982
1771.07106,0.04019
1772.56085,0.06863
1774.05063,0.02245
1775.54042,0.02513
1777.03021,0.05361
1778.52000,0.00069
