299.16008,0.09079
300.64987,0.00000
302.13966,0.08636
303.62945,0.12116
305.11924,0.15598
306.60902,0.13811
308.09881,0.03169
309.58860,0.01609
311.07839,0.00050
312.56818,0.03537
314.05797,0.05344
315.54776,0.03453
317.03754,0.01562
318.52733,0.07073
320.01712,0.04064
321.50691,0.05708
322.99670,0.07354
324.48649,0.01658
325.97627,0.06165
327.46606,0.07423
328.95585,0.08681
330.44564,0.13304
331.93543,0.07950
333.42522,0.09549
334.91501,0.11148
336.40479,0.04565
337.89458,0.05382
339.38437,0.07377
340.87416,0.09374
342.36395,0.00777
343.85374,0.09237
345.34352,0.09850
346.83331,0.10464
348.32310,0.06146
349.81289,0.05754
351.30268,0.10295
352.79247,0.14838
354.28225,0.15458
355.77204,0.21349
357.26183,0.16086
358.75162,0.10823
360.24141,0.00349
361.73120,0.14050
363.22099,0.13514
364.71077,0.12979
366.20056,0.19396
367.69035,0.21891
369.18014,0.18164
370.66993,0.14439
372.15972,0.09986
373.64950,0.19436
375.13929,0.21264
376.62908,0.23093
378.11887,0.30753
379.60866,0.32024
381.09845,0.37052
382.58824,0.42081
384.07802,0.40553
385.56781,0.50125
387.05760,0.48095
388.54739,0.46066
390.03718,0.49811
391.52697,0.42347
393.01675,0.49234
394.50654,0.56123
395.99633,0.44178
397.48612,0.52078
398.97591,0.53364
400.46570,0.54652
401.95548,0.53138
403.44527,0.57680
404.93506,0.56561
406.42485,0.55443
407.91464,0.52813
409.40443,0.64086
410.89422,0.69194
412.38400,0.73070
413.87379,0.76947
415.36358,0.80825
416.85337,0.98271
418.34316,0.98452
419.83295,0.98634
421.32273,1.05768
422.81252,0.97320
424.30231,1.01318
425.79210,1.05317
427.28189,1.08308
428.77168,1.06704
430.26146,0.99103
431.75125,0.91503
433.24104,0.87772
434.73083,0.87854
436.22062,0.80033
437.71041,0.72214
439.20020,0.70954
440.68998,0.63530
442.17977,0.60871
443.66956,0.58214
445.15935,0.47429
446.64914,0.41131
448.13893,0.36739
449.62871,0.33919
451.11850,0.31099
452.60829,0.24805
454.09808,0.10216
455.58787,0.12558
457.07766,0.14900
458.56745,0.10965
460.05723,0.11292
461.54702,0.07360
463.03681,0.03429
464.52660,0.08020
466.01639,0.11939
467.50618,0.13057
468.99596,0.14176
470.48575,0.07448
471.97554,0.07448
473.46533,0.00050
474.95512,0.03957
476.44491,0.07866
477.93469,0.06899
479.42448,0.16920
480.91427,0.18590
482.40406,0.20261
483.89385,0.20084
485.38364,0.13741
486.87343,0.18723
488.36321,0.23707
489.85300,0.22301
491.34279,0.24147
492.83258,0.27341
494.32237,0.30143
495.81216,0.32946
497.30194,0.32891
498.79173,0.39452
500.28152,0.37663
501.77131,0.35874
503.26110,0.35824
504.75089,0.38130
506.24068,0.35728
507.73046,0.33328
509.22025,0.30144
510.71004,0.30885
512.19983,0.28600
513.68962,0.35342
515.17941,0.42084
516.66919,0.43279
518.15898,0.46268
519.64877,0.44045
521.13856,0.41824
522.62835,0.37193
524.11814,0.36600
525.60792,0.43631
527.09771,0.46123
528.58750,0.48617
530.07729,0.57782
531.56708,0.73227
533.05687,0.72640
534.54666,0.72055
536.03644,0.69341
537.52623,0.65956
539.01602,0.71317
540.50581,0.69839
541.99560,0.68363
543.48539,0.77203
544.97517,0.68891
546.46496,0.67755
547.95475,0.66620
549.44454,0.54499
550.93433,0.62112
552.42412,0.62662
553.91391,0.64728
555.40369,0.66794
556.89348,0.53895
558.38327,0.58710
559.87306,0.55175
561.36285,0.51641
562.85264,0.48612
564.34242,0.50742
565.83221,0.42670
567.32200,0.41215
568.81179,0.39761
570.30158,0.34384
571.79137,0.33268
573.28115,0.29912
574.77094,0.26556
576.26073,0.19278
577.75052,0.12898
579.24031,0.15040
580.73010,0.12306
582.21989,0.09573
583.70967,0.08579
585.19946,0.03887
586.68925,0.04465
588.17904,0.05045
589.66883,0.17734
591.15862,0.10019
592.64840,0.04548
594.13819,0.05637
595.62798,0.06727
597.11777,0.09107
598.60756,0.07341
600.09735,0.06809
601.58714,0.10482
603.07692,0.14157
604.56671,0.14973
606.05650,0.09962
607.54629,0.12238
609.03608,0.14516
610.52587,0.07826
612.01565,0.13807
613.50544,0.05213
614.99523,0.04413
616.48502,0.03614
617.97481,0.04329
619.46460,0.09419
620.95438,0.08679
622.44417,0.09118
623.93396,0.09558
625.42375,0.11401
626.91354,0.12236
628.40333,0.13633
629.89312,0.15031
631.38290,0.13291
632.87269,0.10991
634.36248,0.05442
635.85227,0.07685
637.34206,0.09930
638.83185,0.01581
640.32163,0.04781
641.81142,0.06749
643.30121,0.08158
644.79100,0.09568
646.28079,0.10195
647.77058,0.13513
649.26037,0.16944
650.75015,0.18247
652.23994,0.19551
653.72973,0.20295
655.21952,0.13978
656.70931,0.15622
658.19910,0.12334
659.68888,0.09047
661.17867,0.05313
662.66846,0.08195
664.15825,0.02109
665.64804,0.05217
667.13783,0.08327
668.62761,0.07850
670.11740,0.16904
671.60719,0.14356
673.09698,0.11809
674.58677,0.12346
676.07656,0.12772
677.56635,0.16451
679.05613,0.15422
680.54592,0.14394
682.03571,0.14489
683.52550,0.27814
685.01529,0.25445
686.50508,0.24478
687.99486,0.23512
689.48465,0.19577
690.97444,0.14746
692.46423,0.09579
693.95402,0.13832
695.44381,0.18086
696.93360,0.19538
698.42338,0.12582
699.91317,0.12355
701.40296,0.11457
702.89275,0.10559
704.38254,0.12353
705.87233,0.13028
707.36211,0.11573
708.85190,0.14268
710.34169,0.16965
711.83148,0.13832
713.32127,0.00050
714.81106,0.12007
716.30084,0.14604
717.79063,0.17202
719.28042,0.12570
720.77021,0.05697
722.26000,0.09588
723.74979,0.09724
725.23958,0.09861
726.72936,0.06132
728.21915,0.00050
729.70894,0.02685
731.19873,0.01733
732.68852,0.05828
734.17831,0.09924
735.66809,0.05164
737.15788,0.05114
738.64767,0.09550
740.13746,0.09783
741.62725,0.10017
743.11704,0.05599
744.60683,0.11497
746.09661,0.15042
747.58640,0.13488
749.07619,0.11934
750.56598,0.15146
752.05577,0.24414
753.54556,0.29198
755.03534,0.31405
756.52513,0.33613
758.01492,0.38961
759.50471,0.48123
760.99450,0.50222
762.48429,0.57312
763.97407,0.64403
765.46386,0.74802
766.95365,0.85315
768.44344,0.86860
769.93323,0.84707
771.42302,0.87207
772.91281,0.89709
774.40259,0.79935
775.89238,0.77786
777.38217,0.72051
778.87196,0.72876
780.36175,0.73702
781.85154,0.69315
783.34132,0.57419
784.83111,0.63462
786.32090,0.60480
787.81069,0.57500
789.30048,0.58277
790.79027,0.55805
792.28006,0.52772
793.76984,0.49517
795.25963,0.49794
796.74942,0.50073
798.23921,0.35273
799.72900,0.18233
801.21879,0.23280
802.70857,0.19303
804.19836,0.15327
805.68815,0.14099
807.17794,0.04913
808.66773,0.04584
810.15752,0.06555
811.64730,0.08527
813.13709,0.07866
814.62688,0.16063
816.11667,0.19777
817.60646,0.17774
819.09625,0.19752
820.58604,0.21732
822.07582,0.25338
823.56561,0.28609
825.05540,0.31321
826.54519,0.30783
828.03498,0.30246
829.52477,0.41818
831.01455,0.43302
832.50434,0.39181
833.99413,0.36182
835.48392,0.42265
836.97371,0.48350
838.46350,0.56903
839.95329,0.44043
841.44307,0.42396
842.93286,0.45570
844.42265,0.51942
845.91244,0.58314
847.40223,0.69340
848.89202,0.64111
850.38180,0.67741
851.87159,0.68176
853.36138,0.68612
854.85117,0.86708
856.34096,1.01216
857.83075,1.10906
859.32053,1.16560
860.81032,1.12798
862.30011,1.09038
863.78990,1.17499
865.27969,1.06341
866.76948,1.06396
868.25927,0.91989
869.74905,0.96755
871.23884,1.01522
872.72863,1.02927
874.21842,1.06127
875.70821,1.05068
877.19800,1.02217
878.68778,1.05420
880.17757,1.08625
881.66736,1.02526
883.15715,1.06293
884.64694,1.12080
886.13673,1.14898
887.62651,1.17716
889.11630,1.16332
890.60609,1.18199
892.09588,1.15023
893.58567,1.11961
895.07546,1.18317
896.56525,1.24674
898.05503,1.23409
899.54482,1.26965
901.03461,1.22676
902.52440,1.18835
904.01419,1.17687
905.50398,1.16540
906.99376,1.17972
908.48355,1.19631
909.97334,1.23196
911.46313,1.11627
912.95292,1.13176
914.44271,1.14727
915.93250,1.08992
917.42228,1.25008
918.91207,1.30822
920.40186,1.23633
921.89165,1.20537
923.38144,1.17443
924.87123,1.23486
926.36101,1.21683
927.85080,1.33896
929.34059,1.30077
930.83038,1.27381
932.32017,1.24686
933.80996,1.25916
935.29974,1.13694
936.78953,1.07975
938.27932,1.13021
939.76911,1.09154
941.25890,1.05289
942.74869,1.12917
944.23848,1.25928
945.72826,1.12593
947.21805,1.10022
948.70784,1.05882
950.19763,1.11834
951.68742,1.17788
953.17721,1.15558
954.66699,1.20280
956.15678,1.26574
957.64657,1.27599
959.13636,1.31092
960.62615,1.34586
962.11594,1.34830
963.60573,1.33505
965.09551,1.31285
966.58530,1.57318
968.07509,1.62500
969.56488,1.67683
971.05467,1.59750
972.54446,1.56527
974.03424,1.58238
975.52403,1.70601
977.01382,1.70521
978.50361,1.66405
979.99340,1.62291
981.48319,1.65354
982.97297,1.75032
984.46276,1.77873
985.95255,1.94841
987.44234,1.94320
988.93213,1.93801
990.42192,1.88238
991.91171,1.75725
993.40149,1.73752
994.89128,1.78731
996.38107,1.63083
997.87086,1.69690
999.36065,1.76298
1000.85044,1.66147
1002.34022,1.68554
1003.83001,1.75894
1005.31980,1.91645
1006.80959,1.91701
1008.29938,1.91758
1009.78917,2.00000
1011.27896,1.96920
1012.76874,1.79491
1014.25853,1.65875
1015.74832,1.52261
1017.23811,1.43748
1018.72790,1.35237
1020.21769,1.02230
1021.70747,0.97589
1023.19726,0.94855
1024.68705,0.87638
1026.17684,0.76050
1027.66663,0.71582
1029.15642,0.67115
1030.64620,0.64836
1032.13599,0.61661
1033.62578,0.55460
1035.11557,0.65741
1036.60536,0.64476
1038.09515,0.63211
1039.58494,0.63854
1041.07472,0.75149
1042.56451,0.78934
1044.05430,0.85298
1045.54409,0.86170
1047.03388,0.87043
1048.52367,0.87917
1050.01345,0.90698
1051.50324,0.90678
1052.99303,1.02767
1054.48282,1.06898
1055.97261,1.04751
1057.46240,1.06473
1058.95219,1.08197
1060.44197,1.22871
1061.93176,1.26110
1063.42155,1.35293
1064.91134,1.23063
1066.40113,1.32248
1067.89092,1.31905
1069.38070,1.31563
1070.87049,1.46245
1072.36028,1.30098
1073.85007,1.44894
1075.33986,1.37494
1076.82965,1.29534
1078.31943,1.26172
1079.80922,1.22811
1081.29901,1.38735
1082.78880,1.37731
1084.27859,1.31684
1085.76838,1.18686
1087.25817,1.28336
1088.74795,1.16014
1090.23774,1.15128
1091.72753,1.14243
1093.21732,1.09660
1094.70711,1.08105
1096.19690,0.98143
1097.68668,1.10717
1099.17647,1.05354
1100.66626,1.03411
1102.15605,1.01470
1103.64584,0.93308
1105.13563,0.86716
1106.62542,0.75081
1108.11520,0.75891
1109.60499,0.65827
1111.09478,0.72806
1112.58457,0.71154
1114.07436,0.69502
1115.56415,0.70431
1117.05393,0.62167
1118.54372,0.58165
1120.03351,0.54613
1121.52330,0.56779
1123.01309,0.55415
1124.50288,0.54053
1125.99266,0.52859
1127.48245,0.49313
1128.97224,0.52943
1130.46203,0.44802
1131.95182,0.44735
1133.44161,0.41642
1134.93140,0.39615
1136.42118,0.37589
1137.91097,0.36966
1139.40076,0.30402
1140.89055,0.28548
1142.38034,0.22435
1143.87013,0.21256
1145.35991,0.22433
1146.84970,0.21032
1148.33949,0.19633
1149.82928,0.15880
1151.31907,0.15492
1152.80886,0.16787
1154.29865,0.09450
1155.78843,0.12878
1157.27822,0.00050
1158.76801,0.04729
1160.25780,0.09410
1161.74759,0.08486
1163.23738,0.06330
1164.72716,0.11911
1166.21695,0.09869
1167.70674,0.14331
1169.19653,0.11732
1170.68632,0.08348
1172.17611,0.04966
1173.66589,0.08425
1175.15568,0.09193
1176.64547,0.08505
1178.13526,0.13761
1179.62505,0.06573
1181.11484,0.08916
1182.60463,0.10587
1184.09441,0.12260
1185.58420,0.05301
1187.07399,0.04734
1188.56378,0.11904
1190.05357,0.05509
1191.54336,0.03376
1193.03314,0.03374
1194.52293,0.06288
1196.01272,0.09204
1197.50251,0.05506
1198.99230,0.08536
1200.48209,0.10783
1201.97188,0.06640
1203.46166,0.06310
1204.95145,0.09457
1206.44124,0.13726
1207.93103,0.18165
1209.42082,0.22605
1210.91061,0.25196
1212.40039,0.22519
1213.89018,0.26907
1215.37997,0.29838
1216.86976,0.32210
1218.35955,0.32789
1219.84934,0.28829
1221.33912,0.24870
1222.82891,0.31731
1224.31870,0.23346
1225.80849,0.36376
1227.29828,0.25751
1228.78807,0.34411
1230.27786,0.42399
1231.76764,0.34020
1233.25743,0.36685
1234.74722,0.39352
1236.23701,0.37815
1237.72680,0.47940
1239.21659,0.52236
1240.70637,0.56757
1242.19616,0.56458
1243.68595,0.54143
1245.17574,0.53623
1246.66553,0.54057
1248.15532,0.54492
1249.64511,0.64514
1251.13489,0.65792
1252.62468,0.71220
1254.11447,0.73397
1255.60426,0.77707
1257.09405,0.88407
1258.58384,0.88570
1260.07362,0.84026
1261.56341,0.82622
1263.05320,0.81220
1264.54299,0.82284
1266.03278,0.72812
1267.52257,0.69059
1269.01235,0.72706
1270.50214,0.72879
1271.99193,0.65317
1273.48172,0.52935
1274.97151,0.57933
1276.46130,0.62931
1277.95109,0.59747
1279.44087,0.60824
1280.93066,0.60108
1282.42045,0.55470
1283.91024,0.57447
1285.40003,0.57744
1286.88982,0.57482
1288.37960,0.55876
1289.86939,0.55447
1291.35918,0.55021
1292.84897,0.52857
1294.33876,0.47556
1295.82855,0.47525
1297.31834,0.43347
1298.80812,0.45785
1300.29791,0.41946
1301.78770,0.45731
1303.27749,0.47837
1304.76728,0.46748
1306.25707,0.45660
1307.74685,0.50572
1309.23664,0.51561
1310.72643,0.56699
1312.21622,0.53655
1313.70601,0.53526
1315.19580,0.62480
1316.68558,0.55403
1318.17537,0.62453
1319.66516,0.64403
1321.15495,0.66355
1322.64474,0.57152
1324.13453,0.54790
1325.62432,0.56241
1327.11410,0.65316
1328.60389,0.68002
1330.09368,0.61497
1331.58347,0.59140
1333.07326,0.60036
1334.56305,0.56898
1336.05283,0.59926
1337.54262,0.62956
1339.03241,0.54215
1340.52220,0.52763
1342.01199,0.51312
1343.50178,0.59728
1344.99156,0.67360
1346.48135,0.73985
1347.97114,0.63233
1349.46093,0.64479
1350.95072,0.59896
1352.44051,0.59575
1353.93030,0.59254
1355.42008,0.49966
1356.90987,0.46621
1358.39966,0.51686
1359.88945,0.55967
1361.37924,0.52962
1362.86903,0.45698
1364.35881,0.48749
1365.84860,0.44066
1367.33839,0.32770
1368.82818,0.32237
1370.31797,0.31706
1371.80776,0.35772
1373.29755,0.34683
1374.78733,0.34604
1376.27712,0.31499
1377.76691,0.30861
1379.25670,0.26077
1380.74649,0.25778
1382.23628,0.24920
1383.72606,0.26081
1385.21585,0.22871
1386.70564,0.27062
1388.19543,0.31254
1389.68522,0.34662
1391.17501,0.37623
1392.66479,0.38455
1394.15458,0.31777
1395.64437,0.33509
1397.13416,0.35129
1398.62395,0.43590
1400.11374,0.41625
1401.60353,0.41343
1403.09331,0.41623
1404.58310,0.45436
1406.07289,0.49250
1407.56268,0.44152
1409.05247,0.53630
1410.54226,0.55710
1412.03204,0.59585
1413.52183,0.59873
1415.01162,0.51418
1416.50141,0.49354
1417.99120,0.51104
1419.48099,0.55657
1420.97078,0.53597
1422.46056,0.55687
1423.95035,0.53741
1425.44014,0.51797
1426.92993,0.51648
1428.41972,0.44885
1429.90951,0.41487
1431.39929,0.47283
1432.88908,0.48708
1434.37887,0.42287
1435.86866,0.36875
1437.35845,0.49852
1438.84824,0.48703
1440.33802,0.58094
1441.82781,0.61881
1443.31760,0.60288
1444.80739,0.67496
1446.29718,0.74706
1447.78697,0.76592
1449.27676,0.86775
1450.76654,0.83730
1452.25633,0.92570
1453.74612,0.95694
1455.23591,0.97361
1456.72570,1.04411
1458.21549,1.03503
1459.70527,1.02931
1461.19506,1.03595
1462.68485,1.01344
1464.17464,1.18603
1465.66443,1.18597
1467.15422,1.18592
1468.64401,1.25091
1470.13379,1.37197
1471.62358,1.32263
1473.11337,1.24415
1474.60316,1.22735
1476.09295,1.11190
1477.58274,1.06821
1479.07252,0.96400
1480.56231,0.83177
1482.05210,0.79036
1483.54189,0.74672
1485.03168,0.68404
1486.52147,0.55522
1488.01125,0.50377
1489.50104,0.45233
1490.99083,0.35606
1492.48062,0.26316
1493.97041,0.29360
1495.46020,0.17046
1496.94999,0.10339
1498.43977,0.09574
1499.92956,0.07802
1501.41935,0.11637
1502.90914,0.07289
1504.39893,0.04063
1505.88872,0.05323
1507.37850,0.05127
1508.86829,0.03362
1510.35808,0.02720
1511.84787,0.05778
1513.33766,0.03008
1514.82745,0.00239
1516.31724,0.00050
1517.80702,0.06308
1519.29681,0.00459
1520.78660,0.01226
1522.27639,0.03900
1523.76618,0.07808
1525.25597,0.02973
1526.74575,0.04978
1528.23554,0.03620
1529.72533,0.03946
1531.21512,0.07300
1532.70491,0.04937
1534.19470,0.03809
1535.68448,0.03579
1537.17427,0.04807
1538.66406,0.03458
1540.15385,0.04353
1541.64364,0.05249
1543.13343,0.05922
1544.62322,0.05811
1546.11300,0.06262
1547.60279,0.05256
1549.09258,0.09970
1550.58237,0.11434
1552.07216,0.11217
1553.56195,0.11449
1555.05173,0.12917
1556.54152,0.09004
1558.03131,0.13612
1559.52110,0.13626
1561.01089,0.10725
1562.50068,0.10293
1563.99047,0.11543
1565.48025,0.06852
1566.97004,0.07544
1568.45983,0.05435
1569.94962,0.06914
1571.43941,0.08394
1572.92920,0.08194
1574.41898,0.12368
1575.90877,0.06789
1577.39856,0.10180
1578.88835,0.11442
1580.37814,0.11809
1581.86793,0.15091
1583.35771,0.11985
1584.84750,0.10337
1586.33729,0.10932
1587.82708,0.08950
1589.31687,0.09997
1590.80666,0.17435
1592.29645,0.18259
1593.78623,0.12807
1595.27602,0.17334
1596.76581,0.16144
1598.25560,0.14731
1599.74539,0.12759
1601.23518,0.12582
1602.72496,0.15096
1604.21475,0.16659
1605.70454,0.18223
1607.19433,0.20517
1608.68412,0.25616
1610.17391,0.30154
1611.66370,0.28192
1613.15348,0.23091
1614.64327,0.25279
1616.13306,0.24778
1617.62285,0.31453
1619.11264,0.29048
1620.60243,0.25186
1622.09221,0.23120
1623.58200,0.20606
1625.07179,0.27400
1626.56158,0.23431
1628.05137,0.21369
1629.54116,0.21439
1631.03094,0.21623
1632.52073,0.20462
1634.01052,0.20423
1635.50031,0.20498
1636.99010,0.23825
1638.47989,0.25135
1639.96968,0.23756
1641.45946,0.27647
1642.94925,0.25486
1644.43904,0.23774
1645.92883,0.24642
1647.41862,0.25511
1648.90841,0.30417
1650.39819,0.24338
1651.88798,0.24986
1653.37777,0.24179
1654.86756,0.29987
1656.35735,0.24136
1657.84714,0.28041
1659.33693,0.31274
1660.82671,0.38208
1662.31650,0.38865
1663.80629,0.35823
1665.29608,0.36034
1666.78587,0.39161
1668.27566,0.35787
1669.76544,0.44073
1671.25523,0.41711
1672.74502,0.40021
1674.23481,0.43267
1675.72460,0.42701
1677.21439,0.44715
1678.70417,0.42919
1680.19396,0.41236
1681.68375,0.39106
1683.17354,0.38434
1684.66333,0.37315
1686.15312,0.38440
1687.64291,0.36651
1689.13269,0.35760
1690.62248,0.32852
1692.11227,0.29833
1693.60206,0.29619
1695.09185,0.32208
1696.58164,0.27063
1698.07142,0.25170
1699.56121,0.21036
1701.05100,0.18585
1702.54079,0.15799
1704.03058,0.16041
1705.52037,0.14154
1707.01016,0.11708
1708.49994,0.09263
1709.98973,0.10183
1711.47952,0.10207
1712.96931,0.05635
1714.45910,0.06783
1715.94889,0.08380
1717.43867,0.10427
1718.92846,0.06084
1720.41825,0.03425
1721.90804,0.01551
1723.39783,0.02482
1724.88762,0.00050
1726.37740,0.03859
1727.86719,0.02512
1729.35698,0.04977
1730.84677,0.02736
1732.33656,0.01504
1733.82635,0.00050
1735.31614,0.06215
1736.80592,0.05990
1738.29571,0.03301
1739.78550,0.04648
1741.27529,0.06782
1742.76508,0.01405
1744.25487,0.04774
1745.74465,0.01306
1747.23444,0.00754
1748.72423,0.05136
1750.21402,0.03577
1751.70381,0.03252
1753.19360,0.04386
1754.68339,0.03168
1756.17317,0.01613
1757.66296,0.04321
1759.15275,0.07366
1760.64254,0.05479
1762.13233,0.07741
1763.62212,0.03727
1765.11190,0.00050
1766.60169,0.03359
1768.09148,0.09135
1769.58127,0.08859
1771.07106,0.03987
1772.56085,0.02367
1774.05063,0.05234
1775.54042,0.02608
1777.03021,0.00992
1778.52000,0.00050
