299.16008,0.09182
300.64987,0.00100
302.13966,0.04808
303.62945,0.10874
305.11924,0.16942
306.60902,0.17962
308.09881,0.06715
309.58860,0.06489
311.07839,0.06264
312.56818,0.14455
314.05797,0.07555
315.54776,0.06737
317.03754,0.05920
318.52733,0.12487
320.01712,0.22312
321.50691,0.16016
322.99670,0.09721
324.48649,0.05544
325.97627,0.10461
327.46606,0.11363
328.95585,0.12265
330.44564,0.16643
331.93543,0.17005
333.42522,0.16173
334.91501,0.15343
336.40479,0.20703
337.89458,0.18356
339.38437,0.13458
340.87416,0.08562
342.36395,0.10778
343.85374,0.07784
345.34352,0.11902
346.83331,0.16022
348.32310,0.06517
349.81289,0.13190
351.30268,0.13514
352.79247,0.13838
354.28225,0.16933
355.77204,0.21657
357.26183,0.16394
358.75162,0.11132
360.24141,0.08802
361.73120,0.06583
363.22099,0.07460
364.71077,0.08338
366.20056,0.15352
367.69035,0.20521
369.18014,0.21674
370.66993,0.22829
372.15972,0.17470
373.64950,0.07119
375.13929,0.19514
376.62908,0.31910
378.11887,0.24385
379.60866,0.36513
381.09845,0.38436
382.58824,0.40360
384.07802,0.34902
385.56781,0.39652
387.05760,0.39625
388.54739,0.39600
390.03718,0.41096
391.52697,0.46827
393.01675,0.44852
394.50654,0.42877
395.99633,0.37755
397.48612,0.45228
398.97591,0.45049
400.46570,0.44870
401.95548,0.44747
403.44527,0.55266
404.93506,0.49825
406.42485,0.44386
407.91464,0.47851
409.40443,0.58917
410.89422,0.58367
412.38400,0.65798
413.87379,0.73230
415.36358,0.73009
416.85337,0.87773
418.34316,0.93689
419.83295,0.99606
421.32273,0.91682
422.81252,0.92336
424.30231,0.94457
425.79210,0.96579
427.28189,1.01905
428.77168,0.89970
430.26146,0.93778
431.75125,0.97588
433.24104,0.89239
434.73083,0.80349
436.22062,0.72654
437.71041,0.64960
439.20020,0.64216
440.68998,0.59456
442.17977,0.58009
443.66956,0.56563
445.15935,0.43338
446.64914,0.30766
448.13893,0.25686
449.62871,0.26959
451.11850,0.28233
452.60829,0.19466
454.09808,0.04620
455.58787,0.05952
457.07766,0.07285
458.56745,0.10683
460.05723,0.09413
461.54702,0.07167
463.03681,0.04922
464.52660,0.07021
466.01639,0.12053
467.50618,0.08184
468.99596,0.04315
470.48575,0.07179
471.97554,0.07222
473.46533,0.02380
474.95512,0.01773
476.44491,0.01168
477.93469,0.07909
479.42448,0.03034
480.91427,0.07823
482.40406,0.12613
483.89385,0.18490
485.38364,0.20568
486.87343,0.21236
488.36321,0.21906
489.85300,0.22902
491.34279,0.30305
492.83258,0.27938
494.32237,0.27852
495.81216,0.27768
497.30194,0.24861
498.79173,0.30968
500.28152,0.35284
501.77131,0.39601
503.26110,0.41368
504.75089,0.29674
506.24068,0.31009
507.73046,0.32345
509.22025,0.27278
510.71004,0.33285
512.19983,0.34516
513.68962,0.33958
515.17941,0.33400
516.66919,0.32790
518.15898,0.37175
519.64877,0.36892
521.13856,0.36611
522.62835,0.36657
524.11814,0.28127
525.60792,0.37078
527.09771,0.37616
528.58750,0.38155
530.07729,0.51126
531.56708,0.57042
533.05687,0.62145
534.54666,0.67249
536.03644,0.67848
537.52623,0.62477
539.01602,0.73176
540.50581,0.73128
541.99560,0.73081
543.48539,0.69018
544.97517,0.58985
546.46496,0.58073
547.95475,0.57162
549.44454,0.57555
550.93433,0.57515
552.42412,0.60517
553.91391,0.63139
555.40369,0.65763
556.89348,0.62796
558.38327,0.57225
559.87306,0.54913
561.36285,0.52602
562.85264,0.50726
564.34242,0.44183
565.83221,0.43395
567.32200,0.39568
568.81179,0.35743
570.30158,0.30508
571.79137,0.29725
573.28115,0.27695
574.77094,0.25665
576.26073,0.24995
577.75052,0.21177
579.24031,0.17143
580.73010,0.16476
582.21989,0.15810
583.70967,0.10585
585.19946,0.10356
586.68925,0.10834
588.17904,0.11313
589.66883,0.13259
591.15862,0.10754
592.64840,-0.00000
594.13819,0.00049
595.62798,0.00100
597.11777,0.03702
598.60756,0.03396
600.09735,0.07435
601.58714,0.12180
603.07692,0.16927
604.56671,0.15975
606.05650,0.16869
607.54629,0.18200
609.03608,0.19531
610.52587,0.13698
612.01565,0.06564
613.50544,0.12350
614.99523,0.10809
616.48502,0.09270
617.97481,0.15602
619.46460,0.16074
620.95438,0.16872
622.44417,0.13709
623.93396,0.10547
625.42375,0.13303
626.91354,0.15409
628.40333,0.14476
629.89312,0.13544
631.38290,0.10117
632.87269,0.08862
634.36248,0.06523
635.85227,0.05379
637.34206,0.04236
638.83185,0.00272
640.32163,0.09446
641.81142,0.02987
643.30121,0.07875
644.79100,0.12764
646.28079,0.10868
647.77058,0.21134
649.26037,0.26732
650.75015,0.23049
652.23994,0.19367
653.72973,0.15849
655.21952,0.14504
656.70931,0.13051
658.19910,0.11654
659.68888,0.10258
661.17867,0.11849
662.66846,0.05298
664.15825,0.07435
665.64804,0.06858
667.13783,0.06282
668.62761,0.01908
670.11740,0.09912
671.60719,0.08743
673.09698,0.07575
674.58677,0.05594
676.07656,0.14037
677.56635,0.17595
679.05613,0.15672
680.54592,0.13750
682.03571,0.16118
683.52550,0.15556
685.01529,0.22160
686.50508,0.21980
687.99486,0.21801
689.48465,0.12884
690.97444,0.17105
692.46423,0.16876
693.95402,0.16322
695.44381,0.15769
696.93360,0.15978
698.42338,0.11302
699.91317,0.06953
701.40296,0.06622
702.89275,0.06293
704.38254,0.09439
705.87233,0.13346
707.36211,0.10957
708.85190,0.12804
710.34169,0.14652
711.83148,0.15090
713.32127,0.03912
714.81106,0.09563
716.30084,0.08376
717.79063,0.07190
719.28042,0.07091
720.77021,0.01674
722.26000,0.06897
723.74979,0.08701
725.23958,0.10507
726.72936,0.00100
728.21915,0.01144
729.70894,0.03492
731.19873,0.04539
732.68852,0.07921
734.17831,0.11304
735.66809,0.05840
737.15788,0.12428
738.64767,0.10332
740.13746,0.07423
741.62725,0.04516
743.11704,0.02206
744.60683,0.13360
746.09661,0.11488
747.58640,0.12167
749.07619,0.12848
750.56598,0.19773
752.05577,0.19425
753.54556,0.21684
755.03534,0.24922
756.52513,0.28160
758.01492,0.39651
759.50471,0.48863
760.99450,0.49174
762.48429,0.56814
763.97407,0.64456
765.46386,0.65530
766.95365,0.80611
768.44344,0.79408
769.93323,0.84177
771.42302,0.81402
772.91281,0.78628
774.40259,0.75584
775.89238,0.69176
777.38217,0.64614
778.87196,0.66025
780.36175,0.67437
781.85154,0.59731
783.34132,0.57128
784.83111,0.56915
786.32090,0.58712
787.81069,0.60510
789.30048,0.50856
790.79027,0.55208
792.28006,0.55218
793.76984,0.57184
795.25963,0.52094
796.74942,0.47005
798.23921,0.33884
799.72900,0.20438
801.21879,0.20238
802.70857,0.19605
804.19836,0.18974
805.68815,0.06184
807.17794,0.10007
808.66773,0.03625
810.15752,0.05658
811.64730,0.07693
813.13709,0.14234
814.62688,0.17411
816.11667,0.17984
817.60646,0.25289
819.09625,0.23313
820.58604,0.21338
822.07582,0.35595
823.56561,0.32482
825.05540,0.36319
826.54519,0.34837
828.03498,0.33357
829.52477,0.44689
831.01455,0.41039
832.50434,0.36739
833.99413,0.45904
835.48392,0.50943
836.97371,0.55984
838.46350,0.53318
839.95329,0.46636
841.44307,0.38652
842.93286,0.54229
844.42265,0.58787
845.91244,0.63347
847.40223,0.59928
848.89202,0.59658
850.38180,0.64601
851.87159,0.66017
853.36138,0.67434
854.85117,0.90729
856.34096,0.97740
857.83075,1.07901
859.32053,1.14806
860.81032,1.13297
862.30011,1.11790
863.78990,1.09036
865.27969,1.02592
866.76948,0.95280
868.25927,0.93180
869.74905,0.94448
871.23884,0.95717
872.72863,0.97855
874.21842,0.99235
875.70821,0.93342
877.19800,0.86256
878.68778,0.89593
880.17757,0.92932
881.66736,0.92689
883.15715,0.91471
884.64694,0.90253
886.13673,0.91588
887.62651,0.92925
889.11630,1.02568
890.60609,0.94515
892.09588,0.90047
893.58567,0.94048
895.07546,0.94359
896.56525,0.94671
898.05503,0.93573
899.54482,0.99425
901.03461,1.01152
902.52440,0.89961
904.01419,0.89248
905.50398,0.88536
906.99376,0.97542
908.48355,0.90373
909.97334,0.87439
911.46313,0.85917
912.95292,0.89391
914.44271,0.92867
915.93250,0.95583
917.42228,0.94935
918.91207,1.01997
920.40186,0.99831
921.89165,0.98373
923.38144,0.96915
924.87123,1.00725
926.36101,1.04752
927.85080,1.07479
929.34059,1.08252
930.83038,1.05823
932.32017,1.03396
933.80996,1.03304
935.29974,0.97134
936.78953,0.93896
938.27932,0.87619
939.76911,0.91983
941.25890,0.96349
942.74869,0.99087
944.23848,1.03021
945.72826,0.94036
947.21805,0.91458
948.70784,0.90727
950.19763,0.93417
951.68742,0.96108
953.17721,0.93535
954.66699,1.01277
956.15678,1.04460
957.64657,0.99177
959.13636,1.00625
960.62615,1.02075
962.11594,1.21332
963.60573,1.20613
965.09551,1.09038
966.58530,1.28189
968.07509,1.33282
969.56488,1.38377
971.05467,1.35926
972.54446,1.36952
974.03424,1.30379
975.52403,1.40635
977.01382,1.38081
978.50361,1.39545
979.99340,1.41011
981.48319,1.49426
982.97297,1.55346
984.46276,1.60180
985.95255,1.71965
987.44234,1.72623
988.93213,1.73281
990.42192,1.68892
991.91171,1.66242
993.40149,1.61205
994.89128,1.56168
996.38107,1.60904
997.87086,1.58476
999.36065,1.56049
1000.85044,1.53514
1002.34022,1.61946
1003.83001,1.61477
1005.31980,1.77295
1006.80959,1.85948
1008.29938,1.94602
1009.78917,2.00000
1011.27896,1.87920
1012.76874,1.78447
1014.25853,1.61592
1015.74832,1.47887
1017.23811,1.35594
1018.72790,1.23303
1020.21769,1.04933
1021.70747,0.98399
1023.19726,0.83723
1024.68705,0.84573
1026.17684,0.68488
1027.66663,0.66138
1029.15642,0.63789
1030.64620,0.59868
1032.13599,0.52256
1033.62578,0.53005
1035.11557,0.52344
1036.60536,0.50110
1038.09515,0.47877
1039.58494,0.57425
1041.07472,0.58289
1042.56451,0.62520
1044.05430,0.73809
1045.54409,0.70768
1047.03388,0.74079
1048.52367,0.77392
1050.01345,0.80326
1051.50324,0.74358
1052.99303,0.88369
1054.48282,0.90980
1055.97261,0.95873
1057.46240,0.96316
1058.95219,0.96760
1060.44197,1.08171
1061.93176,1.08618
1063.42155,1.07654
1064.91134,1.12337
1066.40113,1.07467
1067.89092,1.12316
1069.38070,1.17165
1070.87049,1.24350
1072.36028,1.23502
1073.85007,1.22438
1075.33986,1.15730
1076.82965,1.10543
1078.31943,1.14694
1079.80922,1.18847
1081.29901,1.19526
1082.78880,1.21401
1084.27859,1.11986
1085.76838,1.17663
1087.25817,1.09661
1088.74795,1.07850
1090.23774,1.07125
1091.72753,1.06401
1093.21732,0.95908
1094.70711,0.88130
1096.19690,0.89798
1097.68668,0.87125
1099.17647,0.94442
1100.66626,0.91608
1102.15605,0.88776
1103.64584,0.84914
1105.13563,0.71281
1106.62542,0.69050
1108.11520,0.63671
1109.60499,0.61550
1111.09478,0.60843
1112.58457,0.61113
1114.07436,0.61385
1115.56415,0.58618
1117.05393,0.61063
1118.54372,0.43533
1120.03351,0.46198
1121.52330,0.40722
1123.01309,0.45235
1124.50288,0.49749
1125.99266,0.48511
1127.48245,0.48033
1128.97224,0.42237
1130.46203,0.43173
1131.95182,0.38357
1133.44161,0.33433
1134.93140,0.35187
1136.42118,0.36943
1137.91097,0.30285
1139.40076,0.23086
1140.89055,0.27722
1142.38034,0.20743
1143.87013,0.19736
1145.35991,0.16450
1146.84970,0.16368
1148.33949,0.16288
1149.82928,0.12246
1151.31907,0.19713
1152.80886,0.12091
1154.29865,0.13698
1155.78843,0.10855
1157.27822,0.00414
1158.76801,0.04087
1160.25780,0.07762
1161.74759,0.06661
1163.23738,0.11967
1164.72716,0.08914
1166.21695,0.15308
1167.70674,0.09435
1169.19653,0.09751
1170.68632,0.09472
1172.17611,0.09193
1173.66589,0.06908
1175.15568,0.14503
1176.64547,0.08746
1178.13526,0.12001
1179.62505,0.09828
1181.11484,0.07006
1182.60463,0.08582
1184.09441,0.10159
1185.58420,0.12009
1187.07399,0.06803
1188.56378,0.04855
1190.05357,0.04428
1191.54336,0.11820
1193.03314,0.13676
1194.52293,0.11733
1196.01272,0.09791
1197.50251,0.07307
1198.99230,0.05802
1200.48209,0.08424
1201.97188,0.12567
1203.46166,0.00100
1204.95145,0.11610
1206.44124,0.14001
1207.93103,0.19542
1209.42082,0.25084
1210.91061,0.24439
1212.40039,0.29332
1213.89018,0.33032
1215.37997,0.28047
1216.86976,0.28818
1218.35955,0.31653
1219.84934,0.29550
1221.33912,0.27447
1222.82891,0.28766
1224.31870,0.29435
1225.80849,0.27390
1227.29828,0.24261
1228.78807,0.30145
1230.27786,0.36355
1231.76764,0.38332
1233.25743,0.37923
1234.74722,0.37514
1236.23701,0.36563
1237.72680,0.42997
1239.21659,0.48020
1240.70637,0.52719
1242.19616,0.59482
1243.68595,0.54955
1245.17574,0.52492
1246.66553,0.51876
1248.15532,0.51261
1249.64511,0.62373
1251.13489,0.68926
1252.62468,0.66469
1254.11447,0.67270
1255.60426,0.74478
1257.09405,0.86139
1258.58384,0.83035
1260.07362,0.70161
1261.56341,0.72977
1263.05320,0.75794
1264.54299,0.68353
1266.03278,0.68838
1267.52257,0.67805
1269.01235,0.66229
1270.50214,0.65415
1271.99193,0.62323
1273.48172,0.61620
1274.97151,0.59181
1276.46130,0.56743
1277.95109,0.58215
1279.44087,0.62403
1280.93066,0.57797
1282.42045,0.55690
1283.91024,0.50436
1285.40003,0.51263
1286.88982,0.54045
1288.37960,0.54657
1289.86939,0.55324
1291.35918,0.55993
1292.84897,0.48683
1294.33876,0.44523
1295.82855,0.38301
1297.31834,0.37726
1298.80812,0.37695
1300.29791,0.45590
1301.78770,0.44476
1303.27749,0.44123
1304.76728,0.43500
1306.25707,0.42878
1307.74685,0.42094
1309.23664,0.47391
1310.72643,0.54319
1312.21622,0.56361
1313.70601,0.50045
1315.19580,0.50028
1316.68558,0.53920
1318.17537,0.54882
1319.66516,0.56007
1321.15495,0.57135
1322.64474,0.49306
1324.13453,0.51793
1325.62432,0.55909
1327.11410,0.65021
1328.60389,0.59477
1330.09368,0.58711
1331.58347,0.54256
1333.07326,0.53275
1334.56305,0.59679
1336.05283,0.58755
1337.54262,0.57833
1339.03241,0.56315
1340.52220,0.56318
1342.01199,0.55345
1343.50178,0.57413
1344.99156,0.69688
1346.48135,0.66221
1347.97114,0.65904
1349.46093,0.61246
1350.95072,0.66686
1352.44051,0.69358
1353.93030,0.72032
1355.42008,0.60647
1356.90987,0.54258
1358.39966,0.65132
1359.88945,0.58854
1361.37924,0.58331
1362.86903,0.56615
1364.35881,0.53163
1365.84860,0.48192
1367.33839,0.34862
1368.82818,0.32174
1370.31797,0.29487
1371.80776,0.36464
1373.29755,0.33345
1374.78733,0.33810
1376.27712,0.32756
1377.76691,0.33223
1379.25670,0.28806
1380.74649,0.31013
1382.23628,0.25839
1383.72606,0.26419
1385.21585,0.25373
1386.70564,0.24707
1388.19543,0.24043
1389.68522,0.27126
1391.17501,0.32273
1392.66479,0.34489
1394.15458,0.35947
1395.64437,0.31109
1397.13416,0.35609
1398.62395,0.37614
1400.11374,0.40596
1401.60353,0.42169
1403.09331,0.39617
1404.58310,0.38803
1406.07289,0.37991
1407.56268,0.43477
1409.05247,0.41038
1410.54226,0.43921
1412.03204,0.44633
1413.52183,0.47952
1415.01162,0.48775
1416.50141,0.43629
1417.99120,0.47494
1419.48099,0.53533
1420.97078,0.47195
1422.46056,0.48133
1423.95035,0.49127
1425.44014,0.50121
1426.92993,0.44223
1428.41972,0.44406
1429.90951,0.41333
1431.39929,0.40432
1432.88908,0.42465
1434.37887,0.41458
1435.86866,0.37847
1437.35845,0.44551
1438.84824,0.47131
1440.33802,0.50689
1441.82781,0.56420
1443.31760,0.62043
1444.80739,0.62945
1446.29718,0.63848
1447.78697,0.72298
1449.27676,0.78903
1450.76654,0.76173
1452.25633,0.76266
1453.74612,0.88412
1455.23591,0.89485
1456.72570,0.84263
1458.21549,0.93047
1459.70527,0.92712
1461.19506,0.88362
1462.68485,0.85750
1464.17464,1.10281
1465.66443,1.07291
1467.15422,1.04303
1468.64401,1.16135
1470.13379,1.13963
1471.62358,1.13747
1473.11337,1.16897
1474.60316,1.12992
1476.09295,0.98557
1477.58274,0.92374
1479.07252,0.85324
1480.56231,0.74800
1482.05210,0.68078
1483.54189,0.73083
1485.03168,0.62998
1486.52147,0.56171
1488.01125,0.47282
1489.50104,0.38395
1490.99083,0.31245
1492.48062,0.27246
1493.97041,0.24334
1495.46020,0.17622
1496.94999,0.15038
1498.43977,0.09089
1499.92956,0.08787
1501.41935,0.11201
1502.90914,0.11335
1504.39893,0.05283
1505.88872,0.00100
1507.37850,0.03998
1508.86829,0.05292
1510.35808,0.11147
1511.84787,0.02346
1513.33766,0.03589
1514.82745,0.04833
1516.31724,0.03853
1517.80702,0.06023
1519.29681,0.01571
1520.78660,0.04937
1522.27639,0.05156
1523.76618,0.02336
1525.25597,0.07009
1526.74575,0.08100
1528.23554,0.03547
1529.72533,0.05291
1531.21512,0.01935
1532.70491,0.00642
1534.19470,0.01414
1535.68448,0.02729
1537.17427,0.02960
1538.66406,0.02758
1540.15385,0.04132
1541.64364,0.05506
1543.13343,0.06936
1544.62322,0.04350
1546.11300,0.03612
1547.60279,0.00051
1549.09258,0.02789
1550.58237,0.08785
1552.07216,0.13479
1553.56195,0.11335
1555.05173,0.10929
1556.54152,0.12913
1558.03131,0.11424
1559.52110,0.12216
1561.01089,0.09969
1562.50068,0.06638
1563.99047,0.09171
1565.48025,0.05299
1566.97004,0.07291
1568.45983,0.11131
1569.94962,0.08783
1571.43941,0.06436
1572.92920,0.07999
1574.41898,0.05763
1575.90877,0.08848
1577.39856,0.10957
1578.88835,0.05360
1580.37814,0.08883
1581.86793,0.08607
1583.35771,0.12350
1584.84750,0.13054
1586.33729,0.10393
1587.82708,0.08386
1589.31687,0.04968
1590.80666,0.04699
1592.29645,0.15941
1593.78623,0.13178
1595.27602,0.13456
1596.76581,0.17426
1598.25560,0.10650
1599.74539,0.07023
1601.23518,0.13278
1602.72496,0.14539
1604.21475,0.14444
1605.70454,0.14351
1607.19433,0.19199
1608.68412,0.20031
1610.17391,0.19778
1611.66370,0.27995
1613.15348,0.23077
1614.64327,0.24131
1616.13306,0.23883
1617.62285,0.20705
1619.11264,0.22957
1620.60243,0.18044
1622.09221,0.22253
1623.58200,0.19080
1625.07179,0.22965
1626.56158,0.23485
1628.05137,0.20967
1629.54116,0.16388
1631.03094,0.15935
1632.52073,0.18632
1634.01052,0.11776
1635.50031,0.09807
1636.99010,0.17285
1638.47989,0.20203
1639.96968,0.21821
1641.45946,0.17359
1642.94925,0.20825
1644.43904,0.20057
1645.92883,0.18314
1647.41862,0.16571
1648.90841,0.21887
1650.39819,0.24816
1651.88798,0.23837
1653.37777,0.24922
1654.86756,0.20146
1656.35735,0.22971
1657.84714,0.27860
1659.33693,0.28950
1660.82671,0.38401
1662.31650,0.32871
1663.80629,0.35594
1665.29608,0.27786
1666.78587,0.33116
1668.27566,0.33454
1669.76544,0.36833
1671.25523,0.35978
1672.74502,0.38599
1674.23481,0.40570
1675.72460,0.38634
1677.21439,0.36590
1678.70417,0.39867
1680.19396,0.38260
1681.68375,0.36763
1683.17354,0.35266
1684.66333,0.38114
1686.15312,0.31844
1687.64291,0.32522
1689.13269,0.33745
1690.62248,0.33884
1692.11227,0.29246
1693.60206,0.31450
1695.09185,0.24318
1696.58164,0.25221
1698.07142,0.23954
1699.56121,0.18889
1701.05100,0.16864
1702.54079,0.19510
1704.03058,0.15859
1705.52037,0.12861
1707.01016,0.11601
1708.49994,0.10343
1709.98973,0.11257
1711.47952,0.04790
1712.96931,0.08095
1714.45910,0.09121
1715.94889,0.07217
1717.43867,0.06183
1718.92846,0.04825
1720.41825,0.05096
1721.90804,0.00917
1723.39783,0.01299
1724.88762,0.05266
1726.37740,0.02827
1727.86719,0.05059
1729.35698,0.04686
1730.84677,0.02034
1732.33656,0.00687
1733.82635,0.00100
1735.31614,0.04418
1736.80592,0.06132
1738.29571,0.05675
1739.78550,0.09020
1741.27529,0.02920
1742.76508,0.01381
1744.25487,0.00387
1745.74465,0.04822
1747.23444,0.01332
1748.72423,0.03056
1750.21402,0.01740
1751.70381,0.00100
1753.19360,0.03299
1754.68339,0.00744
1756.17317,0.01340
1757.66296,0.05628
1759.15275,0.06551
1760.64254,0.03133
1762.13233,0.05144
1763.62212,0.02706
1765.11190,0.04068
1766.60169,0.02718
1768.09148,0.04300
1769.58127,0.08163
1771.07106,0.01062
1772.56085,0.06339
1774.05063,0.02063
1775.54042,0.03109
1777.03021,0.00572
1778.52000,0.00100
