299.16008,0.19419
300.64987,0.15987
302.13966,0.27589
303.62945,0.18711
305.11924,0.09833
306.60902,0.27640
308.09881,0.15946
309.58860,0.12333
311.07839,0.08722
312.56818,0.13756
314.05797,0.00000
315.54776,0.00432
317.03754,0.00866
318.52733,0.00268
320.01712,0.16582
321.50691,0.09879
322.99670,0.03177
324.48649,0.05026
325.97627,0.12514
327.46606,0.11359
328.95585,0.10205
330.44564,0.10367
331.93543,0.10156
333.42522,0.09193
334.91501,0.08232
336.40479,0.14413
337.89458,0.10260
339.38437,0.10806
340.87416,0.11353
342.36395,0.05324
343.85374,0.13766
345.34352,0.11216
346.83331,0.08668
348.32310,0.04899
349.81289,0.14285
351.30268,0.13901
352.79247,0.13518
354.28225,0.11821
355.77204,0.10126
357.26183,0.06552
358.75162,0.02980
360.24141,0.02039
361.73120,0.06737
363.22099,0.09746
364.71077,0.12755
366.20056,0.12759
367.69035,0.09570
369.18014,0.09012
370.66993,0.08456
372.15972,0.13727
373.64950,0.15616
375.13929,0.24647
376.62908,0.33679
378.11887,0.26364
379.60866,0.30513
381.09845,0.32597
382.58824,0.34681
384.07802,0.33572
385.56781,0.41108
387.05760,0.44324
388.54739,0.47541
390.03718,0.57148
391.52697,0.45710
393.01675,0.47521
394.50654,0.49333
395.99633,0.61951
397.48612,0.54089
398.97591,0.54683
400.46570,0.55279
401.95548,0.46104
403.44527,0.55910
404.93506,0.58576
406.42485,0.61244
407.91464,0.53578
409.40443,0.80112
410.89422,0.69818
412.38400,0.73336
413.87379,0.76855
415.36358,0.77839
416.85337,0.88407
418.34316,0.97285
419.83295,1.06165
421.32273,1.07154
422.81252,1.15472
424.30231,1.22664
425.79210,1.29857
427.28189,1.25213
428.77168,1.16436
430.26146,1.13486
431.75125,1.10537
433.24104,1.05334
434.73083,1.00508
436.22062,0.91925
437.71041,0.83344
439.20020,0.71005
440.68998,0.65808
442.17977,0.70572
443.66956,0.75337
445.15935,0.69016
446.64914,0.41839
448.13893,0.40970
449.62871,0.38223
451.11850,0.35478
452.60829,0.26720
454.09808,0.19092
455.58787,0.24900
457.07766,0.30710
458.56745,0.17635
460.05723,0.23541
461.54702,0.13663
463.03681,0.03787
464.52660,0.09132
466.01639,0.25754
467.50618,0.20391
468.99596,0.15030
470.48575,0.13616
471.97554,0.16525
473.46533,0.00268
474.95512,0.04260
476.44491,0.08253
477.93469,0.24650
479.42448,0.20189
480.91427,0.22871
482.40406,0.25554
483.89385,0.26735
485.38364,0.34306
486.87343,0.35301
488.36321,0.36297
489.85300,0.37483
491.34279,0.37354
492.83258,0.36287
494.32237,0.38040
495.81216,0.39795
497.30194,0.41174
498.79173,0.43494
500.28152,0.45158
501.77131,0.46823
503.26110,0.42195
504.75089,0.54103
506.24068,0.48068
507.73046,0.42033
509.22025,0.40416
510.71004,0.42182
512.19983,0.48648
513.68962,0.43746
515.17941,0.38845
516.66919,0.45689
518.15898,0.39006
519.64877,0.41625
521.13856,0.44246
522.62835,0.40760
524.11814,0.43665
525.60792,0.52396
527.09771,0.51075
528.58750,0.49756
530.07729,0.52665
531.56708,0.78313
533.05687,0.75964
534.54666,0.73616
536.03644,0.70141
537.52623,0.83016
539.01602,0.85557
540.50581,0.83965
541.99560,0.82375
543.48539,0.83040
544.97517,0.76191
546.46496,0.76201
547.95475,0.76212
549.44454,0.67112
550.93433,0.71166
552.42412,0.68644
553.91391,0.74110
555.40369,0.79577
556.89348,0.80441
558.38327,0.78864
559.87306,0.74000
561.36285,0.69136
562.85264,0.74703
564.34242,0.66742
565.83221,0.53332
567.32200,0.54205
568.81179,0.55080
570.30158,0.45996
571.79137,0.59650
573.28115,0.48126
574.77094,0.36603
576.26073,0.34664
577.75052,0.46069
579.24031,0.28348
580.73010,0.29326
582.21989,0.30305
583.70967,0.32319
585.19946,0.11784
586.68925,0.17747
588.17904,0.23710
589.66883,0.20467
591.15862,0.11776
592.64840,0.00268
594.13819,0.02408
595.62798,0.04549
597.11777,0.08571
598.60756,0.08460
600.09735,0.16431
601.58714,0.21302
603.07692,0.26174
604.56671,0.26068
606.05650,0.25587
607.54629,0.25578
609.03608,0.25569
610.52587,0.28662
612.01565,0.19918
613.50544,0.19068
614.99523,0.19158
616.48502,0.19250
617.97481,0.20658
619.46460,0.26577
620.95438,0.29303
622.44417,0.27426
623.93396,0.25551
625.42375,0.21328
626.91354,0.22179
628.40333,0.25381
629.89312,0.28584
631.38290,0.18729
632.87269,0.16391
634.36248,0.09168
635.85227,0.09745
637.34206,0.10323
638.83185,0.15883
640.32163,0.16370
641.81142,0.16857
643.30121,0.19978
644.79100,0.23099
646.28079,0.20584
647.77058,0.29533
649.26037,0.24014
650.75015,0.30240
652.23994,0.36468
653.72973,0.23812
655.21952,0.28633
656.70931,0.26314
658.19910,0.19581
659.68888,0.12849
661.17867,0.11098
662.66846,0.13106
664.15825,0.17934
665.64804,0.15811
667.13783,0.13689
668.62761,0.17018
670.11740,0.14710
671.60719,0.15974
673.09698,0.17239
674.58677,0.21136
676.07656,0.21088
677.56635,0.26115
679.05613,0.21560
680.54592,0.17006
682.03571,0.23352
683.52550,0.25377
685.01529,0.25713
686.50508,0.25486
687.99486,0.25260
689.48465,0.25223
690.97444,0.18046
692.46423,0.15193
693.95402,0.20234
695.44381,0.25275
696.93360,0.31821
698.42338,0.10370
699.91317,0.12409
701.40296,0.12381
702.89275,0.12356
704.38254,0.08761
705.87233,0.18696
707.36211,0.18674
708.85190,0.16492
710.34169,0.14311
711.83148,0.26131
713.32127,0.19161
714.81106,0.18393
716.30084,0.21291
717.79063,0.24190
719.28042,0.09708
720.77021,0.04623
722.26000,0.20585
723.74979,0.20388
725.23958,0.20193
726.72936,0.00268
728.21915,0.03855
729.70894,0.11391
731.19873,0.12162
732.68852,0.15002
734.17831,0.17844
735.66809,0.14673
737.15788,0.14698
738.64767,0.19985
740.13746,0.21234
741.62725,0.22484
743.11704,0.11615
744.60683,0.19350
746.09661,0.19570
747.58640,0.12839
749.07619,0.06109
750.56598,0.26627
752.05577,0.19711
753.54556,0.33843
755.03534,0.36889
756.52513,0.39937
758.01492,0.40542
759.50471,0.40022
760.99450,0.58105
762.48429,0.66231
763.97407,0.74358
765.46386,0.76098
766.95365,0.72388
768.44344,0.86720
769.93323,0.95980
771.42302,0.95845
772.91281,0.95711
774.40259,0.84115
775.89238,0.76092
777.38217,0.72015
778.87196,0.75269
780.36175,0.78523
781.85154,0.77269
783.34132,0.74513
784.83111,0.67624
786.32090,0.68723
787.81069,0.69823
789.30048,0.54481
790.79027,0.66388
792.28006,0.63827
793.76984,0.68408
795.25963,0.63125
796.74942,0.57843
798.23921,0.39503
799.72900,0.43525
801.21879,0.39280
802.70857,0.35036
804.19836,0.30794
805.68815,0.22982
807.17794,0.24192
808.66773,0.07551
810.15752,0.13461
811.64730,0.19371
813.13709,0.14197
814.62688,0.24056
816.11667,0.27904
817.60646,0.29873
819.09625,0.25267
820.58604,0.20663
822.07582,0.34098
823.56561,0.32691
825.05540,0.45753
826.54519,0.45005
828.03498,0.44259
829.52477,0.53191
831.01455,0.50474
832.50434,0.45127
833.99413,0.47298
835.48392,0.50785
836.97371,0.54274
838.46350,0.65844
839.95329,0.56181
841.44307,0.45205
842.93286,0.56966
844.42265,0.61025
845.91244,0.65085
847.40223,0.73468
848.89202,0.78093
850.38180,0.77459
851.87159,0.81806
853.36138,0.86153
854.85117,0.99052
856.34096,1.13831
857.83075,1.13015
859.32053,1.21784
860.81032,1.19279
862.30011,1.16775
863.78990,1.22540
865.27969,1.04630
866.76948,1.03445
868.25927,0.99631
869.74905,1.01174
871.23884,1.02717
872.72863,1.07550
874.21842,1.02238
875.70821,0.94295
877.19800,0.96501
878.68778,0.95420
880.17757,0.94340
881.66736,0.93168
883.15715,1.01580
884.64694,0.92893
886.13673,0.95952
887.62651,0.99013
889.11630,1.08933
890.60609,1.02882
892.09588,0.94013
893.58567,0.88716
895.07546,0.91407
896.56525,0.94098
898.05503,0.88617
899.54482,0.96103
901.03461,0.86490
902.52440,0.88153
904.01419,0.88220
905.50398,0.88289
906.99376,0.93150
908.48355,0.89744
909.97334,1.01748
911.46313,0.91768
912.95292,0.92688
914.44271,0.93609
915.93250,0.92653
917.42228,0.97334
918.91207,1.04084
920.40186,1.02192
921.89165,0.99549
923.38144,0.96907
924.87123,1.06104
926.36101,1.06096
927.85080,1.08343
929.34059,1.12659
930.83038,1.08426
932.32017,1.04194
933.80996,1.02124
935.29974,0.94982
936.78953,1.00056
938.27932,1.10580
939.76911,1.08421
941.25890,1.06263
942.74869,0.92551
944.23848,1.07589
945.72826,1.03650
947.21805,0.92384
948.70784,1.01789
950.19763,0.97666
951.68742,0.93543
953.17721,0.97315
954.66699,0.97141
956.15678,1.01103
957.64657,1.09200
959.13636,1.08091
960.62615,1.06983
962.11594,1.31619
963.60573,1.12662
965.09551,1.12497
966.58530,1.13085
968.07509,1.24479
969.56488,1.35874
971.05467,1.38532
972.54446,1.41944
974.03424,1.30511
975.52403,1.38059
977.01382,1.43353
978.50361,1.48837
979.99340,1.54321
981.48319,1.41955
982.97297,1.58529
984.46276,1.61010
985.95255,1.78902
987.44234,1.77064
988.93213,1.75227
990.42192,1.55916
991.91171,1.58967
993.40149,1.52248
994.89128,1.61879
996.38107,1.59109
997.87086,1.63950
999.36065,1.68793
1000.85044,1.73355
1002.34022,1.68334
1003.83001,1.84173
1005.31980,1.93249
1006.80959,1.90769
1008.29938,1.88290
1009.78917,2.00000
1011.27896,1.98557
1012.76874,1.82271
1014.25853,1.66549
1015.74832,1.58157
1017.23811,1.43190
1018.72790,1.28223
1020.21769,1.16453
1021.70747,0.88711
1023.19726,0.93103
1024.68705,0.66115
1026.17684,0.67879
1027.66663,0.62597
1029.15642,0.57317
1030.64620,0.50253
1032.13599,0.52585
1033.62578,0.58865
1035.11557,0.52556
1036.60536,0.46436
1038.09515,0.40317
1039.58494,0.41904
1041.07472,0.51948
1042.56451,0.58987
1044.05430,0.65651
1045.54409,0.63297
1047.03388,0.68554
1048.52367,0.73813
1050.01345,0.84616
1051.50324,0.89595
1052.99303,0.92884
1054.48282,0.92604
1055.97261,0.96647
1057.46240,0.99470
1058.95219,1.02294
1060.44197,1.14421
1061.93176,1.26737
1063.42155,1.19324
1064.91134,1.17549
1066.40113,1.22728
1067.89092,1.31103
1069.38070,1.39479
1070.87049,1.45414
1072.36028,1.26733
1073.85007,1.26093
1075.33986,1.20380
1076.82965,1.31581
1078.31943,1.31320
1079.80922,1.31061
1081.29901,1.17085
1082.78880,1.29043
1084.27859,1.11687
1085.76838,1.09929
1087.25817,1.20387
1088.74795,1.14685
1090.23774,1.10864
1091.72753,1.07044
1093.21732,1.09050
1094.70711,0.93770
1096.19690,1.04047
1097.68668,0.95910
1099.17647,0.96982
1100.66626,0.91102
1102.15605,0.85224
1103.64584,0.87990
1105.13563,0.81550
1106.62542,0.68347
1108.11520,0.67923
1109.60499,0.67688
1111.09478,0.76286
1112.58457,0.70509
1114.07436,0.64735
1115.56415,0.67323
1117.05393,0.68222
1118.54372,0.66115
1120.03351,0.49728
1121.52330,0.54012
1123.01309,0.52848
1124.50288,0.51686
1125.99266,0.58229
1127.48245,0.57821
1128.97224,0.57413
1130.46203,0.40471
1131.95182,0.47019
1133.44161,0.46240
1134.93140,0.43207
1136.42118,0.40175
1137.91097,0.36204
1139.40076,0.35242
1140.89055,0.25825
1142.38034,0.37455
1143.87013,0.27852
1145.35991,0.31028
1146.84970,0.26690
1148.33949,0.22352
1149.82928,0.17452
1151.31907,0.13681
1152.80886,0.15548
1154.29865,0.12530
1155.78843,0.08199
1157.27822,0.05936
1158.76801,0.06774
1160.25780,0.07614
1161.74759,0.15314
1163.23738,0.12304
1164.72716,0.13617
1166.21695,0.17186
1167.70674,0.11173
1169.19653,0.17188
1170.68632,0.18412
1172.17611,0.19637
1173.66589,0.17951
1175.15568,0.15702
1176.64547,0.18528
1178.13526,0.18537
1179.62505,0.10091
1181.11484,0.04653
1182.60463,0.09457
1184.09441,0.14262
1185.58420,0.15028
1187.07399,0.07716
1188.56378,0.13183
1190.05357,0.09443
1191.54336,0.05892
1193.03314,0.13241
1194.52293,0.07814
1196.01272,0.02388
1197.50251,0.10305
1198.99230,0.06008
1200.48209,0.01525
1201.97188,0.01178
1203.46166,0.00268
1204.95145,0.08206
1206.44124,0.09944
1207.93103,0.15817
1209.42082,0.21692
1210.91061,0.23434
1212.40039,0.25365
1213.89018,0.34813
1215.37997,0.25472
1216.86976,0.31165
1218.35955,0.27276
1219.84934,0.28179
1221.33912,0.29084
1222.82891,0.29896
1224.31870,0.27702
1225.80849,0.32275
1227.29828,0.28769
1228.78807,0.28646
1230.27786,0.35101
1231.76764,0.33102
1233.25743,0.39560
1234.74722,0.46019
1236.23701,0.30681
1237.72680,0.40525
1239.21659,0.39472
1240.70637,0.53640
1242.19616,0.57474
1243.68595,0.51539
1245.17574,0.55939
1246.66553,0.52073
1248.15532,0.48208
1249.64511,0.61444
1251.13489,0.61339
1252.62468,0.75517
1254.11447,0.63765
1255.60426,0.69301
1257.09405,0.76718
1258.58384,0.73613
1260.07362,0.73516
1261.56341,0.73984
1263.05320,0.74453
1264.54299,0.71352
1266.03278,0.63180
1267.52257,0.62337
1269.01235,0.65817
1270.50214,0.71366
1271.99193,0.51924
1273.48172,0.60857
1274.97151,0.57296
1276.46130,0.53736
1277.95109,0.63988
1279.44087,0.66538
1280.93066,0.65706
1282.42045,0.54916
1283.91024,0.58032
1285.40003,0.54574
1286.88982,0.49049
1288.37960,0.50290
1289.86939,0.47492
1291.35918,0.44696
1292.84897,0.43498
1294.33876,0.48127
1295.82855,0.47683
1297.31834,0.34462
1298.80812,0.37215
1300.29791,0.40721
1301.78770,0.40094
1303.27749,0.41723
1304.76728,0.42884
1306.25707,0.44046
1307.74685,0.40605
1309.23664,0.45434
1310.72643,0.44251
1312.21622,0.56786
1313.70601,0.52411
1315.19580,0.63445
1316.68558,0.44603
1318.17537,0.51694
1319.66516,0.52303
1321.15495,0.52913
1322.64474,0.44223
1324.13453,0.41923
1325.62432,0.57476
1327.11410,0.61943
1328.60389,0.55701
1330.09368,0.57728
1331.58347,0.54870
1333.07326,0.58591
1334.56305,0.53857
1336.05283,0.50063
1337.54262,0.46271
1339.03241,0.54318
1340.52220,0.60112
1342.01199,0.64780
1343.50178,0.63999
1344.99156,0.71863
1346.48135,0.73715
1347.97114,0.75945
1349.46093,0.80994
1350.95072,0.87548
1352.44051,0.89405
1353.93030,0.91264
1355.42008,0.85043
1356.90987,0.74690
1358.39966,0.90645
1359.88945,0.88563
1361.37924,0.91367
1362.86903,0.87219
1364.35881,0.75369
1365.84860,0.74794
1367.33839,0.68395
1368.82818,0.62467
1370.31797,0.56541
1371.80776,0.56535
1373.29755,0.41497
1374.78733,0.34729
1376.27712,0.48256
1377.76691,0.33597
1379.25670,0.40926
1380.74649,0.37733
1382.23628,0.32662
1383.72606,0.37739
1385.21585,0.35865
1386.70564,0.36246
1388.19543,0.36630
1389.68522,0.39457
1391.17501,0.36084
1392.66479,0.40041
1394.15458,0.40617
1395.64437,0.40067
1397.13416,0.41772
1398.62395,0.49868
1400.11374,0.43121
1401.60353,0.42011
1403.09331,0.39588
1404.58310,0.39421
1406.07289,0.39255
1407.56268,0.40781
1409.05247,0.42684
1410.54226,0.42522
1412.03204,0.40858
1413.52183,0.40134
1415.01162,0.40727
1416.50141,0.49589
1417.99120,0.39849
1419.48099,0.54351
1420.97078,0.42547
1422.46056,0.46152
1423.95035,0.45813
1425.44014,0.45475
1426.92993,0.38185
1428.41972,0.35970
1429.90951,0.36575
1431.39929,0.36054
1432.88908,0.45305
1434.37887,0.36518
1435.86866,0.33558
1437.35845,0.44692
1438.84824,0.43050
1440.33802,0.47985
1441.82781,0.55929
1443.31760,0.56169
1444.80739,0.53685
1446.29718,0.51203
1447.78697,0.68547
1449.27676,0.68604
1450.76654,0.60770
1452.25633,0.69286
1453.74612,0.72917
1455.23591,0.81811
1456.72570,0.79807
1458.21549,0.80999
1459.70527,0.89520
1461.19506,0.90339
1462.68485,0.98675
1464.17464,1.09079
1465.66443,1.09995
1467.15422,1.10913
1468.64401,1.19630
1470.13379,1.21207
1471.62358,1.16021
1473.11337,1.17976
1474.60316,1.14672
1476.09295,1.05731
1477.58274,0.89651
1479.07252,0.90859
1480.56231,0.88687
1482.05210,0.72423
1483.54189,0.75514
1485.03168,0.71654
1486.52147,0.57085
1488.01125,0.53227
1489.50104,0.49371
1490.99083,0.27852
1492.48062,0.30951
1493.97041,0.23904
1495.46020,0.17610
1496.94999,0.15263
1498.43977,0.05213
1499.92956,0.06627
1501.41935,0.07666
1502.90914,0.15095
1504.39893,0.12191
1505.88872,0.00268
1507.37850,0.08073
1508.86829,0.08551
1510.35808,0.02266
1511.84787,0.05002
1513.33766,0.02759
1514.82745,0.00517
1516.31724,0.09645
1517.80702,0.05245
1519.29681,0.00846
1520.78660,0.07160
1522.27639,0.02575
1523.76618,0.04193
1525.25597,0.09007
1526.74575,0.09499
1528.23554,0.07738
1529.72533,0.04288
1531.21512,0.02341
1532.70491,0.01148
1534.19470,0.00331
1535.68448,0.00268
1537.17427,0.10053
1538.66406,0.05746
1540.15385,0.04634
1541.64364,0.03524
1543.13343,0.07113
1544.62322,0.09764
1546.11300,0.03207
1547.60279,0.05297
1549.09258,0.06635
1550.58237,0.08163
1552.07216,0.18712
1553.56195,0.09344
1555.05173,0.10500
1556.54152,0.14663
1558.03131,0.17700
1559.52110,0.12659
1561.01089,0.14759
1562.50068,0.08404
1563.99047,0.09191
1565.48025,0.06785
1566.97004,0.05508
1568.45983,0.02540
1569.94962,0.06245
1571.43941,0.09951
1572.92920,0.03793
1574.41898,0.06656
1575.90877,0.03506
1577.39856,0.14076
1578.88835,0.07547
1580.37814,0.04401
1581.86793,0.04639
1583.35771,0.15777
1584.84750,0.15642
1586.33729,0.05924
1587.82708,0.10301
1589.31687,0.06411
1590.80666,0.00268
1592.29645,0.11190
1593.78623,0.06706
1595.27602,0.11618
1596.76581,0.17847
1598.25560,0.09044
1599.74539,0.09074
1601.23518,0.03280
1602.72496,0.14399
1604.21475,0.12554
1605.70454,0.10709
1607.19433,0.18826
1608.68412,0.22246
1610.17391,0.19653
1611.66370,0.24955
1613.15348,0.21425
1614.64327,0.28984
1616.13306,0.26397
1617.62285,0.18173
1619.11264,0.15400
1620.60243,0.07931
1622.09221,0.06288
1623.58200,0.12163
1625.07179,0.16911
1626.56158,0.20534
1628.05137,0.32613
1629.54116,0.25339
1631.03094,0.20885
1632.52073,0.20754
1634.01052,0.10852
1635.50031,0.17488
1636.99010,0.14730
1638.47989,0.14792
1639.96968,0.22559
1641.45946,0.15107
1642.94925,0.19118
1644.43904,0.19561
1645.92883,0.20662
1647.41862,0.21764
1648.90841,0.20895
1650.39819,0.28483
1651.88798,0.28743
1653.37777,0.16415
1654.86756,0.17993
1656.35735,0.24083
1657.84714,0.21529
1659.33693,0.32131
1660.82671,0.35969
1662.31650,0.28158
1663.80629,0.26737
1665.29608,0.27196
1666.78587,0.37053
1668.27566,0.29810
1669.76544,0.31025
1671.25523,0.43891
1672.74502,0.42853
1674.23481,0.47078
1675.72460,0.40969
1677.21439,0.35801
1678.70417,0.43224
1680.19396,0.39185
1681.68375,0.45483
1683.17354,0.38629
1684.66333,0.38916
1686.15312,0.41459
1687.64291,0.37427
1689.13269,0.39973
1690.62248,0.39513
1692.11227,0.31351
1693.60206,0.31081
1695.09185,0.28746
1696.58164,0.30359
1698.07142,0.22952
1699.56121,0.27762
1701.05100,0.30317
1702.54079,0.25733
1704.03058,0.24157
1705.52037,0.24649
1707.01016,0.19975
1708.49994,0.15302
1709.98973,0.10348
1711.47952,0.02014
1712.96931,0.07585
1714.45910,0.13346
1715.94889,0.17042
1717.43867,0.15289
1718.92846,0.13161
1720.41825,0.06149
1721.90804,0.02896
1723.39783,0.05846
1724.88762,0.05414
1726.37740,0.00662
1727.86719,0.14702
1729.35698,0.09764
1730.84677,0.06331
1732.33656,0.00268
1733.82635,0.02618
1735.31614,0.04969
1736.80592,0.14650
1738.29571,0.14373
1739.78550,0.07333
1741.27529,0.00857
1742.76508,0.00960
1744.25487,0.05197
1745.74465,0.04739
1747.23444,0.12361
1748.72423,0.04952
1750.21402,0.05061
1751.70381,0.13627
1753.19360,0.11483
1754.68339,0.09528
1756.17317,0.07011
1757.66296,0.06749
1759.15275,0.12127
1760.64254,0.12056
1762.13233,0.08416
1763.62212,0.00268
1765.11190,0.01991
1766.60169,0.02588
1768.09148,0.06193
1769.58127,0.13933
1771.07106,0.11527
1772.56085,0.09874
1774.05063,0.04276
1775.54042,0.13900
1777.03021,0.03043
1778.52000,0.00268
