299.16008,0.10564
300.64987,0.23330
302.13966,0.20121
303.62945,0.11993
305.11924,0.03865
306.60902,0.02961
308.09881,0.04486
309.58860,0.02243
311.07839,0.00000
312.56818,0.09582
314.05797,0.04977
315.54776,0.07595
317.03754,0.10215
318.52733,0.02547
320.01712,0.02037
321.50691,0.01018
322.99670,0.00000
324.48649,0.15356
325.97627,0.15248
327.46606,0.12969
328.95585,0.10690
330.44564,0.19917
331.93543,0.02047
333.42522,0.05625
334.91501,0.09204
336.40479,0.10099
337.89458,0.13681
339.38437,0.11576
340.87416,0.09472
342.36395,0.08072
343.85374,0.06162
345.34352,0.09814
346.83331,0.13467
348.32310,0.20764
349.81289,0.15281
351.30268,0.12994
352.79247,0.10709
354.28225,0.15327
355.77204,0.09593
357.26183,0.08782
358.75162,0.07972
360.24141,0.05054
361.73120,0.25847
363.22099,0.22868
364.71077,0.19890
366.20056,0.23816
367.69035,0.14450
369.18014,0.19401
370.66993,0.24353
372.15972,0.31351
373.64950,0.27486
375.13929,0.31739
376.62908,0.35993
378.11887,0.36862
379.60866,0.44633
381.09845,0.44162
382.58824,0.43693
384.07802,0.50573
385.56781,0.43907
387.05760,0.52644
388.54739,0.61382
390.03718,0.67885
391.52697,0.49209
393.01675,0.56289
394.50654,0.63371
395.99633,0.65661
397.48612,0.60539
398.97591,0.60786
400.46570,0.61035
401.95548,0.67803
403.44527,0.61153
404.93506,0.66582
406.42485,0.72012
407.91464,0.67027
409.40443,0.65877
410.89422,0.71759
412.38400,0.79240
413.87379,0.86722
415.36358,0.95803
416.85337,0.98750
418.34316,1.05149
419.83295,1.11550
421.32273,1.20764
422.81252,1.23077
424.30231,1.24305
425.79210,1.25535
427.28189,1.26062
428.77168,1.09975
430.26146,1.17152
431.75125,1.24330
433.24104,1.14126
434.73083,1.05457
436.22062,1.01200
437.71041,0.96943
439.20020,0.69362
440.68998,0.73352
442.17977,0.70633
443.66956,0.67916
445.15935,0.53632
446.64914,0.41140
448.13893,0.35678
449.62871,0.28364
451.11850,0.21052
452.60829,0.14827
454.09808,0.14484
455.58787,0.15994
457.07766,0.17507
458.56745,0.15122
460.05723,0.16700
461.54702,0.13040
463.03681,0.09381
464.52660,0.10708
466.01639,0.12675
467.50618,0.09147
468.99596,0.05621
470.48575,0.04525
471.97554,0.01257
473.46533,0.01697
474.95512,0.02138
476.44491,0.02580
477.93469,0.09159
479.42448,0.15612
480.91427,0.14461
482.40406,0.13311
483.89385,0.22579
485.38364,0.23157
486.87343,0.30958
488.36321,0.38761
489.85300,0.42027
491.34279,0.45422
492.83258,0.52781
494.32237,0.47104
495.81216,0.41428
497.30194,0.36009
498.79173,0.35449
500.28152,0.38979
501.77131,0.42512
503.26110,0.55503
504.75089,0.51497
506.24068,0.47364
507.73046,0.43232
509.22025,0.55207
510.71004,0.48522
512.19983,0.55769
513.68962,0.55541
515.17941,0.55315
516.66919,0.53875
518.15898,0.38377
519.64877,0.38665
521.13856,0.38955
522.62835,0.39821
524.11814,0.46568
525.60792,0.57023
527.09771,0.65817
528.58750,0.74613
530.07729,0.85200
531.56708,0.92976
533.05687,0.86438
534.54666,0.79901
536.03644,0.82824
537.52623,0.78590
539.01602,0.75892
540.50581,0.79458
541.99560,0.83025
543.48539,0.83909
544.97517,0.83900
546.46496,0.82039
547.95475,0.80179
549.44454,0.84391
550.93433,0.78636
552.42412,0.78249
553.91391,0.75308
555.40369,0.72368
556.89348,0.74159
558.38327,0.75951
559.87306,0.83049
561.36285,0.90147
562.85264,0.76222
564.34242,0.68049
565.83221,0.59878
567.32200,0.55862
568.81179,0.51847
570.30158,0.47259
571.79137,0.45611
573.28115,0.44732
574.77094,0.43854
576.26073,0.43489
577.75052,0.35200
579.24031,0.27935
580.73010,0.28149
582.21989,0.28364
583.70967,0.31456
585.19946,0.33527
586.68925,0.32851
588.17904,0.32176
589.66883,0.22620
591.15862,0.14726
592.64840,0.04789
594.13819,0.02394
595.62798,0.00000
597.11777,0.06368
598.60756,0.13249
600.09735,0.16936
601.58714,0.18962
603.07692,0.20990
604.56671,0.30049
606.05650,0.37064
607.54629,0.39927
609.03608,0.42790
610.52587,0.35622
612.01565,0.30244
613.50544,0.30747
614.99523,0.28503
616.48502,0.26261
617.97481,0.24211
619.46460,0.33539
620.95438,0.34560
622.44417,0.31236
623.93396,0.27914
625.42375,0.23698
626.91354,0.39422
628.40333,0.33548
629.89312,0.27674
631.38290,0.27042
632.87269,0.21682
634.36248,0.10317
635.85227,0.14354
637.34206,0.18393
638.83185,0.10226
640.32163,0.17783
641.81142,0.20866
643.30121,0.20437
644.79100,0.20008
646.28079,0.16705
647.77058,0.17749
649.26037,0.31449
650.75015,0.31409
652.23994,0.31370
653.72973,0.35231
655.21952,0.32575
656.70931,0.22635
658.19910,0.17617
659.68888,0.12600
661.17867,0.09182
662.66846,0.01420
664.15825,0.08741
665.64804,0.10248
667.13783,0.11756
668.62761,0.16525
670.11740,0.13243
671.60719,0.17822
673.09698,0.22403
674.58677,0.17719
676.07656,0.19938
677.56635,0.25226
679.05613,0.30068
680.54592,0.34911
682.03571,0.26015
683.52550,0.28496
685.01529,0.35580
686.50508,0.33526
687.99486,0.31474
689.48465,0.22968
690.97444,0.16764
692.46423,0.23471
693.95402,0.25513
695.44381,0.27557
696.93360,0.18547
698.42338,0.16056
699.91317,0.18423
701.40296,0.16702
702.89275,0.14982
704.38254,0.10196
705.87233,0.12696
707.36211,0.07529
708.85190,0.08499
710.34169,0.09469
711.83148,0.13509
713.32127,0.15121
714.81106,0.08938
716.30084,0.10936
717.79063,0.12936
719.28042,0.15576
720.77021,0.06841
722.26000,0.08206
723.74979,0.08357
725.23958,0.08510
726.72936,0.02337
728.21915,0.00000
729.70894,0.14197
731.19873,0.16892
732.68852,0.16073
734.17831,0.15255
735.66809,0.12330
737.15788,0.16819
738.64767,0.13513
740.13746,0.13979
741.62725,0.14446
743.11704,0.09865
744.60683,0.13339
746.09661,0.19114
747.58640,0.15049
749.07619,0.10985
750.56598,0.23410
752.05577,0.23950
753.54556,0.34717
755.03534,0.33278
756.52513,0.31841
758.01492,0.39160
759.50471,0.48910
760.99450,0.62495
762.48429,0.68604
763.97407,0.74714
765.46386,0.85875
766.95365,0.83743
768.44344,0.92478
769.93323,0.94439
771.42302,0.95060
772.91281,0.95682
774.40259,0.96881
775.89238,0.88239
777.38217,0.79470
778.87196,0.81887
780.36175,0.84305
781.85154,0.80269
783.34132,0.70228
784.83111,0.70796
786.32090,0.68937
787.81069,0.67080
789.30048,0.64201
790.79027,0.56467
792.28006,0.70207
793.76984,0.54295
795.25963,0.50974
796.74942,0.47654
798.23921,0.32257
799.72900,0.36929
801.21879,0.29843
802.70857,0.31577
804.19836,0.33313
805.68815,0.25975
807.17794,0.16721
808.66773,0.12964
810.15752,0.12404
811.64730,0.11846
813.13709,0.11800
814.62688,0.21597
816.11667,0.24110
817.60646,0.26241
819.09625,0.29331
820.58604,0.32423
822.07582,0.36986
823.56561,0.37589
825.05540,0.39215
826.54519,0.43206
828.03498,0.47200
829.52477,0.43333
831.01455,0.41641
832.50434,0.56822
833.99413,0.60373
835.48392,0.55490
836.97371,0.50607
838.46350,0.50711
839.95329,0.44170
841.44307,0.49261
842.93286,0.59850
844.42265,0.59192
845.91244,0.58535
847.40223,0.71812
848.89202,0.81894
850.38180,0.86099
851.87159,0.85383
853.36138,0.84669
854.85117,0.96419
856.34096,1.15455
857.83075,1.10974
859.32053,1.34870
860.81032,1.26557
862.30011,1.18246
863.78990,1.23740
865.27969,1.15176
866.76948,1.23484
868.25927,1.15434
869.74905,1.14031
871.23884,1.12629
872.72863,1.15447
874.21842,1.17116
875.70821,1.00764
877.19800,1.09465
878.68778,1.05897
880.17757,1.02330
881.66736,1.10652
883.15715,0.99036
884.64694,0.97007
886.13673,0.97280
887.62651,0.97554
889.11630,0.97574
890.60609,1.03347
892.09588,1.07716
893.58567,0.98409
895.07546,0.97731
896.56525,0.97055
898.05503,0.85962
899.54482,0.97367
901.03461,0.96758
902.52440,0.92956
904.01419,0.92989
905.50398,0.93023
906.99376,0.91397
908.48355,0.92840
909.97334,0.92111
911.46313,0.95218
912.95292,0.94428
914.44271,0.93639
915.93250,0.94321
917.42228,0.96667
918.91207,0.84442
920.40186,0.92798
921.89165,0.94316
923.38144,0.95836
924.87123,0.94353
926.36101,1.06164
927.85080,1.11075
929.34059,1.00777
930.83038,1.01792
932.32017,1.02808
933.80996,0.88296
935.29974,0.96536
936.78953,0.87267
938.27932,0.92826
939.76911,0.91037
941.25890,0.89249
942.74869,0.95578
944.23848,0.83376
945.72826,0.79483
947.21805,0.86839
948.70784,0.88828
950.19763,0.88070
951.68742,0.87314
953.17721,0.83811
954.66699,0.88489
956.15678,0.78853
957.64657,0.83534
959.13636,0.89559
960.62615,0.95584
962.11594,1.00908
963.60573,0.98053
965.09551,0.92515
966.58530,1.08452
968.07509,1.17168
969.56488,1.25886
971.05467,1.23548
972.54446,1.18273
974.03424,1.31659
975.52403,1.30349
977.01382,1.33513
978.50361,1.36230
979.99340,1.38950
981.48319,1.43012
982.97297,1.57174
984.46276,1.64562
985.95255,1.68756
987.44234,1.66881
988.93213,1.65006
990.42192,1.71250
991.91171,1.78900
993.40149,1.85529
994.89128,1.80017
996.38107,1.68244
997.87086,1.70020
999.36065,1.71797
1000.85044,1.75877
1002.34022,1.89799
1003.83001,1.96054
1005.31980,1.94769
1006.80959,1.97384
1008.29938,2.00000
1009.78917,1.90794
1011.27896,1.99356
1012.76874,1.89770
1014.25853,1.77500
1015.74832,1.66127
1017.23811,1.59868
1018.72790,1.53609
1020.21769,1.27924
1021.70747,1.10038
1023.19726,0.78220
1024.68705,0.70178
1026.17684,0.62264
1027.66663,0.59785
1029.15642,0.57306
1030.64620,0.54637
1032.13599,0.59766
1033.62578,0.51732
1035.11557,0.46510
1036.60536,0.44486
1038.09515,0.42462
1039.58494,0.43380
1041.07472,0.51712
1042.56451,0.52633
1044.05430,0.64802
1045.54409,0.68537
1047.03388,0.70867
1048.52367,0.73198
1050.01345,0.83456
1051.50324,0.88218
1052.99303,1.01162
1054.48282,1.04010
1055.97261,1.11588
1057.46240,1.17379
1058.95219,1.23170
1060.44197,1.22956
1061.93176,1.20058
1063.42155,1.22275
1064.91134,1.31267
1066.40113,1.47418
1067.89092,1.53473
1069.38070,1.59529
1070.87049,1.70955
1072.36028,1.57458
1073.85007,1.46391
1075.33986,1.38904
1076.82965,1.36658
1078.31943,1.38057
1079.80922,1.39457
1081.29901,1.39133
1082.78880,1.29607
1084.27859,1.30436
1085.76838,1.23085
1087.25817,1.11774
1088.74795,1.04938
1090.23774,0.99637
1091.72753,0.94337
1093.21732,1.03226
1094.70711,1.08281
1096.19690,1.04391
1097.68668,1.04848
1099.17647,0.97509
1100.66626,0.94965
1102.15605,0.92422
1103.64584,0.91478
1105.13563,0.89769
1106.62542,0.79369
1108.11520,0.86226
1109.60499,0.73912
1111.09478,0.70801
1112.58457,0.72549
1114.07436,0.74299
1115.56415,0.61095
1117.05393,0.63486
1118.54372,0.57187
1120.03351,0.61753
1121.52330,0.57118
1123.01309,0.56638
1124.50288,0.56160
1125.99266,0.60220
1127.48245,0.53162
1128.97224,0.50834
1130.46203,0.49019
1131.95182,0.37363
1133.44161,0.33633
1134.93140,0.35400
1136.42118,0.37169
1137.91097,0.35232
1139.40076,0.30869
1140.89055,0.36859
1142.38034,0.28663
1143.87013,0.21619
1145.35991,0.21351
1146.84970,0.23640
1148.33949,0.25930
1149.82928,0.25026
1151.31907,0.21312
1152.80886,0.11336
1154.29865,0.12353
1155.78843,0.12733
1157.27822,0.20783
1158.76801,0.20909
1160.25780,0.21037
1161.74759,0.19505
1163.23738,0.16567
1164.72716,0.21940
1166.21695,0.18494
1167.70674,0.19395
1169.19653,0.13651
1170.68632,0.16216
1172.17611,0.18783
1173.66589,0.17005
1175.15568,0.24560
1176.64547,0.16394
1178.13526,0.13853
1179.62505,0.18215
1181.11484,0.16189
1182.60463,0.17486
1184.09441,0.18785
1185.58420,0.20085
1187.07399,0.17808
1188.56378,0.14126
1190.05357,0.19009
1191.54336,0.19675
1193.03314,0.12546
1194.52293,0.14301
1196.01272,0.16058
1197.50251,0.06887
1198.99230,0.09861
1200.48209,0.00949
1201.97188,0.04436
1203.46166,0.00000
1204.95145,0.11372
1206.44124,0.18399
1207.93103,0.20699
1209.42082,0.23000
1210.91061,0.22362
1212.40039,0.26455
1213.89018,0.24542
1215.37997,0.31705
1216.86976,0.33884
1218.35955,0.34531
1219.84934,0.31984
1221.33912,0.29438
1222.82891,0.23187
1224.31870,0.27673
1225.80849,0.37018
1227.29828,0.30771
1228.78807,0.37307
1230.27786,0.36047
1231.76764,0.38878
1233.25743,0.37174
1234.74722,0.35470
1236.23701,0.38561
1237.72680,0.39481
1239.21659,0.44747
1240.70637,0.45925
1242.19616,0.50938
1243.68595,0.51352
1245.17574,0.56368
1246.66553,0.56081
1248.15532,0.55795
1249.64511,0.58770
1251.13489,0.54460
1252.62468,0.61144
1254.11447,0.66168
1255.60426,0.70810
1257.09405,0.73280
1258.58384,0.72939
1260.07362,0.70427
1261.56341,0.69514
1263.05320,0.68602
1264.54299,0.67244
1266.03278,0.72534
1267.52257,0.68750
1269.01235,0.69058
1270.50214,0.70772
1271.99193,0.62902
1273.48172,0.57718
1274.97151,0.57072
1276.46130,0.56427
1277.95109,0.65689
1279.44087,0.62555
1280.93066,0.54565
1282.42045,0.47854
1283.91024,0.56994
1285.40003,0.53098
1286.88982,0.56233
1288.37960,0.57580
1289.86939,0.53432
1291.35918,0.49285
1292.84897,0.43862
1294.33876,0.50710
1295.82855,0.55386
1297.31834,0.47666
1298.80812,0.49661
1300.29791,0.41177
1301.78770,0.51482
1303.27749,0.49008
1304.76728,0.45384
1306.25707,0.41762
1307.74685,0.41847
1309.23664,0.51009
1310.72643,0.49180
1312.21622,0.51954
1313.70601,0.49232
1315.19580,0.51370
1316.68558,0.45583
1318.17537,0.50918
1319.66516,0.49417
1321.15495,0.47916
1322.64474,0.51594
1324.13453,0.51054
1325.62432,0.57163
1327.11410,0.63272
1328.60389,0.65038
1330.09368,0.65143
1331.58347,0.70106
1333.07326,0.62672
1334.56305,0.60736
1336.05283,0.65192
1337.54262,0.69649
1339.03241,0.76153
1340.52220,0.83297
1342.01199,0.87119
1343.50178,0.89025
1344.99156,0.97962
1346.48135,0.93991
1347.97114,1.01525
1349.46093,1.13662
1350.95072,1.36408
1352.44051,1.44394
1353.93030,1.52380
1355.42008,1.58770
1356.90987,1.64906
1358.39966,1.76411
1359.88945,1.76670
1361.37924,1.59802
1362.86903,1.54695
1364.35881,1.36424
1365.84860,1.31064
1367.33839,1.10879
1368.82818,1.01112
1370.31797,0.91346
1371.80776,0.85608
1373.29755,0.75525
1374.78733,0.65827
1376.27712,0.58942
1377.76691,0.56916
1379.25670,0.59108
1380.74649,0.58235
1382.23628,0.57107
1383.72606,0.60965
1385.21585,0.53833
1386.70564,0.56351
1388.19543,0.58872
1389.68522,0.58261
1391.17501,0.50495
1392.66479,0.50910
1394.15458,0.59251
1395.64437,0.56345
1397.13416,0.62132
1398.62395,0.59996
1400.11374,0.45335
1401.60353,0.55983
1403.09331,0.46054
1404.58310,0.48461
1406.07289,0.50869
1407.56268,0.44139
1409.05247,0.47508
1410.54226,0.45254
1412.03204,0.46837
1413.52183,0.45225
1415.01162,0.43358
1416.50141,0.48268
1417.99120,0.39246
1419.48099,0.47737
1420.97078,0.46131
1422.46056,0.47723
1423.95035,0.46248
1425.44014,0.44774
1426.92993,0.40106
1428.41972,0.33778
1429.90951,0.35375
1431.39929,0.37741
1432.88908,0.36146
1434.37887,0.31229
1435.86866,0.42546
1437.35845,0.37504
1438.84824,0.38726
1440.33802,0.42122
1441.82781,0.44114
1443.31760,0.51347
1444.80739,0.51296
1446.29718,0.51246
1447.78697,0.56438
1449.27676,0.63549
1450.76654,0.54812
1452.25633,0.64481
1453.74612,0.68273
1455.23591,0.71171
1456.72570,0.80205
1458.21549,0.79527
1459.70527,0.77699
1461.19506,0.83414
1462.68485,0.95905
1464.17464,0.98044
1465.66443,1.05296
1467.15422,1.12550
1468.64401,1.09069
1470.13379,1.13514
1471.62358,1.19749
1473.11337,1.21512
1474.60316,1.10623
1476.09295,1.11749
1477.58274,1.07253
1479.07252,1.01097
1480.56231,0.95069
1482.05210,0.85081
1483.54189,0.75478
1485.03168,0.61018
1486.52147,0.48606
1488.01125,0.49487
1489.50104,0.50370
1490.99083,0.41412
1492.48062,0.35267
1493.97041,0.30913
1495.46020,0.25282
1496.94999,0.21058
1498.43977,0.16325
1499.92956,0.09420
1501.41935,0.13125
1502.90914,0.08651
1504.39893,0.04050
1505.88872,0.01112
1507.37850,0.03417
1508.86829,0.03805
1510.35808,0.04194
1511.84787,0.05735
1513.33766,0.07150
1514.82745,0.08566
1516.31724,0.08066
1517.80702,0.12935
1519.29681,0.08731
1520.78660,0.10408
1522.27639,0.10424
1523.76618,0.00983
1525.25597,0.07904
1526.74575,0.00000
1528.23554,0.09810
1529.72533,0.05562
1531.21512,0.02081
1532.70491,0.03843
1534.19470,0.04839
1535.68448,0.07242
1537.17427,0.09135
1538.66406,0.11541
1540.15385,0.09730
1541.64364,0.07921
1543.13343,0.00489
1544.62322,0.03794
1546.11300,0.03267
1547.60279,0.05041
1549.09258,0.00298
1550.58237,0.08083
1552.07216,0.08199
1553.56195,0.04611
1555.05173,0.13294
1556.54152,0.14820
1558.03131,0.13025
1559.52110,0.09186
1561.01089,0.10844
1562.50068,0.08158
1563.99047,0.10330
1565.48025,0.05090
1566.97004,0.08799
1568.45983,0.00238
1569.94962,0.00307
1571.43941,0.00376
1572.92920,0.00000
1574.41898,0.12224
1575.90877,0.03872
1577.39856,0.04212
1578.88835,0.02636
1580.37814,0.03618
1581.86793,0.09841
1583.35771,0.18111
1584.84750,0.14751
1586.33729,0.09347
1587.82708,0.07012
1589.31687,0.02378
1590.80666,0.03625
1592.29645,0.06023
1593.78623,0.10211
1595.27602,0.16447
1596.76581,0.16676
1598.25560,0.14478
1599.74539,0.07807
1601.23518,0.09191
1602.72496,0.09169
1604.21475,0.11706
1605.70454,0.14243
1607.19433,0.23045
1608.68412,0.23540
1610.17391,0.15217
1611.66370,0.12392
1613.15348,0.22733
1614.64327,0.25278
1616.13306,0.21306
1617.62285,0.15546
1619.11264,0.09532
1620.60243,0.05819
1622.09221,0.04920
1623.58200,0.08879
1625.07179,0.09772
1626.56158,0.10027
1628.05137,0.23193
1629.54116,0.24984
1631.03094,0.21920
1632.52073,0.18729
1634.01052,0.06848
1635.50031,0.08644
1636.99010,0.06352
1638.47989,0.12241
1639.96968,0.05478
1641.45946,0.14054
1642.94925,0.15730
1644.43904,0.15872
1645.92883,0.17295
1647.41862,0.18718
1648.90841,0.13624
1650.39819,0.20419
1651.88798,0.19034
1653.37777,0.14327
1654.86756,0.14224
1656.35735,0.14505
1657.84714,0.22711
1659.33693,0.26446
1660.82671,0.22641
1662.31650,0.21265
1663.80629,0.20786
1665.29608,0.15322
1666.78587,0.18424
1668.27566,0.25234
1669.76544,0.30000
1671.25523,0.30294
1672.74502,0.30462
1674.23481,0.29097
1675.72460,0.37702
1677.21439,0.37490
1678.70417,0.37407
1680.19396,0.35536
1681.68375,0.32388
1683.17354,0.30008
1684.66333,0.28779
1686.15312,0.30492
1687.64291,0.27094
1689.13269,0.35583
1690.62248,0.34105
1692.11227,0.32883
1693.60206,0.29745
1695.09185,0.26864
1696.58164,0.23857
1698.07142,0.20212
1699.56121,0.19252
1701.05100,0.24045
1702.54079,0.26412
1704.03058,0.24305
1705.52037,0.20922
1707.01016,0.17604
1708.49994,0.14288
1709.98973,0.09503
1711.47952,0.08426
1712.96931,0.09395
1714.45910,0.12922
1715.94889,0.15939
1717.43867,0.16272
1718.92846,0.11112
1720.41825,0.03524
1721.90804,0.03862
1723.39783,0.01517
1724.88762,0.10165
1726.37740,0.08462
1727.86719,0.15579
1729.35698,0.15796
1730.84677,0.05660
1732.33656,0.00000
1733.82635,0.03560
1735.31614,0.10572
1736.80592,0.15924
1738.29571,0.12202
1739.78550,0.11038
1741.27529,0.08213
1742.76508,0.04623
1744.25487,0.10876
1745.74465,0.05244
1747.23444,0.07281
1748.72423,0.06636
1750.21402,0.05609
1751.70381,0.07906
1753.19360,0.13911
1754.68339,0.10970
1756.17317,0.05091
1757.66296,0.10461
1759.15275,0.17238
1760.64254,0.16220
1762.13233,0.06895
1763.62212,0.00000
1765.11190,0.04468
1766.60169,0.04463
1768.09148,0.13663
1769.58127,0.16089
1771.07106,0.14427
1772.56085,0.16984
1774.05063,0.09317
1775.54042,0.08298
1777.03021,0.02806
1778.52000,0.00000
