299.16008,0.15505
300.64987,0.13875
302.13966,0.21027
303.62945,0.21470
305.11924,0.21913
306.60902,0.09249
308.09881,0.14649
309.58860,0.08887
311.07839,0.03126
312.56818,0.00000
314.05797,0.00513
315.54776,0.03223
317.03754,0.05934
318.52733,0.13350
320.01712,0.07094
321.50691,0.10185
322.99670,0.13277
324.48649,0.00000
325.97627,0.13809
327.46606,0.16017
328.95585,0.18225
330.44564,0.18741
331.93543,0.18004
333.42522,0.15575
334.91501,0.13147
336.40479,0.05012
337.89458,0.08169
339.38437,0.06434
340.87416,0.04701
342.36395,0.02969
343.85374,0.06130
345.34352,0.08038
346.83331,0.09947
348.32310,0.10729
349.81289,0.13142
351.30268,0.11417
352.79247,0.09694
354.28225,0.19762
355.77204,0.13274
357.26183,0.13122
358.75162,0.12971
360.24141,0.07114
361.73120,0.10290
363.22099,0.10518
364.71077,0.10749
366.20056,0.10666
367.69035,0.06948
369.18014,0.09000
370.66993,0.11054
372.15972,0.03576
373.64950,0.20058
375.13929,0.21488
376.62908,0.22919
378.11887,0.29244
379.60866,0.25660
381.09845,0.26092
382.58824,0.26525
384.07802,0.35739
385.56781,0.31157
387.05760,0.37113
388.54739,0.43070
390.03718,0.45265
391.52697,0.49468
393.01675,0.50912
394.50654,0.52358
395.99633,0.48286
397.48612,0.51867
398.97591,0.51246
400.46570,0.50627
401.95548,0.49445
403.44527,0.46633
404.93506,0.47899
406.42485,0.49166
407.91464,0.54010
409.40443,0.64248
410.89422,0.67338
412.38400,0.72185
413.87379,0.77034
415.36358,0.80754
416.85337,0.96142
418.34316,0.99175
419.83295,1.02209
421.32273,1.00917
422.81252,1.05647
424.30231,1.11131
425.79210,1.16616
427.28189,1.17963
428.77168,1.09401
430.26146,1.09308
431.75125,1.09215
433.24104,1.05298
434.73083,0.99501
436.22062,0.84422
437.71041,0.69345
439.20020,0.57404
440.68998,0.68797
442.17977,0.67082
443.66956,0.65369
445.15935,0.47036
446.64914,0.42503
448.13893,0.41608
449.62871,0.39774
451.11850,0.37941
452.60829,0.20743
454.09808,0.12076
455.58787,0.13007
457.07766,0.13939
458.56745,0.15687
460.05723,0.00000
461.54702,0.01261
463.03681,0.02524
464.52660,0.11314
466.01639,0.17722
467.50618,0.13280
468.99596,0.08840
470.48575,0.15251
471.97554,0.09496
473.46533,0.09638
474.95512,0.06080
476.44491,0.02524
477.93469,0.09530
479.42448,0.22056
480.91427,0.26304
482.40406,0.30553
483.89385,0.34176
485.38364,0.20364
486.87343,0.23300
488.36321,0.26237
489.85300,0.29614
491.34279,0.29229
492.83258,0.42143
494.32237,0.41321
495.81216,0.40501
497.30194,0.38490
498.79173,0.39867
500.28152,0.39741
501.77131,0.39615
503.26110,0.39992
504.75089,0.39242
506.24068,0.39684
507.73046,0.40128
509.22025,0.43646
510.71004,0.39138
512.19983,0.33752
513.68962,0.33573
515.17941,0.33396
516.66919,0.50468
518.15898,0.41825
519.64877,0.47986
521.13856,0.54148
522.62835,0.46889
524.11814,0.40259
525.60792,0.47930
527.09771,0.49769
528.58750,0.51609
530.07729,0.59660
531.56708,0.72604
533.05687,0.79779
534.54666,0.86956
536.03644,0.84851
537.52623,0.81618
539.01602,0.80519
540.50581,0.78606
541.99560,0.76693
543.48539,0.85884
544.97517,0.79772
546.46496,0.75041
547.95475,0.70311
549.44454,0.68844
550.93433,0.79170
552.42412,0.75447
553.91391,0.73482
555.40369,0.71518
556.89348,0.65918
558.38327,0.65085
559.87306,0.62184
561.36285,0.59284
562.85264,0.52057
564.34242,0.54491
565.83221,0.41872
567.32200,0.41674
568.81179,0.41477
570.30158,0.43037
571.79137,0.35818
573.28115,0.37193
574.77094,0.38568
576.26073,0.20314
577.75052,0.30536
579.24031,0.23197
580.73010,0.27211
582.21989,0.31228
583.70967,0.15362
585.19946,0.00000
586.68925,0.03321
588.17904,0.06643
589.66883,0.12537
591.15862,0.14544
592.64840,0.12789
594.13819,0.12102
595.62798,0.11416
597.11777,0.11170
598.60756,0.12179
600.09735,0.13566
601.58714,0.14641
603.07692,0.15717
604.56671,0.19993
606.05650,0.19503
607.54629,0.17572
609.03608,0.15642
610.52587,0.11518
612.01565,0.08399
613.50544,0.06034
614.99523,0.07746
616.48502,0.09460
617.97481,0.16507
619.46460,0.15150
620.95438,0.14045
622.44417,0.10620
623.93396,0.07197
625.42375,0.15127
626.91354,0.19547
628.40333,0.17068
629.89312,0.14590
631.38290,0.09605
632.87269,0.06252
634.36248,0.00893
635.85227,0.04567
637.34206,0.08242
638.83185,0.04140
640.32163,0.00919
641.81142,0.03845
643.30121,0.07838
644.79100,0.11833
646.28079,0.10372
647.77058,0.13052
649.26037,0.25517
650.75015,0.27196
652.23994,0.28876
653.72973,0.20271
655.21952,0.18441
656.70931,0.18745
658.19910,0.17732
659.68888,0.16721
661.17867,0.06742
662.66846,0.01531
664.15825,0.10747
665.64804,0.10368
667.13783,0.09991
668.62761,0.11684
670.11740,0.15636
671.60719,0.14823
673.09698,0.14011
674.58677,0.18343
676.07656,0.17784
677.56635,0.17352
679.05613,0.16733
680.54592,0.16115
682.03571,0.23464
683.52550,0.24667
685.01529,0.27502
686.50508,0.28834
687.99486,0.30166
689.48465,0.19959
690.97444,0.14395
692.46423,0.17988
693.95402,0.18761
695.44381,0.19535
696.93360,0.24387
698.42338,0.15567
699.91317,0.11264
701.40296,0.14615
702.89275,0.17966
704.38254,0.19061
705.87233,0.16644
707.36211,0.17741
708.85190,0.18338
710.34169,0.18936
711.83148,0.16022
713.32127,0.09096
714.81106,0.08192
716.30084,0.12181
717.79063,0.16172
719.28042,0.08498
720.77021,0.11487
722.26000,0.15482
723.74979,0.16467
725.23958,0.17453
726.72936,0.00000
728.21915,0.02684
729.70894,0.10764
731.19873,0.12321
732.68852,0.09803
734.17831,0.07287
735.66809,0.14368
737.15788,0.12919
738.64767,0.09967
740.13746,0.11908
741.62725,0.13851
743.11704,0.10902
744.60683,0.14352
746.09661,0.15546
747.58640,0.14608
749.07619,0.13671
750.56598,0.19008
752.05577,0.27105
753.54556,0.30311
755.03534,0.33017
756.52513,0.35724
758.01492,0.40440
759.50471,0.62342
760.99450,0.61540
762.48429,0.64252
763.97407,0.66965
765.46386,0.79965
766.95365,0.84939
768.44344,0.97942
769.93323,0.97147
771.42302,0.96793
772.91281,0.96440
774.40259,0.87621
775.89238,0.89340
777.38217,0.75380
778.87196,0.77603
780.36175,0.79828
781.85154,0.68380
783.34132,0.63708
784.83111,0.57030
786.32090,0.58318
787.81069,0.59608
789.30048,0.62467
790.79027,0.57173
792.28006,0.60661
793.76984,0.54241
795.25963,0.51774
796.74942,0.49307
798.23921,0.35615
799.72900,0.27945
801.21879,0.26047
802.70857,0.27788
804.19836,0.29530
805.68815,0.21614
807.17794,0.05169
808.66773,0.07542
810.15752,0.08599
811.64730,0.09657
813.13709,0.12409
814.62688,0.21937
816.11667,0.24817
817.60646,0.29330
819.09625,0.27634
820.58604,0.25939
822.07582,0.33340
823.56561,0.34847
825.05540,0.39993
826.54519,0.39683
828.03498,0.39374
829.52477,0.44649
831.01455,0.41771
832.50434,0.53195
833.99413,0.50444
835.48392,0.57606
836.97371,0.64768
838.46350,0.54370
839.95329,0.53757
841.44307,0.47500
842.93286,0.50653
844.42265,0.59703
845.91244,0.68754
847.40223,0.80441
848.89202,0.71054
850.38180,0.77099
851.87159,0.77499
853.36138,0.77901
854.85117,0.98249
856.34096,1.16842
857.83075,1.15240
859.32053,1.29695
860.81032,1.29350
862.30011,1.29007
863.78990,1.34936
865.27969,1.18162
866.76948,1.07661
868.25927,1.05816
869.74905,1.08489
871.23884,1.11163
872.72863,1.11957
874.21842,1.03720
875.70821,1.04014
877.19800,0.97912
878.68778,0.97267
880.17757,0.96624
881.66736,0.96171
883.15715,1.05126
884.64694,0.98403
886.13673,1.01653
887.62651,1.04905
889.11630,1.07844
890.60609,1.11161
892.09588,0.95913
893.58567,1.00111
895.07546,1.02365
896.56525,1.04620
898.05503,1.03051
899.54482,1.03113
901.03461,0.96152
902.52440,0.97346
904.01419,0.97224
905.50398,0.97103
906.99376,0.97422
908.48355,0.97492
909.97334,0.95681
911.46313,0.86972
912.95292,0.90809
914.44271,0.94646
915.93250,0.97105
917.42228,1.04332
918.91207,1.06417
920.40186,1.01730
921.89165,1.09650
923.38144,1.17572
924.87123,0.99466
926.36101,1.03564
927.85080,1.12681
929.34059,1.09757
930.83038,1.10409
932.32017,1.11062
933.80996,1.05006
935.29974,1.05223
936.78953,0.91893
938.27932,0.90857
939.76911,0.97036
941.25890,1.03216
942.74869,1.07453
944.23848,1.07426
945.72826,0.94730
947.21805,0.97466
948.70784,0.94055
950.19763,0.94284
951.68742,0.94514
953.17721,0.88096
954.66699,0.96608
956.15678,1.07002
957.64657,1.09746
959.13636,1.10483
960.62615,1.11222
962.11594,1.18109
963.60573,1.09818
965.09551,1.12693
966.58530,1.17200
968.07509,1.25973
969.56488,1.34747
971.05467,1.39383
972.54446,1.29218
974.03424,1.29717
975.52403,1.44768
977.01382,1.48656
978.50361,1.42761
979.99340,1.36867
981.48319,1.46152
982.97297,1.53934
984.46276,1.65354
985.95255,1.70504
987.44234,1.73146
988.93213,1.75789
990.42192,1.65890
991.91171,1.57496
993.40149,1.50484
994.89128,1.54136
996.38107,1.59545
997.87086,1.56488
999.36065,1.53432
1000.85044,1.66998
1002.34022,1.59366
1003.83001,1.64404
1005.31980,1.82114
1006.80959,1.82952
1008.29938,1.83792
1009.78917,2.00000
1011.27896,1.89114
1012.76874,1.76096
1014.25853,1.58312
1015.74832,1.43917
1017.23811,1.31530
1018.72790,1.19144
1020.21769,1.03122
1021.70747,0.90613
1023.19726,0.80113
1024.68705,0.69363
1026.17684,0.59366
1027.66663,0.53761
1029.15642,0.48158
1030.64620,0.48075
1032.13599,0.49749
1033.62578,0.48164
1035.11557,0.50468
1036.60536,0.51205
1038.09515,0.51943
1039.58494,0.53749
1041.07472,0.55431
1042.56451,0.61128
1044.05430,0.68206
1045.54409,0.67508
1047.03388,0.67250
1048.52367,0.66993
1050.01345,0.74327
1051.50324,0.80533
1052.99303,0.75450
1054.48282,0.87304
1055.97261,0.90377
1057.46240,0.92448
1058.95219,0.94521
1060.44197,1.01486
1061.93176,1.01429
1063.42155,1.00243
1064.91134,1.03449
1066.40113,1.07033
1067.89092,1.12123
1069.38070,1.17214
1070.87049,1.21304
1072.36028,1.24139
1073.85007,1.06655
1075.33986,1.14887
1076.82965,1.01294
1078.31943,1.08713
1079.80922,1.16133
1081.29901,1.11826
1082.78880,1.06642
1084.27859,1.05473
1085.76838,1.00166
1087.25817,0.94108
1088.74795,0.98211
1090.23774,0.93347
1091.72753,0.88483
1093.21732,0.85566
1094.70711,0.87541
1096.19690,0.86633
1097.68668,0.89740
1099.17647,0.91469
1100.66626,0.85797
1102.15605,0.80127
1103.64584,0.65928
1105.13563,0.70546
1106.62542,0.63124
1108.11520,0.54448
1109.60499,0.60826
1111.09478,0.56292
1112.58457,0.55083
1114.07436,0.53876
1115.56415,0.55366
1117.05393,0.53346
1118.54372,0.45305
1120.03351,0.44793
1121.52330,0.40392
1123.01309,0.43394
1124.50288,0.46398
1125.99266,0.41374
1127.48245,0.41996
1128.97224,0.35218
1130.46203,0.36847
1131.95182,0.33207
1133.44161,0.32580
1134.93140,0.29759
1136.42118,0.26938
1137.91097,0.26315
1139.40076,0.19295
1140.89055,0.14408
1142.38034,0.22820
1143.87013,0.14674
1145.35991,0.15938
1146.84970,0.13189
1148.33949,0.10441
1149.82928,0.15597
1151.31907,0.09966
1152.80886,0.13243
1154.29865,0.09748
1155.78843,0.04121
1157.27822,0.00000
1158.76801,0.00161
1160.25780,0.00323
1161.74759,0.11149
1163.23738,0.08177
1164.72716,0.07967
1166.21695,0.11019
1167.70674,0.10058
1169.19653,0.06840
1170.68632,0.07136
1172.17611,0.07433
1173.66589,0.03718
1175.15568,0.06401
1176.64547,0.10841
1178.13526,0.06376
1179.62505,0.03041
1181.11484,0.04475
1182.60463,0.04467
1184.09441,0.04460
1185.58420,0.00879
1187.07399,0.00185
1188.56378,0.05011
1190.05357,0.04193
1191.54336,0.06011
1193.03314,0.02311
1194.52293,0.03567
1196.01272,0.04824
1197.50251,0.03386
1198.99230,0.06715
1200.48209,0.02770
1201.97188,0.07231
1203.46166,0.03915
1204.95145,0.04113
1206.44124,0.12215
1207.93103,0.12290
1209.42082,0.12367
1210.91061,0.17085
1212.40039,0.23185
1213.89018,0.21634
1215.37997,0.19583
1216.86976,0.22550
1218.35955,0.22132
1219.84934,0.21966
1221.33912,0.21801
1222.82891,0.12856
1224.31870,0.20094
1225.80849,0.18678
1227.29828,0.20901
1228.78807,0.20492
1230.27786,0.28111
1231.76764,0.25069
1233.25743,0.26294
1234.74722,0.27519
1236.23701,0.26488
1237.72680,0.37375
1239.21659,0.35217
1240.70637,0.40964
1242.19616,0.43450
1243.68595,0.45184
1245.17574,0.43031
1246.66553,0.41695
1248.15532,0.40360
1249.64511,0.49751
1251.13489,0.56258
1252.62468,0.50975
1254.11447,0.54725
1255.60426,0.65627
1257.09405,0.64487
1258.58384,0.59334
1260.07362,0.61834
1261.56341,0.58566
1263.05320,0.55298
1264.54299,0.62694
1266.03278,0.53785
1267.52257,0.54660
1269.01235,0.54659
1270.50214,0.54784
1271.99193,0.50520
1273.48172,0.46760
1274.97151,0.46261
1276.46130,0.45764
1277.95109,0.50913
1279.44087,0.50670
1280.93066,0.46664
1282.42045,0.45294
1283.91024,0.44928
1285.40003,0.38919
1286.88982,0.48340
1288.37960,0.44340
1289.86939,0.44481
1291.35918,0.44623
1292.84897,0.38746
1294.33876,0.34500
1295.82855,0.40667
1297.31834,0.37427
1298.80812,0.36195
1300.29791,0.29822
1301.78770,0.32983
1303.27749,0.37650
1304.76728,0.40061
1306.25707,0.42473
1307.74685,0.35479
1309.23664,0.39273
1310.72643,0.41814
1312.21622,0.41095
1313.70601,0.45269
1315.19580,0.43800
1316.68558,0.40952
1318.17537,0.48015
1319.66516,0.48933
1321.15495,0.49851
1322.64474,0.42116
1324.13453,0.45421
1325.62432,0.42580
1327.11410,0.55420
1328.60389,0.51829
1330.09368,0.46734
1331.58347,0.51424
1333.07326,0.53984
1334.56305,0.52530
1336.05283,0.51830
1337.54262,0.51131
1339.03241,0.53193
1340.52220,0.53250
1342.01199,0.52178
1343.50178,0.56251
1344.99156,0.63461
1346.48135,0.66031
1347.97114,0.61326
1349.46093,0.61014
1350.95072,0.61455
1352.44051,0.61270
1353.93030,0.61086
1355.42008,0.55760
1356.90987,0.55955
1358.39966,0.65058
1359.88945,0.56976
1361.37924,0.56296
1362.86903,0.49220
1364.35881,0.47540
1365.84860,0.50502
1367.33839,0.37032
1368.82818,0.37550
1370.31797,0.38069
1371.80776,0.28617
1373.29755,0.25188
1374.78733,0.31042
1376.27712,0.32883
1377.76691,0.24941
1379.25670,0.26283
1380.74649,0.32393
1382.23628,0.26211
1383.72606,0.24671
1385.21585,0.24011
1386.70564,0.25296
1388.19543,0.26582
1389.68522,0.29814
1391.17501,0.28030
1392.66479,0.33522
1394.15458,0.30360
1395.64437,0.27575
1397.13416,0.35580
1398.62395,0.42582
1400.11374,0.42185
1401.60353,0.39029
1403.09331,0.40390
1404.58310,0.41062
1406.07289,0.41736
1407.56268,0.39965
1409.05247,0.43337
1410.54226,0.48844
1412.03204,0.44191
1413.52183,0.46439
1415.01162,0.45551
1416.50141,0.48178
1417.99120,0.46415
1419.48099,0.48793
1420.97078,0.42767
1422.46056,0.43767
1423.95035,0.45710
1425.44014,0.47653
1426.92993,0.42009
1428.41972,0.39376
1429.90951,0.29845
1431.39929,0.37125
1432.88908,0.33242
1434.37887,0.39395
1435.86866,0.35137
1437.35845,0.41418
1438.84824,0.42808
1440.33802,0.44450
1441.82781,0.51612
1443.31760,0.60532
1444.80739,0.61425
1446.29718,0.62319
1447.78697,0.66978
1449.27676,0.66620
1450.76654,0.69776
1452.25633,0.74689
1453.74612,0.85373
1455.23591,0.83138
1456.72570,0.82536
1458.21549,0.89962
1459.70527,0.92247
1461.19506,0.90895
1462.68485,0.92429
1464.17464,1.00864
1465.66443,1.05161
1467.15422,1.09459
1468.64401,1.11249
1470.13379,1.12288
1471.62358,1.10192
1473.11337,1.08222
1474.60316,1.01738
1476.09295,0.94001
1477.58274,0.91658
1479.07252,0.87687
1480.56231,0.80831
1482.05210,0.68833
1483.54189,0.62733
1485.03168,0.63658
1486.52147,0.50535
1488.01125,0.44124
1489.50104,0.37715
1490.99083,0.26226
1492.48062,0.26405
1493.97041,0.18180
1495.46020,0.19239
1496.94999,0.12648
1498.43977,0.10197
1499.92956,0.10130
1501.41935,0.02288
1502.90914,0.03604
1504.39893,0.00280
1505.88872,0.03982
1507.37850,0.03921
1508.86829,0.05242
1510.35808,0.05811
1511.84787,0.02368
1513.33766,0.01183
1514.82745,0.00000
1516.31724,0.02742
1517.80702,0.05737
1519.29681,0.04844
1520.78660,0.00439
1522.27639,0.06072
1523.76618,0.04806
1525.25597,0.07304
1526.74575,0.07923
1528.23554,0.05281
1529.72533,0.02640
1531.21512,0.00000
1532.70491,0.03680
1534.19470,0.01590
1535.68448,0.03516
1537.17427,0.09959
1538.66406,0.06618
1540.15385,0.07293
1541.64364,0.07969
1543.13343,0.05761
1544.62322,0.08196
1546.11300,0.03231
1547.60279,0.07801
1549.09258,0.06727
1550.58237,0.09041
1552.07216,0.10603
1553.56195,0.11791
1555.05173,0.11349
1556.54152,0.14546
1558.03131,0.11472
1559.52110,0.13542
1561.01089,0.12980
1562.50068,0.08780
1563.99047,0.04833
1565.48025,0.04274
1566.97004,0.11117
1568.45983,0.05041
1569.94962,0.06304
1571.43941,0.07569
1572.92920,0.10779
1574.41898,0.06715
1575.90877,0.09300
1577.39856,0.06242
1578.88835,0.10837
1580.37814,0.12422
1581.86793,0.09116
1583.35771,0.12335
1584.84750,0.14928
1586.33729,0.10497
1587.82708,0.08576
1589.31687,0.12928
1590.80666,0.13895
1592.29645,0.16995
1593.78623,0.11817
1595.27602,0.14042
1596.76581,0.19153
1598.25560,0.14982
1599.74539,0.15956
1601.23518,0.20945
1602.72496,0.17907
1604.21475,0.18257
1605.70454,0.18609
1607.19433,0.17958
1608.68412,0.19441
1610.17391,0.22681
1611.66370,0.32069
1613.15348,0.26530
1614.64327,0.21997
1616.13306,0.24865
1617.62285,0.22717
1619.11264,0.24334
1620.60243,0.20056
1622.09221,0.23808
1623.58200,0.25428
1625.07179,0.24164
1626.56158,0.23654
1628.05137,0.24651
1629.54116,0.22763
1631.03094,0.20250
1632.52073,0.20999
1634.01052,0.21373
1635.50031,0.16355
1636.99010,0.19365
1638.47989,0.20747
1639.96968,0.20875
1641.45946,0.24265
1642.94925,0.19504
1644.43904,0.19008
1645.92883,0.19517
1647.41862,0.20028
1648.90841,0.26184
1650.39819,0.29080
1651.88798,0.30347
1653.37777,0.25217
1654.86756,0.22347
1656.35735,0.30015
1657.84714,0.26268
1659.33693,0.31806
1660.82671,0.40481
1662.31650,0.36864
1663.80629,0.36635
1665.29608,0.34274
1666.78587,0.34048
1668.27566,0.36331
1669.76544,0.42002
1671.25523,0.41278
1672.74502,0.44066
1674.23481,0.45602
1675.72460,0.41117
1677.21439,0.43659
1678.70417,0.36919
1680.19396,0.42222
1681.68375,0.40126
1683.17354,0.37529
1684.66333,0.37442
1686.15312,0.44381
1687.64291,0.37398
1689.13269,0.34680
1690.62248,0.31337
1692.11227,0.26363
1693.60206,0.33183
1695.09185,0.27083
1696.58164,0.24121
1698.07142,0.24421
1699.56121,0.21712
1701.05100,0.23395
1702.54079,0.17803
1704.03058,0.17983
1705.52037,0.15027
1707.01016,0.12575
1708.49994,0.10124
1709.98973,0.13068
1711.47952,0.09992
1712.96931,0.05161
1714.45910,0.09238
1715.94889,0.08047
1717.43867,0.08489
1718.92846,0.03537
1720.41825,0.01723
1721.90804,0.01792
1723.39783,0.01611
1724.88762,0.04943
1726.37740,0.00625
1727.86719,0.01702
1729.35698,0.03532
1730.84677,0.06995
1732.33656,0.00549
1733.82635,0.00000
1735.31614,0.03295
1736.80592,0.02075
1738.29571,0.02738
1739.78550,0.02148
1741.27529,0.08207
1742.76508,0.00344
1744.25487,0.03019
1745.74465,0.02308
1747.23444,0.03982
1748.72423,0.02019
1750.21402,0.02190
1751.70381,0.00856
1753.19360,0.03162
1754.68339,0.05093
1756.17317,0.00000
1757.66296,0.05887
1759.15275,0.07009
1760.64254,0.01860
1762.13233,0.05117
1763.62212,0.03232
1765.11190,0.03856
1766.60169,0.03855
1768.09148,0.03479
1769.58127,0.04985
1771.07106,0.02981
1772.56085,0.07375
1774.05063,0.01735
1775.54042,0.00486
1777.03021,0.07267
1778.52000,0.00000
