299.16008,0.16968
300.64987,0.19873
302.13966,0.24958
303.62945,0.22056
305.11924,0.19156
306.60902,0.15096
308.09881,0.00000
309.58860,0.05816
311.07839,0.11634
312.56818,0.10772
314.05797,0.12961
315.54776,0.11159
317.03754,0.09357
318.52733,0.08936
320.01712,0.10258
321.50691,0.06427
322.99670,0.02597
324.48649,0.04794
325.97627,0.09316
327.46606,0.11660
328.95585,0.14006
330.44564,0.14756
331.93543,0.07230
333.42522,0.05949
334.91501,0.04669
336.40479,0.01067
337.89458,0.11842
339.38437,0.09186
340.87416,0.06531
342.36395,0.12082
343.85374,0.01080
345.34352,0.06778
346.83331,0.12477
348.32310,0.14838
349.81289,0.12263
351.30268,0.06131
352.79247,0.00000
354.28225,0.14683
355.77204,0.10345
357.26183,0.09855
358.75162,0.09367
360.24141,0.07936
361.73120,0.15219
363.22099,0.12193
364.71077,0.09168
366.20056,0.14131
367.69035,0.15175
369.18014,0.12371
370.66993,0.09569
372.15972,0.17876
373.64950,0.18198
375.13929,0.21062
376.62908,0.23928
378.11887,0.26576
379.60866,0.28065
381.09845,0.30207
382.58824,0.32351
384.07802,0.35150
385.56781,0.39982
387.05760,0.41621
388.54739,0.43262
390.03718,0.55649
391.52697,0.44222
393.01675,0.46665
394.50654,0.49108
395.99633,0.69051
397.48612,0.61259
398.97591,0.56155
400.46570,0.51052
401.95548,0.57204
403.44527,0.61469
404.93506,0.59056
406.42485,0.56644
407.91464,0.68174
409.40443,0.58939
410.89422,0.72359
412.38400,0.73654
413.87379,0.74951
415.36358,0.83001
416.85337,0.82339
418.34316,0.90755
419.83295,0.99172
421.32273,1.11292
422.81252,1.05408
424.30231,1.08745
425.79210,1.12084
427.28189,1.02427
428.77168,1.05260
430.26146,1.07223
431.75125,1.09186
433.24104,1.01712
434.73083,0.94240
436.22062,0.92213
437.71041,0.90188
439.20020,0.66019
440.68998,0.59713
442.17977,0.61394
443.66956,0.63076
445.15935,0.48496
446.64914,0.40597
448.13893,0.29504
449.62871,0.24221
451.11850,0.18938
452.60829,0.12496
454.09808,0.21157
455.58787,0.15007
457.07766,0.08858
458.56745,0.11859
460.05723,0.12101
461.54702,0.11256
463.03681,0.10413
464.52660,0.08771
466.01639,0.11778
467.50618,0.11373
468.99596,0.10969
470.48575,0.02071
471.97554,0.00000
473.46533,0.06305
474.95512,0.07238
476.44491,0.08173
477.93469,0.15498
479.42448,0.06705
480.91427,0.06264
482.40406,0.05823
483.89385,0.15331
485.38364,0.25566
486.87343,0.29485
488.36321,0.33406
489.85300,0.33915
491.34279,0.44009
492.83258,0.43214
494.32237,0.43146
495.81216,0.43079
497.30194,0.40399
498.79173,0.36849
500.28152,0.38092
501.77131,0.39336
503.26110,0.49585
504.75089,0.39360
506.24068,0.40535
507.73046,0.41711
509.22025,0.43251
510.71004,0.37532
512.19983,0.40382
513.68962,0.44540
515.17941,0.48699
516.66919,0.43710
518.15898,0.39449
519.64877,0.35261
521.13856,0.31075
522.62835,0.34078
524.11814,0.38534
525.60792,0.56641
527.09771,0.60882
528.58750,0.65124
530.07729,0.72634
531.56708,0.75644
533.05687,0.70523
534.54666,0.65403
536.03644,0.69577
537.52623,0.66347
539.01602,0.77350
540.50581,0.76228
541.99560,0.75107
543.48539,0.78561
544.97517,0.71416
546.46496,0.71388
547.95475,0.71361
549.44454,0.69737
550.93433,0.70293
552.42412,0.60976
553.91391,0.62115
555.40369,0.63255
556.89348,0.56990
558.38327,0.62199
559.87306,0.60366
561.36285,0.58534
562.85264,0.43416
564.34242,0.44127
565.83221,0.46001
567.32200,0.43230
568.81179,0.40459
570.30158,0.37255
571.79137,0.39134
573.28115,0.28961
574.77094,0.18789
576.26073,0.24883
577.75052,0.20086
579.24031,0.18776
580.73010,0.18048
582.21989,0.17321
583.70967,0.18628
585.19946,0.10207
586.68925,0.14711
588.17904,0.19216
589.66883,0.12831
591.15862,0.09643
592.64840,0.06164
594.13819,0.04503
595.62798,0.02842
597.11777,0.06628
598.60756,0.10561
600.09735,0.13623
601.58714,0.10079
603.07692,0.06536
604.56671,0.15556
606.05650,0.23414
607.54629,0.18931
609.03608,0.14449
610.52587,0.17665
612.01565,0.13911
613.50544,0.20033
614.99523,0.19331
616.48502,0.18630
617.97481,0.16188
619.46460,0.12876
620.95438,0.14502
622.44417,0.14895
623.93396,0.15289
625.42375,0.05156
626.91354,0.21308
628.40333,0.21488
629.89312,0.21669
631.38290,0.17494
632.87269,0.08238
634.36248,0.00000
635.85227,0.03338
637.34206,0.06677
638.83185,0.02829
640.32163,0.07550
641.81142,0.10674
643.30121,0.12566
644.79100,0.14459
646.28079,0.07422
647.77058,0.07937
649.26037,0.17457
650.75015,0.16159
652.23994,0.14863
653.72973,0.17997
655.21952,0.19389
656.70931,0.09311
658.19910,0.13827
659.68888,0.18345
661.17867,0.03188
662.66846,0.09813
664.15825,0.02064
665.64804,0.05425
667.13783,0.08787
668.62761,0.15707
670.11740,0.10141
671.60719,0.09658
673.09698,0.09176
674.58677,0.10003
676.07656,0.17365
677.56635,0.19210
679.05613,0.21419
680.54592,0.23630
682.03571,0.25042
683.52550,0.23843
685.01529,0.22063
686.50508,0.27691
687.99486,0.33319
689.48465,0.20071
690.97444,0.21782
692.46423,0.23928
693.95402,0.24116
695.44381,0.24305
696.93360,0.18759
698.42338,0.15392
699.91317,0.12608
701.40296,0.13164
702.89275,0.13722
704.38254,0.10795
705.87233,0.09322
707.36211,0.15401
708.85190,0.14148
710.34169,0.12897
711.83148,0.13606
713.32127,0.04007
714.81106,0.13577
716.30084,0.13927
717.79063,0.14278
719.28042,0.09330
720.77021,0.16000
722.26000,0.09167
723.74979,0.09450
725.23958,0.09734
726.72936,0.00000
728.21915,0.06675
729.70894,0.12190
731.19873,0.13931
732.68852,0.16907
734.17831,0.19884
735.66809,0.17561
737.15788,0.10593
738.64767,0.13356
740.13746,0.14522
741.62725,0.15690
743.11704,0.11486
744.60683,0.18029
746.09661,0.16876
747.58640,0.18919
749.07619,0.20964
750.56598,0.14152
752.05577,0.31591
753.54556,0.30880
755.03534,0.29880
756.52513,0.28880
758.01492,0.44872
759.50471,0.52007
760.99450,0.59870
762.48429,0.66644
763.97407,0.73419
765.46386,0.77219
766.95365,0.86973
768.44344,0.90485
769.93323,0.91529
771.42302,0.88581
772.91281,0.85634
774.40259,0.94232
775.89238,0.86423
777.38217,0.82245
778.87196,0.81117
780.36175,0.79991
781.85154,0.74074
783.34132,0.71208
784.83111,0.70085
786.32090,0.66059
787.81069,0.62034
789.30048,0.70644
790.79027,0.70397
792.28006,0.63036
793.76984,0.64098
795.25963,0.54271
796.74942,0.44444
798.23921,0.37087
799.72900,0.32781
801.21879,0.29929
802.70857,0.31651
804.19836,0.33375
805.68815,0.15278
807.17794,0.10687
808.66773,0.11471
810.15752,0.10948
811.64730,0.10427
813.13709,0.19781
814.62688,0.25797
816.11667,0.17147
817.60646,0.23164
819.09625,0.29401
820.58604,0.35639
822.07582,0.35561
823.56561,0.39406
825.05540,0.35119
826.54519,0.37658
828.03498,0.40199
829.52477,0.43031
831.01455,0.39911
832.50434,0.53346
833.99413,0.52697
835.48392,0.48563
836.97371,0.44431
838.46350,0.51191
839.95329,0.50691
841.44307,0.50919
842.93286,0.55504
844.42265,0.59291
845.91244,0.63080
847.40223,0.66362
848.89202,0.72403
850.38180,0.84981
851.87159,0.87177
853.36138,0.89374
854.85117,0.99922
856.34096,1.03646
857.83075,1.10421
859.32053,1.20827
860.81032,1.22449
862.30011,1.24072
863.78990,1.20832
865.27969,1.19916
866.76948,1.15661
868.25927,1.18523
869.74905,1.15940
871.23884,1.13359
872.72863,1.13611
874.21842,1.13137
875.70821,1.03662
877.19800,1.02319
878.68778,1.06714
880.17757,1.11110
881.66736,1.08319
883.15715,1.03641
884.64694,1.03030
886.13673,1.00242
887.62651,0.97456
889.11630,1.04255
890.60609,0.95081
892.09588,1.02898
893.58567,1.13040
895.07546,1.05976
896.56525,0.98912
898.05503,0.94827
899.54482,1.10346
901.03461,1.10039
902.52440,0.95356
904.01419,0.95849
905.50398,0.96344
906.99376,0.95605
908.48355,0.87171
909.97334,0.93550
911.46313,0.98333
912.95292,1.02100
914.44271,1.05869
915.93250,0.99764
917.42228,0.99469
918.91207,0.91624
920.40186,0.88862
921.89165,0.92201
923.38144,0.95541
924.87123,0.99898
926.36101,0.97577
927.85080,1.05277
929.34059,1.01941
930.83038,1.05650
932.32017,1.09360
933.80996,0.97170
935.29974,0.97759
936.78953,0.91090
938.27932,0.95022
939.76911,0.94817
941.25890,0.94612
942.74869,0.94191
944.23848,0.84042
945.72826,0.81010
947.21805,0.89886
948.70784,0.89905
950.19763,0.91160
951.68742,0.92416
953.17721,0.94617
954.66699,0.92172
956.15678,0.91181
957.64657,0.91062
959.13636,1.01254
960.62615,1.11447
962.11594,1.13946
963.60573,1.06861
965.09551,1.08926
966.58530,1.19705
968.07509,1.26782
969.56488,1.33860
971.05467,1.30992
972.54446,1.27835
974.03424,1.38910
975.52403,1.28930
977.01382,1.49156
978.50361,1.52320
979.99340,1.55485
981.48319,1.61338
982.97297,1.58915
984.46276,1.72467
985.95255,1.74548
987.44234,1.74161
988.93213,1.73775
990.42192,1.78183
991.91171,1.85496
993.40149,1.82500
994.89128,1.71374
996.38107,1.81159
997.87086,1.79328
999.36065,1.77498
1000.85044,1.87287
1002.34022,1.88799
1003.83001,1.84069
1005.31980,1.91102
1006.80959,1.88915
1008.29938,1.86729
1009.78917,1.93620
1011.27896,1.90202
1012.76874,2.00000
1014.25853,1.74076
1015.74832,1.64563
1017.23811,1.56866
1018.72790,1.49170
1020.21769,1.21072
1021.70747,1.03141
1023.19726,0.87389
1024.68705,0.75849
1026.17684,0.58502
1027.66663,0.59671
1029.15642,0.60841
1030.64620,0.52792
1032.13599,0.50261
1033.62578,0.52959
1035.11557,0.51447
1036.60536,0.53349
1038.09515,0.55252
1039.58494,0.49823
1041.07472,0.64580
1042.56451,0.61767
1044.05430,0.71879
1045.54409,0.78071
1047.03388,0.77222
1048.52367,0.76374
1050.01345,0.83586
1051.50324,0.84991
1052.99303,1.05130
1054.48282,1.06102
1055.97261,1.10995
1057.46240,1.12913
1058.95219,1.14832
1060.44197,1.17696
1061.93176,1.28548
1063.42155,1.19507
1064.91134,1.29054
1066.40113,1.48622
1067.89092,1.48878
1069.38070,1.49135
1070.87049,1.63043
1072.36028,1.52266
1073.85007,1.54996
1075.33986,1.45528
1076.82965,1.37078
1078.31943,1.36470
1079.80922,1.35864
1081.29901,1.37437
1082.78880,1.28265
1084.27859,1.31583
1085.76838,1.13991
1087.25817,1.23846
1088.74795,1.11630
1090.23774,1.10596
1091.72753,1.09563
1093.21732,1.09112
1094.70711,1.13890
1096.19690,1.08069
1097.68668,1.00506
1099.17647,0.91056
1100.66626,0.91410
1102.15605,0.91765
1103.64584,0.85513
1105.13563,0.87395
1106.62542,0.82743
1108.11520,0.89274
1109.60499,0.74024
1111.09478,0.69521
1112.58457,0.71336
1114.07436,0.73152
1115.56415,0.62553
1117.05393,0.60088
1118.54372,0.62270
1120.03351,0.52110
1121.52330,0.50374
1123.01309,0.51834
1124.50288,0.53295
1125.99266,0.56500
1127.48245,0.55785
1128.97224,0.56088
1130.46203,0.44339
1131.95182,0.37528
1133.44161,0.30719
1134.93140,0.36181
1136.42118,0.41644
1137.91097,0.36871
1139.40076,0.27453
1140.89055,0.27184
1142.38034,0.27351
1143.87013,0.23309
1145.35991,0.22463
1146.84970,0.23215
1148.33949,0.23968
1149.82928,0.15428
1151.31907,0.20831
1152.80886,0.07501
1154.29865,0.12180
1155.78843,0.16424
1157.27822,0.14715
1158.76801,0.14968
1160.25780,0.15222
1161.74759,0.20778
1163.23738,0.03971
1164.72716,0.17080
1166.21695,0.09425
1167.70674,0.08886
1169.19653,0.16625
1170.68632,0.14709
1172.17611,0.12794
1173.66589,0.08048
1175.15568,0.15792
1176.64547,0.16132
1178.13526,0.13568
1179.62505,0.08681
1181.11484,0.08443
1182.60463,0.08932
1184.09441,0.09422
1185.58420,0.10494
1187.07399,0.05178
1188.56378,0.11335
1190.05357,0.04133
1191.54336,0.08405
1193.03314,0.08321
1194.52293,0.09908
1196.01272,0.11496
1197.50251,0.04591
1198.99230,0.01753
1200.48209,0.07919
1201.97188,0.00000
1203.46166,0.04690
1204.95145,0.12139
1206.44124,0.19880
1207.93103,0.18474
1209.42082,0.17069
1210.91061,0.21910
1212.40039,0.16006
1213.89018,0.19832
1215.37997,0.23659
1216.86976,0.24148
1218.35955,0.29284
1219.84934,0.25346
1221.33912,0.21409
1222.82891,0.20741
1224.31870,0.18331
1225.80849,0.24199
1227.29828,0.27309
1228.78807,0.31437
1230.27786,0.25692
1231.76764,0.33888
1233.25743,0.31993
1234.74722,0.30100
1236.23701,0.35105
1237.72680,0.31543
1239.21659,0.39019
1240.70637,0.38364
1242.19616,0.45262
1243.68595,0.51579
1245.17574,0.42506
1246.66553,0.46430
1248.15532,0.50355
1249.64511,0.50287
1251.13489,0.47462
1252.62468,0.46381
1254.11447,0.58660
1255.60426,0.57581
1257.09405,0.59262
1258.58384,0.61380
1260.07362,0.55948
1261.56341,0.58068
1263.05320,0.60190
1264.54299,0.58827
1266.03278,0.54271
1267.52257,0.62349
1269.01235,0.57360
1270.50214,0.55130
1271.99193,0.50143
1273.48172,0.55903
1274.97151,0.52951
1276.46130,0.50000
1277.95109,0.53149
1279.44087,0.58187
1280.93066,0.46236
1282.42045,0.40531
1283.91024,0.41071
1285.40003,0.46840
1286.88982,0.51303
1288.37960,0.49232
1289.86939,0.46800
1291.35918,0.44369
1292.84897,0.37074
1294.33876,0.41978
1295.82855,0.37445
1297.31834,0.42497
1298.80812,0.32302
1300.29791,0.33000
1301.78770,0.39798
1303.27749,0.34980
1304.76728,0.35898
1306.25707,0.36819
1307.74685,0.36215
1309.23664,0.39098
1310.72643,0.38932
1312.21622,0.48788
1313.70601,0.41509
1315.19580,0.43089
1316.68558,0.43945
1318.17537,0.44366
1319.66516,0.40649
1321.15495,0.36934
1322.64474,0.39537
1324.13453,0.45916
1325.62432,0.52151
1327.11410,0.53305
1328.60389,0.58962
1330.09368,0.57069
1331.58347,0.49223
1333.07326,0.46896
1334.56305,0.47910
1336.05283,0.54008
1337.54262,0.60107
1339.03241,0.64320
1340.52220,0.67517
1342.01199,0.74636
1343.50178,0.75077
1344.99156,0.85393
1346.48135,0.83803
1347.97114,0.88458
1349.46093,1.04005
1350.95072,1.07065
1352.44051,1.14337
1353.93030,1.21610
1355.42008,1.27288
1356.90987,1.37613
1358.39966,1.49391
1359.88945,1.48683
1361.37924,1.30985
1362.86903,1.33038
1364.35881,1.23619
1365.84860,1.14929
1367.33839,0.97526
1368.82818,0.94210
1370.31797,0.90895
1371.80776,0.74948
1373.29755,0.56969
1374.78733,0.56708
1376.27712,0.53833
1377.76691,0.54881
1379.25670,0.46055
1380.74649,0.44491
1382.23628,0.46268
1383.72606,0.47029
1385.21585,0.47357
1386.70564,0.47249
1388.19543,0.47143
1389.68522,0.52992
1391.17501,0.49403
1392.66479,0.45089
1394.15458,0.49924
1395.64437,0.47646
1397.13416,0.48708
1398.62395,0.49772
1400.11374,0.43576
1401.60353,0.44060
1403.09331,0.38012
1404.58310,0.37047
1406.07289,0.36083
1407.56268,0.38896
1409.05247,0.38661
1410.54226,0.40169
1412.03204,0.36160
1413.52183,0.34040
1415.01162,0.42232
1416.50141,0.35903
1417.99120,0.36982
1419.48099,0.36464
1420.97078,0.27960
1422.46056,0.34270
1423.95035,0.35643
1425.44014,0.37017
1426.92993,0.26340
1428.41972,0.25539
1429.90951,0.31273
1431.39929,0.31490
1432.88908,0.29095
1434.37887,0.22490
1435.86866,0.29826
1437.35845,0.30048
1438.84824,0.30852
1440.33802,0.39643
1441.82781,0.30139
1443.31760,0.33270
1444.80739,0.39742
1446.29718,0.46215
1447.78697,0.49785
1449.27676,0.55244
1450.76654,0.47925
1452.25633,0.49900
1453.74612,0.68577
1455.23591,0.65908
1456.72570,0.57432
1458.21549,0.70013
1459.70527,0.69672
1461.19506,0.75139
1462.68485,0.84094
1464.17464,0.87966
1465.66443,0.91259
1467.15422,0.94554
1468.64401,0.99301
1470.13379,1.06664
1471.62358,1.05605
1473.11337,1.10791
1474.60316,1.03055
1476.09295,0.94449
1477.58274,1.00074
1479.07252,0.95536
1480.56231,0.84755
1482.05210,0.74120
1483.54189,0.73942
1485.03168,0.57791
1486.52147,0.49192
1488.01125,0.43717
1489.50104,0.38243
1490.99083,0.38651
1492.48062,0.25410
1493.97041,0.27128
1495.46020,0.20569
1496.94999,0.11107
1498.43977,0.13264
1499.92956,0.10194
1501.41935,0.10320
1502.90914,0.09720
1504.39893,0.03459
1505.88872,0.07364
1507.37850,0.05897
1508.86829,0.00655
1510.35808,0.04564
1511.84787,0.01212
1513.33766,0.03162
1514.82745,0.05114
1516.31724,0.04089
1517.80702,0.05534
1519.29681,0.05674
1520.78660,0.04653
1522.27639,0.09441
1523.76618,0.00000
1525.25597,0.00982
1526.74575,0.03852
1528.23554,0.05272
1529.72533,0.05967
1531.21512,0.03178
1532.70491,0.04746
1534.19470,0.04427
1535.68448,0.06579
1537.17427,0.06844
1538.66406,0.02463
1540.15385,0.03166
1541.64364,0.03869
1543.13343,0.02106
1544.62322,0.01215
1546.11300,0.05117
1547.60279,0.05244
1549.09258,0.00000
1550.58237,0.06807
1552.07216,0.08388
1553.56195,0.06195
1555.05173,0.03131
1556.54152,0.08636
1558.03131,0.10657
1559.52110,0.05854
1561.01089,0.09765
1562.50068,0.10047
1563.99047,0.08152
1565.48025,0.04515
1566.97004,0.02187
1568.45983,0.05958
1569.94962,0.05084
1571.43941,0.04211
1572.92920,0.02904
1574.41898,0.00000
1575.90877,0.05645
1577.39856,0.03739
1578.88835,0.04884
1580.37814,0.07047
1581.86793,0.07323
1583.35771,0.09924
1584.84750,0.05991
1586.33729,0.06706
1587.82708,0.05390
1589.31687,0.00589
1590.80666,0.05374
1592.29645,0.05803
1593.78623,0.08847
1595.27602,0.10586
1596.76581,0.10293
1598.25560,0.06806
1599.74539,0.17987
1601.23518,0.15083
1602.72496,0.10438
1604.21475,0.12692
1605.70454,0.14946
1607.19433,0.14516
1608.68412,0.15829
1610.17391,0.14965
1611.66370,0.19475
1613.15348,0.15855
1614.64327,0.20948
1616.13306,0.19944
1617.62285,0.06307
1619.11264,0.08935
1620.60243,0.09531
1622.09221,0.13614
1623.58200,0.11308
1625.07179,0.09294
1626.56158,0.14977
1628.05137,0.16305
1629.54116,0.14294
1631.03094,0.19981
1632.52073,0.14923
1634.01052,0.10302
1635.50031,0.15992
1636.99010,0.12535
1638.47989,0.13726
1639.96968,0.14627
1641.45946,0.11028
1642.94925,0.15998
1644.43904,0.13418
1645.92883,0.13017
1647.41862,0.12617
1648.90841,0.14688
1650.39819,0.14726
1651.88798,0.10409
1653.37777,0.17129
1654.86756,0.13976
1656.35735,0.05742
1657.84714,0.16241
1659.33693,0.20062
1660.82671,0.18511
1662.31650,0.16525
1663.80629,0.17445
1665.29608,0.15461
1666.78587,0.16093
1668.27566,0.21518
1669.76544,0.23459
1671.25523,0.20318
1672.74502,0.18631
1674.23481,0.23625
1675.72460,0.26296
1677.21439,0.22435
1678.70417,0.21042
1680.19396,0.22991
1681.68375,0.24651
1683.17354,0.20358
1684.66333,0.22020
1686.15312,0.19762
1687.64291,0.20264
1689.13269,0.22075
1690.62248,0.18659
1692.11227,0.18729
1693.60206,0.23011
1695.09185,0.22067
1696.58164,0.17785
1698.07142,0.17279
1699.56121,0.10384
1701.05100,0.12930
1702.54079,0.12137
1704.03058,0.15846
1705.52037,0.10409
1707.01016,0.08820
1708.49994,0.07233
1709.98973,0.10221
1711.47952,0.04934
1712.96931,0.04875
1714.45910,0.05688
1715.94889,0.09407
1717.43867,0.03978
1718.92846,0.00148
1720.41825,0.00095
1721.90804,0.04980
1723.39783,0.04203
1724.88762,0.01539
1726.37740,0.05411
1727.86719,0.05799
1729.35698,0.03284
1730.84677,0.03239
1732.33656,0.00000
1733.82635,0.01280
1735.31614,0.04740
1736.80592,0.08927
1738.29571,0.08178
1739.78550,0.06123
1741.27529,0.04069
1742.76508,0.01872
1744.25487,0.06790
1745.74465,0.08806
1747.23444,0.01674
1748.72423,0.00643
1750.21402,0.01355
1751.70381,0.04537
1753.19360,0.04235
1754.68339,0.08145
1756.17317,0.03489
1757.66296,0.04642
1759.15275,0.08411
1760.64254,0.04048
1762.13233,0.06948
1763.62212,0.03314
1765.11190,0.02440
1766.60169,0.01713
1768.09148,0.02584
1769.58127,0.08538
1771.07106,0.13042
1772.56085,0.10286
1774.05063,0.12614
1775.54042,0.08844
1777.03021,0.05946
1778.52000,0.00000
