299.16008,0.09727
300.64987,0.05230
302.13966,0.15086
303.62945,0.12385
305.11924,0.09686
306.60902,0.13749
308.09881,0.09948
309.58860,0.09874
311.07839,0.09802
312.56818,0.06004
314.05797,0.00000
315.54776,0.03588
317.03754,0.07177
318.52733,0.10146
320.01712,0.14497
321.50691,0.08154
322.99670,0.01811
324.48649,0.09754
325.97627,0.12729
327.46606,0.12876
328.95585,0.13025
330.44564,0.18350
331.93543,0.20640
333.42522,0.17826
334.91501,0.15012
336.40479,0.13166
337.89458,0.09113
339.38437,0.10926
340.87416,0.12740
342.36395,0.14763
343.85374,0.06437
345.34352,0.03218
346.83331,0.00000
348.32310,0.11403
349.81289,0.13146
351.30268,0.10682
352.79247,0.08220
354.28225,0.23629
355.77204,0.19582
357.26183,0.13535
358.75162,0.07489
360.24141,0.05929
361.73120,0.12685
363.22099,0.20339
364.71077,0.27994
366.20056,0.12674
367.69035,0.12949
369.18014,0.09913
370.66993,0.06878
372.15972,0.18472
373.64950,0.16820
375.13929,0.20827
376.62908,0.24835
378.11887,0.26498
379.60866,0.22918
381.09845,0.25895
382.58824,0.28873
384.07802,0.34681
385.56781,0.36902
387.05760,0.35881
388.54739,0.34862
390.03718,0.36673
391.52697,0.45247
393.01675,0.45956
394.50654,0.46666
395.99633,0.39374
397.48612,0.47677
398.97591,0.44182
400.46570,0.40688
401.95548,0.44302
403.44527,0.52196
404.93506,0.52639
406.42485,0.53083
407.91464,0.55736
409.40443,0.64738
410.89422,0.67256
412.38400,0.69085
413.87379,0.70915
415.36358,0.85442
416.85337,0.84653
418.34316,0.91661
419.83295,0.98671
421.32273,0.97333
422.81252,1.04828
424.30231,1.08323
425.79210,1.11819
427.28189,1.01654
428.77168,0.99632
430.26146,0.97818
431.75125,0.96006
433.24104,0.95091
434.73083,0.85760
436.22062,0.81812
437.71041,0.77866
439.20020,0.69780
440.68998,0.68182
442.17977,0.64239
443.66956,0.60297
445.15935,0.46144
446.64914,0.36823
448.13893,0.25571
449.62871,0.26740
451.11850,0.27910
452.60829,0.19145
454.09808,0.16592
455.58787,0.17904
457.07766,0.19216
458.56745,0.19703
460.05723,0.06804
461.54702,0.07362
463.03681,0.07920
464.52660,0.07169
466.01639,0.19391
467.50618,0.18505
468.99596,0.17619
470.48575,0.15631
471.97554,0.18336
473.46533,0.06276
474.95512,0.03395
476.44491,0.00514
477.93469,0.13476
479.42448,0.19539
480.91427,0.22222
482.40406,0.24906
483.89385,0.25590
485.38364,0.21170
486.87343,0.27307
488.36321,0.33446
489.85300,0.33722
491.34279,0.31652
492.83258,0.39105
494.32237,0.40488
495.81216,0.41872
497.30194,0.38151
498.79173,0.38710
500.28152,0.38510
501.77131,0.38312
503.26110,0.41634
504.75089,0.31571
506.24068,0.34068
507.73046,0.36565
509.22025,0.32026
510.71004,0.33008
512.19983,0.37580
513.68962,0.37046
515.17941,0.36514
516.66919,0.41502
518.15898,0.32278
519.64877,0.33820
521.13856,0.35362
522.62835,0.29454
524.11814,0.38451
525.60792,0.38479
527.09771,0.42924
528.58750,0.47370
530.07729,0.59132
531.56708,0.67997
533.05687,0.72585
534.54666,0.77174
536.03644,0.77486
537.52623,0.64966
539.01602,0.57415
540.50581,0.65942
541.99560,0.74470
543.48539,0.72995
544.97517,0.59377
546.46496,0.55626
547.95475,0.51878
549.44454,0.57031
550.93433,0.56803
552.42412,0.60993
553.91391,0.61320
555.40369,0.61648
556.89348,0.58803
558.38327,0.58858
559.87306,0.58845
561.36285,0.58833
562.85264,0.59857
564.34242,0.47772
565.83221,0.43693
567.32200,0.38579
568.81179,0.33467
570.30158,0.35049
571.79137,0.33597
573.28115,0.30765
574.77094,0.27935
576.26073,0.23588
577.75052,0.21312
579.24031,0.20556
580.73010,0.18489
582.21989,0.16424
583.70967,0.11669
585.19946,0.01947
586.68925,0.07268
588.17904,0.12591
589.66883,0.12947
591.15862,0.07508
592.64840,0.00000
594.13819,0.00870
595.62798,0.01740
597.11777,0.04130
598.60756,0.08591
600.09735,0.04222
601.58714,0.10203
603.07692,0.16186
604.56671,0.16374
606.05650,0.20013
607.54629,0.20410
609.03608,0.20809
610.52587,0.12446
612.01565,0.13744
613.50544,0.03175
614.99523,0.05786
616.48502,0.08399
617.97481,0.09288
619.46460,0.18044
620.95438,0.11897
622.44417,0.11133
623.93396,0.10371
625.42375,0.01330
626.91354,0.18648
628.40333,0.18510
629.89312,0.18373
631.38290,0.09613
632.87269,0.06236
634.36248,0.08242
635.85227,0.05695
637.34206,0.03149
638.83185,0.07229
640.32163,0.03720
641.81142,0.06836
643.30121,0.08021
644.79100,0.09208
646.28079,0.00183
647.77058,0.08686
649.26037,0.19674
650.75015,0.18450
652.23994,0.17228
653.72973,0.13177
655.21952,0.17132
656.70931,0.15982
658.19910,0.10418
659.68888,0.04854
661.17867,0.07848
662.66846,0.00631
664.15825,0.07215
665.64804,0.05727
667.13783,0.04241
668.62761,0.05998
670.11740,0.14795
671.60719,0.14623
673.09698,0.14452
674.58677,0.14973
676.07656,0.21705
677.56635,0.16845
679.05613,0.15162
680.54592,0.13479
682.03571,0.19525
683.52550,0.26539
685.01529,0.30932
686.50508,0.28702
687.99486,0.26473
689.48465,0.09204
690.97444,0.07806
692.46423,0.14413
693.95402,0.21021
695.44381,0.27630
696.93360,0.16025
698.42338,0.09526
699.91317,0.02339
701.40296,0.03916
702.89275,0.05495
704.38254,0.12939
705.87233,0.00237
707.36211,0.03820
708.85190,0.08922
710.34169,0.14026
711.83148,0.10022
713.32127,0.10712
714.81106,0.04779
716.30084,0.05816
717.79063,0.06854
719.28042,0.04927
720.77021,0.09487
722.26000,0.07286
723.74979,0.10261
725.23958,0.13237
726.72936,0.00000
728.21915,0.01375
729.70894,0.07306
731.19873,0.09512
732.68852,0.08752
734.17831,0.07993
735.66809,0.09236
737.15788,0.16277
738.64767,0.12830
740.13746,0.10765
741.62725,0.08702
743.11704,0.13677
744.60683,0.13548
746.09661,0.08865
747.58640,0.11153
749.07619,0.13442
750.56598,0.13318
752.05577,0.24096
753.54556,0.23974
755.03534,0.27096
756.52513,0.30219
758.01492,0.40313
759.50471,0.44887
760.99450,0.54155
762.48429,0.58042
763.97407,0.61930
765.46386,0.73548
766.95365,0.72056
768.44344,0.77190
769.93323,0.83015
771.42302,0.82562
772.91281,0.82111
774.40259,0.85869
775.89238,0.69067
777.38217,0.67722
778.87196,0.69898
780.36175,0.72074
781.85154,0.57761
783.34132,0.63458
784.83111,0.52184
786.32090,0.51743
787.81069,0.51303
789.30048,0.55902
790.79027,0.51670
792.28006,0.64551
793.76984,0.54249
795.25963,0.50159
796.74942,0.46069
798.23921,0.29147
799.72900,0.27683
801.21879,0.29669
802.70857,0.24549
804.19836,0.19431
805.68815,0.22939
807.17794,0.06300
808.66773,0.06361
810.15752,0.06353
811.64730,0.06347
813.13709,0.13449
814.62688,0.20966
816.11667,0.19376
817.60646,0.19030
819.09625,0.17856
820.58604,0.16684
822.07582,0.23517
823.56561,0.33250
825.05540,0.29873
826.54519,0.32984
828.03498,0.36096
829.52477,0.45971
831.01455,0.34871
832.50434,0.37573
833.99413,0.43587
835.48392,0.52156
836.97371,0.60726
838.46350,0.56809
839.95329,0.43508
841.44307,0.45389
842.93286,0.50445
844.42265,0.56951
845.91244,0.63459
847.40223,0.60238
848.89202,0.64057
850.38180,0.62909
851.87159,0.69766
853.36138,0.76624
854.85117,0.89004
856.34096,1.05939
857.83075,1.11559
859.32053,1.17180
860.81032,1.13970
862.30011,1.10762
863.78990,1.12799
865.27969,1.01865
866.76948,0.99902
868.25927,0.99320
869.74905,0.97981
871.23884,0.96643
872.72863,1.05311
874.21842,0.93142
875.70821,0.85115
877.19800,0.88680
878.68778,0.88659
880.17757,0.88639
881.66736,0.88896
883.15715,0.80323
884.64694,0.80444
886.13673,0.83741
887.62651,0.87039
889.11630,0.89787
890.60609,0.90879
892.09588,0.83693
893.58567,0.79958
895.07546,0.82986
896.56525,0.86015
898.05503,0.78282
899.54482,0.81727
901.03461,0.80206
902.52440,0.82136
904.01419,0.83377
905.50398,0.84620
906.99376,0.80344
908.48355,0.77863
909.97334,0.75245
911.46313,0.73732
912.95292,0.71323
914.44271,0.68916
915.93250,0.79965
917.42228,0.74869
918.91207,0.93648
920.40186,0.94213
921.89165,0.91743
923.38144,0.89273
924.87123,0.90118
926.36101,0.82821
927.85080,1.00365
929.34059,0.92519
930.83038,0.91229
932.32017,0.89940
933.80996,0.90378
935.29974,0.87366
936.78953,0.82562
938.27932,0.79415
939.76911,0.85032
941.25890,0.90650
942.74869,0.92199
944.23848,0.93473
945.72826,0.84812
947.21805,0.80154
948.70784,0.79913
950.19763,0.81813
951.68742,0.83714
953.17721,0.86099
954.66699,0.83931
956.15678,0.93218
957.64657,1.06647
959.13636,1.02688
960.62615,0.98731
962.11594,1.07886
963.60573,0.99791
965.09551,1.05774
966.58530,1.17829
968.07509,1.22641
969.56488,1.27455
971.05467,1.25024
972.54446,1.17489
974.03424,1.34104
975.52403,1.32505
977.01382,1.31322
978.50361,1.33934
979.99340,1.36548
981.48319,1.32331
982.97297,1.40950
984.46276,1.58265
985.95255,1.57502
987.44234,1.63089
988.93213,1.68676
990.42192,1.58672
991.91171,1.54326
993.40149,1.55087
994.89128,1.48536
996.38107,1.64618
997.87086,1.61795
999.36065,1.58973
1000.85044,1.61811
1002.34022,1.72515
1003.83001,1.77839
1005.31980,2.00000
1006.80959,1.94493
1008.29938,1.88988
1009.78917,1.90177
1011.27896,1.84466
1012.76874,1.81380
1014.25853,1.71394
1015.74832,1.50232
1017.23811,1.38592
1018.72790,1.26954
1020.21769,1.06348
1021.70747,0.91952
1023.19726,0.88873
1024.68705,0.75998
1026.17684,0.55810
1027.66663,0.59842
1029.15642,0.63876
1030.64620,0.55283
1032.13599,0.43656
1033.62578,0.39620
1035.11557,0.46625
1036.60536,0.47076
1038.09515,0.47529
1039.58494,0.46810
1041.07472,0.49128
1042.56451,0.54483
1044.05430,0.67843
1045.54409,0.71407
1047.03388,0.73936
1048.52367,0.76467
1050.01345,0.77550
1051.50324,0.81119
1052.99303,0.88690
1054.48282,0.86741
1055.97261,0.97765
1057.46240,0.98578
1058.95219,0.99393
1060.44197,1.06832
1061.93176,1.10547
1063.42155,1.14539
1064.91134,1.11908
1066.40113,1.20456
1067.89092,1.22106
1069.38070,1.23757
1070.87049,1.25133
1072.36028,1.28304
1073.85007,1.13261
1075.33986,1.14778
1076.82965,1.09397
1078.31943,1.14781
1079.80922,1.20166
1081.29901,1.23345
1082.78880,1.18382
1084.27859,1.07763
1085.76838,1.00043
1087.25817,0.98672
1088.74795,0.98545
1090.23774,0.99937
1091.72753,1.01329
1093.21732,0.83955
1094.70711,0.94183
1096.19690,0.84401
1097.68668,0.81659
1099.17647,0.88578
1100.66626,0.84941
1102.15605,0.81305
1103.64584,0.72496
1105.13563,0.74037
1106.62542,0.63298
1108.11520,0.67878
1109.60499,0.69700
1111.09478,0.61310
1112.58457,0.58994
1114.07436,0.56679
1115.56415,0.59747
1117.05393,0.53156
1118.54372,0.53467
1120.03351,0.42600
1121.52330,0.47191
1123.01309,0.49575
1124.50288,0.51961
1125.99266,0.46757
1127.48245,0.44177
1128.97224,0.50154
1130.46203,0.44540
1131.95182,0.37271
1133.44161,0.30832
1134.93140,0.33294
1136.42118,0.35758
1137.91097,0.24493
1139.40076,0.31030
1140.89055,0.25011
1142.38034,0.23822
1143.87013,0.20841
1145.35991,0.17309
1146.84970,0.15642
1148.33949,0.13975
1149.82928,0.10033
1151.31907,0.18650
1152.80886,0.11950
1154.29865,0.08288
1155.78843,0.09870
1157.27822,0.00000
1158.76801,0.01625
1160.25780,0.03251
1161.74759,0.08121
1163.23738,0.07748
1164.72716,0.13173
1166.21695,0.08387
1167.70674,0.12709
1169.19653,0.01854
1170.68632,0.03212
1172.17611,0.04572
1173.66589,0.07105
1175.15568,0.11986
1176.64547,0.15903
1178.13526,0.10022
1179.62505,0.06765
1181.11484,0.06544
1182.60463,0.08464
1184.09441,0.10386
1185.58420,0.10721
1187.07399,0.09264
1188.56378,0.06565
1190.05357,0.06076
1191.54336,0.05589
1193.03314,0.06068
1194.52293,0.06066
1196.01272,0.06065
1197.50251,0.02960
1198.99230,0.04824
1200.48209,0.03239
1201.97188,0.00000
1203.46166,0.02435
1204.95145,0.05560
1206.44124,0.06617
1207.93103,0.12091
1209.42082,0.17567
1210.91061,0.12141
1212.40039,0.23277
1213.89018,0.24478
1215.37997,0.30372
1216.86976,0.28954
1218.35955,0.27674
1219.84934,0.28811
1221.33912,0.29949
1222.82891,0.22601
1224.31870,0.24225
1225.80849,0.18949
1227.29828,0.22093
1228.78807,0.25790
1230.27786,0.37354
1231.76764,0.33188
1233.25743,0.33438
1234.74722,0.33690
1236.23701,0.33115
1237.72680,0.42063
1239.21659,0.44941
1240.70637,0.45611
1242.19616,0.54425
1243.68595,0.41988
1245.17574,0.51494
1246.66553,0.47478
1248.15532,0.43463
1249.64511,0.53248
1251.13489,0.57377
1252.62468,0.62612
1254.11447,0.58877
1255.60426,0.64666
1257.09405,0.71145
1258.58384,0.73210
1260.07362,0.70999
1261.56341,0.69892
1263.05320,0.68787
1264.54299,0.62439
1266.03278,0.61060
1267.52257,0.61200
1269.01235,0.61756
1270.50214,0.54722
1271.99193,0.57488
1273.48172,0.52113
1274.97151,0.49293
1276.46130,0.46473
1277.95109,0.56696
1279.44087,0.57950
1280.93066,0.52029
1282.42045,0.44453
1283.91024,0.49299
1285.40003,0.50420
1286.88982,0.52093
1288.37960,0.55149
1289.86939,0.48959
1291.35918,0.42770
1292.84897,0.41137
1294.33876,0.44059
1295.82855,0.36770
1297.31834,0.42041
1298.80812,0.36962
1300.29791,0.31885
1301.78770,0.32191
1303.27749,0.43952
1304.76728,0.42190
1306.25707,0.40430
1307.74685,0.38119
1309.23664,0.39949
1310.72643,0.43574
1312.21622,0.50098
1313.70601,0.43790
1315.19580,0.43693
1316.68558,0.47460
1318.17537,0.48884
1319.66516,0.50446
1321.15495,0.52010
1322.64474,0.42397
1324.13453,0.44928
1325.62432,0.47600
1327.11410,0.60070
1328.60389,0.55016
1330.09368,0.56586
1331.58347,0.58020
1333.07326,0.59042
1334.56305,0.50956
1336.05283,0.53291
1337.54262,0.55626
1339.03241,0.52374
1340.52220,0.60440
1342.01199,0.51256
1343.50178,0.76712
1344.99156,0.72636
1346.48135,0.83466
1347.97114,0.80084
1349.46093,0.82636
1350.95072,0.89744
1352.44051,0.92851
1353.93030,0.95959
1355.42008,0.89270
1356.90987,0.90586
1358.39966,0.93560
1359.88945,1.02055
1361.37924,1.01443
1362.86903,0.94622
1364.35881,0.77453
1365.84860,0.78776
1367.33839,0.64093
1368.82818,0.64936
1370.31797,0.65781
1371.80776,0.48479
1373.29755,0.51189
1374.78733,0.48656
1376.27712,0.43640
1377.76691,0.42765
1379.25670,0.41892
1380.74649,0.35638
1382.23628,0.35870
1383.72606,0.31827
1385.21585,0.34132
1386.70564,0.34644
1388.19543,0.35158
1389.68522,0.37191
1391.17501,0.42123
1392.66479,0.38500
1394.15458,0.36535
1395.64437,0.37883
1397.13416,0.35782
1398.62395,0.41410
1400.11374,0.49661
1401.60353,0.35834
1403.09331,0.40775
1404.58310,0.34471
1406.07289,0.28169
1407.56268,0.40014
1409.05247,0.36404
1410.54226,0.52806
1412.03204,0.42161
1413.52183,0.36071
1415.01162,0.45577
1416.50141,0.40317
1417.99120,0.48445
1419.48099,0.47466
1420.97078,0.42900
1422.46056,0.41371
1423.95035,0.43087
1425.44014,0.44804
1426.92993,0.41071
1428.41972,0.35683
1429.90951,0.35816
1431.39929,0.30431
1432.88908,0.37881
1434.37887,0.30152
1435.86866,0.31394
1437.35845,0.37329
1438.84824,0.38988
1440.33802,0.43132
1441.82781,0.38307
1443.31760,0.47007
1444.80739,0.52051
1446.29718,0.57097
1447.78697,0.68975
1449.27676,0.72298
1450.76654,0.64858
1452.25633,0.73565
1453.74612,0.81170
1455.23591,0.79530
1456.72570,0.81479
1458.21549,0.85775
1459.70527,0.82621
1461.19506,0.91749
1462.68485,0.89977
1464.17464,1.05042
1465.66443,1.04652
1467.15422,1.04264
1468.64401,1.04153
1470.13379,1.05698
1471.62358,1.09177
1473.11337,1.09484
1474.60316,1.05375
1476.09295,0.95334
1477.58274,0.94402
1479.07252,0.82569
1480.56231,0.73497
1482.05210,0.68843
1483.54189,0.71089
1485.03168,0.64367
1486.52147,0.53783
1488.01125,0.45752
1489.50104,0.37723
1490.99083,0.35283
1492.48062,0.28015
1493.97041,0.25026
1495.46020,0.18865
1496.94999,0.17396
1498.43977,0.09719
1499.92956,0.12669
1501.41935,0.08996
1502.90914,0.14432
1504.39893,0.08140
1505.88872,0.05851
1507.37850,0.10049
1508.86829,0.06520
1510.35808,0.07684
1511.84787,0.03606
1513.33766,0.06360
1514.82745,0.09114
1516.31724,0.07110
1517.80702,0.00000
1519.29681,0.00562
1520.78660,0.07474
1522.27639,0.06107
1523.76618,0.04741
1525.25597,0.07931
1526.74575,0.07257
1528.23554,0.04791
1529.72533,0.04396
1531.21512,0.00000
1532.70491,0.05349
1534.19470,0.06145
1535.68448,0.07770
1537.17427,0.08154
1538.66406,0.00812
1540.15385,0.04855
1541.64364,0.08900
1543.13343,0.07772
1544.62322,0.12854
1546.11300,0.03862
1547.60279,0.02736
1549.09258,0.10030
1550.58237,0.12357
1552.07216,0.09580
1553.56195,0.13841
1555.05173,0.13688
1556.54152,0.15054
1558.03131,0.15455
1559.52110,0.13098
1561.01089,0.06463
1562.50068,0.12250
1563.99047,0.10724
1565.48025,0.10579
1566.97004,0.05330
1568.45983,0.05187
1569.94962,0.06633
1571.43941,0.08080
1572.92920,0.06285
1574.41898,0.09046
1575.90877,0.05735
1577.39856,0.05600
1578.88835,0.07398
1580.37814,0.07128
1581.86793,0.10722
1583.35771,0.05624
1584.84750,0.12118
1586.33729,0.11163
1587.82708,0.09932
1589.31687,0.09392
1590.80666,0.05818
1592.29645,0.13285
1593.78623,0.14267
1595.27602,0.13870
1596.76581,0.15821
1598.25560,0.12390
1599.74539,0.07443
1601.23518,0.10363
1602.72496,0.12042
1604.21475,0.13999
1605.70454,0.15957
1607.19433,0.16949
1608.68412,0.20566
1610.17391,0.17973
1611.66370,0.27663
1613.15348,0.26591
1614.64327,0.21656
1616.13306,0.25692
1617.62285,0.24071
1619.11264,0.17070
1620.60243,0.12554
1622.09221,0.16180
1623.58200,0.14565
1625.07179,0.21368
1626.56158,0.16718
1628.05137,0.26146
1629.54116,0.22189
1631.03094,0.20855
1632.52073,0.17039
1634.01052,0.12395
1635.50031,0.10789
1636.99010,0.15256
1638.47989,0.21104
1639.96968,0.18811
1641.45946,0.20660
1642.94925,0.16852
1644.43904,0.20773
1645.92883,0.21314
1647.41862,0.21856
1648.90841,0.25643
1650.39819,0.21564
1651.88798,0.24387
1653.37777,0.22934
1654.86756,0.17479
1656.35735,0.15475
1657.84714,0.18855
1659.33693,0.30102
1660.82671,0.31552
1662.31650,0.31624
1663.80629,0.32248
1665.29608,0.22662
1666.78587,0.30051
1668.27566,0.33301
1669.76544,0.37933
1671.25523,0.37045
1672.74502,0.34917
1674.23481,0.32376
1675.72460,0.24316
1677.21439,0.35992
1678.70417,0.38284
1680.19396,0.39336
1681.68375,0.29901
1683.17354,0.26816
1684.66333,0.30907
1686.15312,0.30722
1687.64291,0.31365
1689.13269,0.26767
1690.62248,0.25895
1692.11227,0.29026
1693.60206,0.23879
1695.09185,0.22873
1696.58164,0.22558
1698.07142,0.20726
1699.56121,0.16550
1701.05100,0.17480
1702.54079,0.16204
1704.03058,0.18793
1705.52037,0.13379
1707.01016,0.13970
1708.49994,0.14562
1709.98973,0.08048
1711.47952,0.03053
1712.96931,0.04959
1714.45910,0.10592
1715.94889,0.11121
1717.43867,0.09305
1718.92846,0.01694
1720.41825,0.01398
1721.90804,0.00000
1723.39783,0.01011
1724.88762,0.02437
1726.37740,0.06349
1727.86719,0.03223
1729.35698,0.04239
1730.84677,0.04428
1732.33656,0.00064
1733.82635,0.00670
1735.31614,0.05002
1736.80592,0.06990
1738.29571,0.06081
1739.78550,0.02966
1741.27529,0.02887
1742.76508,0.03086
1744.25487,0.03010
1745.74465,0.03073
1747.23444,0.06725
1748.72423,0.01408
1750.21402,0.00371
1751.70381,0.04855
1753.19360,0.04234
1754.68339,0.04442
1756.17317,0.05066
1757.66296,0.06243
1759.15275,0.10594
1760.64254,0.09841
1762.13233,0.08124
1763.62212,0.03509
1765.11190,0.00000
1766.60169,0.02004
1768.09148,0.10909
1769.58127,0.09189
1771.07106,0.09403
1772.56085,0.09203
1774.05063,0.10385
1775.54042,0.00252
1777.03021,0.02817
1778.52000,0.00000
