299.16008,0.00000
300.64987,0.15121
302.13966,0.30646
303.62945,0.20113
305.11924,0.09581
306.60902,0.03578
308.09881,0.06431
309.58860,0.04354
311.07839,0.02279
312.56818,0.07953
314.05797,0.09200
315.54776,0.10851
317.03754,0.12504
318.52733,0.17780
320.01712,0.12190
321.50691,0.08916
322.99670,0.05644
324.48649,0.07504
325.97627,0.03932
327.46606,0.10221
328.95585,0.16512
330.44564,0.22200
331.93543,0.06559
333.42522,0.09130
334.91501,0.11703
336.40479,0.12768
337.89458,0.11017
339.38437,0.07255
340.87416,0.03494
342.36395,0.03557
343.85374,0.00000
345.34352,0.06076
346.83331,0.12153
348.32310,0.16721
349.81289,0.23103
351.30268,0.18417
352.79247,0.13733
354.28225,0.08447
355.77204,0.04973
357.26183,0.05826
358.75162,0.06681
360.24141,0.02607
361.73120,0.18159
363.22099,0.15802
364.71077,0.13447
366.20056,0.09281
367.69035,0.02300
369.18014,0.14712
370.66993,0.27126
372.15972,0.17506
373.64950,0.20565
375.13929,0.22618
376.62908,0.24673
378.11887,0.26528
379.60866,0.25366
381.09845,0.29236
382.58824,0.33107
384.07802,0.25710
385.56781,0.30188
387.05760,0.36477
388.54739,0.42768
390.03718,0.39803
391.52697,0.28791
393.01675,0.33878
394.50654,0.38966
395.99633,0.47074
397.48612,0.49750
398.97591,0.43271
400.46570,0.36794
401.95548,0.41285
403.44527,0.52618
404.93506,0.48257
406.42485,0.43898
407.91464,0.41552
409.40443,0.56714
410.89422,0.39479
412.38400,0.51525
413.87379,0.63572
415.36358,0.63244
416.85337,0.75796
418.34316,0.77383
419.83295,0.78971
421.32273,0.93740
422.81252,0.81546
424.30231,0.88269
425.79210,0.94993
427.28189,0.77370
428.77168,0.87316
430.26146,0.86296
431.75125,0.85278
433.24104,0.81142
434.73083,0.79623
436.22062,0.70156
437.71041,0.60691
439.20020,0.53139
440.68998,0.50619
442.17977,0.48905
443.66956,0.47192
445.15935,0.38236
446.64914,0.32501
448.13893,0.32603
449.62871,0.27676
451.11850,0.22749
452.60829,0.06555
454.09808,0.09681
455.58787,0.16530
457.07766,0.23381
458.56745,0.08399
460.05723,0.07102
461.54702,0.09328
463.03681,0.11556
464.52660,0.00000
466.01639,0.19785
467.50618,0.21058
468.99596,0.22333
470.48575,0.08516
471.97554,0.03957
473.46533,0.08052
474.95512,0.09130
476.44491,0.10210
477.93469,0.16723
479.42448,0.15390
480.91427,0.14461
482.40406,0.13533
483.89385,0.24479
485.38364,0.19126
486.87343,0.29269
488.36321,0.39414
489.85300,0.39498
491.34279,0.39785
492.83258,0.39268
494.32237,0.38853
495.81216,0.38439
497.30194,0.34907
498.79173,0.38621
500.28152,0.34891
501.77131,0.31162
503.26110,0.38501
504.75089,0.33768
506.24068,0.43022
507.73046,0.52277
509.22025,0.44530
510.71004,0.36179
512.19983,0.35276
513.68962,0.36990
515.17941,0.38705
516.66919,0.32171
518.15898,0.32882
519.64877,0.31583
521.13856,0.30284
522.62835,0.25566
524.11814,0.27088
525.60792,0.44306
527.09771,0.50458
528.58750,0.56611
530.07729,0.57333
531.56708,0.70733
533.05687,0.70752
534.54666,0.70773
536.03644,0.54395
537.52623,0.59750
539.01602,0.69937
540.50581,0.66642
541.99560,0.63349
543.48539,0.69112
544.97517,0.64211
546.46496,0.65852
547.95475,0.67493
549.44454,0.73664
550.93433,0.62731
552.42412,0.56428
553.91391,0.57068
555.40369,0.57710
556.89348,0.49398
558.38327,0.57589
559.87306,0.57630
561.36285,0.57673
562.85264,0.42726
564.34242,0.43475
565.83221,0.32957
567.32200,0.36225
568.81179,0.39494
570.30158,0.25357
571.79137,0.21284
573.28115,0.22544
574.77094,0.23805
576.26073,0.23559
577.75052,0.20899
579.24031,0.21258
580.73010,0.21317
582.21989,0.21377
583.70967,0.19930
585.19946,0.07818
586.68925,0.13818
588.17904,0.19820
589.66883,0.19182
591.15862,0.03855
592.64840,0.00000
594.13819,0.04399
595.62798,0.08799
597.11777,0.09880
598.60756,0.10560
600.09735,0.09832
601.58714,0.10615
603.07692,0.11399
604.56671,0.10474
606.05650,0.16995
607.54629,0.17280
609.03608,0.17566
610.52587,0.08798
612.01565,0.16532
613.50544,0.11992
614.99523,0.12081
616.48502,0.12172
617.97481,0.09045
619.46460,0.12559
620.95438,0.09836
622.44417,0.06914
623.93396,0.03992
625.42375,0.10731
626.91354,0.14050
628.40333,0.15560
629.89312,0.17070
631.38290,0.07917
632.87269,0.09229
634.36248,0.05109
635.85227,0.03304
637.34206,0.01500
638.83185,0.00000
640.32163,0.07151
641.81142,0.13297
643.30121,0.13306
644.79100,0.13317
646.28079,0.20674
647.77058,0.18373
649.26037,0.24324
650.75015,0.20819
652.23994,0.17314
653.72973,0.21256
655.21952,0.18157
656.70931,0.15260
658.19910,0.11961
659.68888,0.08664
661.17867,0.12009
662.66846,0.08111
664.15825,0.14476
665.64804,0.14907
667.13783,0.15339
668.62761,0.12653
670.11740,0.14999
671.60719,0.14227
673.09698,0.13457
674.58677,0.13995
676.07656,0.21377
677.56635,0.17089
679.05613,0.24473
680.54592,0.31858
682.03571,0.21738
683.52550,0.26309
685.01529,0.25045
686.50508,0.25694
687.99486,0.26344
689.48465,0.16633
690.97444,0.13764
692.46423,0.21562
693.95402,0.21010
695.44381,0.20459
696.93360,0.16991
698.42338,0.15336
699.91317,0.22939
701.40296,0.18368
702.89275,0.13799
704.38254,0.10942
705.87233,0.10500
707.36211,0.22938
708.85190,0.16965
710.34169,0.10994
711.83148,0.15387
713.32127,0.10122
714.81106,0.14920
716.30084,0.13078
717.79063,0.11238
719.28042,0.15637
720.77021,0.16214
722.26000,0.20213
723.74979,0.13749
725.23958,0.07287
726.72936,0.03240
728.21915,0.00000
729.70894,0.05656
731.19873,0.13326
732.68852,0.14255
734.17831,0.15186
735.66809,0.09176
737.15788,0.16649
738.64767,0.12654
740.13746,0.11778
741.62725,0.10904
743.11704,0.23816
744.60683,0.13587
746.09661,0.21269
747.58640,0.21104
749.07619,0.20941
750.56598,0.28828
752.05577,0.25447
753.54556,0.28909
755.03534,0.27141
756.52513,0.25373
758.01492,0.33669
759.50471,0.55046
760.99450,0.50666
762.48429,0.59368
763.97407,0.68071
765.46386,0.78184
766.95365,0.73608
768.44344,0.86138
769.93323,0.90419
771.42302,0.90072
772.91281,0.89727
774.40259,0.76706
775.89238,0.76766
777.38217,0.71998
778.87196,0.74173
780.36175,0.76349
781.85154,0.59712
783.34132,0.54747
784.83111,0.57833
786.32090,0.57600
787.81069,0.57368
789.30048,0.65287
790.79027,0.66365
792.28006,0.57182
793.76984,0.42768
795.25963,0.39423
796.74942,0.36080
798.23921,0.26298
799.72900,0.25170
801.21879,0.27062
802.70857,0.27144
804.19836,0.27227
805.68815,0.13830
807.17794,0.04659
808.66773,0.14807
810.15752,0.16204
811.64730,0.17601
813.13709,0.07027
814.62688,0.22211
816.11667,0.20896
817.60646,0.27228
819.09625,0.25010
820.58604,0.22793
822.07582,0.35569
823.56561,0.35869
825.05540,0.41604
826.54519,0.41908
828.03498,0.42212
829.52477,0.38493
831.01455,0.42220
832.50434,0.47962
833.99413,0.55515
835.48392,0.57436
836.97371,0.59357
838.46350,0.45182
839.95329,0.40667
841.44307,0.50641
842.93286,0.65245
844.42265,0.65764
845.91244,0.66285
847.40223,0.66605
848.89202,0.67329
850.38180,0.70268
851.87159,0.72504
853.36138,0.74741
854.85117,0.87947
856.34096,0.97128
857.83075,1.05708
859.32053,1.16100
860.81032,1.18343
862.30011,1.20588
863.78990,1.13677
865.27969,1.10592
866.76948,1.06300
868.25927,1.10863
869.74905,1.04763
871.23884,0.98664
872.72863,1.06451
874.21842,1.09812
875.70821,0.94862
877.19800,0.94603
878.68778,0.98471
880.17757,1.02340
881.66736,0.93634
883.15715,0.84727
884.64694,0.91115
886.13673,0.89456
887.62651,0.87797
889.11630,0.98817
890.60609,0.89917
892.09588,0.91683
893.58567,0.90633
895.07546,0.89987
896.56525,0.89342
898.05503,0.82058
899.54482,0.89464
901.03461,0.92043
902.52440,0.85366
904.01419,0.90865
905.50398,0.96365
906.99376,0.84459
908.48355,0.87245
909.97334,0.84599
911.46313,0.88796
912.95292,0.85850
914.44271,0.82906
915.93250,0.89521
917.42228,0.86881
918.91207,0.94908
920.40186,0.89252
921.89165,0.93156
923.38144,0.97060
924.87123,0.84365
926.36101,0.73885
927.85080,0.94194
929.34059,0.94582
930.83038,0.92859
932.32017,0.91136
933.80996,0.98370
935.29974,0.90916
936.78953,0.80242
938.27932,0.86071
939.76911,0.90091
941.25890,0.94111
942.74869,0.97328
944.23848,0.84045
945.72826,0.86459
947.21805,0.87264
948.70784,0.80626
950.19763,0.85056
951.68742,0.89488
953.17721,0.86072
954.66699,0.92519
956.15678,0.79245
957.64657,0.76438
959.13636,0.87013
960.62615,0.97589
962.11594,1.00420
963.60573,1.03653
965.09551,0.97833
966.58530,1.18174
968.07509,1.19601
969.56488,1.21029
971.05467,1.28696
972.54446,1.23083
974.03424,1.27131
975.52403,1.30576
977.01382,1.28790
978.50361,1.27811
979.99340,1.26832
981.48319,1.56442
982.97297,1.56674
984.46276,1.50870
985.95255,1.62574
987.44234,1.56773
988.93213,1.50972
990.42192,1.53021
991.91171,1.66340
993.40149,1.66379
994.89128,1.57766
996.38107,1.57204
997.87086,1.66000
999.36065,1.74798
1000.85044,1.66794
1002.34022,1.79316
1003.83001,1.83791
1005.31980,1.96316
1006.80959,1.95360
1008.29938,1.94405
1009.78917,1.94458
1011.27896,1.97731
1012.76874,2.00000
1014.25853,1.77921
1015.74832,1.63892
1017.23811,1.58317
1018.72790,1.52742
1020.21769,1.20003
1021.70747,1.09601
1023.19726,0.91755
1024.68705,0.71295
1026.17684,0.59689
1027.66663,0.57946
1029.15642,0.56203
1030.64620,0.51645
1032.13599,0.53527
1033.62578,0.55612
1035.11557,0.53874
1036.60536,0.56766
1038.09515,0.59659
1039.58494,0.68390
1041.07472,0.64645
1042.56451,0.71164
1044.05430,0.75672
1045.54409,0.75150
1047.03388,0.78051
1048.52367,0.80953
1050.01345,0.84460
1051.50324,0.87566
1052.99303,0.86849
1054.48282,1.01226
1055.97261,1.10171
1057.46240,1.16501
1058.95219,1.22833
1060.44197,1.10652
1061.93176,1.15578
1063.42155,1.13260
1064.91134,1.18993
1066.40113,1.29556
1067.89092,1.32474
1069.38070,1.35393
1070.87049,1.49382
1072.36028,1.48077
1073.85007,1.41542
1075.33986,1.39033
1076.82965,1.34312
1078.31943,1.31000
1079.80922,1.27690
1081.29901,1.30418
1082.78880,1.22884
1084.27859,1.24810
1085.76838,1.21102
1087.25817,1.11962
1088.74795,1.03628
1090.23774,1.02641
1091.72753,1.01655
1093.21732,0.93928
1094.70711,1.01094
1096.19690,1.08463
1097.68668,1.07985
1099.17647,0.82957
1100.66626,0.83790
1102.15605,0.84623
1103.64584,0.84150
1105.13563,0.87501
1106.62542,0.83006
1108.11520,0.80121
1109.60499,0.79854
1111.09478,0.71137
1112.58457,0.77211
1114.07436,0.83286
1115.56415,0.60084
1117.05393,0.58816
1118.54372,0.56947
1120.03351,0.61317
1121.52330,0.55022
1123.01309,0.49434
1124.50288,0.43846
1125.99266,0.57679
1127.48245,0.55012
1128.97224,0.40071
1130.46203,0.47870
1131.95182,0.26090
1133.44161,0.34898
1134.93140,0.35155
1136.42118,0.35413
1137.91097,0.32352
1139.40076,0.33518
1140.89055,0.10136
1142.38034,0.23177
1143.87013,0.16298
1145.35991,0.16865
1146.84970,0.20452
1148.33949,0.24041
1149.82928,0.13343
1151.31907,0.12708
1152.80886,0.00000
1154.29865,0.01098
1155.78843,0.02197
1157.27822,0.06516
1158.76801,0.12447
1160.25780,0.18379
1161.74759,0.17269
1163.23738,0.18978
1164.72716,0.18877
1166.21695,0.19582
1167.70674,0.06001
1169.19653,0.08117
1170.68632,0.06109
1172.17611,0.04102
1173.66589,0.10448
1175.15568,0.10355
1176.64547,0.13081
1178.13526,0.04741
1179.62505,0.09280
1181.11484,0.05772
1182.60463,0.11722
1184.09441,0.17674
1185.58420,0.13767
1187.07399,0.08453
1188.56378,0.09578
1190.05357,0.08693
1191.54336,0.08816
1193.03314,0.03707
1194.52293,0.05341
1196.01272,0.06976
1197.50251,0.07104
1198.99230,0.08037
1200.48209,0.06758
1201.97188,0.05279
1203.46166,0.03399
1204.95145,0.11180
1206.44124,0.12521
1207.93103,0.16883
1209.42082,0.21246
1210.91061,0.22189
1212.40039,0.20518
1213.89018,0.24080
1215.37997,0.28448
1216.86976,0.35634
1218.35955,0.23906
1219.84934,0.23851
1221.33912,0.23796
1222.82891,0.23140
1224.31870,0.23289
1225.80849,0.30081
1227.29828,0.29428
1228.78807,0.26361
1230.27786,0.33559
1231.76764,0.39147
1233.25743,0.39304
1234.74722,0.39462
1236.23701,0.36201
1237.72680,0.37770
1239.21659,0.49201
1240.70637,0.44937
1242.19616,0.59791
1243.68595,0.71225
1245.17574,0.52275
1246.66553,0.54154
1248.15532,0.56033
1249.64511,0.64253
1251.13489,0.55973
1252.62468,0.60573
1254.11447,0.67790
1255.60426,0.76619
1257.09405,0.75991
1258.58384,0.80998
1260.07362,0.78561
1261.56341,0.70692
1263.05320,0.62825
1264.54299,0.51940
1266.03278,0.66612
1267.52257,0.65590
1269.01235,0.71009
1270.50214,0.61336
1271.99193,0.63940
1273.48172,0.56484
1274.97151,0.54059
1276.46130,0.51636
1277.95109,0.58470
1279.44087,0.63093
1280.93066,0.60069
1282.42045,0.58255
1283.91024,0.55435
1285.40003,0.60263
1286.88982,0.66703
1288.37960,0.69119
1289.86939,0.61072
1291.35918,0.53027
1292.84897,0.45184
1294.33876,0.49215
1295.82855,0.49625
1297.31834,0.45005
1298.80812,0.39180
1300.29791,0.39392
1301.78770,0.39405
1303.27749,0.41431
1304.76728,0.40641
1306.25707,0.39852
1307.74685,0.37455
1309.23664,0.44919
1310.72643,0.49969
1312.21622,0.60253
1313.70601,0.61684
1315.19580,0.53659
1316.68558,0.61330
1318.17537,0.48478
1319.66516,0.47801
1321.15495,0.47125
1322.64474,0.44136
1324.13453,0.56241
1325.62432,0.56474
1327.11410,0.62545
1328.60389,0.66000
1330.09368,0.75092
1331.58347,0.69092
1333.07326,0.68124
1334.56305,0.58304
1336.05283,0.60055
1337.54262,0.61808
1339.03241,0.78553
1340.52220,0.89464
1342.01199,0.88906
1343.50178,0.88752
1344.99156,0.91416
1346.48135,0.99515
1347.97114,0.86083
1349.46093,0.98209
1350.95072,1.17782
1352.44051,1.25181
1353.93030,1.32582
1355.42008,1.36865
1356.90987,1.44570
1358.39966,1.48855
1359.88945,1.46702
1361.37924,1.24025
1362.86903,1.21673
1364.35881,1.12078
1365.84860,1.14357
1367.33839,1.03155
1368.82818,0.93564
1370.31797,0.83975
1371.80776,0.80423
1373.29755,0.61981
1374.78733,0.59438
1376.27712,0.50658
1377.76691,0.48520
1379.25670,0.46786
1380.74649,0.54511
1382.23628,0.44931
1383.72606,0.49036
1385.21585,0.50526
1386.70564,0.53929
1388.19543,0.57334
1389.68522,0.52791
1391.17501,0.45633
1392.66479,0.44513
1394.15458,0.60298
1395.64437,0.63810
1397.13416,0.56657
1398.62395,0.53329
1400.11374,0.47989
1401.60353,0.51506
1403.09331,0.41943
1404.58310,0.43147
1406.07289,0.44353
1407.56268,0.49283
1409.05247,0.45360
1410.54226,0.48883
1412.03204,0.44157
1413.52183,0.52312
1415.01162,0.38734
1416.50141,0.40251
1417.99120,0.52634
1419.48099,0.59184
1420.97078,0.47020
1422.46056,0.50352
1423.95035,0.49359
1425.44014,0.48367
1426.92993,0.51905
1428.41972,0.38338
1429.90951,0.43287
1431.39929,0.47029
1432.88908,0.48357
1434.37887,0.42443
1435.86866,0.48603
1437.35845,0.48728
1438.84824,0.53080
1440.33802,0.44353
1441.82781,0.52934
1443.31760,0.60710
1444.80739,0.61646
1446.29718,0.62583
1447.78697,0.70162
1449.27676,0.79151
1450.76654,0.70031
1452.25633,0.82242
1453.74612,0.87612
1455.23591,0.83928
1456.72570,0.86484
1458.21549,0.90450
1459.70527,0.92203
1461.19506,0.93354
1462.68485,1.03561
1464.17464,1.11154
1465.66443,1.10899
1467.15422,1.10647
1468.64401,1.23877
1470.13379,1.20609
1471.62358,1.31427
1473.11337,1.30575
1474.60316,1.13023
1476.09295,1.16802
1477.58274,1.21589
1479.07252,1.08668
1480.56231,0.90517
1482.05210,0.91483
1483.54189,0.86012
1485.03168,0.66858
1486.52147,0.55755
1488.01125,0.56425
1489.50104,0.57096
1490.99083,0.42777
1492.48062,0.45966
1493.97041,0.33661
1495.46020,0.18541
1496.94999,0.18313
1498.43977,0.27543
1499.92956,0.21884
1501.41935,0.11800
1502.90914,0.20431
1504.39893,0.09745
1505.88872,0.14353
1507.37850,0.02261
1508.86829,0.05665
1510.35808,0.10881
1511.84787,0.00000
1513.33766,0.02636
1514.82745,0.05273
1516.31724,0.12238
1517.80702,0.14979
1519.29681,0.07055
1520.78660,0.09999
1522.27639,0.08517
1523.76618,0.13074
1525.25597,0.01734
1526.74575,0.15348
1528.23554,0.02401
1529.72533,0.07365
1531.21512,0.13135
1532.70491,0.12064
1534.19470,0.06568
1535.68448,0.12543
1537.17427,0.15098
1538.66406,0.11617
1540.15385,0.09647
1541.64364,0.07678
1543.13343,0.02793
1544.62322,0.06763
1546.11300,0.08722
1547.60279,0.05249
1549.09258,0.09625
1550.58237,0.06355
1552.07216,0.12545
1553.56195,0.13504
1555.05173,0.16879
1556.54152,0.15023
1558.03131,0.16992
1559.52110,0.22181
1561.01089,0.11878
1562.50068,0.12442
1563.99047,0.11397
1565.48025,0.13372
1566.97004,0.00859
1568.45983,0.07465
1569.94962,0.08538
1571.43941,0.09612
1572.92920,0.11594
1574.41898,0.10960
1575.90877,0.09925
1577.39856,0.07282
1578.88835,0.16713
1580.37814,0.18097
1581.86793,0.09822
1583.35771,0.11812
1584.84750,0.17023
1586.33729,0.13582
1587.82708,0.05715
1589.31687,0.06100
1590.80666,0.06285
1592.29645,0.10093
1593.78623,0.13701
1595.27602,0.19323
1596.76581,0.15086
1598.25560,0.23729
1599.74539,0.25330
1601.23518,0.16669
1602.72496,0.10022
1604.21475,0.16657
1605.70454,0.23294
1607.19433,0.14839
1608.68412,0.16246
1610.17391,0.22887
1611.66370,0.25906
1613.15348,0.22286
1614.64327,0.25308
1616.13306,0.21489
1617.62285,0.20891
1619.11264,0.08422
1620.60243,0.22718
1622.09221,0.21118
1623.58200,0.22537
1625.07179,0.20537
1626.56158,0.21154
1628.05137,0.28614
1629.54116,0.23397
1631.03094,0.23012
1632.52073,0.17999
1634.01052,0.14196
1635.50031,0.28705
1636.99010,0.18464
1638.47989,0.13456
1639.96968,0.22134
1641.45946,0.18738
1642.94925,0.21784
1644.43904,0.22013
1645.92883,0.21539
1647.41862,0.21067
1648.90841,0.18080
1650.39819,0.20125
1651.88798,0.22776
1653.37777,0.26635
1654.86756,0.23452
1656.35735,0.21276
1657.84714,0.31176
1659.33693,0.34436
1660.82671,0.37898
1662.31650,0.33313
1663.80629,0.25912
1665.29608,0.25756
1666.78587,0.37071
1668.27566,0.38326
1669.76544,0.43608
1671.25523,0.33194
1672.74502,0.34654
1674.23481,0.36518
1675.72460,0.44219
1677.21439,0.35017
1678.70417,0.39903
1680.19396,0.36741
1681.68375,0.25330
1683.17354,0.31629
1684.66333,0.35111
1686.15312,0.36582
1687.64291,0.29402
1689.13269,0.37315
1690.62248,0.29936
1692.11227,0.30607
1693.60206,0.31883
1695.09185,0.32356
1696.58164,0.21360
1698.07142,0.20426
1699.56121,0.20701
1701.05100,0.21983
1702.54079,0.22663
1704.03058,0.19722
1705.52037,0.20204
1707.01016,0.18774
1708.49994,0.17346
1709.98973,0.00727
1711.47952,0.05036
1712.96931,0.06731
1714.45910,0.05811
1715.94889,0.15557
1717.43867,0.11219
1718.92846,0.07485
1720.41825,0.04759
1721.90804,0.04047
1723.39783,0.05750
1724.88762,0.02021
1726.37740,0.04935
1727.86719,0.09660
1729.35698,0.06941
1730.84677,0.04023
1732.33656,0.01508
1733.82635,0.00000
1735.31614,0.01803
1736.80592,0.04614
1738.29571,0.08633
1739.78550,0.05811
1741.27529,0.05204
1742.76508,0.12044
1744.25487,0.06409
1745.74465,0.09227
1747.23444,0.04802
1748.72423,0.03396
1750.21402,0.01791
1751.70381,0.05821
1753.19360,0.06431
1754.68339,0.00000
1756.17317,0.02946
1757.66296,0.05894
1759.15275,0.03812
1760.64254,0.09982
1762.13233,0.04079
1763.62212,0.05824
1765.11190,0.00125
1766.60169,0.02476
1768.09148,0.06237
1769.58127,0.11609
1771.07106,0.11147
1772.56085,0.02838
1774.05063,0.05799
1775.54042,0.03731
1777.03021,0.03676
1778.52000,0.00000
