299.16008,0.06374
300.64987,0.19461
302.13966,0.21169
303.62945,0.10584
305.11924,0.00000
306.60902,0.06997
308.09881,0.06272
309.58860,0.03721
311.07839,0.01170
312.56818,0.25854
314.05797,0.17617
315.54776,0.26045
317.03754,0.34476
318.52733,0.19130
320.01712,0.13540
321.50691,0.11611
322.99670,0.09683
324.48649,0.18324
325.97627,0.10302
327.46606,0.13663
328.95585,0.17025
330.44564,0.19372
331.93543,0.12373
333.42522,0.14373
334.91501,0.16374
336.40479,0.23458
337.89458,0.32778
339.38437,0.33362
340.87416,0.33947
342.36395,0.25998
343.85374,0.16019
345.34352,0.15389
346.83331,0.14761
348.32310,0.26328
349.81289,0.26313
351.30268,0.21117
352.79247,0.15923
354.28225,0.18351
355.77204,0.19561
357.26183,0.16709
358.75162,0.13857
360.24141,0.31331
361.73120,0.34580
363.22099,0.30717
364.71077,0.26856
366.20056,0.21980
367.69035,0.29910
369.18014,0.21786
370.66993,0.13663
372.15972,0.32775
373.64950,0.41929
375.13929,0.32796
376.62908,0.23663
378.11887,0.36074
379.60866,0.43813
381.09845,0.41696
382.58824,0.39581
384.07802,0.62363
385.56781,0.67873
387.05760,0.70132
388.54739,0.72393
390.03718,0.58803
391.52697,0.57612
393.01675,0.62824
394.50654,0.68038
395.99633,0.84329
397.48612,0.70341
398.97591,0.67735
400.46570,0.65131
401.95548,0.67202
403.44527,0.74966
404.93506,0.74195
406.42485,0.73426
407.91464,0.75301
409.40443,0.78193
410.89422,0.92264
412.38400,0.95769
413.87379,0.99276
415.36358,1.17213
416.85337,1.14016
418.34316,1.23116
419.83295,1.32218
421.32273,1.48129
422.81252,1.46971
424.30231,1.40022
425.79210,1.33075
427.28189,1.28263
428.77168,1.43979
430.26146,1.47909
431.75125,1.51840
433.24104,1.41751
434.73083,1.16625
436.22062,1.11009
437.71041,1.05395
439.20020,0.79867
440.68998,0.69379
442.17977,0.77081
443.66956,0.84785
445.15935,0.70440
446.64914,0.61381
448.13893,0.50495
449.62871,0.43572
451.11850,0.36652
452.60829,0.20892
454.09808,0.22205
455.58787,0.18439
457.07766,0.14675
458.56745,0.16602
460.05723,0.13451
461.54702,0.21478
463.03681,0.29507
464.52660,0.09695
466.01639,0.18337
467.50618,0.17733
468.99596,0.17131
470.48575,0.14194
471.97554,0.03129
473.46533,0.11613
474.95512,0.13189
476.44491,0.14767
477.93469,0.18785
479.42448,0.15895
480.91427,0.19509
482.40406,0.23125
483.89385,0.31824
485.38364,0.28127
486.87343,0.31748
488.36321,0.35370
489.85300,0.47326
491.34279,0.44855
492.83258,0.64334
494.32237,0.61053
495.81216,0.57773
497.30194,0.51853
498.79173,0.48577
500.28152,0.50180
501.77131,0.51784
503.26110,0.63957
504.75089,0.67394
506.24068,0.65141
507.73046,0.62890
509.22025,0.53325
510.71004,0.54735
512.19983,0.55537
513.68962,0.55426
515.17941,0.55317
516.66919,0.57953
518.15898,0.60184
519.64877,0.51239
521.13856,0.42295
522.62835,0.36199
524.11814,0.44330
525.60792,0.64046
527.09771,0.70147
528.58750,0.76251
530.07729,0.77071
531.56708,0.91307
533.05687,0.93248
534.54666,0.95192
536.03644,0.72241
537.52623,0.87092
539.01602,0.93206
540.50581,0.85401
541.99560,0.77597
543.48539,0.82090
544.97517,0.77439
546.46496,0.86610
547.95475,0.95781
549.44454,0.90932
550.93433,0.88320
552.42412,0.76158
553.91391,0.68163
555.40369,0.60170
556.89348,0.56548
558.38327,0.76095
559.87306,0.77861
561.36285,0.79629
562.85264,0.68697
564.34242,0.58377
565.83221,0.58422
567.32200,0.54201
568.81179,0.49982
570.30158,0.37228
571.79137,0.41751
573.28115,0.42921
574.77094,0.44094
576.26073,0.22201
577.75052,0.25917
579.24031,0.16425
580.73010,0.16994
582.21989,0.17564
583.70967,0.14580
585.19946,0.17084
586.68925,0.18879
588.17904,0.20675
589.66883,0.17087
591.15862,0.06591
592.64840,0.10729
594.13819,0.09889
595.62798,0.09051
597.11777,0.02016
598.60756,0.15102
600.09735,0.10712
601.58714,0.13030
603.07692,0.15350
604.56671,0.08729
606.05650,0.25278
607.54629,0.23233
609.03608,0.21189
610.52587,0.21484
612.01565,0.20155
613.50544,0.21470
614.99523,0.15368
616.48502,0.09268
617.97481,0.20139
619.46460,0.08250
620.95438,0.11604
622.44417,0.08254
623.93396,0.04905
625.42375,0.12735
626.91354,0.19754
628.40333,0.19661
629.89312,0.19570
631.38290,0.19074
632.87269,0.15328
634.36248,0.00000
635.85227,0.02335
637.34206,0.04671
638.83185,0.10160
640.32163,0.09349
641.81142,0.09150
643.30121,0.05701
644.79100,0.02253
646.28079,0.07136
647.77058,0.22386
649.26037,0.19346
650.75015,0.22506
652.23994,0.25668
653.72973,0.25885
655.21952,0.15535
656.70931,0.11284
658.19910,0.15977
659.68888,0.20671
661.17867,0.12969
662.66846,0.15024
664.15825,0.10781
665.64804,0.12331
667.13783,0.13883
668.62761,0.21431
670.11740,0.22275
671.60719,0.21595
673.09698,0.20918
674.58677,0.21969
676.07656,0.19974
677.56635,0.25296
679.05613,0.30721
680.54592,0.36148
682.03571,0.31721
683.52550,0.40301
685.01529,0.23479
686.50508,0.26067
687.99486,0.28657
689.48465,0.18749
690.97444,0.23882
692.46423,0.37756
693.95402,0.32527
695.44381,0.27301
696.93360,0.22075
698.42338,0.18274
699.91317,0.15491
701.40296,0.19720
702.89275,0.23951
704.38254,0.20563
705.87233,0.18801
707.36211,0.12774
708.85190,0.12540
710.34169,0.12308
711.83148,0.11163
713.32127,0.11645
714.81106,0.10503
716.30084,0.12716
717.79063,0.14930
719.28042,0.12573
720.77021,0.13876
722.26000,0.15384
723.74979,0.15064
725.23958,0.14746
726.72936,0.00000
728.21915,0.05958
729.70894,0.14763
731.19873,0.17473
732.68852,0.20083
734.17831,0.22695
735.66809,0.14638
737.15788,0.15932
738.64767,0.16414
740.13746,0.13646
741.62725,0.10879
743.11704,0.14211
744.60683,0.18358
746.09661,0.20880
747.58640,0.24420
749.07619,0.27961
750.56598,0.25611
752.05577,0.31594
753.54556,0.41644
755.03534,0.40720
756.52513,0.39799
758.01492,0.43959
759.50471,0.63363
760.99450,0.70778
762.48429,0.78805
763.97407,0.86833
765.46386,0.91611
766.95365,0.97406
768.44344,1.05439
769.93323,0.99451
771.42302,1.04844
772.91281,1.10240
774.40259,1.00395
775.89238,0.99696
777.38217,0.99610
778.87196,0.99626
780.36175,0.99643
781.85154,0.89603
783.34132,0.81596
784.83111,0.73185
786.32090,0.77781
787.81069,0.82379
789.30048,0.68079
790.79027,0.74712
792.28006,0.71186
793.76984,0.56484
795.25963,0.53570
796.74942,0.50658
798.23921,0.29864
799.72900,0.34068
801.21879,0.41119
802.70857,0.41058
804.19836,0.40999
805.68815,0.29967
807.17794,0.12840
808.66773,0.01405
810.15752,0.05824
811.64730,0.10243
813.13709,0.24013
814.62688,0.28233
816.11667,0.15789
817.60646,0.22857
819.09625,0.29927
820.58604,0.36998
822.07582,0.36754
823.56561,0.36919
825.05540,0.41555
826.54519,0.43044
828.03498,0.44534
829.52477,0.38201
831.01455,0.48535
832.50434,0.43018
833.99413,0.58436
835.48392,0.61763
836.97371,0.65091
838.46350,0.53484
839.95329,0.45740
841.44307,0.55068
842.93286,0.60130
844.42265,0.62145
845.91244,0.64162
847.40223,0.68010
848.89202,0.70436
850.38180,0.77945
851.87159,0.84032
853.36138,0.90121
854.85117,1.01293
856.34096,1.03321
857.83075,1.10024
859.32053,1.34206
860.81032,1.38271
862.30011,1.42337
863.78990,1.30554
865.27969,1.24055
866.76948,1.27516
868.25927,1.19395
869.74905,1.18084
871.23884,1.16774
872.72863,1.16786
874.21842,1.15987
875.70821,1.14987
877.19800,0.99762
878.68778,1.10247
880.17757,1.20734
881.66736,1.15269
883.15715,1.12244
884.64694,0.96011
886.13673,1.03963
887.62651,1.11917
889.11630,1.15808
890.60609,1.08523
892.09588,1.15262
893.58567,1.03510
895.07546,1.03546
896.56525,1.03583
898.05503,0.93867
899.54482,1.04476
901.03461,1.04721
902.52440,0.94807
904.01419,0.99933
905.50398,1.05060
906.99376,1.00841
908.48355,1.05971
909.97334,1.01755
911.46313,1.03231
912.95292,1.04911
914.44271,1.06593
915.93250,1.01367
917.42228,1.07523
918.91207,0.91732
920.40186,0.87120
921.89165,0.90639
923.38144,0.94159
924.87123,0.98494
926.36101,0.94905
927.85080,1.19769
929.34059,1.03785
930.83038,1.03554
932.32017,1.03324
933.80996,0.93239
935.29974,0.91488
936.78953,0.95022
938.27932,0.88397
939.76911,0.94170
941.25890,0.99944
942.74869,1.06737
944.23848,0.94834
945.72826,0.91671
947.21805,0.88916
948.70784,1.03234
950.19763,0.96926
951.68742,0.90619
953.17721,0.80758
954.66699,0.92033
956.15678,0.90914
957.64657,0.79838
959.13636,0.88374
960.62615,0.96913
962.11594,1.13277
963.60573,1.03833
965.09551,0.96016
966.58530,1.20311
968.07509,1.25605
969.56488,1.30901
971.05467,1.24107
972.54446,1.30117
974.03424,1.37145
975.52403,1.41736
977.01382,1.42264
978.50361,1.44928
979.99340,1.47593
981.48319,1.64383
982.97297,1.63089
984.46276,1.66673
985.95255,1.59691
987.44234,1.57384
988.93213,1.55080
990.42192,1.67612
991.91171,1.82178
993.40149,1.85772
994.89128,1.73922
996.38107,1.63293
997.87086,1.63131
999.36065,1.62971
1000.85044,1.66572
1002.34022,1.77898
1003.83001,1.92273
1005.31980,1.78198
1006.80959,1.88716
1008.29938,1.99235
1009.78917,2.00000
1011.27896,1.97515
1012.76874,1.83245
1014.25853,1.71619
1015.74832,1.66293
1017.23811,1.48472
1018.72790,1.30651
1020.21769,1.20453
1021.70747,1.02331
1023.19726,0.88275
1024.68705,0.70563
1026.17684,0.54680
1027.66663,0.58818
1029.15642,0.62957
1030.64620,0.56022
1032.13599,0.46852
1033.62578,0.45610
1035.11557,0.53109
1036.60536,0.51972
1038.09515,0.50836
1039.58494,0.53258
1041.07472,0.64624
1042.56451,0.52011
1044.05430,0.61145
1045.54409,0.69670
1047.03388,0.71389
1048.52367,0.73109
1050.01345,0.69243
1051.50324,0.85091
1052.99303,0.97688
1054.48282,0.94639
1055.97261,1.01143
1057.46240,1.02365
1058.95219,1.03588
1060.44197,1.17820
1061.93176,1.04414
1063.42155,1.25355
1064.91134,1.23739
1066.40113,1.33506
1067.89092,1.42359
1069.38070,1.51214
1070.87049,1.56108
1072.36028,1.54094
1073.85007,1.33588
1075.33986,1.31983
1076.82965,1.22251
1078.31943,1.20649
1079.80922,1.19049
1081.29901,1.22328
1082.78880,1.31299
1084.27859,1.24623
1085.76838,1.11445
1087.25817,1.08023
1088.74795,0.95052
1090.23774,0.97222
1091.72753,0.99394
1093.21732,0.98215
1094.70711,0.93785
1096.19690,0.94844
1097.68668,0.92856
1099.17647,0.92699
1100.66626,0.86345
1102.15605,0.79992
1103.64584,0.86343
1105.13563,0.80705
1106.62542,0.81165
1108.11520,0.75937
1109.60499,0.68271
1111.09478,0.63858
1112.58457,0.62800
1114.07436,0.61744
1115.56415,0.51240
1117.05393,0.49882
1118.54372,0.47103
1120.03351,0.47374
1121.52330,0.41346
1123.01309,0.42636
1124.50288,0.43928
1125.99266,0.42986
1127.48245,0.51597
1128.97224,0.37652
1130.46203,0.33666
1131.95182,0.32323
1133.44161,0.27324
1134.93140,0.29846
1136.42118,0.32370
1137.91097,0.29205
1139.40076,0.28886
1140.89055,0.19221
1142.38034,0.14435
1143.87013,0.10056
1145.35991,0.10760
1146.84970,0.12279
1148.33949,0.13799
1149.82928,0.12475
1151.31907,0.04853
1152.80886,0.01703
1154.29865,0.03433
1155.78843,0.10244
1157.27822,0.03238
1158.76801,0.07106
1160.25780,0.10975
1161.74759,0.12712
1163.23738,0.13028
1164.72716,0.22288
1166.21695,0.08991
1167.70674,0.06467
1169.19653,0.01912
1170.68632,0.06707
1172.17611,0.11503
1173.66589,0.08172
1175.15568,0.20085
1176.64547,0.03344
1178.13526,0.09569
1179.62505,0.05634
1181.11484,0.09424
1182.60463,0.10472
1184.09441,0.11521
1185.58420,0.08812
1187.07399,0.09153
1188.56378,0.03602
1190.05357,0.09433
1191.54336,0.04698
1193.03314,0.10330
1194.52293,0.09154
1196.01272,0.07980
1197.50251,0.00000
1198.99230,0.12665
1200.48209,0.07448
1201.97188,0.03046
1203.46166,0.03929
1204.95145,0.09894
1206.44124,0.12609
1207.93103,0.13395
1209.42082,0.14183
1210.91061,0.07554
1212.40039,0.18201
1213.89018,0.29866
1215.37997,0.31371
1216.86976,0.25358
1218.35955,0.23615
1219.84934,0.21162
1221.33912,0.18710
1222.82891,0.13517
1224.31870,0.21534
1225.80849,0.23660
1227.29828,0.30868
1228.78807,0.29339
1230.27786,0.28014
1231.76764,0.25268
1233.25743,0.29231
1234.74722,0.33195
1236.23701,0.32690
1237.72680,0.33405
1239.21659,0.40829
1240.70637,0.39718
1242.19616,0.42064
1243.68595,0.51322
1245.17574,0.52451
1246.66553,0.51550
1248.15532,0.50651
1249.64511,0.54834
1251.13489,0.45199
1252.62468,0.44710
1254.11447,0.55401
1255.60426,0.55729
1257.09405,0.62155
1258.58384,0.63909
1260.07362,0.62005
1261.56341,0.57767
1263.05320,0.53530
1264.54299,0.52851
1266.03278,0.61115
1267.52257,0.55562
1269.01235,0.59968
1270.50214,0.50963
1271.99193,0.52121
1273.48172,0.45354
1274.97151,0.46109
1276.46130,0.46865
1277.95109,0.48435
1279.44087,0.43707
1280.93066,0.45281
1282.42045,0.48482
1283.91024,0.42946
1285.40003,0.47979
1286.88982,0.52607
1288.37960,0.45653
1289.86939,0.42155
1291.35918,0.38659
1292.84897,0.39026
1294.33876,0.37158
1295.82855,0.39763
1297.31834,0.32412
1298.80812,0.36037
1300.29791,0.31737
1301.78770,0.29674
1303.27749,0.31881
1304.76728,0.32057
1306.25707,0.32234
1307.74685,0.30787
1309.23664,0.37674
1310.72643,0.44360
1312.21622,0.43324
1313.70601,0.38022
1315.19580,0.42274
1316.68558,0.47746
1318.17537,0.39807
1319.66516,0.36747
1321.15495,0.33688
1322.64474,0.40589
1324.13453,0.46069
1325.62432,0.47689
1327.11410,0.45653
1328.60389,0.55609
1330.09368,0.56827
1331.58347,0.52154
1333.07326,0.54798
1334.56305,0.52566
1336.05283,0.50844
1337.54262,0.49124
1339.03241,0.55839
1340.52220,0.68449
1342.01199,0.67444
1343.50178,0.66035
1344.99156,0.74788
1346.48135,0.74601
1347.97114,0.79903
1349.46093,0.82361
1350.95072,1.02095
1352.44051,1.02625
1353.93030,1.03157
1355.42008,1.08060
1356.90987,1.09917
1358.39966,1.17465
1359.88945,1.08147
1361.37924,1.01472
1362.86903,0.98050
1364.35881,0.93208
1365.84860,0.86131
1367.33839,0.83121
1368.82818,0.75438
1370.31797,0.67757
1371.80776,0.59874
1373.29755,0.52398
1374.78733,0.50006
1376.27712,0.48224
1377.76691,0.39941
1379.25670,0.33285
1380.74649,0.37401
1382.23628,0.45584
1383.72606,0.35071
1385.21585,0.40209
1386.70564,0.40877
1388.19543,0.41546
1389.68522,0.39169
1391.17501,0.34964
1392.66479,0.32183
1394.15458,0.47085
1395.64437,0.43901
1397.13416,0.43157
1398.62395,0.41399
1400.11374,0.32529
1401.60353,0.41952
1403.09331,0.35727
1404.58310,0.37531
1406.07289,0.39337
1407.56268,0.35150
1409.05247,0.36247
1410.54226,0.39176
1412.03204,0.40277
1413.52183,0.33656
1415.01162,0.38825
1416.50141,0.42369
1417.99120,0.31486
1419.48099,0.36862
1420.97078,0.45289
1422.46056,0.37662
1423.95035,0.37861
1425.44014,0.38061
1426.92993,0.41006
1428.41972,0.32166
1429.90951,0.33896
1431.39929,0.33391
1432.88908,0.32075
1434.37887,0.31370
1435.86866,0.26806
1437.35845,0.33826
1438.84824,0.33330
1440.33802,0.34054
1441.82781,0.39453
1443.31760,0.49529
1444.80739,0.48835
1446.29718,0.48143
1447.78697,0.59036
1449.27676,0.55298
1450.76654,0.48514
1452.25633,0.58192
1453.74612,0.66653
1455.23591,0.65157
1456.72570,0.69759
1458.21549,0.74363
1459.70527,0.74904
1461.19506,0.82966
1462.68485,0.86762
1464.17464,0.90559
1465.66443,0.94155
1467.15422,0.97752
1468.64401,0.97693
1470.13379,0.92961
1471.62358,0.96359
1473.11337,1.09514
1474.60316,1.00722
1476.09295,1.05548
1477.58274,0.90256
1479.07252,0.80860
1480.56231,0.87519
1482.05210,0.73858
1483.54189,0.70562
1485.03168,0.55888
1486.52147,0.38370
1488.01125,0.38940
1489.50104,0.39512
1490.99083,0.35412
1492.48062,0.30297
1493.97041,0.24167
1495.46020,0.26371
1496.94999,0.23903
1498.43977,0.17371
1499.92956,0.03525
1501.41935,0.07565
1502.90914,0.04899
1504.39893,0.00000
1505.88872,0.09662
1507.37850,0.13025
1508.86829,0.09074
1510.35808,0.05531
1511.84787,0.09305
1513.33766,0.09932
1514.82745,0.10559
1516.31724,0.12103
1517.80702,0.08364
1519.29681,0.07676
1520.78660,0.06176
1522.27639,0.08538
1523.76618,0.07042
1525.25597,0.05343
1526.74575,0.08117
1528.23554,0.07438
1529.72533,0.07573
1531.21512,0.07506
1532.70491,0.01751
1534.19470,0.13068
1535.68448,0.00000
1537.17427,0.09188
1538.66406,0.08623
1540.15385,0.06637
1541.64364,0.04653
1543.13343,0.09579
1544.62322,0.10443
1546.11300,0.05212
1547.60279,0.03640
1549.09258,0.05525
1550.58237,0.14320
1552.07216,0.08282
1553.56195,0.05904
1555.05173,0.18362
1556.54152,0.09077
1558.03131,0.15239
1559.52110,0.05551
1561.01089,0.09073
1562.50068,0.16256
1563.99047,0.02101
1565.48025,0.02174
1566.97004,0.12816
1568.45983,0.06998
1569.94962,0.03722
1571.43941,0.00448
1572.92920,0.09673
1574.41898,0.07926
1575.90877,0.07604
1577.39856,0.07079
1578.88835,0.06353
1580.37814,0.09083
1581.86793,0.12221
1583.35771,0.12312
1584.84750,0.17080
1586.33729,0.08639
1587.82708,0.09751
1589.31687,0.05377
1590.80666,0.09541
1592.29645,0.12080
1593.78623,0.12589
1595.27602,0.13099
1596.76581,0.16253
1598.25560,0.18595
1599.74539,0.10778
1601.23518,0.15359
1602.72496,0.19942
1604.21475,0.16803
1605.70454,0.13666
1607.19433,0.13376
1608.68412,0.16136
1610.17391,0.17271
1611.66370,0.20237
1613.15348,0.21986
1614.64327,0.15200
1616.13306,0.13700
1617.62285,0.15859
1619.11264,0.13549
1620.60243,0.12663
1622.09221,0.14218
1623.58200,0.11709
1625.07179,0.18551
1626.56158,0.14826
1628.05137,0.19435
1629.54116,0.20184
1631.03094,0.22561
1632.52073,0.17826
1634.01052,0.15125
1635.50031,0.18319
1636.99010,0.08712
1638.47989,0.18616
1639.96968,0.11653
1641.45946,0.15667
1642.94925,0.15007
1644.43904,0.19430
1645.92883,0.17656
1647.41862,0.15884
1648.90841,0.22953
1650.39819,0.17831
1651.88798,0.25717
1653.37777,0.19988
1654.86756,0.22389
1656.35735,0.17679
1657.84714,0.22726
1659.33693,0.30416
1660.82671,0.22459
1662.31650,0.25885
1663.80629,0.21183
1665.29608,0.19734
1666.78587,0.24587
1668.27566,0.23751
1669.76544,0.32264
1671.25523,0.26757
1672.74502,0.35071
1674.23481,0.27128
1675.72460,0.35852
1677.21439,0.24254
1678.70417,0.31151
1680.19396,0.30125
1681.68375,0.25035
1683.17354,0.30108
1684.66333,0.28273
1686.15312,0.34772
1687.64291,0.27859
1689.13269,0.28467
1690.62248,0.28671
1692.11227,0.20137
1693.60206,0.27050
1695.09185,0.32745
1696.58164,0.27061
1698.07142,0.22192
1699.56121,0.15901
1701.05100,0.15709
1702.54079,0.14299
1704.03058,0.12078
1705.52037,0.22255
1707.01016,0.20139
1708.49994,0.18024
1709.98973,0.13167
1711.47952,0.09124
1712.96931,0.06099
1714.45910,0.08766
1715.94889,0.08590
1717.43867,0.11870
1718.92846,0.04380
1720.41825,0.05834
1721.90804,0.04444
1723.39783,0.04885
1724.88762,0.05124
1726.37740,0.04146
1727.86719,0.15972
1729.35698,0.08290
1730.84677,0.00000
1732.33656,0.06714
1733.82635,0.01846
1735.31614,0.09172
1736.80592,0.13046
1738.29571,0.07979
1739.78550,0.04336
1741.27529,0.00898
1742.76508,0.05794
1744.25487,0.05001
1745.74465,0.05835
1747.23444,0.03216
1748.72423,0.06696
1750.21402,0.06925
1751.70381,0.04921
1753.19360,0.10641
1754.68339,0.03762
1756.17317,0.03184
1757.66296,0.05657
1759.15275,0.04270
1760.64254,0.02885
1762.13233,0.05972
1763.62212,0.08044
1765.11190,0.00973
1766.60169,0.00000
1768.09148,0.03932
1769.58127,0.11321
1771.07106,0.06720
1772.56085,0.04763
1774.05063,0.02605
1775.54042,0.00041
1777.03021,0.01544
1778.52000,0.00000
