299.16008,0.14286
300.64987,0.08204
302.13966,0.15366
303.62945,0.19102
305.11924,0.22840
306.60902,0.14904
308.09881,0.00000
309.58860,0.04322
311.07839,0.08646
312.56818,0.09892
314.05797,0.07307
315.54776,0.12041
317.03754,0.16776
318.52733,0.18144
320.01712,0.14401
321.50691,0.12926
322.99670,0.11451
324.48649,0.00278
325.97627,0.04441
327.46606,0.05119
328.95585,0.05799
330.44564,0.16818
331.93543,0.14016
333.42522,0.14060
334.91501,0.14107
336.40479,0.06545
337.89458,0.04909
339.38437,0.04436
340.87416,0.03965
342.36395,0.12555
343.85374,0.05232
345.34352,0.02615
346.83331,0.00000
348.32310,0.12531
349.81289,0.07058
351.30268,0.12622
352.79247,0.18188
354.28225,0.21663
355.77204,0.20958
357.26183,0.14679
358.75162,0.08400
360.24141,0.17922
361.73120,0.03282
363.22099,0.08569
364.71077,0.13857
366.20056,0.20250
367.69035,0.10498
369.18014,0.11317
370.66993,0.12138
372.15972,0.15865
373.64950,0.11229
375.13929,0.16584
376.62908,0.21941
378.11887,0.30086
379.60866,0.32077
381.09845,0.36159
382.58824,0.40243
384.07802,0.42818
385.56781,0.42955
387.05760,0.42338
388.54739,0.41723
390.03718,0.51156
391.52697,0.42935
393.01675,0.41161
394.50654,0.39389
395.99633,0.50222
397.48612,0.49556
398.97591,0.50227
400.46570,0.50899
401.95548,0.56742
403.44527,0.61077
404.93506,0.54725
406.42485,0.48375
407.91464,0.58288
409.40443,0.74941
410.89422,0.73473
412.38400,0.79384
413.87379,0.85295
415.36358,0.84063
416.85337,0.99329
418.34316,1.08729
419.83295,1.18130
421.32273,1.08424
422.81252,1.15446
424.30231,1.18811
425.79210,1.22177
427.28189,1.21653
428.77168,1.12301
430.26146,1.08527
431.75125,1.04754
433.24104,0.97614
434.73083,0.87454
436.22062,0.84731
437.71041,0.82008
439.20020,0.76267
440.68998,0.75290
442.17977,0.73558
443.66956,0.71829
445.15935,0.59587
446.64914,0.40610
448.13893,0.26745
449.62871,0.24904
451.11850,0.23064
452.60829,0.17915
454.09808,0.14974
455.58787,0.15694
457.07766,0.16415
458.56745,0.19635
460.05723,0.07523
461.54702,0.07144
463.03681,0.06767
464.52660,0.06275
466.01639,0.12754
467.50618,0.15168
468.99596,0.17584
470.48575,0.10244
471.97554,0.00000
473.46533,0.09268
474.95512,0.05817
476.44491,0.02367
477.93469,0.06063
479.42448,0.17078
480.91427,0.23157
482.40406,0.29238
483.89385,0.28176
485.38364,0.22701
486.87343,0.25766
488.36321,0.28831
489.85300,0.38345
491.34279,0.31946
492.83258,0.41231
494.32237,0.40468
495.81216,0.39707
497.30194,0.37262
498.79173,0.40860
500.28152,0.40974
501.77131,0.41089
503.26110,0.38185
504.75089,0.38999
506.24068,0.36156
507.73046,0.33314
509.22025,0.34016
510.71004,0.34836
512.19983,0.35773
513.68962,0.33343
515.17941,0.30914
516.66919,0.46143
518.15898,0.35121
519.64877,0.34089
521.13856,0.33059
522.62835,0.42137
524.11814,0.38554
525.60792,0.47170
527.09771,0.49049
528.58750,0.50930
530.07729,0.65009
531.56708,0.70957
533.05687,0.75165
534.54666,0.79374
536.03644,0.74408
537.52623,0.81059
539.01602,0.86433
540.50581,0.87046
541.99560,0.87660
543.48539,0.71548
544.97517,0.64034
546.46496,0.62968
547.95475,0.61903
549.44454,0.68912
550.93433,0.71393
552.42412,0.71436
553.91391,0.70782
555.40369,0.70130
556.89348,0.67621
558.38327,0.68947
559.87306,0.68589
561.36285,0.68232
562.85264,0.73163
564.34242,0.61367
565.83221,0.56193
567.32200,0.51660
568.81179,0.47128
570.30158,0.46838
571.79137,0.43644
573.28115,0.38710
574.77094,0.33776
576.26073,0.26056
577.75052,0.20545
579.24031,0.23631
580.73010,0.23000
582.21989,0.22372
583.70967,0.17330
585.19946,0.12057
586.68925,0.10967
588.17904,0.09879
589.66883,0.15645
591.15862,0.11191
592.64840,0.00000
594.13819,0.02265
595.62798,0.04531
597.11777,0.06566
598.60756,0.03840
600.09735,0.11570
601.58714,0.12041
603.07692,0.12513
604.56671,0.18969
606.05650,0.22405
607.54629,0.19977
609.03608,0.17550
610.52587,0.19365
612.01565,0.18276
613.50544,0.06967
614.99523,0.10411
616.48502,0.13857
617.97481,0.14981
619.46460,0.18545
620.95438,0.20833
622.44417,0.22890
623.93396,0.24949
625.42375,0.17831
626.91354,0.16523
628.40333,0.16088
629.89312,0.15654
631.38290,0.17138
632.87269,0.08981
634.36248,0.03149
635.85227,0.03998
637.34206,0.04848
638.83185,0.00646
640.32163,0.08178
641.81142,0.11646
643.30121,0.11107
644.79100,0.10570
646.28079,0.12763
647.77058,0.12286
649.26037,0.17851
650.75015,0.24289
652.23994,0.30728
653.72973,0.23751
655.21952,0.23048
656.70931,0.27225
658.19910,0.21124
659.68888,0.15023
661.17867,0.08750
662.66846,0.05730
664.15825,0.04222
665.64804,0.05619
667.13783,0.07017
668.62761,0.08766
670.11740,0.11444
671.60719,0.12789
673.09698,0.14134
674.58677,0.20418
676.07656,0.16248
677.56635,0.26484
679.05613,0.24175
680.54592,0.21868
682.03571,0.10385
683.52550,0.23298
685.01529,0.34237
686.50508,0.26882
687.99486,0.19528
689.48465,0.21759
690.97444,0.15046
692.46423,0.15189
693.95402,0.19514
695.44381,0.23841
696.93360,0.14462
698.42338,0.08918
699.91317,0.05930
701.40296,0.11075
702.89275,0.16222
704.38254,0.06036
705.87233,0.07119
707.36211,0.05183
708.85190,0.10161
710.34169,0.15139
711.83148,0.12859
713.32127,0.09534
714.81106,0.08418
716.30084,0.09336
717.79063,0.10256
719.28042,0.09492
720.77021,0.06522
722.26000,0.06690
723.74979,0.06569
725.23958,0.06449
726.72936,0.00000
728.21915,0.02432
729.70894,0.01962
731.19873,0.04978
732.68852,0.08460
734.17831,0.11943
735.66809,0.11942
737.15788,0.13569
738.64767,0.05323
740.13746,0.05791
741.62725,0.06261
743.11704,0.08009
744.60683,0.12082
746.09661,0.17434
747.58640,0.17676
749.07619,0.17919
750.56598,0.17815
752.05577,0.27005
753.54556,0.26439
755.03534,0.27675
756.52513,0.28912
758.01492,0.43800
759.50471,0.51951
760.99450,0.59175
762.48429,0.68606
763.97407,0.78039
765.46386,0.79110
766.95365,0.80298
768.44344,0.80790
769.93323,0.85233
771.42302,0.91130
772.91281,0.97028
774.40259,0.90904
775.89238,0.78857
777.38217,0.78079
778.87196,0.75734
780.36175,0.73390
781.85154,0.70874
783.34132,0.58253
784.83111,0.59688
786.32090,0.61648
787.81069,0.63609
789.30048,0.64003
790.79027,0.64747
792.28006,0.64795
793.76984,0.59036
795.25963,0.52175
796.74942,0.45315
798.23921,0.39560
799.72900,0.29857
801.21879,0.28171
802.70857,0.25672
804.19836,0.23175
805.68815,0.19169
807.17794,0.06103
808.66773,0.11044
810.15752,0.11863
811.64730,0.12683
813.13709,0.18789
814.62688,0.26640
816.11667,0.25082
817.60646,0.23642
819.09625,0.26211
820.58604,0.28780
822.07582,0.29551
823.56561,0.29162
825.05540,0.31445
826.54519,0.34020
828.03498,0.36597
829.52477,0.40626
831.01455,0.40127
832.50434,0.46018
833.99413,0.55860
835.48392,0.56061
836.97371,0.56264
838.46350,0.57281
839.95329,0.45173
841.44307,0.44218
842.93286,0.46865
844.42265,0.54102
845.91244,0.61341
847.40223,0.68755
848.89202,0.67574
850.38180,0.76733
851.87159,0.81769
853.36138,0.86807
854.85117,0.97828
856.34096,1.13497
857.83075,1.16854
859.32053,1.20561
860.81032,1.18636
862.30011,1.16711
863.78990,1.22397
865.27969,1.11820
866.76948,1.00200
868.25927,1.00662
869.74905,1.00370
871.23884,1.00080
872.72863,1.04147
874.21842,1.00200
875.70821,0.90446
877.19800,0.90799
878.68778,0.91851
880.17757,0.92904
881.66736,0.99650
883.15715,0.98034
884.64694,0.97116
886.13673,0.93993
887.62651,0.90870
889.11630,0.94951
890.60609,0.87650
892.09588,0.88364
893.58567,0.93959
895.07546,0.92644
896.56525,0.91330
898.05503,0.80666
899.54482,0.82781
901.03461,0.82110
902.52440,0.93404
904.01419,0.93665
905.50398,0.93926
906.99376,0.88962
908.48355,0.88762
909.97334,0.81128
911.46313,0.89294
912.95292,0.89795
914.44271,0.90296
915.93250,0.89638
917.42228,0.95718
918.91207,1.03542
920.40186,1.06140
921.89165,1.05893
923.38144,1.05647
924.87123,0.96865
926.36101,0.99468
927.85080,0.96264
929.34059,1.06304
930.83038,1.02057
932.32017,0.97811
933.80996,1.09714
935.29974,0.96061
936.78953,0.91820
938.27932,0.84094
939.76911,0.89961
941.25890,0.95830
942.74869,0.99724
944.23848,1.04666
945.72826,0.94508
947.21805,0.95154
948.70784,0.89644
950.19763,0.90642
951.68742,0.91640
953.17721,1.00655
954.66699,0.99914
956.15678,1.10441
957.64657,0.98899
959.13636,1.04318
960.62615,1.09739
962.11594,1.11211
963.60573,1.18957
965.09551,1.12068
966.58530,1.30271
968.07509,1.33781
969.56488,1.37293
971.05467,1.33778
972.54446,1.23758
974.03424,1.41852
975.52403,1.45427
977.01382,1.48189
978.50361,1.47643
979.99340,1.47097
981.48319,1.42778
982.97297,1.51470
984.46276,1.65507
985.95255,1.81752
987.44234,1.82317
988.93213,1.82883
990.42192,1.70556
991.91171,1.65664
993.40149,1.62865
994.89128,1.54956
996.38107,1.68307
997.87086,1.65047
999.36065,1.61788
1000.85044,1.61667
1002.34022,1.66659
1003.83001,1.82223
1005.31980,1.78621
1006.80959,1.80886
1008.29938,1.83153
1009.78917,2.00000
1011.27896,1.97100
1012.76874,1.93156
1014.25853,1.69001
1015.74832,1.54024
1017.23811,1.45844
1018.72790,1.37665
1020.21769,1.16419
1021.70747,0.90179
1023.19726,0.85198
1024.68705,0.81032
1026.17684,0.56771
1027.66663,0.57022
1029.15642,0.57274
1030.64620,0.51254
1032.13599,0.52670
1033.62578,0.50487
1035.11557,0.48653
1036.60536,0.47285
1038.09515,0.45918
1039.58494,0.46644
1041.07472,0.54108
1042.56451,0.59134
1044.05430,0.62303
1045.54409,0.61408
1047.03388,0.66670
1048.52367,0.71934
1050.01345,0.76850
1051.50324,0.85601
1052.99303,0.96677
1054.48282,0.97067
1055.97261,1.09888
1057.46240,1.04821
1058.95219,0.99755
1060.44197,1.08049
1061.93176,1.17854
1063.42155,1.16858
1064.91134,1.11797
1066.40113,1.17889
1067.89092,1.21195
1069.38070,1.24502
1070.87049,1.42214
1072.36028,1.33907
1073.85007,1.28622
1075.33986,1.21363
1076.82965,1.15732
1078.31943,1.19220
1079.80922,1.22710
1081.29901,1.26841
1082.78880,1.20634
1084.27859,1.16635
1085.76838,1.07062
1087.25817,1.13056
1088.74795,1.01510
1090.23774,1.04138
1091.72753,1.06767
1093.21732,0.97665
1094.70711,0.91816
1096.19690,0.90151
1097.68668,0.88952
1099.17647,0.92865
1100.66626,0.92540
1102.15605,0.92216
1103.64584,0.84284
1105.13563,0.75889
1106.62542,0.77021
1108.11520,0.63982
1109.60499,0.67091
1111.09478,0.65671
1112.58457,0.66808
1114.07436,0.67947
1115.56415,0.59677
1117.05393,0.60004
1118.54372,0.54409
1120.03351,0.53345
1121.52330,0.55070
1123.01309,0.54358
1124.50288,0.53646
1125.99266,0.53052
1127.48245,0.50020
1128.97224,0.44666
1130.46203,0.42682
1131.95182,0.47088
1133.44161,0.34303
1134.93140,0.34878
1136.42118,0.35455
1137.91097,0.35336
1139.40076,0.37193
1140.89055,0.23717
1142.38034,0.27319
1143.87013,0.26625
1145.35991,0.20820
1146.84970,0.18908
1148.33949,0.16997
1149.82928,0.18282
1151.31907,0.17245
1152.80886,0.17255
1154.29865,0.12968
1155.78843,0.14956
1157.27822,0.09974
1158.76801,0.11616
1160.25780,0.13258
1161.74759,0.14321
1163.23738,0.15037
1164.72716,0.12269
1166.21695,0.14730
1167.70674,0.15798
1169.19653,0.18262
1170.68632,0.16312
1172.17611,0.14364
1173.66589,0.17644
1175.15568,0.21855
1176.64547,0.20608
1178.13526,0.12508
1179.62505,0.11496
1181.11484,0.13853
1182.60463,0.13598
1184.09441,0.13345
1185.58420,0.16055
1187.07399,0.10634
1188.56378,0.13695
1190.05357,0.11181
1191.54336,0.13664
1193.03314,0.24628
1194.52293,0.22118
1196.01272,0.19610
1197.50251,0.14663
1198.99230,0.09601
1200.48209,0.10349
1201.97188,0.01340
1203.46166,0.00000
1204.95145,0.02153
1206.44124,0.16852
1207.93103,0.20634
1209.42082,0.24417
1210.91061,0.31570
1212.40039,0.30941
1213.89018,0.31707
1215.37997,0.30268
1216.86976,0.42653
1218.35955,0.33434
1219.84934,0.35309
1221.33912,0.37185
1222.82891,0.26575
1224.31870,0.30487
1225.80849,0.30799
1227.29828,0.30067
1228.78807,0.35144
1230.27786,0.35228
1231.76764,0.32989
1233.25743,0.32611
1234.74722,0.32234
1236.23701,0.42661
1237.72680,0.43099
1239.21659,0.49928
1240.70637,0.55016
1242.19616,0.56271
1243.68595,0.56250
1245.17574,0.61341
1246.66553,0.59929
1248.15532,0.58518
1249.64511,0.62335
1251.13489,0.68245
1252.62468,0.65095
1254.11447,0.71588
1255.60426,0.71810
1257.09405,0.80861
1258.58384,0.83641
1260.07362,0.77245
1261.56341,0.72941
1263.05320,0.68638
1264.54299,0.69448
1266.03278,0.66543
1267.52257,0.70956
1269.01235,0.73164
1270.50214,0.60620
1271.99193,0.60159
1273.48172,0.56214
1274.97151,0.54129
1276.46130,0.52045
1277.95109,0.61927
1279.44087,0.67861
1280.93066,0.57998
1282.42045,0.57895
1283.91024,0.53842
1285.40003,0.48862
1286.88982,0.51899
1288.37960,0.52961
1289.86939,0.55942
1291.35918,0.58924
1292.84897,0.51046
1294.33876,0.51417
1295.82855,0.43310
1297.31834,0.43219
1298.80812,0.44523
1300.29791,0.43040
1301.78770,0.39701
1303.27749,0.41706
1304.76728,0.43189
1306.25707,0.44674
1307.74685,0.44127
1309.23664,0.47647
1310.72643,0.48729
1312.21622,0.54576
1313.70601,0.52756
1315.19580,0.50241
1316.68558,0.52490
1318.17537,0.61826
1319.66516,0.58734
1321.15495,0.55643
1322.64474,0.40356
1324.13453,0.50162
1325.62432,0.50793
1327.11410,0.62111
1328.60389,0.63325
1330.09368,0.56060
1331.58347,0.62155
1333.07326,0.61049
1334.56305,0.63546
1336.05283,0.60061
1337.54262,0.56578
1339.03241,0.58962
1340.52220,0.64252
1342.01199,0.61992
1343.50178,0.76113
1344.99156,0.81987
1346.48135,0.83797
1347.97114,0.75850
1349.46093,0.82657
1350.95072,0.88305
1352.44051,0.87796
1353.93030,0.87289
1355.42008,0.82485
1356.90987,0.82329
1358.39966,0.97857
1359.88945,0.91779
1361.37924,0.88026
1362.86903,0.86946
1364.35881,0.77619
1365.84860,0.65971
1367.33839,0.60132
1368.82818,0.59347
1370.31797,0.58564
1371.80776,0.51219
1373.29755,0.46779
1374.78733,0.43734
1376.27712,0.47660
1377.76691,0.44386
1379.25670,0.40532
1380.74649,0.38538
1382.23628,0.34454
1383.72606,0.31533
1385.21585,0.34306
1386.70564,0.34524
1388.19543,0.34743
1389.68522,0.41005
1391.17501,0.39717
1392.66479,0.39824
1394.15458,0.38306
1395.64437,0.36208
1397.13416,0.39572
1398.62395,0.46189
1400.11374,0.40495
1401.60353,0.45024
1403.09331,0.38867
1404.58310,0.39972
1406.07289,0.41078
1407.56268,0.41430
1409.05247,0.40622
1410.54226,0.40280
1412.03204,0.42030
1413.52183,0.43898
1415.01162,0.43908
1416.50141,0.52051
1417.99120,0.46720
1419.48099,0.43597
1420.97078,0.43497
1422.46056,0.50135
1423.95035,0.51663
1425.44014,0.53192
1426.92993,0.37646
1428.41972,0.36158
1429.90951,0.34090
1431.39929,0.31791
1432.88908,0.34488
1434.37887,0.37071
1435.86866,0.36867
1437.35845,0.35502
1438.84824,0.50286
1440.33802,0.47065
1441.82781,0.45937
1443.31760,0.53987
1444.80739,0.55416
1446.29718,0.56847
1447.78697,0.57583
1449.27676,0.61456
1450.76654,0.72649
1452.25633,0.69554
1453.74612,0.84583
1455.23591,0.81027
1456.72570,0.86416
1458.21549,0.84024
1459.70527,0.78846
1461.19506,0.83310
1462.68485,0.90912
1464.17464,0.96540
1465.66443,1.01008
1467.15422,1.05477
1468.64401,1.11807
1470.13379,1.12097
1471.62358,1.15060
1473.11337,1.18256
1474.60316,1.12626
1476.09295,0.93986
1477.58274,0.90449
1479.07252,0.87262
1480.56231,0.72459
1482.05210,0.67997
1483.54189,0.65743
1485.03168,0.67556
1486.52147,0.50087
1488.01125,0.42551
1489.50104,0.35016
1490.99083,0.27657
1492.48062,0.25876
1493.97041,0.23282
1495.46020,0.16392
1496.94999,0.14033
1498.43977,0.09933
1499.92956,0.06880
1501.41935,0.08126
1502.90914,0.04843
1504.39893,0.07602
1505.88872,0.00488
1507.37850,0.01159
1508.86829,0.05199
1510.35808,0.05756
1511.84787,0.01784
1513.33766,0.00891
1514.82745,0.00000
1516.31724,0.01181
1517.80702,0.05732
1519.29681,0.03895
1520.78660,0.02756
1522.27639,0.03477
1523.76618,0.06871
1525.25597,0.07131
1526.74575,0.03093
1528.23554,0.02774
1529.72533,0.03153
1531.21512,0.02372
1532.70491,0.03218
1534.19470,0.00000
1535.68448,0.04013
1537.17427,0.10234
1538.66406,0.05769
1540.15385,0.04151
1541.64364,0.02535
1543.13343,0.03185
1544.62322,0.06276
1546.11300,0.03676
1547.60279,0.00381
1549.09258,0.06263
1550.58237,0.08314
1552.07216,0.12573
1553.56195,0.05914
1555.05173,0.08782
1556.54152,0.08630
1558.03131,0.14637
1559.52110,0.09725
1561.01089,0.06209
1562.50068,0.00371
1563.99047,0.09867
1565.48025,0.07168
1566.97004,0.04354
1568.45983,0.03051
1569.94962,0.03550
1571.43941,0.04050
1572.92920,0.01009
1574.41898,0.09237
1575.90877,0.02597
1577.39856,0.07342
1578.88835,0.06513
1580.37814,0.05802
1581.86793,0.08460
1583.35771,0.09842
1584.84750,0.12967
1586.33729,0.14468
1587.82708,0.04237
1589.31687,0.03417
1590.80666,0.08174
1592.29645,0.05730
1593.78623,0.09212
1595.27602,0.14089
1596.76581,0.13275
1598.25560,0.08629
1599.74539,0.12697
1601.23518,0.08286
1602.72496,0.14447
1604.21475,0.15266
1605.70454,0.16086
1607.19433,0.19347
1608.68412,0.18311
1610.17391,0.21575
1611.66370,0.21355
1613.15348,0.19161
1614.64327,0.26262
1616.13306,0.21167
1617.62285,0.20023
1619.11264,0.13884
1620.60243,0.08445
1622.09221,0.09744
1623.58200,0.13251
1625.07179,0.15133
1626.56158,0.15739
1628.05137,0.19134
1629.54116,0.21369
1631.03094,0.20352
1632.52073,0.16665
1634.01052,0.16000
1635.50031,0.12896
1636.99010,0.16880
1638.47989,0.20051
1639.96968,0.18810
1641.45946,0.16060
1642.94925,0.18887
1644.43904,0.15094
1645.92883,0.17982
1647.41862,0.20871
1648.90841,0.18127
1650.39819,0.23749
1651.88798,0.23215
1653.37777,0.21869
1654.86756,0.24822
1656.35735,0.22550
1657.84714,0.28294
1659.33693,0.34852
1660.82671,0.28750
1662.31650,0.32058
1663.80629,0.29444
1665.29608,0.27759
1666.78587,0.26309
1668.27566,0.33456
1669.76544,0.36306
1671.25523,0.36253
1672.74502,0.33646
1674.23481,0.38940
1675.72460,0.35755
1677.21439,0.40702
1678.70417,0.42514
1680.19396,0.38985
1681.68375,0.42542
1683.17354,0.34136
1684.66333,0.36650
1686.15312,0.35681
1687.64291,0.34713
1689.13269,0.33979
1690.62248,0.33478
1692.11227,0.30191
1693.60206,0.32365
1695.09185,0.30358
1696.58164,0.27771
1698.07142,0.26115
1699.56121,0.19349
1701.05100,0.25595
1702.54079,0.24756
1704.03058,0.25080
1705.52037,0.19017
1707.01016,0.17717
1708.49994,0.16419
1709.98973,0.11520
1711.47952,0.11386
1712.96931,0.08465
1714.45910,0.13793
1715.94889,0.12734
1717.43867,0.14115
1718.92846,0.05971
1720.41825,0.07239
1721.90804,0.01073
1723.39783,0.05247
1724.88762,0.10003
1726.37740,0.10114
1727.86719,0.17661
1729.35698,0.07901
1730.84677,0.08480
1732.33656,0.00000
1733.82635,0.05515
1735.31614,0.08011
1736.80592,0.12367
1738.29571,0.11729
1739.78550,0.09466
1741.27529,0.08714
1742.76508,0.07035
1744.25487,0.10235
1745.74465,0.08093
1747.23444,0.09206
1748.72423,0.06834
1750.21402,0.06323
1751.70381,0.08833
1753.19360,0.09601
1754.68339,0.08397
1756.17317,0.04638
1757.66296,0.09941
1759.15275,0.12922
1760.64254,0.07657
1762.13233,0.11453
1763.62212,0.06191
1765.11190,0.00000
1766.60169,0.06254
1768.09148,0.07165
1769.58127,0.09821
1771.07106,0.13523
1772.56085,0.10489
1774.05063,0.07107
1775.54042,0.03379
1777.03021,0.00000
1778.52000,0.00000
