299.16008,0.12825
300.64987,0.07023
302.13966,0.07994
303.62945,0.11313
305.11924,0.14633
306.60902,0.10371
308.09881,0.02679
309.58860,0.01353
311.07839,0.00029
312.56818,0.07508
314.05797,0.04154
315.54776,0.04278
317.03754,0.04403
318.52733,0.13602
320.01712,0.07093
321.50691,0.06318
322.99670,0.05545
324.48649,0.06714
325.97627,0.00029
327.46606,0.04565
328.95585,0.09102
330.44564,0.11610
331.93543,0.10145
333.42522,0.13513
334.91501,0.16881
336.40479,0.03052
337.89458,0.00960
339.38437,0.02991
340.87416,0.05024
342.36395,0.02363
343.85374,0.04578
345.34352,0.03680
346.83331,0.02782
348.32310,0.03647
349.81289,0.07221
351.30268,0.08043
352.79247,0.08866
354.28225,0.13346
355.77204,0.16113
357.26183,0.14095
358.75162,0.12079
360.24141,0.03563
361.73120,0.05341
363.22099,0.11860
364.71077,0.18380
366.20056,0.16099
367.69035,0.25014
369.18014,0.21967
370.66993,0.18922
372.15972,0.12854
373.64950,0.14370
375.13929,0.23426
376.62908,0.32484
378.11887,0.28587
379.60866,0.36608
381.09845,0.34790
382.58824,0.32973
384.07802,0.53367
385.56781,0.58955
387.05760,0.57548
388.54739,0.56142
390.03718,0.59748
391.52697,0.63626
393.01675,0.62539
394.50654,0.61454
395.99633,0.64703
397.48612,0.63440
398.97591,0.66421
400.46570,0.69403
401.95548,0.57580
403.44527,0.67335
404.93506,0.64813
406.42485,0.62293
407.91464,0.65823
409.40443,0.75673
410.89422,0.82997
412.38400,0.83551
413.87379,0.84106
415.36358,0.91072
416.85337,1.04991
418.34316,1.08032
419.83295,1.11075
421.32273,1.21025
422.81252,1.15809
424.30231,1.16778
425.79210,1.17749
427.28189,1.21113
428.77168,1.23666
430.26146,1.18727
431.75125,1.13789
433.24104,1.03977
434.73083,0.95068
436.22062,0.93203
437.71041,0.91339
439.20020,0.78733
440.68998,0.73983
442.17977,0.68511
443.66956,0.63040
445.15935,0.54772
446.64914,0.43165
448.13893,0.34267
449.62871,0.31600
451.11850,0.28934
452.60829,0.25909
454.09808,0.14036
455.58787,0.12502
457.07766,0.10970
458.56745,0.16345
460.05723,0.13867
461.54702,0.09178
463.03681,0.04490
464.52660,0.00029
466.01639,0.07900
467.50618,0.10401
468.99596,0.12902
470.48575,0.06603
471.97554,0.10867
473.46533,0.10168
474.95512,0.06670
476.44491,0.03174
477.93469,0.06360
479.42448,0.08734
480.91427,0.10749
482.40406,0.12765
483.89385,0.21101
485.38364,0.18696
486.87343,0.17961
488.36321,0.17228
489.85300,0.26563
491.34279,0.30572
492.83258,0.32686
494.32237,0.35388
495.81216,0.38092
497.30194,0.39848
498.79173,0.43863
500.28152,0.40386
501.77131,0.36909
503.26110,0.39664
504.75089,0.32127
506.24068,0.33755
507.73046,0.35385
509.22025,0.38776
510.71004,0.36661
512.19983,0.33735
513.68962,0.37445
515.17941,0.41157
516.66919,0.42206
518.15898,0.42806
519.64877,0.41826
521.13856,0.40848
522.62835,0.42264
524.11814,0.44854
525.60792,0.41758
527.09771,0.45208
528.58750,0.48659
530.07729,0.60012
531.56708,0.72268
533.05687,0.73556
534.54666,0.74846
536.03644,0.74556
537.52623,0.76886
539.01602,0.79127
540.50581,0.79473
541.99560,0.79820
543.48539,0.80079
544.97517,0.72483
546.46496,0.69765
547.95475,0.67047
549.44454,0.74171
550.93433,0.71366
552.42412,0.68290
553.91391,0.66164
555.40369,0.64039
556.89348,0.68913
558.38327,0.63224
559.87306,0.59342
561.36285,0.55461
562.85264,0.61422
564.34242,0.54023
565.83221,0.37867
567.32200,0.36835
568.81179,0.35804
570.30158,0.37438
571.79137,0.31398
573.28115,0.31590
574.77094,0.31782
576.26073,0.23128
577.75052,0.18448
579.24031,0.22436
580.73010,0.20827
582.21989,0.19220
583.70967,0.09308
585.19946,0.00029
586.68925,0.05184
588.17904,0.10341
589.66883,0.03672
591.15862,0.10998
592.64840,0.01803
594.13819,0.00915
595.62798,0.00029
597.11777,0.06451
598.60756,0.05291
600.09735,0.04674
601.58714,0.06902
603.07692,0.09131
604.56671,0.08879
606.05650,0.17295
607.54629,0.15736
609.03608,0.14178
610.52587,0.14020
612.01565,0.05016
613.50544,0.04139
614.99523,0.06106
616.48502,0.08075
617.97481,0.05757
619.46460,0.07954
620.95438,0.06540
622.44417,0.07024
623.93396,0.07509
625.42375,0.08086
626.91354,0.07490
628.40333,0.09603
629.89312,0.11718
631.38290,0.07966
632.87269,0.01416
634.36248,0.07958
635.85227,0.04525
637.34206,0.01093
638.83185,0.03576
640.32163,0.02269
641.81142,0.02316
643.30121,0.03358
644.79100,0.04402
646.28079,0.00029
647.77058,0.08927
649.26037,0.12409
650.75015,0.14132
652.23994,0.15856
653.72973,0.14286
655.21952,0.09197
656.70931,0.12865
658.19910,0.08816
659.68888,0.04768
661.17867,0.03204
662.66846,0.01731
664.15825,0.03149
665.64804,0.01588
667.13783,0.00029
668.62761,0.00222
670.11740,0.04405
671.60719,0.07280
673.09698,0.10156
674.58677,0.06579
676.07656,0.11489
677.56635,0.10532
679.05613,0.09801
680.54592,0.09072
682.03571,0.09653
683.52550,0.17549
685.01529,0.19938
686.50508,0.17634
687.99486,0.15330
689.48465,0.11132
690.97444,0.08922
692.46423,0.14116
693.95402,0.15067
695.44381,0.16020
696.93360,0.14176
698.42338,0.10978
699.91317,0.03448
701.40296,0.04315
702.89275,0.05183
704.38254,0.03706
705.87233,0.02681
707.36211,0.03552
708.85190,0.03523
710.34169,0.03494
711.83148,0.03286
713.32127,0.05246
714.81106,0.03325
716.30084,0.01677
717.79063,0.00029
719.28042,0.00763
720.77021,0.00234
722.26000,0.00879
723.74979,0.03736
725.23958,0.06595
726.72936,0.00020
728.21915,0.00029
729.70894,0.01614
731.19873,0.01936
732.68852,0.02620
734.17831,0.03305
735.66809,0.02457
737.15788,0.06847
738.64767,0.05640
740.13746,0.03712
741.62725,0.01785
743.11704,0.01665
744.60683,0.07865
746.09661,0.09373
747.58640,0.08534
749.07619,0.07696
750.56598,0.12367
752.05577,0.18303
753.54556,0.18191
755.03534,0.24987
756.52513,0.31784
758.01492,0.34294
759.50471,0.39784
760.99450,0.52047
762.48429,0.56411
763.97407,0.60777
765.46386,0.75300
766.95365,0.76914
768.44344,0.79342
769.93323,0.87910
771.42302,0.87000
772.91281,0.86090
774.40259,0.83016
775.89238,0.75428
777.38217,0.74974
778.87196,0.77500
780.36175,0.80028
781.85154,0.66757
783.34132,0.61883
784.83111,0.66942
786.32090,0.65728
787.81069,0.64514
789.30048,0.62805
790.79027,0.59834
792.28006,0.63906
793.76984,0.51908
795.25963,0.49888
796.74942,0.47869
798.23921,0.38313
799.72900,0.26139
801.21879,0.22725
802.70857,0.21252
804.19836,0.19781
805.68815,0.14835
807.17794,0.04744
808.66773,0.04946
810.15752,0.05601
811.64730,0.06257
813.13709,0.06553
814.62688,0.13712
816.11667,0.18796
817.60646,0.18554
819.09625,0.17094
820.58604,0.15636
822.07582,0.27405
823.56561,0.29063
825.05540,0.27473
826.54519,0.26741
828.03498,0.26011
829.52477,0.31647
831.01455,0.31235
832.50434,0.34796
833.99413,0.41158
835.48392,0.45128
836.97371,0.49100
838.46350,0.50770
839.95329,0.45129
841.44307,0.35426
842.93286,0.44412
844.42265,0.50421
845.91244,0.56431
847.40223,0.65963
848.89202,0.64662
850.38180,0.64807
851.87159,0.69738
853.36138,0.74670
854.85117,0.87007
856.34096,0.97087
857.83075,1.10239
859.32053,1.10481
860.81032,1.08738
862.30011,1.06997
863.78990,1.14646
865.27969,1.04330
866.76948,1.08731
868.25927,0.97604
869.74905,1.01872
871.23884,1.06142
872.72863,1.03234
874.21842,1.13329
875.70821,1.06542
877.19800,1.00930
878.68778,1.04393
880.17757,1.07857
881.66736,1.11457
883.15715,1.05488
884.64694,1.08730
886.13673,1.09309
887.62651,1.09890
889.11630,1.18461
890.60609,1.12679
892.09588,1.13850
893.58567,1.15383
895.07546,1.17911
896.56525,1.20439
898.05503,1.17011
899.54482,1.20354
901.03461,1.16747
902.52440,1.09710
904.01419,1.13193
905.50398,1.16676
906.99376,1.17679
908.48355,1.14348
909.97334,1.17068
911.46313,1.09587
912.95292,1.08923
914.44271,1.08261
915.93250,1.13243
917.42228,1.18316
918.91207,1.24202
920.40186,1.19076
921.89165,1.19367
923.38144,1.19660
924.87123,1.17426
926.36101,1.25304
927.85080,1.18017
929.34059,1.24995
930.83038,1.25023
932.32017,1.25052
933.80996,1.23908
935.29974,1.15633
936.78953,1.10429
938.27932,1.05317
939.76911,1.12123
941.25890,1.18930
942.74869,1.20140
944.23848,1.21443
945.72826,1.07308
947.21805,1.04008
948.70784,1.10279
950.19763,1.10548
951.68742,1.10817
953.17721,1.20252
954.66699,1.20660
956.15678,1.30819
957.64657,1.32222
959.13636,1.35387
960.62615,1.38553
962.11594,1.35174
963.60573,1.37304
965.09551,1.40789
966.58530,1.50505
968.07509,1.57288
969.56488,1.64073
971.05467,1.70271
972.54446,1.71505
974.03424,1.69852
975.52403,1.65491
977.01382,1.78555
978.50361,1.72481
979.99340,1.66409
981.48319,1.72615
982.97297,1.86046
984.46276,1.87019
985.95255,2.00000
987.44234,1.99531
988.93213,1.99062
990.42192,1.88845
991.91171,1.81066
993.40149,1.73017
994.89128,1.70568
996.38107,1.69112
997.87086,1.68199
999.36065,1.67288
1000.85044,1.61864
1002.34022,1.56260
1003.83001,1.68533
1005.31980,1.74217
1006.80959,1.72634
1008.29938,1.71052
1009.78917,1.71323
1011.27896,1.71504
1012.76874,1.66811
1014.25853,1.43251
1015.74832,1.35942
1017.23811,1.26242
1018.72790,1.16543
1020.21769,0.96960
1021.70747,0.91371
1023.19726,0.71248
1024.68705,0.65301
1026.17684,0.63688
1027.66663,0.60362
1029.15642,0.57036
1030.64620,0.55607
1032.13599,0.54451
1033.62578,0.46976
1035.11557,0.53676
1036.60536,0.52027
1038.09515,0.50378
1039.58494,0.56901
1041.07472,0.60627
1042.56451,0.63722
1044.05430,0.66999
1045.54409,0.75152
1047.03388,0.76716
1048.52367,0.78280
1050.01345,0.81923
1051.50324,0.90081
1052.99303,0.95260
1054.48282,0.99809
1055.97261,1.03276
1057.46240,1.03809
1058.95219,1.04344
1060.44197,1.11697
1061.93176,1.15168
1063.42155,1.17557
1064.91134,1.25906
1066.40113,1.25679
1067.89092,1.32044
1069.38070,1.38410
1070.87049,1.41076
1072.36028,1.36972
1073.85007,1.27994
1075.33986,1.18023
1076.82965,1.16180
1078.31943,1.21425
1079.80922,1.26670
1081.29901,1.33227
1082.78880,1.31568
1084.27859,1.19529
1085.76838,1.10650
1087.25817,1.17391
1088.74795,1.12578
1090.23774,1.11828
1091.72753,1.11080
1093.21732,1.05638
1094.70711,1.02996
1096.19690,1.04147
1097.68668,1.03222
1099.17647,0.96701
1100.66626,0.97901
1102.15605,0.99102
1103.64584,0.88341
1105.13563,0.84443
1106.62542,0.67998
1108.11520,0.71686
1109.60499,0.63639
1111.09478,0.65885
1112.58457,0.64475
1114.07436,0.63067
1115.56415,0.58817
1117.05393,0.58449
1118.54372,0.53749
1120.03351,0.52481
1121.52330,0.50492
1123.01309,0.52928
1124.50288,0.55366
1125.99266,0.53561
1127.48245,0.46972
1128.97224,0.43905
1130.46203,0.40027
1131.95182,0.42019
1133.44161,0.31734
1134.93140,0.29439
1136.42118,0.27146
1137.91097,0.26704
1139.40076,0.26896
1140.89055,0.22124
1142.38034,0.18797
1143.87013,0.22242
1145.35991,0.19460
1146.84970,0.18439
1148.33949,0.17419
1149.82928,0.14098
1151.31907,0.16375
1152.80886,0.11341
1154.29865,0.08927
1155.78843,0.08951
1157.27822,0.02205
1158.76801,0.04263
1160.25780,0.06322
1161.74759,0.08698
1163.23738,0.08909
1164.72716,0.04426
1166.21695,0.03194
1167.70674,0.10631
1169.19653,0.07777
1170.68632,0.05781
1172.17611,0.03787
1173.66589,0.04006
1175.15568,0.07837
1176.64547,0.07246
1178.13526,0.06655
1179.62505,0.02726
1181.11484,0.00694
1182.60463,0.03357
1184.09441,0.06022
1185.58420,0.03722
1187.07399,0.05486
1188.56378,0.00029
1190.05357,0.03165
1191.54336,0.06121
1193.03314,0.07454
1194.52293,0.05492
1196.01272,0.03532
1197.50251,0.01889
1198.99230,0.00518
1200.48209,0.07725
1201.97188,0.03647
1203.46166,0.00655
1204.95145,0.04795
1206.44124,0.09930
1207.93103,0.12178
1209.42082,0.14426
1210.91061,0.15682
1212.40039,0.20190
1213.89018,0.21268
1215.37997,0.19820
1216.86976,0.21171
1218.35955,0.18642
1219.84934,0.22207
1221.33912,0.25774
1222.82891,0.22255
1224.31870,0.17292
1225.80849,0.19554
1227.29828,0.18746
1228.78807,0.22364
1230.27786,0.30949
1231.76764,0.28430
1233.25743,0.28936
1234.74722,0.29444
1236.23701,0.26387
1237.72680,0.36332
1239.21659,0.35443
1240.70637,0.39883
1242.19616,0.40984
1243.68595,0.41273
1245.17574,0.38584
1246.66553,0.38966
1248.15532,0.39348
1249.64511,0.45240
1251.13489,0.47792
1252.62468,0.55130
1254.11447,0.58136
1255.60426,0.62407
1257.09405,0.66588
1258.58384,0.68966
1260.07362,0.60420
1261.56341,0.60813
1263.05320,0.61208
1264.54299,0.58986
1266.03278,0.57487
1267.52257,0.55989
1269.01235,0.54763
1270.50214,0.49115
1271.99193,0.50329
1273.48172,0.47121
1274.97151,0.49285
1276.46130,0.51451
1277.95109,0.44273
1279.44087,0.49376
1280.93066,0.48972
1282.42045,0.44777
1283.91024,0.43744
1285.40003,0.45059
1286.88982,0.42854
1288.37960,0.42095
1289.86939,0.40570
1291.35918,0.39045
1292.84897,0.39464
1294.33876,0.37355
1295.82855,0.34977
1297.31834,0.39551
1298.80812,0.30765
1300.29791,0.33085
1301.78770,0.34413
1303.27749,0.30145
1304.76728,0.33687
1306.25707,0.37230
1307.74685,0.39104
1309.23664,0.37910
1310.72643,0.38704
1312.21622,0.42568
1313.70601,0.42460
1315.19580,0.36757
1316.68558,0.43514
1318.17537,0.45306
1319.66516,0.45519
1321.15495,0.45734
1322.64474,0.37869
1324.13453,0.39034
1325.62432,0.46430
1327.11410,0.49584
1328.60389,0.45425
1330.09368,0.41268
1331.58347,0.42078
1333.07326,0.45507
1334.56305,0.45416
1336.05283,0.42483
1337.54262,0.39550
1339.03241,0.40366
1340.52220,0.38565
1342.01199,0.42452
1343.50178,0.46882
1344.99156,0.50140
1346.48135,0.49427
1347.97114,0.46187
1349.46093,0.45295
1350.95072,0.48016
1352.44051,0.49294
1353.93030,0.50572
1355.42008,0.40206
1356.90987,0.38056
1358.39966,0.38435
1359.88945,0.39629
1361.37924,0.40913
1362.86903,0.39400
1364.35881,0.32200
1365.84860,0.29877
1367.33839,0.20062
1368.82818,0.24332
1370.31797,0.28602
1371.80776,0.27728
1373.29755,0.20807
1374.78733,0.28060
1376.27712,0.23308
1377.76691,0.20904
1379.25670,0.21209
1380.74649,0.18537
1382.23628,0.19115
1383.72606,0.19605
1385.21585,0.20096
1386.70564,0.18963
1388.19543,0.17831
1389.68522,0.23561
1391.17501,0.22071
1392.66479,0.24553
1394.15458,0.26947
1395.64437,0.24918
1397.13416,0.23884
1398.62395,0.31788
1400.11374,0.29943
1401.60353,0.34329
1403.09331,0.31223
1404.58310,0.32406
1406.07289,0.33590
1407.56268,0.39606
1409.05247,0.36775
1410.54226,0.41980
1412.03204,0.39603
1413.52183,0.44179
1415.01162,0.41262
1416.50141,0.37083
1417.99120,0.37058
1419.48099,0.39110
1420.97078,0.40351
1422.46056,0.40691
1423.95035,0.38865
1425.44014,0.37040
1426.92993,0.37383
1428.41972,0.34116
1429.90951,0.30489
1431.39929,0.31197
1432.88908,0.36691
1434.37887,0.30900
1435.86866,0.28993
1437.35845,0.33949
1438.84824,0.40079
1440.33802,0.42780
1441.82781,0.40336
1443.31760,0.48998
1444.80739,0.52154
1446.29718,0.55311
1447.78697,0.56393
1449.27676,0.59281
1450.76654,0.63254
1452.25633,0.61631
1453.74612,0.67954
1455.23591,0.74820
1456.72570,0.78075
1458.21549,0.79255
1459.70527,0.82874
1461.19506,0.82612
1462.68485,0.91922
1464.17464,0.96627
1465.66443,0.99032
1467.15422,1.01438
1468.64401,1.07502
1470.13379,1.10949
1471.62358,1.05820
1473.11337,1.04213
1474.60316,1.05045
1476.09295,0.95044
1477.58274,0.91906
1479.07252,0.85700
1480.56231,0.77598
1482.05210,0.71665
1483.54189,0.71330
1485.03168,0.63594
1486.52147,0.53330
1488.01125,0.46589
1489.50104,0.39849
1490.99083,0.30943
1492.48062,0.27456
1493.97041,0.23879
1495.46020,0.18227
1496.94999,0.13841
1498.43977,0.08642
1499.92956,0.06334
1501.41935,0.07188
1502.90914,0.04611
1504.39893,0.03841
1505.88872,0.05511
1507.37850,0.02125
1508.86829,0.08762
1510.35808,0.04115
1511.84787,0.01726
1513.33766,0.01234
1514.82745,0.00744
1516.31724,0.00796
1517.80702,0.02113
1519.29681,0.05238
1520.78660,0.02675
1522.27639,0.03003
1523.76618,0.06131
1525.25597,0.03933
1526.74575,0.05348
1528.23554,0.03333
1529.72533,0.02764
1531.21512,0.00029
1532.70491,0.03715
1534.19470,0.00000
1535.68448,0.02606
1537.17427,0.06837
1538.66406,0.08633
1540.15385,0.07134
1541.64364,0.05636
1543.13343,0.06171
1544.62322,0.07068
1546.11300,0.04716
1547.60279,0.02366
1549.09258,0.07419
1550.58237,0.07509
1552.07216,0.07689
1553.56195,0.10309
1555.05173,0.10582
1556.54152,0.08329
1558.03131,0.06799
1559.52110,0.09514
1561.01089,0.06271
1562.50068,0.06279
1563.99047,0.06379
1565.48025,0.07112
1566.97004,0.03152
1568.45983,0.07318
1569.94962,0.06971
1571.43941,0.06625
1572.92920,0.07635
1574.41898,0.07924
1575.90877,0.10109
1577.39856,0.05977
1578.88835,0.05366
1580.37814,0.07736
1581.86793,0.09565
1583.35771,0.09409
1584.84750,0.08352
1586.33729,0.10004
1587.82708,0.07866
1589.31687,0.06631
1590.80666,0.09822
1592.29645,0.11208
1593.78623,0.10158
1595.27602,0.15699
1596.76581,0.10769
1598.25560,0.09000
1599.74539,0.08857
1601.23518,0.11605
1602.72496,0.14082
1604.21475,0.13762
1605.70454,0.13444
1607.19433,0.16737
1608.68412,0.19310
1610.17391,0.20620
1611.66370,0.19764
1613.15348,0.22702
1614.64327,0.18959
1616.13306,0.19010
1617.62285,0.20326
1619.11264,0.20198
1620.60243,0.17002
1622.09221,0.18682
1623.58200,0.16662
1625.07179,0.18887
1626.56158,0.20480
1628.05137,0.22978
1629.54116,0.21685
1631.03094,0.18497
1632.52073,0.18741
1634.01052,0.13841
1635.50031,0.14087
1636.99010,0.16050
1638.47989,0.14583
1639.96968,0.18174
1641.45946,0.19147
1642.94925,0.14163
1644.43904,0.18570
1645.92883,0.18508
1647.41862,0.18448
1648.90841,0.23309
1650.39819,0.19415
1651.88798,0.19132
1653.37777,0.19935
1654.86756,0.18571
1656.35735,0.18473
1657.84714,0.25237
1659.33693,0.28211
1660.82671,0.27394
1662.31650,0.31905
1663.80629,0.29646
1665.29608,0.24228
1666.78587,0.26936
1668.27566,0.23417
1669.76544,0.27482
1671.25523,0.30375
1672.74502,0.32908
1674.23481,0.30386
1675.72460,0.26059
1677.21439,0.28686
1678.70417,0.34022
1680.19396,0.30061
1681.68375,0.31337
1683.17354,0.29815
1684.66333,0.25586
1686.15312,0.28581
1687.64291,0.26431
1689.13269,0.25184
1690.62248,0.27099
1692.11227,0.20348
1693.60206,0.24613
1695.09185,0.19850
1696.58164,0.22492
1698.07142,0.17732
1699.56121,0.19383
1701.05100,0.16341
1702.54079,0.19890
1704.03058,0.16308
1705.52037,0.12096
1707.01016,0.11315
1708.49994,0.10536
1709.98973,0.06597
1711.47952,0.04737
1712.96931,0.06308
1714.45910,0.06707
1715.94889,0.06656
1717.43867,0.02994
1718.92846,0.03848
1720.41825,0.03168
1721.90804,0.02128
1723.39783,0.02715
1724.88762,0.04205
1726.37740,0.05065
1727.86719,0.05023
1729.35698,0.05705
1730.84677,0.01151
1732.33656,0.00029
1733.82635,0.03406
1735.31614,0.03172
1736.80592,0.09260
1738.29571,0.06591
1739.78550,0.05188
1741.27529,0.02522
1742.76508,0.01933
1744.25487,0.06763
1745.74465,0.03107
1747.23444,0.03605
1748.72423,0.03743
1750.21402,0.00181
1751.70381,0.01044
1753.19360,0.04165
1754.68339,0.03586
1756.17317,0.00029
1757.66296,0.05618
1759.15275,0.07958
1760.64254,0.06237
1762.13233,0.04698
1763.62212,0.01083
1765.11190,0.05595
1766.60169,0.01531
1768.09148,0.03607
1769.58127,0.08664
1771.07106,0.03250
1772.56085,0.04156
1774.05063,0.03348
1775.54042,0.00826
1777.03021,0.00924
1778.52000,0.00029
