299.16008,0.21818
300.64987,0.18576
302.13966,0.23455
303.62945,0.26901
305.11924,0.30349
306.60902,0.08807
308.09881,0.00000
309.58860,0.01939
311.07839,0.03880
312.56818,0.06538
314.05797,0.06014
315.54776,0.04933
317.03754,0.03854
318.52733,0.04766
320.01712,0.16503
321.50691,0.12960
322.99670,0.09419
324.48649,0.05719
325.97627,0.03772
327.46606,0.06044
328.95585,0.08317
330.44564,0.28659
331.93543,0.12867
333.42522,0.13075
334.91501,0.13284
336.40479,0.06092
337.89458,0.04154
339.38437,0.08425
340.87416,0.12698
342.36395,0.06148
343.85374,0.05488
345.34352,0.07775
346.83331,0.10062
348.32310,0.07496
349.81289,0.05409
351.30268,0.05870
352.79247,0.06332
354.28225,0.07272
355.77204,0.20312
357.26183,0.15127
358.75162,0.09942
360.24141,0.20121
361.73120,0.12312
363.22099,0.15250
364.71077,0.18189
366.20056,0.17388
367.69035,0.22001
369.18014,0.21760
370.66993,0.21520
372.15972,0.06079
373.64950,0.10060
375.13929,0.11416
376.62908,0.12772
378.11887,0.23443
379.60866,0.22494
381.09845,0.23376
382.58824,0.24260
384.07802,0.34935
385.56781,0.35742
387.05760,0.35197
388.54739,0.34653
390.03718,0.36419
391.52697,0.35161
393.01675,0.42261
394.50654,0.49363
395.99633,0.44289
397.48612,0.43513
398.97591,0.45684
400.46570,0.47856
401.95548,0.45970
403.44527,0.53795
404.93506,0.53742
406.42485,0.53690
407.91464,0.54674
409.40443,0.65051
410.89422,0.65082
412.38400,0.65433
413.87379,0.65785
415.36358,0.72029
416.85337,0.84163
418.34316,0.96298
419.83295,1.08434
421.32273,1.00992
422.81252,0.99601
424.30231,1.03861
425.79210,1.08123
427.28189,1.07531
428.77168,1.08372
430.26146,1.01575
431.75125,0.94778
433.24104,0.97693
434.73083,0.96788
436.22062,0.86811
437.71041,0.76836
439.20020,0.71637
440.68998,0.63415
442.17977,0.64825
443.66956,0.66235
445.15935,0.52446
446.64914,0.44228
448.13893,0.36649
449.62871,0.33051
451.11850,0.29453
452.60829,0.16943
454.09808,0.13666
455.58787,0.16838
457.07766,0.20010
458.56745,0.11962
460.05723,0.11396
461.54702,0.10991
463.03681,0.10587
464.52660,0.08433
466.01639,0.12966
467.50618,0.14078
468.99596,0.15190
470.48575,0.21001
471.97554,0.14077
473.46533,0.06041
474.95512,0.03020
476.44491,0.00000
477.93469,0.12852
479.42448,0.17108
480.91427,0.21526
482.40406,0.25944
483.89385,0.33866
485.38364,0.33511
486.87343,0.32044
488.36321,0.30577
489.85300,0.40096
491.34279,0.31150
492.83258,0.38124
494.32237,0.42313
495.81216,0.46504
497.30194,0.45522
498.79173,0.39448
500.28152,0.40856
501.77131,0.42266
503.26110,0.38264
504.75089,0.43019
506.24068,0.41726
507.73046,0.40435
509.22025,0.40418
510.71004,0.38492
512.19983,0.43730
513.68962,0.44990
515.17941,0.46252
516.66919,0.55951
518.15898,0.40182
519.64877,0.39537
521.13856,0.38893
522.62835,0.52417
524.11814,0.48433
525.60792,0.41902
527.09771,0.52008
528.58750,0.62115
530.07729,0.56225
531.56708,0.80262
533.05687,0.75967
534.54666,0.71672
536.03644,0.81228
537.52623,0.75822
539.01602,0.78057
540.50581,0.84592
541.99560,0.91128
543.48539,0.80792
544.97517,0.74596
546.46496,0.68639
547.95475,0.62684
549.44454,0.75116
550.93433,0.73063
552.42412,0.68783
553.91391,0.75886
555.40369,0.82990
556.89348,0.79350
558.38327,0.66798
559.87306,0.70801
561.36285,0.74806
562.85264,0.71649
564.34242,0.60374
565.83221,0.61836
567.32200,0.55896
568.81179,0.49958
570.30158,0.44101
571.79137,0.55118
573.28115,0.47989
574.77094,0.40862
576.26073,0.30075
577.75052,0.34570
579.24031,0.36520
580.73010,0.32581
582.21989,0.28644
583.70967,0.40626
585.19946,0.17270
586.68925,0.20659
588.17904,0.24048
589.66883,0.25847
591.15862,0.17300
592.64840,0.00000
594.13819,0.06516
595.62798,0.13033
597.11777,0.20984
598.60756,0.20818
600.09735,0.15242
601.58714,0.22560
603.07692,0.29879
604.56671,0.24624
606.05650,0.26374
607.54629,0.24623
609.03608,0.22874
610.52587,0.32428
612.01565,0.26542
613.50544,0.22886
614.99523,0.21699
616.48502,0.20512
617.97481,0.25456
619.46460,0.25148
620.95438,0.25318
622.44417,0.25490
623.93396,0.25662
625.42375,0.25200
626.91354,0.29514
628.40333,0.28178
629.89312,0.26843
631.38290,0.27977
632.87269,0.22586
634.36248,0.15604
635.85227,0.15229
637.34206,0.14856
638.83185,0.13926
640.32163,0.10292
641.81142,0.11912
643.30121,0.16160
644.79100,0.20409
646.28079,0.14550
647.77058,0.24453
649.26037,0.28944
650.75015,0.31208
652.23994,0.33473
653.72973,0.25074
655.21952,0.23203
656.70931,0.16875
658.19910,0.15723
659.68888,0.14572
661.17867,0.13342
662.66846,0.16889
664.15825,0.16139
665.64804,0.16584
667.13783,0.17031
668.62761,0.12942
670.11740,0.18882
671.60719,0.18378
673.09698,0.17874
674.58677,0.13790
676.07656,0.18939
677.56635,0.18678
679.05613,0.14836
680.54592,0.10995
682.03571,0.15513
683.52550,0.23693
685.01529,0.21846
686.50508,0.29790
687.99486,0.37735
689.48465,0.24430
690.97444,0.15265
692.46423,0.12787
693.95402,0.18031
695.44381,0.23276
696.93360,0.20642
698.42338,0.13075
699.91317,0.07579
701.40296,0.07098
702.89275,0.06618
704.38254,0.13223
705.87233,0.13303
707.36211,0.11951
708.85190,0.10681
710.34169,0.09411
711.83148,0.14589
713.32127,0.12128
714.81106,0.15877
716.30084,0.10155
717.79063,0.04434
719.28042,0.08027
720.77021,0.00637
722.26000,0.05187
723.74979,0.03610
725.23958,0.02034
726.72936,0.02449
728.21915,0.00000
729.70894,0.08921
731.19873,0.03199
732.68852,0.04085
734.17831,0.04971
735.66809,0.05460
737.15788,0.11045
738.64767,0.02623
740.13746,0.06459
741.62725,0.10296
743.11704,0.06494
744.60683,0.07150
746.09661,0.07807
747.58640,0.10853
749.07619,0.13901
750.56598,0.19974
752.05577,0.18248
753.54556,0.29895
755.03534,0.29365
756.52513,0.28837
758.01492,0.43990
759.50471,0.48956
760.99450,0.53445
762.48429,0.61836
763.97407,0.70228
765.46386,0.75835
766.95365,0.67914
768.44344,0.74160
769.93323,0.89004
771.42302,0.87055
772.91281,0.85108
774.40259,0.83559
775.89238,0.74053
777.38217,0.72984
778.87196,0.71439
780.36175,0.69895
781.85154,0.59439
783.34132,0.60763
784.83111,0.48239
786.32090,0.50123
787.81069,0.52008
789.30048,0.56998
790.79027,0.59601
792.28006,0.48834
793.76984,0.55420
795.25963,0.55003
796.74942,0.54586
798.23921,0.39049
799.72900,0.22717
801.21879,0.24851
802.70857,0.24440
804.19836,0.24030
805.68815,0.12478
807.17794,0.06022
808.66773,0.08321
810.15752,0.08473
811.64730,0.08626
813.13709,0.18888
814.62688,0.13552
816.11667,0.12674
817.60646,0.17687
819.09625,0.19358
820.58604,0.21030
822.07582,0.32892
823.56561,0.34567
825.05540,0.33218
826.54519,0.36726
828.03498,0.40235
829.52477,0.41756
831.01455,0.42482
832.50434,0.40502
833.99413,0.46961
835.48392,0.52944
836.97371,0.58927
838.46350,0.48198
839.95329,0.47498
841.44307,0.48232
842.93286,0.56450
844.42265,0.59415
845.91244,0.62381
847.40223,0.72034
848.89202,0.70705
850.38180,0.76859
851.87159,0.77283
853.36138,0.77709
854.85117,0.96123
856.34096,1.04987
857.83075,1.05257
859.32053,1.19855
860.81032,1.16625
862.30011,1.13397
863.78990,1.17651
865.27969,1.10127
866.76948,1.06584
868.25927,1.05748
869.74905,1.05152
871.23884,1.04557
872.72863,0.98949
874.21842,1.01938
875.70821,0.96492
877.19800,0.96300
878.68778,0.94279
880.17757,0.92258
881.66736,0.86499
883.15715,0.89177
884.64694,0.91697
886.13673,0.92786
887.62651,0.93875
889.11630,0.98787
890.60609,0.91602
892.09588,0.86965
893.58567,0.87104
895.07546,0.88916
896.56525,0.90730
898.05503,0.88963
899.54482,0.89426
901.03461,0.91481
902.52440,0.86693
904.01419,0.88274
905.50398,0.89856
906.99376,0.93508
908.48355,0.91909
909.97334,0.88878
911.46313,0.79959
912.95292,0.85765
914.44271,0.91573
915.93250,0.91571
917.42228,1.03032
918.91207,0.98416
920.40186,0.98578
921.89165,0.97148
923.38144,0.95720
924.87123,1.00183
926.36101,1.12288
927.85080,1.04018
929.34059,1.10713
930.83038,1.09928
932.32017,1.09143
933.80996,0.98650
935.29974,0.91501
936.78953,0.96770
938.27932,0.92966
939.76911,0.96486
941.25890,1.00006
942.74869,0.97798
944.23848,0.91611
945.72826,0.89087
947.21805,0.94045
948.70784,0.96299
950.19763,0.96484
951.68742,0.96670
953.17721,1.02589
954.66699,1.00231
956.15678,1.09813
957.64657,1.10481
959.13636,1.09003
960.62615,1.07525
962.11594,1.06446
963.60573,1.21765
965.09551,1.13207
966.58530,1.28846
968.07509,1.36050
969.56488,1.43255
971.05467,1.39796
972.54446,1.42865
974.03424,1.36065
975.52403,1.51553
977.01382,1.55262
978.50361,1.51411
979.99340,1.47561
981.48319,1.49523
982.97297,1.55624
984.46276,1.70959
985.95255,1.77541
987.44234,1.72026
988.93213,1.66512
990.42192,1.70550
991.91171,1.64720
993.40149,1.65577
994.89128,1.56566
996.38107,1.68568
997.87086,1.68792
999.36065,1.69017
1000.85044,1.72586
1002.34022,1.74883
1003.83001,1.84025
1005.31980,1.88394
1006.80959,1.94196
1008.29938,2.00000
1009.78917,1.98482
1011.27896,1.95374
1012.76874,1.80169
1014.25853,1.75313
1015.74832,1.55335
1017.23811,1.45784
1018.72790,1.36235
1020.21769,1.08461
1021.70747,0.95970
1023.19726,0.79500
1024.68705,0.65260
1026.17684,0.62004
1027.66663,0.59148
1029.15642,0.56293
1030.64620,0.58294
1032.13599,0.48358
1033.62578,0.50680
1035.11557,0.45999
1036.60536,0.52144
1038.09515,0.58290
1039.58494,0.53454
1041.07472,0.54986
1042.56451,0.55087
1044.05430,0.70311
1045.54409,0.74712
1047.03388,0.76488
1048.52367,0.78265
1050.01345,0.80600
1051.50324,0.86120
1052.99303,0.96576
1054.48282,0.88887
1055.97261,0.94729
1057.46240,1.02482
1058.95219,1.10237
1060.44197,1.15446
1061.93176,1.19542
1063.42155,1.21570
1064.91134,1.23121
1066.40113,1.15282
1067.89092,1.24318
1069.38070,1.33354
1070.87049,1.40641
1072.36028,1.29305
1073.85007,1.35002
1075.33986,1.30354
1076.82965,1.18225
1078.31943,1.19787
1079.80922,1.21351
1081.29901,1.25462
1082.78880,1.19706
1084.27859,1.20636
1085.76838,1.11857
1087.25817,1.15815
1088.74795,1.06243
1090.23774,1.04472
1091.72753,1.02702
1093.21732,0.99819
1094.70711,1.07762
1096.19690,0.98037
1097.68668,0.89268
1099.17647,0.95304
1100.66626,0.91949
1102.15605,0.88596
1103.64584,0.83493
1105.13563,0.81416
1106.62542,0.77748
1108.11520,0.64371
1109.60499,0.68028
1111.09478,0.62772
1112.58457,0.65874
1114.07436,0.68978
1115.56415,0.59586
1117.05393,0.61180
1118.54372,0.64048
1120.03351,0.47179
1121.52330,0.45433
1123.01309,0.49260
1124.50288,0.53088
1125.99266,0.57554
1127.48245,0.53107
1128.97224,0.52641
1130.46203,0.45331
1131.95182,0.35157
1133.44161,0.35809
1134.93140,0.36143
1136.42118,0.36479
1137.91097,0.36975
1139.40076,0.30150
1140.89055,0.19187
1142.38034,0.22871
1143.87013,0.22894
1145.35991,0.19894
1146.84970,0.19442
1148.33949,0.18992
1149.82928,0.10902
1151.31907,0.14115
1152.80886,0.16374
1154.29865,0.08128
1155.78843,0.06888
1157.27822,0.02624
1158.76801,0.03933
1160.25780,0.05243
1161.74759,0.07987
1163.23738,0.06275
1164.72716,0.08862
1166.21695,0.09222
1167.70674,0.07513
1169.19653,0.14243
1170.68632,0.10308
1172.17611,0.06375
1173.66589,0.08014
1175.15568,0.07267
1176.64547,0.10023
1178.13526,0.09437
1179.62505,0.11559
1181.11484,0.06359
1182.60463,0.06095
1184.09441,0.05833
1185.58420,0.12416
1187.07399,0.13270
1188.56378,0.13330
1190.05357,0.09889
1191.54336,0.11383
1193.03314,0.12560
1194.52293,0.08566
1196.01272,0.04572
1197.50251,0.03047
1198.99230,0.06776
1200.48209,0.00000
1201.97188,0.07882
1203.46166,0.02871
1204.95145,0.09322
1206.44124,0.08930
1207.93103,0.13712
1209.42082,0.18496
1210.91061,0.24952
1212.40039,0.15651
1213.89018,0.25930
1215.37997,0.24749
1216.86976,0.25002
1218.35955,0.35762
1219.84934,0.31640
1221.33912,0.27519
1222.82891,0.23956
1224.31870,0.26921
1225.80849,0.21132
1227.29828,0.21394
1228.78807,0.32640
1230.27786,0.35451
1231.76764,0.29826
1233.25743,0.31525
1234.74722,0.33224
1236.23701,0.36358
1237.72680,0.35991
1239.21659,0.38809
1240.70637,0.52134
1242.19616,0.52089
1243.68595,0.47748
1245.17574,0.52162
1246.66553,0.52280
1248.15532,0.52399
1249.64511,0.60638
1251.13489,0.60918
1252.62468,0.72343
1254.11447,0.64348
1255.60426,0.66702
1257.09405,0.63167
1258.58384,0.75870
1260.07362,0.78545
1261.56341,0.77720
1263.05320,0.76896
1264.54299,0.70979
1266.03278,0.62517
1267.52257,0.61219
1269.01235,0.64698
1270.50214,0.65790
1271.99193,0.51920
1273.48172,0.52219
1274.97151,0.53713
1276.46130,0.55207
1277.95109,0.50416
1279.44087,0.58838
1280.93066,0.55163
1282.42045,0.52603
1283.91024,0.48931
1285.40003,0.52582
1286.88982,0.50345
1288.37960,0.47312
1289.86939,0.49216
1291.35918,0.51121
1292.84897,0.41407
1294.33876,0.45543
1295.82855,0.43949
1297.31834,0.42834
1298.80812,0.39333
1300.29791,0.33127
1301.78770,0.38702
1303.27749,0.39502
1304.76728,0.39746
1306.25707,0.39992
1307.74685,0.46208
1309.23664,0.44466
1310.72643,0.54505
1312.21622,0.46080
1313.70601,0.50072
1315.19580,0.46743
1316.68558,0.45962
1318.17537,0.48844
1319.66516,0.51568
1321.15495,0.54293
1322.64474,0.46194
1324.13453,0.42873
1325.62432,0.55948
1327.11410,0.60429
1328.60389,0.52176
1330.09368,0.50133
1331.58347,0.52229
1333.07326,0.51939
1334.56305,0.54993
1336.05283,0.55900
1337.54262,0.56807
1339.03241,0.56522
1340.52220,0.53850
1342.01199,0.66780
1343.50178,0.66180
1344.99156,0.65104
1346.48135,0.71510
1347.97114,0.73779
1349.46093,0.83531
1350.95072,0.80072
1352.44051,0.82583
1353.93030,0.85096
1355.42008,0.77342
1356.90987,0.75480
1358.39966,0.93994
1359.88945,0.89268
1361.37924,0.83908
1362.86903,0.76478
1364.35881,0.74622
1365.84860,0.63693
1367.33839,0.58496
1368.82818,0.53221
1370.31797,0.47947
1371.80776,0.46574
1373.29755,0.44088
1374.78733,0.38579
1376.27712,0.40393
1377.76691,0.33772
1379.25670,0.33997
1380.74649,0.28492
1382.23628,0.27287
1383.72606,0.33724
1385.21585,0.32839
1386.70564,0.32831
1388.19543,0.32824
1389.68522,0.35923
1391.17501,0.34247
1392.66479,0.41328
1394.15458,0.33287
1395.64437,0.39893
1397.13416,0.42838
1398.62395,0.48969
1400.11374,0.37749
1401.60353,0.34968
1403.09331,0.37759
1404.58310,0.45406
1406.07289,0.53054
1407.56268,0.41364
1409.05247,0.40498
1410.54226,0.45046
1412.03204,0.45775
1413.52183,0.48734
1415.01162,0.38004
1416.50141,0.48606
1417.99120,0.53160
1419.48099,0.48801
1420.97078,0.41419
1422.46056,0.51866
1423.95035,0.48625
1425.44014,0.45386
1426.92993,0.41351
1428.41972,0.34293
1429.90951,0.33763
1431.39929,0.39124
1432.88908,0.35094
1434.37887,0.36000
1435.86866,0.38181
1437.35845,0.37498
1438.84824,0.48118
1440.33802,0.49188
1441.82781,0.45961
1443.31760,0.53401
1444.80739,0.55828
1446.29718,0.58256
1447.78697,0.63312
1449.27676,0.73303
1450.76654,0.73586
1452.25633,0.73711
1453.74612,0.79249
1455.23591,0.86698
1456.72570,0.85553
1458.21549,0.84091
1459.70527,0.92817
1461.19506,0.87537
1462.68485,0.99768
1464.17464,1.12955
1465.66443,1.12454
1467.15422,1.11954
1468.64401,1.10022
1470.13379,1.19553
1471.62358,1.17943
1473.11337,1.15856
1474.60316,1.08198
1476.09295,1.04840
1477.58274,1.04349
1479.07252,0.92715
1480.56231,0.82675
1482.05210,0.70249
1483.54189,0.74856
1485.03168,0.65615
1486.52147,0.57649
1488.01125,0.48490
1489.50104,0.39333
1490.99083,0.31371
1492.48062,0.22614
1493.97041,0.27229
1495.46020,0.19270
1496.94999,0.19272
1498.43977,0.12589
1499.92956,0.09728
1501.41935,0.07982
1502.90914,0.09898
1504.39893,0.03698
1505.88872,0.01001
1507.37850,0.06900
1508.86829,0.02454
1510.35808,0.08357
1511.84787,0.02958
1513.33766,0.06475
1514.82745,0.09993
1516.31724,0.07622
1517.80702,0.00000
1519.29681,0.04437
1520.78660,0.05215
1522.27639,0.05356
1523.76618,0.08046
1525.25597,0.07235
1526.74575,0.08654
1528.23554,0.03070
1529.72533,0.01466
1531.21512,0.02889
1532.70491,0.03835
1534.19470,0.03031
1535.68448,0.00000
1537.17427,0.01413
1538.66406,0.07125
1540.15385,0.03686
1541.64364,0.00247
1543.13343,0.03098
1544.62322,0.03562
1546.11300,0.06255
1547.60279,0.01628
1549.09258,0.06393
1550.58237,0.07340
1552.07216,0.07810
1553.56195,0.07962
1555.05173,0.09549
1556.54152,0.10182
1558.03131,0.14955
1559.52110,0.07949
1561.01089,0.09222
1562.50068,0.05562
1563.99047,0.08747
1565.48025,0.06522
1566.97004,0.03184
1568.45983,0.04622
1569.94962,0.06380
1571.43941,0.08139
1572.92920,0.09103
1574.41898,0.09910
1575.90877,0.05464
1577.39856,0.05795
1578.88835,0.07879
1580.37814,0.05984
1581.86793,0.11890
1583.35771,0.18116
1584.84750,0.11131
1586.33729,0.06694
1587.82708,0.06078
1589.31687,0.10080
1590.80666,0.12651
1592.29645,0.11721
1593.78623,0.15727
1595.27602,0.15276
1596.76581,0.13236
1598.25560,0.14698
1599.74539,0.09476
1601.23518,0.10463
1602.72496,0.14158
1604.21475,0.17217
1605.70454,0.20277
1607.19433,0.23020
1608.68412,0.14303
1610.17391,0.16093
1611.66370,0.17248
1613.15348,0.20951
1614.64327,0.24337
1616.13306,0.22152
1617.62285,0.17900
1619.11264,0.18742
1620.60243,0.07966
1622.09221,0.10880
1623.58200,0.13795
1625.07179,0.17986
1626.56158,0.20903
1628.05137,0.18251
1629.54116,0.22126
1631.03094,0.18840
1632.52073,0.22558
1634.01052,0.14658
1635.50031,0.19652
1636.99010,0.14460
1638.47989,0.19616
1639.96968,0.14267
1641.45946,0.20381
1642.94925,0.16308
1644.43904,0.18126
1645.92883,0.18194
1647.41862,0.18264
1648.90841,0.23110
1650.39819,0.18088
1651.88798,0.23096
1653.37777,0.18076
1654.86756,0.16719
1656.35735,0.22048
1657.84714,0.22285
1659.33693,0.35577
1660.82671,0.30722
1662.31650,0.36216
1663.80629,0.34548
1665.29608,0.29219
1666.78587,0.27235
1668.27566,0.34166
1669.76544,0.34890
1671.25523,0.32114
1672.74502,0.42073
1674.23481,0.39299
1675.72460,0.38754
1677.21439,0.42986
1678.70417,0.40693
1680.19396,0.37606
1681.68375,0.36907
1683.17354,0.37642
1684.66333,0.33603
1686.15312,0.30679
1687.64291,0.39854
1689.13269,0.36614
1690.62248,0.32898
1692.11227,0.36824
1693.60206,0.29131
1695.09185,0.26851
1696.58164,0.21548
1698.07142,0.23728
1699.56121,0.19701
1701.05100,0.21883
1702.54079,0.22315
1704.03058,0.22749
1705.52037,0.19522
1707.01016,0.18923
1708.49994,0.18326
1709.98973,0.10964
1711.47952,0.01853
1712.96931,0.07706
1714.45910,0.08625
1715.94889,0.08750
1717.43867,0.09672
1718.92846,0.00726
1720.41825,0.01491
1721.90804,0.06714
1723.39783,0.00000
1724.88762,0.03919
1726.37740,0.07520
1727.86719,0.05074
1729.35698,0.04539
1730.84677,0.03687
1732.33656,0.00131
1733.82635,0.06603
1735.31614,0.08143
1736.80592,0.07773
1738.29571,0.06290
1739.78550,0.05446
1741.27529,0.04921
1742.76508,0.05988
1744.25487,0.01645
1745.74465,0.05103
1747.23444,0.09518
1748.72423,0.05337
1750.21402,0.04978
1751.70381,0.02392
1753.19360,0.07767
1754.68339,0.04705
1756.17317,0.03396
1757.66296,0.04158
1759.15275,0.08263
1760.64254,0.14280
1762.13233,0.04858
1763.62212,0.02441
1765.11190,0.00343
1766.60169,0.02067
1768.09148,0.09841
1769.58127,0.14273
1771.07106,0.10111
1772.56085,0.06746
1774.05063,0.07202
1775.54042,0.03043
1777.03021,0.00000
1778.52000,0.00000
