299.16008,0.12544
300.64987,0.00000
302.13966,0.15066
303.62945,0.18048
305.11924,0.21031
306.60902,0.13864
308.09881,0.00682
309.58860,0.03024
311.07839,0.05368
312.56818,0.01966
314.05797,0.02432
315.54776,0.08701
317.03754,0.14970
318.52733,0.22638
320.01712,0.04632
321.50691,0.07575
322.99670,0.10520
324.48649,0.00682
325.97627,0.01130
327.46606,0.07918
328.95585,0.14706
330.44564,0.20314
331.93543,0.10777
333.42522,0.11768
334.91501,0.12761
336.40479,0.10102
337.89458,0.07875
339.38437,0.08549
340.87416,0.09225
342.36395,0.11835
343.85374,0.07034
345.34352,0.04759
346.83331,0.02485
348.32310,0.13802
349.81289,0.11048
351.30268,0.11893
352.79247,0.12740
354.28225,0.17616
355.77204,0.26684
357.26183,0.16899
358.75162,0.07115
360.24141,0.03940
361.73120,0.14548
363.22099,0.16348
364.71077,0.18150
366.20056,0.22746
367.69035,0.24228
369.18014,0.19158
370.66993,0.14090
372.15972,0.18154
373.64950,0.22971
375.13929,0.30958
376.62908,0.38947
378.11887,0.38504
379.60866,0.34733
381.09845,0.38052
382.58824,0.41373
384.07802,0.47595
385.56781,0.40284
387.05760,0.48066
388.54739,0.55850
390.03718,0.59285
391.52697,0.56060
393.01675,0.55791
394.50654,0.55523
395.99633,0.57136
397.48612,0.67882
398.97591,0.63966
400.46570,0.60050
401.95548,0.63387
403.44527,0.58991
404.93506,0.58410
406.42485,0.57830
407.91464,0.64180
409.40443,0.77406
410.89422,0.78495
412.38400,0.80122
413.87379,0.81751
415.36358,0.89718
416.85337,1.08752
418.34316,1.14735
419.83295,1.20720
421.32273,1.25147
422.81252,1.28824
424.30231,1.28958
425.79210,1.29092
427.28189,1.30410
428.77168,1.23027
430.26146,1.17364
431.75125,1.11703
433.24104,1.10447
434.73083,0.96623
436.22062,0.93813
437.71041,0.91003
439.20020,0.83736
440.68998,0.84850
442.17977,0.80272
443.66956,0.75695
445.15935,0.61773
446.64914,0.44092
448.13893,0.44031
449.62871,0.41016
451.11850,0.38003
452.60829,0.20757
454.09808,0.15222
455.58787,0.14469
457.07766,0.13716
458.56745,0.21936
460.05723,0.17157
461.54702,0.14583
463.03681,0.12009
464.52660,0.00682
466.01639,0.20007
467.50618,0.23810
468.99596,0.27614
470.48575,0.13103
471.97554,0.18467
473.46533,0.02455
474.95512,0.04339
476.44491,0.06223
477.93469,0.16166
479.42448,0.16227
480.91427,0.20479
482.40406,0.24732
483.89385,0.31887
485.38364,0.21963
486.87343,0.26649
488.36321,0.31337
489.85300,0.34522
491.34279,0.39213
492.83258,0.41863
494.32237,0.47792
495.81216,0.53721
497.30194,0.42840
498.79173,0.51297
500.28152,0.50140
501.77131,0.48984
503.26110,0.46809
504.75089,0.41413
506.24068,0.38005
507.73046,0.34599
509.22025,0.46717
510.71004,0.35632
512.19983,0.33572
513.68962,0.35650
515.17941,0.37728
516.66919,0.43729
518.15898,0.46508
519.64877,0.46872
521.13856,0.47237
522.62835,0.44112
524.11814,0.43458
525.60792,0.35609
527.09771,0.44304
528.58750,0.53001
530.07729,0.62666
531.56708,0.80496
533.05687,0.81623
534.54666,0.82751
536.03644,0.85330
537.52623,0.72549
539.01602,0.86089
540.50581,0.85181
541.99560,0.84274
543.48539,0.76977
544.97517,0.75267
546.46496,0.73398
547.95475,0.71529
549.44454,0.72509
550.93433,0.79291
552.42412,0.79413
553.91391,0.81095
555.40369,0.82778
556.89348,0.72484
558.38327,0.66273
559.87306,0.66617
561.36285,0.66962
562.85264,0.66020
564.34242,0.63681
565.83221,0.52321
567.32200,0.51919
568.81179,0.51518
570.30158,0.43814
571.79137,0.36004
573.28115,0.35284
574.77094,0.34567
576.26073,0.26115
577.75052,0.24970
579.24031,0.21356
580.73010,0.22093
582.21989,0.22832
583.70967,0.11057
585.19946,0.10670
586.68925,0.11197
588.17904,0.11726
589.66883,0.19400
591.15862,0.13110
592.64840,0.09400
594.13819,0.06872
595.62798,0.04345
597.11777,0.09447
598.60756,0.08535
600.09735,0.14499
601.58714,0.13696
603.07692,0.12895
604.56671,0.24341
606.05650,0.16989
607.54629,0.14795
609.03608,0.12602
610.52587,0.14063
612.01565,0.18104
613.50544,0.08287
614.99523,0.09806
616.48502,0.11325
617.97481,0.15908
619.46460,0.15335
620.95438,0.18094
622.44417,0.17631
623.93396,0.17170
625.42375,0.13916
626.91354,0.20977
628.40333,0.20520
629.89312,0.20063
631.38290,0.13807
632.87269,0.19584
634.36248,0.11719
635.85227,0.10301
637.34206,0.08884
638.83185,0.04460
640.32163,0.00682
641.81142,0.09915
643.30121,0.07762
644.79100,0.05611
646.28079,0.08724
647.77058,0.13773
649.26037,0.22583
650.75015,0.22692
652.23994,0.22803
653.72973,0.17973
655.21952,0.23028
656.70931,0.23465
658.19910,0.17726
659.68888,0.11988
661.17867,0.12643
662.66846,0.06962
664.15825,0.03215
665.64804,0.03337
667.13783,0.03460
668.62761,0.07882
670.11740,0.17354
671.60719,0.20381
673.09698,0.23410
674.58677,0.14623
676.07656,0.18299
677.56635,0.17679
679.05613,0.19317
680.54592,0.20955
682.03571,0.14646
683.52550,0.27674
685.01529,0.29209
686.50508,0.28382
687.99486,0.27556
689.48465,0.20823
690.97444,0.16347
692.46423,0.21218
693.95402,0.22599
695.44381,0.23982
696.93360,0.18652
698.42338,0.10315
699.91317,0.16482
701.40296,0.14593
702.89275,0.12705
704.38254,0.12860
705.87233,0.11942
707.36211,0.06620
708.85190,0.08229
710.34169,0.09839
711.83148,0.13760
713.32127,0.09195
714.81106,0.03021
716.30084,0.07590
717.79063,0.12161
719.28042,0.01908
720.77021,0.02506
722.26000,0.03750
723.74979,0.03115
725.23958,0.02482
726.72936,0.02871
728.21915,0.00682
729.70894,0.02196
731.19873,0.11339
732.68852,0.08343
734.17831,0.05349
735.66809,0.15892
737.15788,0.12148
738.64767,0.09802
740.13746,0.09177
741.62725,0.08552
743.11704,0.06532
744.60683,0.15364
746.09661,0.16462
747.58640,0.14392
749.07619,0.12324
750.56598,0.15252
752.05577,0.21834
753.54556,0.27987
755.03534,0.30221
756.52513,0.32456
758.01492,0.39043
759.50471,0.42838
760.99450,0.58881
762.48429,0.63484
763.97407,0.68089
765.46386,0.75219
766.95365,0.86218
768.44344,0.86691
769.93323,0.94469
771.42302,0.94783
772.91281,0.95098
774.40259,0.89237
775.89238,0.84882
777.38217,0.69141
778.87196,0.74188
780.36175,0.79236
781.85154,0.66399
783.34132,0.62157
784.83111,0.59635
786.32090,0.60660
787.81069,0.61686
789.30048,0.67869
790.79027,0.61378
792.28006,0.60796
793.76984,0.57423
795.25963,0.57273
796.74942,0.57125
798.23921,0.36675
799.72900,0.28257
801.21879,0.25535
802.70857,0.25284
804.19836,0.25035
805.68815,0.19738
807.17794,0.09822
808.66773,0.08932
810.15752,0.07292
811.64730,0.05652
813.13709,0.15616
814.62688,0.20102
816.11667,0.23300
817.60646,0.19625
819.09625,0.25243
820.58604,0.30862
822.07582,0.33206
823.56561,0.30932
825.05540,0.33601
826.54519,0.33854
828.03498,0.34108
829.52477,0.46341
831.01455,0.42355
832.50434,0.43526
833.99413,0.42442
835.48392,0.50061
836.97371,0.57682
838.46350,0.58321
839.95329,0.47359
841.44307,0.37795
842.93286,0.56271
844.42265,0.59386
845.91244,0.62502
847.40223,0.71635
848.89202,0.67878
850.38180,0.77873
851.87159,0.79544
853.36138,0.81216
854.85117,1.01421
856.34096,1.17759
857.83075,1.16803
859.32053,1.21435
860.81032,1.21072
862.30011,1.20711
863.78990,1.20619
865.27969,1.09786
866.76948,1.02929
868.25927,1.03164
869.74905,1.02164
871.23884,1.01166
872.72863,1.06023
874.21842,0.99817
875.70821,0.94364
877.19800,0.97292
878.68778,0.95602
880.17757,0.93913
881.66736,0.90399
883.15715,0.97414
884.64694,0.85093
886.13673,0.87975
887.62651,0.90857
889.11630,0.95836
890.60609,0.90826
892.09588,0.93444
893.58567,0.86824
895.07546,0.89767
896.56525,0.92711
898.05503,0.90070
899.54482,0.89042
901.03461,0.88875
902.52440,0.89353
904.01419,0.89510
905.50398,0.89669
906.99376,0.89936
908.48355,0.91494
909.97334,0.79624
911.46313,0.83440
912.95292,0.84572
914.44271,0.85705
915.93250,0.87698
917.42228,0.98610
918.91207,0.97813
920.40186,0.91968
921.89165,0.95363
923.38144,0.98759
924.87123,0.94637
926.36101,1.01904
927.85080,0.95743
929.34059,0.97640
930.83038,1.00452
932.32017,1.03265
933.80996,0.92490
935.29974,1.03631
936.78953,0.97801
938.27932,0.91971
939.76911,0.93125
941.25890,0.94281
942.74869,0.95223
944.23848,0.99067
945.72826,0.90558
947.21805,0.94081
948.70784,0.89765
950.19763,0.90122
951.68742,0.90481
953.17721,0.95943
954.66699,1.05060
956.15678,1.01072
957.64657,0.96655
959.13636,1.01263
960.62615,1.05873
962.11594,1.06401
963.60573,1.10261
965.09551,1.12082
966.58530,1.29695
968.07509,1.29423
969.56488,1.29152
971.05467,1.41935
972.54446,1.30333
974.03424,1.36243
975.52403,1.40006
977.01382,1.45167
978.50361,1.42325
979.99340,1.39485
981.48319,1.48302
982.97297,1.51641
984.46276,1.77434
985.95255,1.74008
987.44234,1.72678
988.93213,1.71349
990.42192,1.72224
991.91171,1.63002
993.40149,1.56145
994.89128,1.57668
996.38107,1.59729
997.87086,1.56904
999.36065,1.54080
1000.85044,1.57327
1002.34022,1.62939
1003.83001,1.74890
1005.31980,1.78678
1006.80959,1.77365
1008.29938,1.76052
1009.78917,1.83711
1011.27896,1.92661
1012.76874,2.00000
1014.25853,1.68237
1015.74832,1.43996
1017.23811,1.34312
1018.72790,1.24629
1020.21769,1.09523
1021.70747,0.87757
1023.19726,0.81999
1024.68705,0.69582
1026.17684,0.59959
1027.66663,0.56622
1029.15642,0.53287
1030.64620,0.51080
1032.13599,0.45222
1033.62578,0.45919
1035.11557,0.49302
1036.60536,0.47315
1038.09515,0.45330
1039.58494,0.50866
1041.07472,0.51461
1042.56451,0.60437
1044.05430,0.61894
1045.54409,0.69261
1047.03388,0.68196
1048.52367,0.67133
1050.01345,0.71496
1051.50324,0.81339
1052.99303,0.84737
1054.48282,0.94260
1055.97261,0.94116
1057.46240,0.96337
1058.95219,0.98558
1060.44197,1.13243
1061.93176,1.14286
1063.42155,1.08991
1064.91134,1.11111
1066.40113,1.14843
1067.89092,1.18791
1069.38070,1.22741
1070.87049,1.29270
1072.36028,1.25594
1073.85007,1.22672
1075.33986,1.16421
1076.82965,1.06627
1078.31943,1.11658
1079.80922,1.16690
1081.29901,1.22154
1082.78880,1.16554
1084.27859,1.06980
1085.76838,1.02994
1087.25817,0.99654
1088.74795,0.91695
1090.23774,0.89969
1091.72753,0.88243
1093.21732,0.89205
1094.70711,0.85011
1096.19690,0.80604
1097.68668,0.88338
1099.17647,0.87693
1100.66626,0.84579
1102.15605,0.81466
1103.64584,0.73520
1105.13563,0.70409
1106.62542,0.66333
1108.11520,0.59573
1109.60499,0.60119
1111.09478,0.58303
1112.58457,0.61590
1114.07436,0.64879
1115.56415,0.57158
1117.05393,0.53521
1118.54372,0.43117
1120.03351,0.46357
1121.52330,0.50458
1123.01309,0.51337
1124.50288,0.52218
1125.99266,0.47943
1127.48245,0.38406
1128.97224,0.36498
1130.46203,0.39102
1131.95182,0.33006
1133.44161,0.30457
1134.93140,0.29843
1136.42118,0.29229
1137.91097,0.24428
1139.40076,0.22850
1140.89055,0.19663
1142.38034,0.18195
1143.87013,0.17695
1145.35991,0.13545
1146.84970,0.13101
1148.33949,0.12660
1149.82928,0.08620
1151.31907,0.16184
1152.80886,0.10535
1154.29865,0.11656
1155.78843,0.06870
1157.27822,0.06489
1158.76801,0.03585
1160.25780,0.00682
1161.74759,0.08651
1163.23738,0.06845
1164.72716,0.11057
1166.21695,0.15270
1167.70674,0.07774
1169.19653,0.04900
1170.68632,0.04336
1172.17611,0.03773
1173.66589,0.08315
1175.15568,0.13394
1176.64547,0.07625
1178.13526,0.09807
1179.62505,0.01892
1181.11484,0.03324
1182.60463,0.04812
1184.09441,0.06300
1185.58420,0.08274
1187.07399,0.02943
1188.56378,0.03200
1190.05357,0.04103
1191.54336,0.07370
1193.03314,0.07738
1194.52293,0.09236
1196.01272,0.10734
1197.50251,0.02405
1198.99230,0.03745
1200.48209,0.01971
1201.97188,0.01594
1203.46166,0.00682
1204.95145,0.06439
1206.44124,0.10477
1207.93103,0.11080
1209.42082,0.11684
1210.91061,0.17123
1212.40039,0.20737
1213.89018,0.21237
1215.37997,0.22813
1216.86976,0.19341
1218.35955,0.21779
1219.84934,0.19813
1221.33912,0.17848
1222.82891,0.16530
1224.31870,0.18973
1225.80849,0.17227
1227.29828,0.23432
1228.78807,0.24697
1230.27786,0.29185
1231.76764,0.26048
1233.25743,0.28874
1234.74722,0.31702
1236.23701,0.31684
1237.72680,0.30807
1239.21659,0.35089
1240.70637,0.34322
1242.19616,0.35921
1243.68595,0.39561
1245.17574,0.38369
1246.66553,0.37984
1248.15532,0.37600
1249.64511,0.45328
1251.13489,0.46504
1252.62468,0.54664
1254.11447,0.49397
1255.60426,0.57023
1257.09405,0.62823
1258.58384,0.62609
1260.07362,0.57562
1261.56341,0.57565
1263.05320,0.57570
1264.54299,0.50163
1266.03278,0.49741
1267.52257,0.55657
1269.01235,0.49221
1270.50214,0.48158
1271.99193,0.41402
1273.48172,0.37441
1274.97151,0.38959
1276.46130,0.40479
1277.95109,0.47694
1279.44087,0.41696
1280.93066,0.44079
1282.42045,0.42919
1283.91024,0.38107
1285.40003,0.39634
1286.88982,0.44385
1288.37960,0.37214
1289.86939,0.40356
1291.35918,0.43500
1292.84897,0.31820
1294.33876,0.31637
1295.82855,0.32636
1297.31834,0.31487
1298.80812,0.32167
1300.29791,0.28228
1301.78770,0.31166
1303.27749,0.25511
1304.76728,0.26947
1306.25707,0.28385
1307.74685,0.29931
1309.23664,0.33949
1310.72643,0.33457
1312.21622,0.41452
1313.70601,0.35914
1315.19580,0.43590
1316.68558,0.37623
1318.17537,0.41757
1319.66516,0.39607
1321.15495,0.37458
1322.64474,0.32357
1324.13453,0.37462
1325.62432,0.39775
1327.11410,0.49180
1328.60389,0.42472
1330.09368,0.40492
1331.58347,0.45926
1333.07326,0.46634
1334.56305,0.47021
1336.05283,0.46550
1337.54262,0.46081
1339.03241,0.43786
1340.52220,0.42030
1342.01199,0.49728
1343.50178,0.55817
1344.99156,0.61047
1346.48135,0.67890
1347.97114,0.65495
1349.46093,0.61276
1350.95072,0.67693
1352.44051,0.69492
1353.93030,0.71292
1355.42008,0.66755
1356.90987,0.70491
1358.39966,0.78956
1359.88945,0.75497
1361.37924,0.77196
1362.86903,0.65468
1364.35881,0.62443
1365.84860,0.59526
1367.33839,0.50273
1368.82818,0.48164
1370.31797,0.46057
1371.80776,0.42287
1373.29755,0.37335
1374.78733,0.36038
1376.27712,0.33022
1377.76691,0.31727
1379.25670,0.24095
1380.74649,0.25596
1382.23628,0.25164
1383.72606,0.25593
1385.21585,0.29031
1386.70564,0.27099
1388.19543,0.25168
1389.68522,0.28180
1391.17501,0.30226
1392.66479,0.25614
1394.15458,0.21754
1395.64437,0.27349
1397.13416,0.29401
1398.62395,0.31239
1400.11374,0.30392
1401.60353,0.30514
1403.09331,0.28381
1404.58310,0.28666
1406.07289,0.28953
1407.56268,0.32732
1409.05247,0.30711
1410.54226,0.35245
1412.03204,0.28500
1413.52183,0.32499
1415.01162,0.29087
1416.50141,0.31906
1417.99120,0.32042
1419.48099,0.32286
1420.97078,0.34250
1422.46056,0.30522
1423.95035,0.29427
1425.44014,0.28333
1426.92993,0.29873
1428.41972,0.27439
1429.90951,0.23610
1431.39929,0.29450
1432.88908,0.28631
1434.37887,0.26632
1435.86866,0.28287
1437.35845,0.27686
1438.84824,0.24617
1440.33802,0.32291
1441.82781,0.35454
1443.31760,0.38404
1444.80739,0.42430
1446.29718,0.46456
1447.78697,0.45758
1449.27676,0.52580
1450.76654,0.54784
1452.25633,0.61609
1453.74612,0.63171
1455.23591,0.60223
1456.72570,0.65655
1458.21549,0.66683
1459.70527,0.71259
1461.19506,0.73579
1462.68485,0.69670
1464.17464,0.83058
1465.66443,0.87155
1467.15422,0.91253
1468.64401,0.95728
1470.13379,0.90751
1471.62358,0.92436
1473.11337,0.96055
1474.60316,0.91405
1476.09295,0.82028
1477.58274,0.76843
1479.07252,0.64461
1480.56231,0.64005
1482.05210,0.57963
1483.54189,0.54394
1485.03168,0.48356
1486.52147,0.45326
1488.01125,0.39559
1489.50104,0.33792
1490.99083,0.23247
1492.48062,0.22693
1493.97041,0.20207
1495.46020,0.13425
1496.94999,0.10512
1498.43977,0.10716
1499.92956,0.07590
1501.41935,0.06937
1502.90914,0.06821
1504.39893,0.07889
1505.88872,0.04984
1507.37850,0.02509
1508.86829,0.02936
1510.35808,0.04224
1511.84787,0.02075
1513.33766,0.01378
1514.82745,0.00682
1516.31724,0.01864
1517.80702,0.04551
1519.29681,0.01223
1520.78660,0.02946
1522.27639,0.01984
1523.76618,0.04353
1525.25597,0.02320
1526.74575,0.02543
1528.23554,0.04595
1529.72533,0.02350
1531.21512,0.02685
1532.70491,0.03343
1534.19470,0.01210
1535.68448,0.05523
1537.17427,0.08011
1538.66406,0.01800
1540.15385,0.01551
1541.64364,0.01304
1543.13343,0.00682
1544.62322,0.06564
1546.11300,0.04497
1547.60279,0.06944
1549.09258,0.03698
1550.58237,0.03784
1552.07216,0.06449
1553.56195,0.08901
1555.05173,0.08776
1556.54152,0.09189
1558.03131,0.07240
1559.52110,0.11308
1561.01089,0.10650
1562.50068,0.06342
1563.99047,0.05794
1565.48025,0.05570
1566.97004,0.01158
1568.45983,0.04482
1569.94962,0.04315
1571.43941,0.04150
1572.92920,0.06403
1574.41898,0.05542
1575.90877,0.04038
1577.39856,0.05436
1578.88835,0.03182
1580.37814,0.02004
1581.86793,0.04372
1583.35771,0.08568
1584.84750,0.08253
1586.33729,0.09658
1587.82708,0.06230
1589.31687,0.04200
1590.80666,0.08080
1592.29645,0.07126
1593.78623,0.09290
1595.27602,0.09950
1596.76581,0.10075
1598.25560,0.11490
1599.74539,0.09039
1601.23518,0.10779
1602.72496,0.08116
1604.21475,0.09268
1605.70454,0.10421
1607.19433,0.13884
1608.68412,0.18209
1610.17391,0.13618
1611.66370,0.20201
1613.15348,0.14646
1614.64327,0.22091
1616.13306,0.19869
1617.62285,0.13673
1619.11264,0.13280
1620.60243,0.13640
1622.09221,0.15075
1623.58200,0.12322
1625.07179,0.13222
1626.56158,0.11117
1628.05137,0.15135
1629.54116,0.14965
1631.03094,0.16516
1632.52073,0.12266
1634.01052,0.12637
1635.50031,0.15373
1636.99010,0.13920
1638.47989,0.17625
1639.96968,0.15316
1641.45946,0.14619
1642.94925,0.14461
1644.43904,0.14089
1645.92883,0.14684
1647.41862,0.15282
1648.90841,0.19533
1650.39819,0.13150
1651.88798,0.17189
1653.37777,0.15965
1654.86756,0.16783
1656.35735,0.15025
1657.84714,0.20357
1659.33693,0.24188
1660.82671,0.24904
1662.31650,0.23043
1663.80629,0.24836
1665.29608,0.21258
1666.78587,0.27028
1668.27566,0.26032
1669.76544,0.26326
1671.25523,0.24580
1672.74502,0.27132
1674.23481,0.25819
1675.72460,0.28266
1677.21439,0.28888
1678.70417,0.27901
1680.19396,0.28311
1681.68375,0.29474
1683.17354,0.30531
1684.66333,0.25144
1686.15312,0.24808
1687.64291,0.27480
1689.13269,0.23923
1690.62248,0.22086
1692.11227,0.26696
1693.60206,0.20994
1695.09185,0.22383
1696.58164,0.18081
1698.07142,0.19365
1699.56121,0.17643
1701.05100,0.09907
1702.54079,0.13236
1704.03058,0.15063
1705.52037,0.13668
1707.01016,0.13403
1708.49994,0.13138
1709.98973,0.12929
1711.47952,0.03912
1712.96931,0.04350
1714.45910,0.10160
1715.94889,0.11997
1717.43867,0.07927
1718.92846,0.04395
1720.41825,0.02046
1721.90804,0.01847
1723.39783,0.00682
1724.88762,0.01231
1726.37740,0.05111
1727.86719,0.06951
1729.35698,0.08793
1730.84677,0.01182
1732.33656,0.01200
1733.82635,0.00682
1735.31614,0.05732
1736.80592,0.03263
1738.29571,0.09605
1739.78550,0.04561
1741.27529,0.01344
1742.76508,0.04681
1744.25487,0.02648
1745.74465,0.06740
1747.23444,0.02454
1748.72423,0.03004
1750.21402,0.02802
1751.70381,0.02387
1753.19360,0.05519
1754.68339,0.02528
1756.17317,0.05232
1757.66296,0.06111
1759.15275,0.08926
1760.64254,0.08088
1762.13233,0.05856
1763.62212,0.05236
1765.11190,0.02899
1766.60169,0.05934
1768.09148,0.08219
1769.58127,0.06530
1771.07106,0.05487
1772.56085,0.08312
1774.05063,0.07057
1775.54042,0.05158
1777.03021,0.00682
1778.52000,0.00682
