299.16008,0.17779
300.64987,0.09365
302.13966,0.22428
303.62945,0.23177
305.11924,0.23928
306.60902,0.21676
308.09881,0.18826
309.58860,0.13649
311.07839,0.08473
312.56818,0.09380
314.05797,0.10289
315.54776,0.05492
317.03754,0.00697
318.52733,0.11971
320.01712,0.05076
321.50691,0.12899
322.99670,0.20723
324.48649,0.04071
325.97627,0.17003
327.46606,0.23705
328.95585,0.30408
330.44564,0.21420
331.93543,0.15586
333.42522,0.10429
334.91501,0.05274
336.40479,0.19417
337.89458,0.12237
339.38437,0.12867
340.87416,0.13499
342.36395,0.09326
343.85374,0.08909
345.34352,0.13148
346.83331,0.17388
348.32310,0.17576
349.81289,0.25423
351.30268,0.21108
352.79247,0.16794
354.28225,0.19689
355.77204,0.19883
357.26183,0.20003
358.75162,0.20124
360.24141,0.09509
361.73120,0.07306
363.22099,0.12912
364.71077,0.18519
366.20056,0.23528
367.69035,0.22380
369.18014,0.19206
370.66993,0.16034
372.15972,0.12938
373.64950,0.14499
375.13929,0.19364
376.62908,0.24231
378.11887,0.37209
379.60866,0.31867
381.09845,0.33434
382.58824,0.35002
384.07802,0.39725
385.56781,0.39044
387.05760,0.43394
388.54739,0.47746
390.03718,0.36706
391.52697,0.57204
393.01675,0.55102
394.50654,0.53001
395.99633,0.46772
397.48612,0.44899
398.97591,0.48810
400.46570,0.52721
401.95548,0.51453
403.44527,0.45080
404.93506,0.45842
406.42485,0.46605
407.91464,0.47594
409.40443,0.75465
410.89422,0.66846
412.38400,0.65737
413.87379,0.64630
415.36358,0.73585
416.85337,0.88998
418.34316,0.90898
419.83295,0.92798
421.32273,0.91997
422.81252,0.91348
424.30231,0.94303
425.79210,0.97261
427.28189,1.06376
428.77168,1.08284
430.26146,1.02460
431.75125,0.96637
433.24104,0.90441
434.73083,0.82443
436.22062,0.78426
437.71041,0.74410
439.20020,0.57707
440.68998,0.62479
442.17977,0.64774
443.66956,0.67071
445.15935,0.50973
446.64914,0.27067
448.13893,0.33648
449.62871,0.29943
451.11850,0.26239
452.60829,0.17506
454.09808,0.03818
455.58787,0.09279
457.07766,0.14741
458.56745,0.16675
460.05723,0.12003
461.54702,0.08308
463.03681,0.04614
464.52660,0.00697
466.01639,0.14042
467.50618,0.14925
468.99596,0.15809
470.48575,0.05732
471.97554,0.06168
473.46533,0.06005
474.95512,0.03890
476.44491,0.01777
477.93469,0.09727
479.42448,0.11972
480.91427,0.13316
482.40406,0.14662
483.89385,0.28024
485.38364,0.29672
486.87343,0.29371
488.36321,0.29070
489.85300,0.33726
491.34279,0.31025
492.83258,0.34633
494.32237,0.32010
495.81216,0.29388
497.30194,0.29845
498.79173,0.35861
500.28152,0.39099
501.77131,0.42339
503.26110,0.48959
504.75089,0.28400
506.24068,0.29916
507.73046,0.31434
509.22025,0.28148
510.71004,0.40481
512.19983,0.45908
513.68962,0.46980
515.17941,0.48054
516.66919,0.45976
518.15898,0.35489
519.64877,0.36191
521.13856,0.36895
522.62835,0.35122
524.11814,0.39357
525.60792,0.50802
527.09771,0.51286
528.58750,0.51770
530.07729,0.62919
531.56708,0.84130
533.05687,0.76809
534.54666,0.69490
536.03644,0.79292
537.52623,0.75580
539.01602,0.72319
540.50581,0.77320
541.99560,0.82321
543.48539,0.85972
544.97517,0.68451
546.46496,0.70753
547.95475,0.73056
549.44454,0.71006
550.93433,0.61749
552.42412,0.69162
553.91391,0.77703
555.40369,0.86245
556.89348,0.84652
558.38327,0.81108
559.87306,0.81845
561.36285,0.82583
562.85264,0.86701
564.34242,0.70698
565.83221,0.69413
567.32200,0.63774
568.81179,0.58137
570.30158,0.58657
571.79137,0.66838
573.28115,0.61129
574.77094,0.55422
576.26073,0.48139
577.75052,0.40256
579.24031,0.44839
580.73010,0.39813
582.21989,0.34787
583.70967,0.37572
585.19946,0.21887
586.68925,0.27227
588.17904,0.32569
589.66883,0.24246
591.15862,0.14273
592.64840,0.00697
594.13819,0.03988
595.62798,0.07279
597.11777,0.02764
598.60756,0.18823
600.09735,0.24671
601.58714,0.28269
603.07692,0.31867
604.56671,0.36819
606.05650,0.34113
607.54629,0.32459
609.03608,0.30807
610.52587,0.41920
612.01565,0.33363
613.50544,0.20602
614.99523,0.23911
616.48502,0.27220
617.97481,0.35487
619.46460,0.39250
620.95438,0.45717
622.44417,0.41674
623.93396,0.37632
625.42375,0.41400
626.91354,0.39763
628.40333,0.41882
629.89312,0.44002
631.38290,0.27652
632.87269,0.27071
634.36248,0.18083
635.85227,0.19532
637.34206,0.20983
638.83185,0.27916
640.32163,0.25990
641.81142,0.22865
643.30121,0.24245
644.79100,0.25627
646.28079,0.26860
647.77058,0.36204
649.26037,0.41644
650.75015,0.48062
652.23994,0.54481
653.72973,0.52117
655.21952,0.34586
656.70931,0.32675
658.19910,0.25509
659.68888,0.18344
661.17867,0.18088
662.66846,0.15881
664.15825,0.21334
665.64804,0.18004
667.13783,0.14675
668.62761,0.11422
670.11740,0.20184
671.60719,0.19562
673.09698,0.18941
674.58677,0.20198
676.07656,0.24911
677.56635,0.27523
679.05613,0.24429
680.54592,0.21337
682.03571,0.13590
683.52550,0.13204
685.01529,0.31139
686.50508,0.30755
687.99486,0.30372
689.48465,0.24134
690.97444,0.16245
692.46423,0.23675
693.95402,0.26751
695.44381,0.29828
696.93360,0.35460
698.42338,0.24875
699.91317,0.15642
701.40296,0.16472
702.89275,0.17303
704.38254,0.10477
705.87233,0.07106
707.36211,0.18153
708.85190,0.18314
710.34169,0.18476
711.83148,0.26973
713.32127,0.15650
714.81106,0.14389
716.30084,0.10802
717.79063,0.07216
719.28042,0.12116
720.77021,0.05454
722.26000,0.11708
723.74979,0.10080
725.23958,0.08453
726.72936,0.02096
728.21915,0.00697
729.70894,0.06554
731.19873,0.13164
732.68852,0.13993
734.17831,0.14824
735.66809,0.20687
737.15788,0.16038
738.64767,0.15146
740.13746,0.12077
741.62725,0.09010
743.11704,0.09323
744.60683,0.12940
746.09661,0.12355
747.58640,0.10569
749.07619,0.08784
750.56598,0.19765
752.05577,0.34803
753.54556,0.28517
755.03534,0.29816
756.52513,0.31116
758.01492,0.38650
759.50471,0.53243
760.99450,0.55523
762.48429,0.60358
763.97407,0.65193
765.46386,0.78891
766.95365,0.82678
768.44344,0.83613
769.93323,0.98515
771.42302,0.93221
772.91281,0.87928
774.40259,0.80309
775.89238,0.80049
777.38217,0.61469
778.87196,0.64666
780.36175,0.67864
781.85154,0.64906
783.34132,0.51138
784.83111,0.59896
786.32090,0.60922
787.81069,0.61949
789.30048,0.60499
790.79027,0.54395
792.28006,0.61208
793.76984,0.54506
795.25963,0.55464
796.74942,0.56424
798.23921,0.40265
799.72900,0.32217
801.21879,0.32880
802.70857,0.28889
804.19836,0.24900
805.68815,0.17307
807.17794,0.13921
808.66773,0.17744
810.15752,0.17814
811.64730,0.17885
813.13709,0.15555
814.62688,0.25090
816.11667,0.30571
817.60646,0.25542
819.09625,0.25019
820.58604,0.24497
822.07582,0.37042
823.56561,0.34871
825.05540,0.36756
826.54519,0.39618
828.03498,0.42482
829.52477,0.48125
831.01455,0.42957
832.50434,0.46050
833.99413,0.47192
835.48392,0.54342
836.97371,0.61493
838.46350,0.62639
839.95329,0.57478
841.44307,0.49466
842.93286,0.53169
844.42265,0.59876
845.91244,0.66584
847.40223,0.73294
848.89202,0.72046
850.38180,0.77256
851.87159,0.75635
853.36138,0.74015
854.85117,0.88090
856.34096,1.02015
857.83075,1.11287
859.32053,1.18608
860.81032,1.16994
862.30011,1.15382
863.78990,1.27663
865.27969,1.02101
866.76948,1.10930
868.25927,1.12852
869.74905,1.03362
871.23884,0.93874
872.72863,1.04960
874.21842,1.03884
875.70821,1.00257
877.19800,0.94377
878.68778,0.93155
880.17757,0.91934
881.66736,1.00025
883.15715,1.06915
884.64694,0.97288
886.13673,1.01629
887.62651,1.05970
889.11630,1.17071
890.60609,1.09101
892.09588,1.08941
893.58567,1.02325
895.07546,1.01042
896.56525,0.99760
898.05503,0.90745
899.54482,1.02305
901.03461,1.03054
902.52440,0.99900
904.01419,0.99000
905.50398,0.98101
906.99376,0.95551
908.48355,0.89549
909.97334,0.99766
911.46313,1.05180
912.95292,1.00233
914.44271,0.95287
915.93250,1.10915
917.42228,1.13030
918.91207,1.12593
920.40186,1.06601
921.89165,1.02563
923.38144,0.98525
924.87123,1.03049
926.36101,1.12830
927.85080,1.16155
929.34059,1.11823
930.83038,1.12598
932.32017,1.13374
933.80996,1.19557
935.29974,1.00963
936.78953,0.96637
938.27932,0.97869
939.76911,0.98576
941.25890,0.99285
942.74869,1.07278
944.23848,1.04610
945.72826,1.02244
947.21805,1.10241
948.70784,1.04574
950.19763,1.04014
951.68742,1.03455
953.17721,0.96890
954.66699,1.03542
956.15678,1.22810
957.64657,1.11293
959.13636,1.12243
960.62615,1.13193
962.11594,1.26759
963.60573,1.15699
965.09551,1.10496
966.58530,1.34128
968.07509,1.38163
969.56488,1.42200
971.05467,1.50968
972.54446,1.30454
974.03424,1.43730
975.52403,1.42291
977.01382,1.47160
978.50361,1.44146
979.99340,1.41134
981.48319,1.53666
982.97297,1.51181
984.46276,1.57709
985.95255,1.62435
987.44234,1.60330
988.93213,1.58227
990.42192,1.64459
991.91171,1.60631
993.40149,1.46593
994.89128,1.58385
996.38107,1.55161
997.87086,1.56369
999.36065,1.57578
1000.85044,1.57963
1002.34022,1.53843
1003.83001,1.70899
1005.31980,1.84653
1006.80959,1.92326
1008.29938,2.00000
1009.78917,1.97239
1011.27896,1.93277
1012.76874,1.83911
1014.25853,1.59378
1015.74832,1.55571
1017.23811,1.48761
1018.72790,1.41953
1020.21769,1.13972
1021.70747,0.92149
1023.19726,0.78887
1024.68705,0.81394
1026.17684,0.68135
1027.66663,0.65464
1029.15642,0.62794
1030.64620,0.65457
1032.13599,0.58660
1033.62578,0.48711
1035.11557,0.53480
1036.60536,0.46762
1038.09515,0.40045
1039.58494,0.36258
1041.07472,0.45387
1042.56451,0.58422
1044.05430,0.74011
1045.54409,0.78188
1047.03388,0.79363
1048.52367,0.80540
1050.01345,0.87424
1051.50324,0.94610
1052.99303,0.94739
1054.48282,0.96821
1055.97261,1.01308
1057.46240,1.00014
1058.95219,0.98721
1060.44197,1.09819
1061.93176,1.12058
1063.42155,1.04988
1064.91134,1.19694
1066.40113,1.29145
1067.89092,1.29137
1069.38070,1.29130
1070.87049,1.40537
1072.36028,1.40082
1073.85007,1.32270
1075.33986,1.22807
1076.82965,1.11093
1078.31943,1.15824
1079.80922,1.20557
1081.29901,1.19509
1082.78880,1.20114
1084.27859,1.14714
1085.76838,1.14270
1087.25817,1.02565
1088.74795,1.15489
1090.23774,1.09193
1091.72753,1.02898
1093.21732,1.08168
1094.70711,0.99022
1096.19690,0.92130
1097.68668,0.93799
1099.17647,0.93818
1100.66626,0.92036
1102.15605,0.90255
1103.64584,0.80366
1105.13563,0.81891
1106.62542,0.80565
1108.11520,0.74584
1109.60499,0.67554
1111.09478,0.65330
1112.58457,0.64835
1114.07436,0.64341
1115.56415,0.67077
1117.05393,0.66810
1118.54372,0.51978
1120.03351,0.53216
1121.52330,0.56408
1123.01309,0.56447
1124.50288,0.56487
1125.99266,0.56829
1127.48245,0.55221
1128.97224,0.43702
1130.46203,0.45249
1131.95182,0.56559
1133.44161,0.51951
1134.93140,0.44868
1136.42118,0.37785
1137.91097,0.37387
1139.40076,0.32634
1140.89055,0.26532
1142.38034,0.23434
1143.87013,0.25594
1145.35991,0.28655
1146.84970,0.28715
1148.33949,0.28776
1149.82928,0.25685
1151.31907,0.28001
1152.80886,0.21007
1154.29865,0.18070
1155.78843,0.12881
1157.27822,0.08895
1158.76801,0.10242
1160.25780,0.11590
1161.74759,0.24126
1163.23738,0.16391
1164.72716,0.24575
1166.21695,0.18795
1167.70674,0.18722
1169.19653,0.23607
1170.68632,0.20608
1172.17611,0.17611
1173.66589,0.24152
1175.15568,0.19130
1176.64547,0.15461
1178.13526,0.16599
1179.62505,0.16686
1181.11484,0.23233
1182.60463,0.19719
1184.09441,0.16207
1185.58420,0.15699
1187.07399,0.19848
1188.56378,0.21295
1190.05357,0.14034
1191.54336,0.13231
1193.03314,0.15132
1194.52293,0.15759
1196.01272,0.16386
1197.50251,0.03875
1198.99230,0.05632
1200.48209,0.01382
1201.97188,0.01189
1203.46166,0.00697
1204.95145,0.10230
1206.44124,0.23068
1207.93103,0.24194
1209.42082,0.25321
1210.91061,0.26300
1212.40039,0.44249
1213.89018,0.37421
1215.37997,0.39154
1216.86976,0.35482
1218.35955,0.40221
1219.84934,0.37453
1221.33912,0.34686
1222.82891,0.33272
1224.31870,0.33962
1225.80849,0.33301
1227.29828,0.36696
1228.78807,0.35438
1230.27786,0.43791
1231.76764,0.47040
1233.25743,0.44809
1234.74722,0.42579
1236.23701,0.47935
1237.72680,0.45933
1239.21659,0.54744
1240.70637,0.49591
1242.19616,0.57505
1243.68595,0.71726
1245.17574,0.64625
1246.66553,0.62105
1248.15532,0.59587
1249.64511,0.72462
1251.13489,0.74977
1252.62468,0.69684
1254.11447,0.69498
1255.60426,0.80727
1257.09405,0.83096
1258.58384,0.87870
1260.07362,0.83034
1261.56341,0.80077
1263.05320,0.77120
1264.54299,0.60124
1266.03278,0.65655
1267.52257,0.77345
1269.01235,0.72667
1270.50214,0.65137
1271.99193,0.70523
1273.48172,0.60893
1274.97151,0.57421
1276.46130,0.53951
1277.95109,0.65349
1279.44087,0.65485
1280.93066,0.62469
1282.42045,0.61257
1283.91024,0.57042
1285.40003,0.56433
1286.88982,0.53272
1288.37960,0.61825
1289.86939,0.57991
1291.35918,0.54159
1292.84897,0.51003
1294.33876,0.47548
1295.82855,0.50101
1297.31834,0.49952
1298.80812,0.43047
1300.29791,0.37796
1301.78770,0.46361
1303.27749,0.47419
1304.76728,0.46601
1306.25707,0.45784
1307.74685,0.45044
1309.23664,0.47459
1310.72643,0.60537
1312.21622,0.50490
1313.70601,0.53809
1315.19580,0.54277
1316.68558,0.55947
1318.17537,0.59270
1319.66516,0.56738
1321.15495,0.54207
1322.64474,0.46272
1324.13453,0.46747
1325.62432,0.55033
1327.11410,0.57613
1328.60389,0.61396
1330.09368,0.47760
1331.58347,0.59805
1333.07326,0.61939
1334.56305,0.63325
1336.05283,0.61558
1337.54262,0.59792
1339.03241,0.55925
1340.52220,0.59718
1342.01199,0.60058
1343.50178,0.63404
1344.99156,0.69753
1346.48135,0.65743
1347.97114,0.61884
1349.46093,0.73493
1350.95072,0.62879
1352.44051,0.63604
1353.93030,0.64330
1355.42008,0.59276
1356.90987,0.52871
1358.39966,0.59082
1359.88945,0.60189
1361.37924,0.61898
1362.86903,0.56249
1364.35881,0.52254
1365.84860,0.42854
1367.33839,0.43817
1368.82818,0.42153
1370.31797,0.40491
1371.80776,0.38304
1373.29755,0.37320
1374.78733,0.28378
1376.27712,0.36256
1377.76691,0.37378
1379.25670,0.26638
1380.74649,0.27463
1382.23628,0.33244
1383.72606,0.25361
1385.21585,0.28141
1386.70564,0.26117
1388.19543,0.24095
1389.68522,0.32135
1391.17501,0.32067
1392.66479,0.30049
1394.15458,0.37492
1395.64437,0.33974
1397.13416,0.35413
1398.62395,0.51871
1400.11374,0.41449
1401.60353,0.48899
1403.09331,0.45688
1404.58310,0.45406
1406.07289,0.45126
1407.56268,0.48226
1409.05247,0.42767
1410.54226,0.49474
1412.03204,0.49274
1413.52183,0.49826
1415.01162,0.37315
1416.50141,0.48532
1417.99120,0.55545
1419.48099,0.48744
1420.97078,0.51706
1422.46056,0.53167
1423.95035,0.51175
1425.44014,0.49184
1426.92993,0.51700
1428.41972,0.36948
1429.90951,0.37514
1431.39929,0.44089
1432.88908,0.42104
1434.37887,0.44927
1435.86866,0.47000
1437.35845,0.40966
1438.84824,0.53703
1440.33802,0.53077
1441.82781,0.56657
1443.31760,0.58887
1444.80739,0.61944
1446.29718,0.65002
1447.78697,0.67836
1449.27676,0.78331
1450.76654,0.71857
1452.25633,0.81152
1453.74612,0.89398
1455.23591,0.90286
1456.72570,0.84719
1458.21549,0.86811
1459.70527,0.93560
1461.19506,0.91150
1462.68485,0.92345
1464.17464,0.98948
1465.66443,0.99770
1467.15422,1.00594
1468.64401,1.02845
1470.13379,1.03296
1471.62358,1.08854
1473.11337,1.11109
1474.60316,1.05857
1476.09295,0.96552
1477.58274,0.86347
1479.07252,0.84403
1480.56231,0.75552
1482.05210,0.69706
1483.54189,0.66264
1485.03168,0.62973
1486.52147,0.57431
1488.01125,0.45583
1489.50104,0.33737
1490.99083,0.37209
1492.48062,0.28819
1493.97041,0.26137
1495.46020,0.21353
1496.94999,0.12066
1498.43977,0.09838
1499.92956,0.08062
1501.41935,0.06737
1502.90914,0.05565
1504.39893,0.09349
1505.88872,0.12984
1507.37850,0.06409
1508.86829,0.04640
1510.35808,0.08129
1511.84787,0.03360
1513.33766,0.02346
1514.82745,0.01333
1516.31724,0.09783
1517.80702,0.09074
1519.29681,0.04311
1520.78660,0.03904
1522.27639,0.08454
1523.76618,0.08200
1525.25597,0.09299
1526.74575,0.07096
1528.23554,0.04893
1529.72533,0.05095
1531.21512,0.08302
1532.70491,0.00697
1534.19470,0.05378
1535.68448,0.10961
1537.17427,0.11440
1538.66406,0.06064
1540.15385,0.06996
1541.64364,0.07929
1543.13343,0.09614
1544.62322,0.12502
1546.11300,0.06231
1547.60279,0.01763
1549.09258,0.00000
1550.58237,0.16054
1552.07216,0.16943
1553.56195,0.10624
1555.05173,0.15870
1556.54152,0.16612
1558.03131,0.20660
1559.52110,0.10292
1561.01089,0.17345
1562.50068,0.11034
1563.99047,0.11933
1565.48025,0.11781
1566.97004,0.06526
1568.45983,0.06978
1569.94962,0.05554
1571.43941,0.04131
1572.92920,0.08642
1574.41898,0.09549
1575.90877,0.12861
1577.39856,0.01908
1578.88835,0.14082
1580.37814,0.08087
1581.86793,0.10503
1583.35771,0.16074
1584.84750,0.15789
1586.33729,0.11901
1587.82708,0.01708
1589.31687,0.02478
1590.80666,0.00697
1592.29645,0.04913
1593.78623,0.11082
1595.27602,0.18003
1596.76581,0.20120
1598.25560,0.14129
1599.74539,0.13696
1601.23518,0.07858
1602.72496,0.09229
1604.21475,0.11203
1605.70454,0.13177
1607.19433,0.18907
1608.68412,0.22086
1610.17391,0.22262
1611.66370,0.28297
1613.15348,0.23520
1614.64327,0.22949
1616.13306,0.25383
1617.62285,0.20911
1619.11264,0.09081
1620.60243,0.05212
1622.09221,0.04948
1623.58200,0.09341
1625.07179,0.09831
1626.56158,0.16328
1628.05137,0.29885
1629.54116,0.29628
1631.03094,0.32976
1632.52073,0.25363
1634.01052,0.12044
1635.50031,0.10140
1636.99010,0.10039
1638.47989,0.15796
1639.96968,0.16749
1641.45946,0.16802
1642.94925,0.17157
1644.43904,0.21418
1645.92883,0.20799
1647.41862,0.20181
1648.90841,0.28350
1650.39819,0.25408
1651.88798,0.22617
1653.37777,0.26585
1654.86756,0.20492
1656.35735,0.23261
1657.84714,0.31137
1659.33693,0.39616
1660.82671,0.41187
1662.31650,0.39606
1663.80629,0.29918
1665.29608,0.29691
1666.78587,0.39828
1668.27566,0.32846
1669.76544,0.40882
1671.25523,0.48470
1672.74502,0.50352
1674.23481,0.52235
1675.72460,0.54871
1677.21439,0.52853
1678.70417,0.53689
1680.19396,0.49570
1681.68375,0.50859
1683.17354,0.48095
1684.66333,0.42930
1686.15312,0.43322
1687.64291,0.43415
1689.13269,0.43359
1690.62248,0.47209
1692.11227,0.51810
1693.60206,0.53861
1695.09185,0.38943
1696.58164,0.39644
1698.07142,0.35541
1699.56121,0.30389
1701.05100,0.39503
1702.54079,0.40510
1704.03058,0.42870
1705.52037,0.33668
1707.01016,0.27620
1708.49994,0.21574
1709.98973,0.16430
1711.47952,0.17295
1712.96931,0.13054
1714.45910,0.26986
1715.94889,0.18844
1717.43867,0.18362
1718.92846,0.19533
1720.41825,0.11845
1721.90804,0.06712
1723.39783,0.08337
1724.88762,0.14319
1726.37740,0.16397
1727.86719,0.19979
1729.35698,0.18306
1730.84677,0.09426
1732.33656,0.00697
1733.82635,0.05025
1735.31614,0.17463
1736.80592,0.24046
1738.29571,0.17565
1739.78550,0.11687
1741.27529,0.16922
1742.76508,0.09995
1744.25487,0.12980
1745.74465,0.11612
1747.23444,0.10545
1748.72423,0.12633
1750.21402,0.11419
1751.70381,0.12158
1753.19360,0.17704
1754.68339,0.11537
1756.17317,0.09878
1757.66296,0.15878
1759.15275,0.20228
1760.64254,0.18271
1762.13233,0.12112
1763.62212,0.05052
1765.11190,0.00697
1766.60169,0.12272
1768.09148,0.11383
1769.58127,0.26715
1771.07106,0.22826
1772.56085,0.21491
1774.05063,0.16704
1775.54042,0.15071
1777.03021,0.09085
1778.52000,0.00697
