299.16008,0.09746
300.64987,0.13197
302.13966,0.13198
303.62945,0.16780
305.11924,0.20362
306.60902,0.29953
308.09881,0.15263
309.58860,0.17764
311.07839,0.20266
312.56818,0.10948
314.05797,0.05593
315.54776,0.02796
317.03754,0.00000
318.52733,0.00656
320.01712,0.01058
321.50691,0.07659
322.99670,0.14262
324.48649,0.07000
325.97627,0.13669
327.46606,0.16634
328.95585,0.19600
330.44564,0.18989
331.93543,0.20680
333.42522,0.17452
334.91501,0.14226
336.40479,0.10042
337.89458,0.16212
339.38437,0.15290
340.87416,0.14369
342.36395,0.15175
343.85374,0.07165
345.34352,0.13405
346.83331,0.19647
348.32310,0.12024
349.81289,0.15265
351.30268,0.19913
352.79247,0.24563
354.28225,0.29598
355.77204,0.20832
357.26183,0.22930
358.75162,0.25029
360.24141,0.11922
361.73120,0.16708
363.22099,0.21623
364.71077,0.26540
366.20056,0.28391
367.69035,0.29476
369.18014,0.30947
370.66993,0.32418
372.15972,0.28524
373.64950,0.24759
375.13929,0.32369
376.62908,0.39980
378.11887,0.32897
379.60866,0.36933
381.09845,0.45123
382.58824,0.53316
384.07802,0.52116
385.56781,0.58075
387.05760,0.56494
388.54739,0.54916
390.03718,0.51933
391.52697,0.49079
393.01675,0.54725
394.50654,0.60372
395.99633,0.56372
397.48612,0.45345
398.97591,0.49208
400.46570,0.53071
401.95548,0.58023
403.44527,0.61954
404.93506,0.66205
406.42485,0.70458
407.91464,0.66341
409.40443,0.73473
410.89422,0.77027
412.38400,0.81605
413.87379,0.86184
415.36358,0.94215
416.85337,0.98286
418.34316,1.01272
419.83295,1.04260
421.32273,1.01689
422.81252,1.06277
424.30231,1.13742
425.79210,1.21208
427.28189,1.24777
428.77168,1.22470
430.26146,1.18374
431.75125,1.14280
433.24104,1.04564
434.73083,1.02645
436.22062,0.94721
437.71041,0.86799
439.20020,0.82201
440.68998,0.76454
442.17977,0.75181
443.66956,0.73909
445.15935,0.59476
446.64914,0.44917
448.13893,0.39816
449.62871,0.39253
451.11850,0.38691
452.60829,0.25799
454.09808,0.00000
455.58787,0.10971
457.07766,0.21943
458.56745,0.24609
460.05723,0.22676
461.54702,0.22790
463.03681,0.22905
464.52660,0.09858
466.01639,0.14960
467.50618,0.18976
468.99596,0.22995
470.48575,0.21711
471.97554,0.17872
473.46533,0.04961
474.95512,0.07899
476.44491,0.10838
477.93469,0.09178
479.42448,0.25666
480.91427,0.26500
482.40406,0.27336
483.89385,0.29643
485.38364,0.31185
486.87343,0.32855
488.36321,0.34528
489.85300,0.32751
491.34279,0.43755
492.83258,0.33929
494.32237,0.32348
495.81216,0.30769
497.30194,0.20692
498.79173,0.29530
500.28152,0.39776
501.77131,0.50023
503.26110,0.38419
504.75089,0.36400
506.24068,0.38600
507.73046,0.40802
509.22025,0.48372
510.71004,0.48659
512.19983,0.60194
513.68962,0.60612
515.17941,0.61032
516.66919,0.52123
518.15898,0.36059
519.64877,0.36547
521.13856,0.37036
522.62835,0.48836
524.11814,0.52842
525.60792,0.56466
527.09771,0.57599
528.58750,0.58734
530.07729,0.69136
531.56708,0.87590
533.05687,0.86940
534.54666,0.86291
536.03644,0.88008
537.52623,0.94582
539.01602,0.90679
540.50581,0.93614
541.99560,0.96551
543.48539,0.84728
544.97517,0.80575
546.46496,0.79554
547.95475,0.78534
549.44454,0.77836
550.93433,0.70876
552.42412,0.87689
553.91391,0.96132
555.40369,1.04576
556.89348,1.03245
558.38327,1.03194
559.87306,1.04230
561.36285,1.05268
562.85264,0.97809
564.34242,0.94185
565.83221,0.88773
567.32200,0.84257
568.81179,0.79743
570.30158,0.75996
571.79137,0.72252
573.28115,0.76943
574.77094,0.81635
576.26073,0.60514
577.75052,0.74922
579.24031,0.62111
580.73010,0.58374
582.21989,0.54639
583.70967,0.52439
585.19946,0.44873
586.68925,0.41206
588.17904,0.37540
589.66883,0.43397
591.15862,0.23185
592.64840,0.04124
594.13819,0.02061
595.62798,0.00000
597.11777,0.14411
598.60756,0.27290
600.09735,0.27646
601.58714,0.34075
603.07692,0.40504
604.56671,0.50066
606.05650,0.59885
607.54629,0.63315
609.03608,0.66747
610.52587,0.62512
612.01565,0.48055
613.50544,0.46763
614.99523,0.43810
616.48502,0.40859
617.97481,0.51200
619.46460,0.67549
620.95438,0.70992
622.44417,0.66641
623.93396,0.62291
625.42375,0.57176
626.91354,0.61647
628.40333,0.58388
629.89312,0.55130
631.38290,0.46314
632.87269,0.43123
634.36248,0.42744
635.85227,0.39428
637.34206,0.36113
638.83185,0.31905
640.32163,0.42267
641.81142,0.43301
643.30121,0.41270
644.79100,0.39240
646.28079,0.44496
647.77058,0.50648
649.26037,0.68175
650.75015,0.67109
652.23994,0.66045
653.72973,0.60062
655.21952,0.54974
656.70931,0.40304
658.19910,0.35603
659.68888,0.30903
661.17867,0.24927
662.66846,0.21252
664.15825,0.22819
665.64804,0.24195
667.13783,0.25572
668.62761,0.30210
670.11740,0.28332
671.60719,0.30289
673.09698,0.32247
674.58677,0.36252
676.07656,0.42558
677.56635,0.40814
679.05613,0.34727
680.54592,0.28641
682.03571,0.23451
683.52550,0.33215
685.01529,0.50776
686.50508,0.49616
687.99486,0.48457
689.48465,0.33817
690.97444,0.24163
692.46423,0.29334
693.95402,0.33357
695.44381,0.37381
696.93360,0.37061
698.42338,0.22046
699.91317,0.28886
701.40296,0.30104
702.89275,0.31324
704.38254,0.24493
705.87233,0.22137
707.36211,0.18249
708.85190,0.27078
710.34169,0.35909
711.83148,0.32919
713.32127,0.31720
714.81106,0.22472
716.30084,0.22617
717.79063,0.22765
719.28042,0.28345
720.77021,0.24725
722.26000,0.20084
723.74979,0.20428
725.23958,0.20774
726.72936,0.10003
728.21915,0.00000
729.70894,0.13805
731.19873,0.17005
732.68852,0.20205
734.17831,0.23408
735.66809,0.34024
737.15788,0.29177
738.64767,0.29061
740.13746,0.22492
741.62725,0.15925
743.11704,0.17858
744.60683,0.17491
746.09661,0.26200
747.58640,0.22514
749.07619,0.18829
750.56598,0.32142
752.05577,0.33700
753.54556,0.41393
755.03534,0.41356
756.52513,0.41320
758.01492,0.51957
759.50471,0.68346
760.99450,0.74896
762.48429,0.74611
763.97407,0.74327
765.46386,0.81392
766.95365,0.89098
768.44344,0.90032
769.93323,0.93651
771.42302,0.95610
772.91281,0.97571
774.40259,0.90715
775.89238,0.91145
777.38217,0.77646
778.87196,0.82104
780.36175,0.86564
781.85154,0.72686
783.34132,0.75423
784.83111,0.65382
786.32090,0.69463
787.81069,0.73547
789.30048,0.74500
790.79027,0.67021
792.28006,0.69638
793.76984,0.63951
795.25963,0.66316
796.74942,0.68682
798.23921,0.49963
799.72900,0.43514
801.21879,0.47035
802.70857,0.40205
804.19836,0.33377
805.68815,0.38052
807.17794,0.26115
808.66773,0.25426
810.15752,0.27804
811.64730,0.30185
813.13709,0.44835
814.62688,0.53352
816.11667,0.41679
817.60646,0.50072
819.09625,0.43705
820.58604,0.37339
822.07582,0.40752
823.56561,0.41993
825.05540,0.57677
826.54519,0.56621
828.03498,0.55566
829.52477,0.56685
831.01455,0.68668
832.50434,0.54455
833.99413,0.71553
835.48392,0.72613
836.97371,0.73676
838.46350,0.78254
839.95329,0.67497
841.44307,0.68756
842.93286,0.71932
844.42265,0.79519
845.91244,0.87107
847.40223,0.81086
848.89202,0.81457
850.38180,0.89752
851.87159,0.91084
853.36138,0.92417
854.85117,1.00205
856.34096,1.20519
857.83075,1.24477
859.32053,1.42110
860.81032,1.35207
862.30011,1.28305
863.78990,1.30735
865.27969,1.20897
866.76948,1.12083
868.25927,1.09532
869.74905,1.10944
871.23884,1.12358
872.72863,1.13390
874.21842,1.21580
875.70821,1.12135
877.19800,1.05631
878.68778,1.07691
880.17757,1.09752
881.66736,1.17183
883.15715,1.15029
884.64694,1.16200
886.13673,1.18203
887.62651,1.20207
889.11630,1.24194
890.60609,1.12718
892.09588,1.09807
893.58567,1.16353
895.07546,1.20473
896.56525,1.24595
898.05503,1.21433
899.54482,1.19423
901.03461,1.18820
902.52440,1.11062
904.01419,1.18257
905.50398,1.25454
906.99376,1.19873
908.48355,1.22855
909.97334,1.06286
911.46313,1.23073
912.95292,1.19670
914.44271,1.16268
915.93250,1.16446
917.42228,1.21737
918.91207,1.26135
920.40186,1.31429
921.89165,1.26181
923.38144,1.20934
924.87123,1.26360
926.36101,1.29359
927.85080,1.34149
929.34059,1.31783
930.83038,1.29227
932.32017,1.26673
933.80996,1.26612
935.29974,1.27830
936.78953,1.15631
938.27932,1.09568
939.76911,1.14177
941.25890,1.18788
942.74869,1.22058
944.23848,1.35553
945.72826,1.24896
947.21805,1.20886
948.70784,1.20967
950.19763,1.24947
951.68742,1.28928
953.17721,1.23901
954.66699,1.33317
956.15678,1.31616
957.64657,1.36050
959.13636,1.39335
960.62615,1.42622
962.11594,1.43994
963.60573,1.47156
965.09551,1.36645
966.58530,1.48116
968.07509,1.55755
969.56488,1.63395
971.05467,1.67970
972.54446,1.60533
974.03424,1.58337
975.52403,1.54993
977.01382,1.50116
978.50361,1.44027
979.99340,1.37939
981.48319,1.42267
982.97297,1.49026
984.46276,1.72144
985.95255,1.81077
987.44234,1.87584
988.93213,1.94093
990.42192,1.83222
991.91171,1.77337
993.40149,1.55862
994.89128,1.69916
996.38107,1.71958
997.87086,1.76686
999.36065,1.81415
1000.85044,1.65442
1002.34022,1.70174
1003.83001,1.73757
1005.31980,1.91910
1006.80959,1.87956
1008.29938,1.84003
1009.78917,1.98071
1011.27896,2.00000
1012.76874,1.81866
1014.25853,1.69612
1015.74832,1.49947
1017.23811,1.49900
1018.72790,1.49855
1020.21769,1.19971
1021.70747,1.13219
1023.19726,1.06468
1024.68705,1.00870
1026.17684,0.84026
1027.66663,0.81881
1029.15642,0.79736
1030.64620,0.72482
1032.13599,0.69829
1033.62578,0.60149
1035.11557,0.62612
1036.60536,0.54979
1038.09515,0.47348
1039.58494,0.42786
1041.07472,0.45254
1042.56451,0.60119
1044.05430,0.68852
1045.54409,0.82953
1047.03388,0.84788
1048.52367,0.86624
1050.01345,0.97407
1051.50324,1.12281
1052.99303,1.02619
1054.48282,1.14812
1055.97261,1.19977
1057.46240,1.22652
1058.95219,1.25328
1060.44197,1.34332
1061.93176,1.35030
1063.42155,1.37136
1064.91134,1.35536
1066.40113,1.41606
1067.89092,1.45122
1069.38070,1.48638
1070.87049,1.50240
1072.36028,1.47114
1073.85007,1.44628
1075.33986,1.29109
1076.82965,1.18830
1078.31943,1.29512
1079.80922,1.40195
1081.29901,1.42701
1082.78880,1.41374
1084.27859,1.31230
1085.76838,1.33229
1087.25817,1.26794
1088.74795,1.25089
1090.23774,1.25239
1091.72753,1.25390
1093.21732,1.23178
1094.70711,1.08060
1096.19690,1.13903
1097.68668,1.15273
1099.17647,1.07827
1100.66626,1.15655
1102.15605,1.23484
1103.64584,1.08885
1105.13563,1.02467
1106.62542,0.95412
1108.11520,0.80818
1109.60499,0.84244
1111.09478,0.87672
1112.58457,0.85990
1114.07436,0.84309
1115.56415,0.81990
1117.05393,0.78651
1118.54372,0.82725
1120.03351,0.69548
1121.52330,0.80270
1123.01309,0.76233
1124.50288,0.72198
1125.99266,0.84202
1127.48245,0.78700
1128.97224,0.68470
1130.46203,0.69105
1131.95182,0.63862
1133.44161,0.56065
1134.93140,0.54020
1136.42118,0.51977
1137.91097,0.56069
1139.40076,0.51984
1140.89055,0.47772
1142.38034,0.51485
1143.87013,0.49704
1145.35991,0.40513
1146.84970,0.42377
1148.33949,0.44242
1149.82928,0.46684
1151.31907,0.40565
1152.80886,0.38793
1154.29865,0.39194
1155.78843,0.32824
1157.27822,0.33484
1158.76801,0.32612
1160.25780,0.31741
1161.74759,0.33938
1163.23738,0.34987
1164.72716,0.39105
1166.21695,0.40668
1167.70674,0.39037
1169.19653,0.37152
1170.68632,0.33991
1172.17611,0.30830
1173.66589,0.35467
1175.15568,0.39467
1176.64547,0.42317
1178.13526,0.33284
1179.62505,0.32176
1181.11484,0.24296
1182.60463,0.29069
1184.09441,0.33844
1185.58420,0.37597
1187.07399,0.39563
1188.56378,0.31690
1190.05357,0.32508
1191.54336,0.32945
1193.03314,0.35555
1194.52293,0.33502
1196.01272,0.31451
1197.50251,0.21541
1198.99230,0.21729
1200.48209,0.07605
1201.97188,0.00000
1203.46166,0.03874
1204.95145,0.16311
1206.44124,0.31051
1207.93103,0.37676
1209.42082,0.44303
1210.91061,0.49718
1212.40039,0.53728
1213.89018,0.49816
1215.37997,0.49483
1216.86976,0.43657
1218.35955,0.41922
1219.84934,0.44150
1221.33912,0.46379
1222.82891,0.46437
1224.31870,0.51992
1225.80849,0.53969
1227.29828,0.42785
1228.78807,0.56651
1230.27786,0.56077
1231.76764,0.59594
1233.25743,0.57042
1234.74722,0.54492
1236.23701,0.48428
1237.72680,0.48500
1239.21659,0.55602
1240.70637,0.70118
1242.19616,0.69555
1243.68595,0.65799
1245.17574,0.76741
1246.66553,0.69281
1248.15532,0.61823
1249.64511,0.77497
1251.13489,0.77071
1252.62468,0.77029
1254.11447,0.81206
1255.60426,0.83340
1257.09405,0.85730
1258.58384,0.87994
1260.07362,0.83614
1261.56341,0.82686
1263.05320,0.81760
1264.54299,0.77001
1266.03278,0.77227
1267.52257,0.75282
1269.01235,0.74106
1270.50214,0.68330
1271.99193,0.74440
1273.48172,0.72373
1274.97151,0.66410
1276.46130,0.60448
1277.95109,0.82922
1279.44087,0.77155
1280.93066,0.73561
1282.42045,0.66519
1283.91024,0.60883
1285.40003,0.65984
1286.88982,0.63035
1288.37960,0.67372
1289.86939,0.60847
1291.35918,0.54324
1292.84897,0.50997
1294.33876,0.61602
1295.82855,0.59428
1297.31834,0.56361
1298.80812,0.45500
1300.29791,0.47548
1301.78770,0.52280
1303.27749,0.56248
1304.76728,0.55935
1306.25707,0.55625
1307.74685,0.53973
1309.23664,0.62163
1310.72643,0.63838
1312.21622,0.65257
1313.70601,0.62717
1315.19580,0.56472
1316.68558,0.60069
1318.17537,0.59321
1319.66516,0.61451
1321.15495,0.63582
1322.64474,0.55938
1324.13453,0.57242
1325.62432,0.65447
1327.11410,0.80683
1328.60389,0.69850
1330.09368,0.59018
1331.58347,0.60201
1333.07326,0.63941
1334.56305,0.60397
1336.05283,0.61201
1337.54262,0.62005
1339.03241,0.61789
1340.52220,0.63235
1342.01199,0.62894
1343.50178,0.71244
1344.99156,0.71417
1346.48135,0.68780
1347.97114,0.57070
1349.46093,0.64787
1350.95072,0.67138
1352.44051,0.71407
1353.93030,0.75677
1355.42008,0.66147
1356.90987,0.60069
1358.39966,0.65750
1359.88945,0.68492
1361.37924,0.63568
1362.86903,0.62863
1364.35881,0.55642
1365.84860,0.56473
1367.33839,0.48616
1368.82818,0.46766
1370.31797,0.44917
1371.80776,0.40387
1373.29755,0.42631
1374.78733,0.40020
1376.27712,0.37922
1377.76691,0.47582
1379.25670,0.41908
1380.74649,0.34958
1382.23628,0.41939
1383.72606,0.40358
1385.21585,0.35074
1386.70564,0.38033
1388.19543,0.40994
1389.68522,0.39675
1391.17501,0.32734
1392.66479,0.34613
1394.15458,0.33682
1395.64437,0.43742
1397.13416,0.47414
1398.62395,0.48660
1400.11374,0.49396
1401.60353,0.59845
1403.09331,0.48443
1404.58310,0.48991
1406.07289,0.49540
1407.56268,0.48877
1409.05247,0.56778
1410.54226,0.52667
1412.03204,0.53797
1413.52183,0.58507
1415.01162,0.49288
1416.50141,0.50678
1417.99120,0.64338
1419.48099,0.63814
1420.97078,0.59457
1422.46056,0.58297
1423.95035,0.59310
1425.44014,0.60325
1426.92993,0.58019
1428.41972,0.53030
1429.90951,0.45487
1431.39929,0.46507
1432.88908,0.43312
1434.37887,0.49575
1435.86866,0.52772
1437.35845,0.56482
1438.84824,0.53804
1440.33802,0.52660
1441.82781,0.58291
1443.31760,0.66991
1444.80739,0.69749
1446.29718,0.72509
1447.78697,0.69455
1449.27676,0.81483
1450.76654,0.75110
1452.25633,0.86629
1453.74612,0.89971
1455.23591,0.95742
1456.72570,0.98704
1458.21549,0.94510
1459.70527,0.99135
1461.19506,0.90982
1462.68485,1.05195
1464.17464,1.08163
1465.66443,1.12411
1467.15422,1.16660
1468.64401,1.05703
1470.13379,1.17622
1471.62358,1.08201
1473.11337,1.15778
1474.60316,1.16456
1476.09295,1.07423
1477.58274,0.94557
1479.07252,0.95878
1480.56231,0.76624
1482.05210,0.74242
1483.54189,0.75439
1485.03168,0.72932
1486.52147,0.63525
1488.01125,0.57122
1489.50104,0.50721
1490.99083,0.43618
1492.48062,0.48786
1493.97041,0.36191
1495.46020,0.40722
1496.94999,0.28130
1498.43977,0.20395
1499.92956,0.20330
1501.41935,0.18477
1502.90914,0.22376
1504.39893,0.14775
1505.88872,0.19571
1507.37850,0.19257
1508.86829,0.20351
1510.35808,0.21317
1511.84787,0.27014
1513.33766,0.21402
1514.82745,0.15792
1516.31724,0.20215
1517.80702,0.27067
1519.29681,0.23314
1520.78660,0.20584
1522.27639,0.25268
1523.76618,0.20241
1525.25597,0.25440
1526.74575,0.20415
1528.23554,0.21910
1529.72533,0.25707
1531.21512,0.19409
1532.70491,0.13751
1534.19470,0.23430
1535.68448,0.12280
1537.17427,0.22857
1538.66406,0.22189
1540.15385,0.21906
1541.64364,0.21624
1543.13343,0.24539
1544.62322,0.22087
1546.11300,0.15803
1547.60279,0.13610
1549.09258,0.14741
1550.58237,0.16384
1552.07216,0.23653
1553.56195,0.19165
1555.05173,0.27586
1556.54152,0.31024
1558.03131,0.33058
1559.52110,0.35221
1561.01089,0.28312
1562.50068,0.22427
1563.99047,0.18588
1565.48025,0.18328
1566.97004,0.19476
1568.45983,0.10401
1569.94962,0.13213
1571.43941,0.16026
1572.92920,0.17819
1574.41898,0.15651
1575.90877,0.13229
1577.39856,0.14386
1578.88835,0.11328
1580.37814,0.18495
1581.86793,0.20040
1583.35771,0.31427
1584.84750,0.29652
1586.33729,0.20466
1587.82708,0.17033
1589.31687,0.03888
1590.80666,0.07359
1592.29645,0.11853
1593.78623,0.25806
1595.27602,0.34009
1596.76581,0.29050
1598.25560,0.14380
1599.74539,0.15942
1601.23518,0.13288
1602.72496,0.22777
1604.21475,0.24023
1605.70454,0.25271
1607.19433,0.41281
1608.68412,0.33522
1610.17391,0.31643
1611.66370,0.31299
1613.15348,0.36836
1614.64327,0.30488
1616.13306,0.36155
1617.62285,0.24187
1619.11264,0.17844
1620.60243,0.00000
1622.09221,0.00344
1623.58200,0.03372
1625.07179,0.16371
1626.56158,0.26175
1628.05137,0.37387
1629.54116,0.40805
1631.03094,0.37451
1632.52073,0.30137
1634.01052,0.17839
1635.50031,0.13595
1636.99010,0.13952
1638.47989,0.21340
1639.96968,0.24129
1641.45946,0.24235
1642.94925,0.22681
1644.43904,0.22023
1645.92883,0.23603
1647.41862,0.25185
1648.90841,0.26959
1650.39819,0.30269
1651.88798,0.43420
1653.37777,0.29096
1654.86756,0.22825
1656.35735,0.29846
1657.84714,0.28562
1659.33693,0.42871
1660.82671,0.44273
1662.31650,0.40181
1663.80629,0.34047
1665.29608,0.29319
1666.78587,0.36861
1668.27566,0.42360
1669.76544,0.49521
1671.25523,0.47611
1672.74502,0.54136
1674.23481,0.56446
1675.72460,0.51344
1677.21439,0.62986
1678.70417,0.62999
1680.19396,0.64675
1681.68375,0.68270
1683.17354,0.54868
1684.66333,0.50031
1686.15312,0.52991
1687.64291,0.52118
1689.13269,0.58275
1690.62248,0.54849
1692.11227,0.54620
1693.60206,0.55414
1695.09185,0.49564
1696.58164,0.46654
1698.07142,0.41063
1699.56121,0.44674
1701.05100,0.44069
1702.54079,0.48322
1704.03058,0.49893
1705.52037,0.41113
1707.01016,0.36872
1708.49994,0.32632
1709.98973,0.16700
1711.47952,0.11632
1712.96931,0.15512
1714.45910,0.26805
1715.94889,0.32732
1717.43867,0.27158
1718.92846,0.23248
1720.41825,0.16783
1721.90804,0.09169
1723.39783,0.09607
1724.88762,0.16565
1726.37740,0.20840
1727.86719,0.32146
1729.35698,0.25434
1730.84677,0.14250
1732.33656,0.00000
1733.82635,0.07792
1735.31614,0.15331
1736.80592,0.24404
1738.29571,0.25427
1739.78550,0.19806
1741.27529,0.11248
1742.76508,0.12786
1744.25487,0.14966
1745.74465,0.17530
1747.23444,0.11916
1748.72423,0.11288
1750.21402,0.10661
1751.70381,0.12463
1753.19360,0.17974
1754.68339,0.08533
1756.17317,0.07017
1757.66296,0.16110
1759.15275,0.26226
1760.64254,0.22670
1762.13233,0.16176
1763.62212,0.05082
1765.11190,0.01146
1766.60169,0.08842
1768.09148,0.17305
1769.58127,0.31266
1771.07106,0.31425
1772.56085,0.17273
1774.05063,0.18969
1775.54042,0.14020
1777.03021,0.00000
1778.52000,0.00000
