299.16008,0.35330
300.64987,0.12613
302.13966,0.29071
303.62945,0.22717
305.11924,0.16363
306.60902,0.09677
308.09881,0.03883
309.58860,0.01985
311.07839,0.00088
312.56818,0.18336
314.05797,0.18556
315.54776,0.17442
317.03754,0.16330
318.52733,0.15886
320.01712,0.13886
321.50691,0.10552
322.99670,0.07219
324.48649,0.06335
325.97627,0.10572
327.46606,0.16258
328.95585,0.21944
330.44564,0.26853
331.93543,0.11063
333.42522,0.11746
334.91501,0.12429
336.40479,0.18011
337.89458,0.15804
339.38437,0.15267
340.87416,0.14732
342.36395,0.07854
343.85374,0.00088
345.34352,0.03886
346.83331,0.07685
348.32310,0.14379
349.81289,0.07719
351.30268,0.13303
352.79247,0.18888
354.28225,0.09116
355.77204,0.19155
357.26183,0.14839
358.75162,0.10525
360.24141,0.11220
361.73120,0.10580
363.22099,0.12613
364.71077,0.14647
366.20056,0.18240
367.69035,0.14490
369.18014,0.17084
370.66993,0.19680
372.15972,0.35520
373.64950,0.14859
375.13929,0.20686
376.62908,0.26515
378.11887,0.34125
379.60866,0.27714
381.09845,0.35661
382.58824,0.43608
384.07802,0.41208
385.56781,0.53276
387.05760,0.54773
388.54739,0.56271
390.03718,0.42302
391.52697,0.41466
393.01675,0.49201
394.50654,0.56936
395.99633,0.58998
397.48612,0.61283
398.97591,0.63124
400.46570,0.64967
401.95548,0.65698
403.44527,0.69769
404.93506,0.67609
406.42485,0.65451
407.91464,0.56839
409.40443,0.53570
410.89422,0.63880
412.38400,0.71408
413.87379,0.78938
415.36358,0.85246
416.85337,0.85767
418.34316,0.97641
419.83295,1.09517
421.32273,1.21839
422.81252,1.13685
424.30231,1.13657
425.79210,1.13629
427.28189,1.15718
428.77168,1.05789
430.26146,1.14224
431.75125,1.22660
433.24104,1.05167
434.73083,0.88565
436.22062,0.84652
437.71041,0.80740
439.20020,0.73046
440.68998,0.67356
442.17977,0.62335
443.66956,0.57316
445.15935,0.54301
446.64914,0.48393
448.13893,0.39817
449.62871,0.31130
451.11850,0.22444
452.60829,0.22106
454.09808,0.03296
455.58787,0.10974
457.07766,0.18653
458.56745,0.12089
460.05723,0.14428
461.54702,0.15545
463.03681,0.16663
464.52660,0.00088
466.01639,0.18210
467.50618,0.14632
468.99596,0.11055
470.48575,0.09594
471.97554,0.10137
473.46533,0.11795
474.95512,0.09781
476.44491,0.07769
477.93469,0.14549
479.42448,0.17548
480.91427,0.13313
482.40406,0.09081
483.89385,0.17870
485.38364,0.20205
486.87343,0.28441
488.36321,0.36677
489.85300,0.33897
491.34279,0.46254
492.83258,0.53048
494.32237,0.52164
495.81216,0.51282
497.30194,0.46060
498.79173,0.50411
500.28152,0.50756
501.77131,0.51103
503.26110,0.51896
504.75089,0.50242
506.24068,0.46698
507.73046,0.43155
509.22025,0.52189
510.71004,0.41415
512.19983,0.45777
513.68962,0.46579
515.17941,0.47383
516.66919,0.46407
518.15898,0.40759
519.64877,0.47576
521.13856,0.54394
522.62835,0.49862
524.11814,0.36874
525.60792,0.54380
527.09771,0.59534
528.58750,0.64690
530.07729,0.69068
531.56708,0.78566
533.05687,0.73265
534.54666,0.67964
536.03644,0.66115
537.52623,0.74951
539.01602,0.77556
540.50581,0.77046
541.99560,0.76538
543.48539,0.76699
544.97517,0.73522
546.46496,0.76022
547.95475,0.78524
549.44454,0.71122
550.93433,0.73515
552.42412,0.67006
553.91391,0.70069
555.40369,0.73133
556.89348,0.67296
558.38327,0.69696
559.87306,0.70650
561.36285,0.71605
562.85264,0.60876
564.34242,0.47255
565.83221,0.47880
567.32200,0.46949
568.81179,0.46018
570.30158,0.43977
571.79137,0.38375
573.28115,0.31328
574.77094,0.24282
576.26073,0.18684
577.75052,0.22213
579.24031,0.23518
580.73010,0.24713
582.21989,0.25909
583.70967,0.17869
585.19946,0.10053
586.68925,0.14035
588.17904,0.18019
589.66883,0.29571
591.15862,0.10186
592.64840,0.17735
594.13819,0.14045
595.62798,0.10356
597.11777,0.04108
598.60756,0.00088
600.09735,0.16958
601.58714,0.13686
603.07692,0.10416
604.56671,0.23284
606.05650,0.28363
607.54629,0.28546
609.03608,0.28731
610.52587,0.18901
612.01565,0.14637
613.50544,0.25064
614.99523,0.17686
616.48502,0.10310
617.97481,0.07386
619.46460,0.08693
620.95438,0.17346
622.44417,0.17320
623.93396,0.17295
625.42375,0.11484
626.91354,0.20588
628.40333,0.20122
629.89312,0.19657
631.38290,0.12739
632.87269,0.19176
634.36248,0.04916
635.85227,0.06348
637.34206,0.07782
638.83185,0.15337
640.32163,0.09762
641.81142,0.05079
643.30121,0.04848
644.79100,0.04619
646.28079,0.08398
647.77058,0.05945
649.26037,0.22191
650.75015,0.21299
652.23994,0.20408
653.72973,0.23971
655.21952,0.16851
656.70931,0.14406
658.19910,0.13966
659.68888,0.13527
661.17867,0.05745
662.66846,0.04418
664.15825,0.17338
665.64804,0.13454
667.13783,0.09572
668.62761,0.11589
670.11740,0.26740
671.60719,0.21415
673.09698,0.16091
674.58677,0.15888
676.07656,0.11457
677.56635,0.28617
679.05613,0.23410
680.54592,0.18204
682.03571,0.26242
683.52550,0.30053
685.01529,0.24517
686.50508,0.23657
687.99486,0.22798
689.48465,0.23052
690.97444,0.20638
692.46423,0.24902
693.95402,0.25494
695.44381,0.26088
696.93360,0.19895
698.42338,0.05468
699.91317,0.09515
701.40296,0.14455
702.89275,0.19395
704.38254,0.17438
705.87233,0.17262
707.36211,0.10187
708.85190,0.07343
710.34169,0.04500
711.83148,0.16348
713.32127,0.07053
714.81106,0.13562
716.30084,0.12394
717.79063,0.11227
719.28042,0.14846
720.77021,0.16019
722.26000,0.12963
723.74979,0.16253
725.23958,0.19544
726.72936,0.06477
728.21915,0.00088
729.70894,0.09526
731.19873,0.16071
732.68852,0.15384
734.17831,0.14699
735.66809,0.20803
737.15788,0.11996
738.64767,0.10090
740.13746,0.09632
741.62725,0.09175
743.11704,0.14841
744.60683,0.10714
746.09661,0.17718
747.58640,0.14039
749.07619,0.10362
750.56598,0.26050
752.05577,0.32613
753.54556,0.27827
755.03534,0.29162
756.52513,0.30500
758.01492,0.33952
759.50471,0.50093
760.99450,0.66903
762.48429,0.68134
763.97407,0.69366
765.46386,0.85067
766.95365,0.82296
768.44344,0.94216
769.93323,1.01462
771.42302,0.99363
772.91281,0.97264
774.40259,0.90047
775.89238,0.80384
777.38217,0.72502
778.87196,0.77976
780.36175,0.83452
781.85154,0.75129
783.34132,0.69478
784.83111,0.56483
786.32090,0.61519
787.81069,0.66556
789.30048,0.50226
790.79027,0.57269
792.28006,0.62310
793.76984,0.58449
795.25963,0.48802
796.74942,0.39156
798.23921,0.28622
799.72900,0.16531
801.21879,0.25140
802.70857,0.27853
804.19836,0.30567
805.68815,0.18259
807.17794,0.01277
808.66773,0.03216
810.15752,0.03598
811.64730,0.03982
813.13709,0.13270
814.62688,0.23894
816.11667,0.14711
817.60646,0.14655
819.09625,0.16714
820.58604,0.18774
822.07582,0.29405
823.56561,0.41151
825.05540,0.39988
826.54519,0.33039
828.03498,0.26092
829.52477,0.37843
831.01455,0.41136
832.50434,0.39980
833.99413,0.59525
835.48392,0.55143
836.97371,0.50764
838.46350,0.57625
839.95329,0.47127
841.44307,0.53991
842.93286,0.56405
844.42265,0.56929
845.91244,0.57453
847.40223,0.56533
848.89202,0.58507
850.38180,0.60482
851.87159,0.64573
853.36138,0.68665
854.85117,0.94683
856.34096,0.89986
857.83075,1.04432
859.32053,1.35128
860.81032,1.21977
862.30011,1.08827
863.78990,1.26395
865.27969,1.10800
866.76948,1.12789
868.25927,1.16783
869.74905,1.13211
871.23884,1.09640
872.72863,1.08074
874.21842,1.08957
875.70821,1.03387
877.19800,0.95147
878.68778,0.97815
880.17757,1.00484
881.66736,0.93138
883.15715,0.92693
884.64694,0.94031
886.13673,0.94813
887.62651,0.95597
889.11630,1.00277
890.60609,0.94942
892.09588,1.08528
893.58567,0.94293
895.07546,0.96418
896.56525,0.98545
898.05503,0.92104
899.54482,0.95013
901.03461,0.90355
902.52440,0.95269
904.01419,0.87053
905.50398,0.78838
906.99376,0.83978
908.48355,0.90011
909.97334,0.84025
911.46313,0.93844
912.95292,0.92424
914.44271,0.91005
915.93250,0.93260
917.42228,1.11097
918.91207,0.78410
920.40186,0.94914
921.89165,0.91164
923.38144,0.87417
924.87123,0.98360
926.36101,0.87269
927.85080,0.97770
929.34059,1.01595
930.83038,0.98966
932.32017,0.96339
933.80996,0.79245
935.29974,0.86192
936.78953,0.86239
938.27932,1.01868
939.76911,0.96131
941.25890,0.90396
942.74869,1.04693
944.23848,0.80486
945.72826,0.78538
947.21805,0.88166
948.70784,0.95124
950.19763,0.94292
951.68742,0.93463
953.17721,0.79947
954.66699,0.79565
956.15678,0.82523
957.64657,0.83701
959.13636,0.89889
960.62615,0.96078
962.11594,1.13732
963.60573,0.98890
965.09551,0.99630
966.58530,1.14616
968.07509,1.15024
969.56488,1.15434
971.05467,1.18628
972.54446,1.20932
974.03424,1.25909
975.52403,1.34448
977.01382,1.36979
978.50361,1.34837
979.99340,1.32697
981.48319,1.57934
982.97297,1.46448
984.46276,1.57221
985.95255,1.61095
987.44234,1.55733
988.93213,1.50373
990.42192,1.60261
991.91171,1.67479
993.40149,1.64460
994.89128,1.49645
996.38107,1.50412
997.87086,1.49178
999.36065,1.47944
1000.85044,1.68970
1002.34022,1.82651
1003.83001,1.83203
1005.31980,1.80416
1006.80959,1.79078
1008.29938,1.77741
1009.78917,1.96326
1011.27896,2.00000
1012.76874,1.91656
1014.25853,1.63726
1015.74832,1.63842
1017.23811,1.51718
1018.72790,1.39596
1020.21769,1.24803
1021.70747,1.03780
1023.19726,0.86987
1024.68705,0.64186
1026.17684,0.53628
1027.66663,0.54088
1029.15642,0.54550
1030.64620,0.50005
1032.13599,0.42791
1033.62578,0.53384
1035.11557,0.52182
1036.60536,0.54876
1038.09515,0.57571
1039.58494,0.60602
1041.07472,0.55621
1042.56451,0.62438
1044.05430,0.69924
1045.54409,0.66060
1047.03388,0.67205
1048.52367,0.68352
1050.01345,0.68721
1051.50324,0.85339
1052.99303,0.84820
1054.48282,0.93205
1055.97261,1.01815
1057.46240,1.07309
1058.95219,1.12805
1060.44197,1.04058
1061.93176,1.11559
1063.42155,1.07043
1064.91134,1.17441
1066.40113,1.25837
1067.89092,1.36237
1069.38070,1.46639
1070.87049,1.44577
1072.36028,1.36953
1073.85007,1.34672
1075.33986,1.24156
1076.82965,1.18094
1078.31943,1.20824
1079.80922,1.23556
1081.29901,1.18610
1082.78880,1.20343
1084.27859,1.17403
1085.76838,1.16468
1087.25817,1.01734
1088.74795,1.02359
1090.23774,1.00982
1091.72753,0.99607
1093.21732,1.03129
1094.70711,0.95079
1096.19690,0.98604
1097.68668,0.86105
1099.17647,0.91191
1100.66626,0.89267
1102.15605,0.87344
1103.64584,0.77521
1105.13563,0.77938
1106.62542,0.70789
1108.11520,0.78331
1109.60499,0.72742
1111.09478,0.67822
1112.58457,0.64128
1114.07436,0.60435
1115.56415,0.57077
1117.05393,0.52830
1118.54372,0.49920
1120.03351,0.45008
1121.52330,0.58349
1123.01309,0.50323
1124.50288,0.42299
1125.99266,0.44738
1127.48245,0.49848
1128.97224,0.40715
1130.46203,0.43825
1131.95182,0.36252
1133.44161,0.26678
1134.93140,0.30793
1136.42118,0.34910
1137.91097,0.33797
1139.40076,0.25341
1140.89055,0.24899
1142.38034,0.27797
1143.87013,0.10664
1145.35991,0.19351
1146.84970,0.16799
1148.33949,0.14249
1149.82928,0.11589
1151.31907,0.18501
1152.80886,0.09166
1154.29865,0.02058
1155.78843,0.05413
1157.27822,0.00088
1158.76801,0.05804
1160.25780,0.11521
1161.74759,0.14346
1163.23738,0.07601
1164.72716,0.15325
1166.21695,0.14148
1167.70674,0.05404
1169.19653,0.00000
1170.68632,0.04994
1172.17611,0.09989
1173.66589,0.11202
1175.15568,0.13306
1176.64547,0.05396
1178.13526,0.03719
1179.62505,0.06049
1181.11484,0.14836
1182.60463,0.12384
1184.09441,0.09933
1185.58420,0.13827
1187.07399,0.10823
1188.56378,0.10045
1190.05357,0.09269
1191.54336,0.01372
1193.03314,0.01934
1194.52293,0.04166
1196.01272,0.06400
1197.50251,0.01624
1198.99230,0.04416
1200.48209,0.00088
1201.97188,0.12845
1203.46166,0.00675
1204.95145,0.11432
1206.44124,0.09058
1207.93103,0.14809
1209.42082,0.20561
1210.91061,0.11959
1212.40039,0.15822
1213.89018,0.23471
1215.37997,0.30675
1216.86976,0.29200
1218.35955,0.23498
1219.84934,0.19355
1221.33912,0.15213
1222.82891,0.17973
1224.31870,0.16727
1225.80849,0.22160
1227.29828,0.28262
1228.78807,0.24794
1230.27786,0.32457
1231.76764,0.32776
1233.25743,0.31761
1234.74722,0.30747
1236.23701,0.30624
1237.72680,0.33397
1239.21659,0.39286
1240.70637,0.41616
1242.19616,0.35267
1243.68595,0.54515
1245.17574,0.44830
1246.66553,0.49391
1248.15532,0.53953
1249.64511,0.57181
1251.13489,0.52843
1252.62468,0.47615
1254.11447,0.60195
1255.60426,0.56751
1257.09405,0.62879
1258.58384,0.67896
1260.07362,0.70020
1261.56341,0.59681
1263.05320,0.49343
1264.54299,0.59929
1266.03278,0.53601
1267.52257,0.54173
1269.01235,0.59421
1270.50214,0.47978
1271.99193,0.47886
1273.48172,0.42900
1274.97151,0.51047
1276.46130,0.59195
1277.95109,0.47535
1279.44087,0.46114
1280.93066,0.44918
1282.42045,0.41720
1283.91024,0.50987
1285.40003,0.45566
1286.88982,0.43262
1288.37960,0.54982
1289.86939,0.46003
1291.35918,0.37026
1292.84897,0.38066
1294.33876,0.42446
1295.82855,0.42153
1297.31834,0.39858
1298.80812,0.38232
1300.29791,0.32378
1301.78770,0.39658
1303.27749,0.34475
1304.76728,0.35859
1306.25707,0.37245
1307.74685,0.40523
1309.23664,0.39574
1310.72643,0.46639
1312.21622,0.51480
1313.70601,0.44080
1315.19580,0.40243
1316.68558,0.38633
1318.17537,0.43478
1319.66516,0.43651
1321.15495,0.43826
1322.64474,0.40885
1324.13453,0.40172
1325.62432,0.53259
1327.11410,0.59003
1328.60389,0.60964
1330.09368,0.64930
1331.58347,0.49311
1333.07326,0.56173
1334.56305,0.52352
1336.05283,0.58104
1337.54262,0.63857
1339.03241,0.58705
1340.52220,0.69135
1342.01199,0.63318
1343.50178,0.74195
1344.99156,0.67045
1346.48135,0.79928
1347.97114,0.76787
1349.46093,0.91454
1350.95072,1.04563
1352.44051,1.00091
1353.93030,0.95620
1355.42008,1.02724
1356.90987,1.13168
1358.39966,1.15823
1359.88945,1.17589
1361.37924,1.03776
1362.86903,0.99758
1364.35881,0.96631
1365.84860,0.82822
1367.33839,0.78807
1368.82818,0.72680
1370.31797,0.66554
1371.80776,0.63433
1373.29755,0.55418
1374.78733,0.36052
1376.27712,0.44955
1377.76691,0.47849
1379.25670,0.41397
1380.74649,0.44294
1382.23628,0.44967
1383.72606,0.42970
1385.21585,0.40307
1386.70564,0.43432
1388.19543,0.46558
1389.68522,0.42118
1391.17501,0.38124
1392.66479,0.46373
1394.15458,0.46166
1395.64437,0.43290
1397.13416,0.42862
1398.62395,0.46888
1400.11374,0.43125
1401.60353,0.36692
1403.09331,0.41612
1404.58310,0.40635
1406.07289,0.39659
1407.56268,0.37238
1409.05247,0.36821
1410.54226,0.50650
1412.03204,0.41778
1413.52183,0.36691
1415.01162,0.33163
1416.50141,0.37872
1417.99120,0.39912
1419.48099,0.37056
1420.97078,0.40655
1422.46056,0.41586
1423.95035,0.40514
1425.44014,0.39444
1426.92993,0.45052
1428.41972,0.32633
1429.90951,0.35128
1431.39929,0.32950
1432.88908,0.38119
1434.37887,0.41285
1435.86866,0.44008
1437.35845,0.37606
1438.84824,0.45451
1440.33802,0.40165
1441.82781,0.39999
1443.31760,0.48293
1444.80739,0.50689
1446.29718,0.53087
1447.78697,0.64278
1449.27676,0.61225
1450.76654,0.51274
1452.25633,0.62914
1453.74612,0.66988
1455.23591,0.67724
1456.72570,0.75139
1458.21549,0.69869
1459.70527,0.83741
1461.19506,0.88266
1462.68485,0.80996
1464.17464,0.95763
1465.66443,0.99736
1467.15422,1.03710
1468.64401,1.14251
1470.13379,1.02982
1471.62358,1.11522
1473.11337,1.16503
1474.60316,1.02121
1476.09295,1.00873
1477.58274,0.97845
1479.07252,0.86360
1480.56231,0.85115
1482.05210,0.74969
1483.54189,0.65714
1485.03168,0.54235
1486.52147,0.44092
1488.01125,0.39960
1489.50104,0.35830
1490.99083,0.43720
1492.48062,0.21118
1493.97041,0.27230
1495.46020,0.25776
1496.94999,0.18091
1498.43977,0.15303
1499.92956,0.08511
1501.41935,0.10623
1502.90914,0.12959
1504.39893,0.05058
1505.88872,0.16968
1507.37850,0.07511
1508.86829,0.09629
1510.35808,0.05072
1511.84787,0.05635
1513.33766,0.02861
1514.82745,0.00088
1516.31724,0.07276
1517.80702,0.12463
1519.29681,0.01402
1520.78660,0.05478
1522.27639,0.14007
1523.76618,0.08292
1525.25597,0.06808
1526.74575,0.05770
1528.23554,0.06069
1529.72533,0.04365
1531.21512,0.03776
1532.70491,0.02966
1534.19470,0.11506
1535.68448,0.08027
1537.17427,0.13453
1538.66406,0.10867
1540.15385,0.10620
1541.64364,0.10374
1543.13343,0.08460
1544.62322,0.04989
1546.11300,0.03968
1547.60279,0.00945
1549.09258,0.06381
1550.58237,0.12931
1552.07216,0.04348
1553.56195,0.04669
1555.05173,0.21684
1556.54152,0.09098
1558.03131,0.14987
1559.52110,0.11307
1561.01089,0.14973
1562.50068,0.08179
1563.99047,0.10290
1565.48025,0.09063
1566.97004,0.04944
1568.45983,0.08394
1569.94962,0.09619
1571.43941,0.10846
1572.92920,0.02948
1574.41898,0.03955
1575.90877,0.11863
1577.39856,0.14208
1578.88835,0.08541
1580.37814,0.13114
1581.86793,0.12569
1583.35771,0.10690
1584.84750,0.13264
1586.33729,0.15172
1587.82708,0.13964
1589.31687,0.15874
1590.80666,0.13112
1592.29645,0.11241
1593.78623,0.14935
1595.27602,0.18854
1596.76581,0.20102
1598.25560,0.14453
1599.74539,0.19710
1601.23518,0.12950
1602.72496,0.10866
1604.21475,0.15015
1605.70454,0.19165
1607.19433,0.21313
1608.68412,0.19233
1610.17391,0.18713
1611.66370,0.23759
1613.15348,0.24577
1614.64327,0.24506
1616.13306,0.20652
1617.62285,0.14352
1619.11264,0.14952
1620.60243,0.11993
1622.09221,0.18606
1623.58200,0.11197
1625.07179,0.31835
1626.56158,0.21981
1628.05137,0.24593
1629.54116,0.16967
1631.03094,0.23810
1632.52073,0.14852
1634.01052,0.19694
1635.50031,0.16525
1636.99010,0.19590
1638.47989,0.21320
1639.96968,0.12368
1641.45946,0.22114
1642.94925,0.20509
1644.43904,0.16458
1645.92883,0.16637
1647.41862,0.16817
1648.90841,0.20337
1650.39819,0.22523
1651.88798,0.24487
1653.37777,0.20889
1654.86756,0.22633
1656.35735,0.19260
1657.84714,0.24123
1659.33693,0.28543
1660.82671,0.32741
1662.31650,0.27147
1663.80629,0.30680
1665.29608,0.31766
1666.78587,0.27734
1668.27566,0.26820
1669.76544,0.36368
1671.25523,0.33675
1672.74502,0.30761
1674.23481,0.36307
1675.72460,0.42076
1677.21439,0.41391
1678.70417,0.36257
1680.19396,0.33127
1681.68375,0.33782
1683.17354,0.36665
1684.66333,0.28642
1686.15312,0.30191
1687.64291,0.37306
1689.13269,0.27062
1690.62248,0.32176
1692.11227,0.21489
1693.60206,0.28164
1695.09185,0.27273
1696.58164,0.32615
1698.07142,0.25049
1699.56121,0.24384
1701.05100,0.21940
1702.54079,0.18162
1704.03058,0.21063
1705.52037,0.14839
1707.01016,0.13068
1708.49994,0.11298
1709.98973,0.05300
1711.47952,0.06649
1712.96931,0.06887
1714.45910,0.10241
1715.94889,0.15600
1717.43867,0.04045
1718.92846,0.06291
1720.41825,0.06312
1721.90804,0.07225
1723.39783,0.04132
1724.88762,0.05938
1726.37740,0.06632
1727.86719,0.11556
1729.35698,0.03795
1730.84677,0.07610
1732.33656,0.05860
1733.82635,0.06338
1735.31614,0.07040
1736.80592,0.09969
1738.29571,0.08671
1739.78550,0.08931
1741.27529,0.10529
1742.76508,0.09012
1744.25487,0.08608
1745.74465,0.08874
1747.23444,0.07806
1748.72423,0.08520
1750.21402,0.06341
1751.70381,0.13289
1753.19360,0.11781
1754.68339,0.06713
1756.17317,0.00088
1757.66296,0.13627
1759.15275,0.16705
1760.64254,0.08879
1762.13233,0.09066
1763.62212,0.02133
1765.11190,0.03659
1766.60169,0.02515
1768.09148,0.05824
1769.58127,0.08466
1771.07106,0.06881
1772.56085,0.03962
1774.05063,0.06831
1775.54042,0.00353
1777.03021,0.03225
1778.52000,0.00088
