299.16008,0.17378
300.64987,0.13556
302.13966,0.22174
303.62945,0.18536
305.11924,0.14898
306.60902,0.13496
308.09881,0.12699
309.58860,0.06952
311.07839,0.01205
312.56818,0.06692
314.05797,0.05900
315.54776,0.05652
317.03754,0.05405
318.52733,0.15123
320.01712,0.10833
321.50691,0.08114
322.99670,0.05396
324.48649,0.11375
325.97627,0.04915
327.46606,0.06730
328.95585,0.08545
330.44564,0.09215
331.93543,0.06987
333.42522,0.07175
334.91501,0.07365
336.40479,0.03812
337.89458,0.07023
339.38437,0.04318
340.87416,0.01614
342.36395,0.01205
343.85374,0.00000
345.34352,0.00185
346.83331,0.00371
348.32310,0.10642
349.81289,0.06905
351.30268,0.09027
352.79247,0.11150
354.28225,0.16837
355.77204,0.12983
357.26183,0.07803
358.75162,0.02623
360.24141,0.05779
361.73120,0.01205
363.22099,0.07751
364.71077,0.14298
366.20056,0.20605
367.69035,0.13265
369.18014,0.13958
370.66993,0.14652
372.15972,0.07195
373.64950,0.02637
375.13929,0.11125
376.62908,0.19613
378.11887,0.25446
379.60866,0.33091
381.09845,0.30834
382.58824,0.28578
384.07802,0.35623
385.56781,0.39891
387.05760,0.39511
388.54739,0.39132
390.03718,0.50408
391.52697,0.40551
393.01675,0.42349
394.50654,0.44148
395.99633,0.41902
397.48612,0.46663
398.97591,0.47922
400.46570,0.49182
401.95548,0.49840
403.44527,0.50982
404.93506,0.47656
406.42485,0.44332
407.91464,0.55380
409.40443,0.51213
410.89422,0.68061
412.38400,0.66190
413.87379,0.64321
415.36358,0.80931
416.85337,0.88725
418.34316,0.91388
419.83295,0.94052
421.32273,0.99435
422.81252,0.96848
424.30231,0.99455
425.79210,1.02063
427.28189,1.03585
428.77168,1.00640
430.26146,0.97515
431.75125,0.94392
433.24104,0.90967
434.73083,0.83316
436.22062,0.77961
437.71041,0.72608
439.20020,0.62787
440.68998,0.65769
442.17977,0.60539
443.66956,0.55311
445.15935,0.49118
446.64914,0.31331
448.13893,0.28039
449.62871,0.30605
451.11850,0.33172
452.60829,0.22516
454.09808,0.12223
455.58787,0.11533
457.07766,0.10844
458.56745,0.11182
460.05723,0.15266
461.54702,0.11984
463.03681,0.08703
464.52660,0.01437
466.01639,0.12893
467.50618,0.10823
468.99596,0.08754
470.48575,0.08740
471.97554,0.15973
473.46533,0.15719
474.95512,0.08462
476.44491,0.01205
477.93469,0.08917
479.42448,0.20495
480.91427,0.24163
482.40406,0.27832
483.89385,0.27457
485.38364,0.25633
486.87343,0.27253
488.36321,0.28873
489.85300,0.34058
491.34279,0.34654
492.83258,0.29576
494.32237,0.35669
495.81216,0.41765
497.30194,0.50216
498.79173,0.39465
500.28152,0.40068
501.77131,0.40673
503.26110,0.31013
504.75089,0.33793
506.24068,0.36394
507.73046,0.38996
509.22025,0.39123
510.71004,0.24637
512.19983,0.39984
513.68962,0.38122
515.17941,0.36261
516.66919,0.42432
518.15898,0.34836
519.64877,0.37991
521.13856,0.41146
522.62835,0.31984
524.11814,0.35504
525.60792,0.32866
527.09771,0.41702
528.58750,0.50540
530.07729,0.57688
531.56708,0.70151
533.05687,0.67820
534.54666,0.65491
536.03644,0.70952
537.52623,0.70739
539.01602,0.75116
540.50581,0.69047
541.99560,0.62979
543.48539,0.69050
544.97517,0.65099
546.46496,0.62899
547.95475,0.60701
549.44454,0.60496
550.93433,0.63433
552.42412,0.63110
553.91391,0.61218
555.40369,0.59328
556.89348,0.56834
558.38327,0.54704
559.87306,0.55232
561.36285,0.55762
562.85264,0.49287
564.34242,0.53563
565.83221,0.43105
567.32200,0.39774
568.81179,0.36445
570.30158,0.32391
571.79137,0.30755
573.28115,0.29301
574.77094,0.27847
576.26073,0.19813
577.75052,0.24341
579.24031,0.21864
580.73010,0.19631
582.21989,0.17398
583.70967,0.13959
585.19946,0.09555
586.68925,0.08171
588.17904,0.06789
589.66883,0.13016
591.15862,0.03786
592.64840,0.08204
594.13819,0.10147
595.62798,0.12092
597.11777,0.08784
598.60756,0.06685
600.09735,0.05915
601.58714,0.08951
603.07692,0.11988
604.56671,0.22817
606.05650,0.15530
607.54629,0.15430
609.03608,0.15332
610.52587,0.13242
612.01565,0.07047
613.50544,0.08341
614.99523,0.08186
616.48502,0.08033
617.97481,0.10538
619.46460,0.08455
620.95438,0.10117
622.44417,0.09425
623.93396,0.08735
625.42375,0.15835
626.91354,0.13153
628.40333,0.16814
629.89312,0.20475
631.38290,0.15382
632.87269,0.04010
634.36248,0.06044
635.85227,0.05363
637.34206,0.04682
638.83185,0.02614
640.32163,0.06464
641.81142,0.09833
643.30121,0.08312
644.79100,0.06792
646.28079,0.08835
647.77058,0.08465
649.26037,0.16429
650.75015,0.17570
652.23994,0.18712
653.72973,0.19554
655.21952,0.13996
656.70931,0.20154
658.19910,0.15987
659.68888,0.11821
661.17867,0.08804
662.66846,0.10860
664.15825,0.06637
665.64804,0.08152
667.13783,0.09669
668.62761,0.05932
670.11740,0.16448
671.60719,0.16639
673.09698,0.16832
674.58677,0.17689
676.07656,0.17703
677.56635,0.18684
679.05613,0.19545
680.54592,0.20407
682.03571,0.26584
683.52550,0.23463
685.01529,0.33145
686.50508,0.32805
687.99486,0.32465
689.48465,0.22464
690.97444,0.17779
692.46423,0.15752
693.95402,0.19040
695.44381,0.22329
696.93360,0.18252
698.42338,0.14418
699.91317,0.12276
701.40296,0.12610
702.89275,0.12946
704.38254,0.18175
705.87233,0.13259
707.36211,0.13296
708.85190,0.12792
710.34169,0.12288
711.83148,0.18730
713.32127,0.12008
714.81106,0.08790
716.30084,0.11612
717.79063,0.14436
719.28042,0.08202
720.77021,0.08974
722.26000,0.10835
723.74979,0.09677
725.23958,0.08520
726.72936,0.01205
728.21915,0.04429
729.70894,0.02460
731.19873,0.09429
732.68852,0.11025
734.17831,0.12623
735.66809,0.12711
737.15788,0.15941
738.64767,0.15187
740.13746,0.14977
741.62725,0.14769
743.11704,0.13052
744.60683,0.11940
746.09661,0.13486
747.58640,0.14973
749.07619,0.16461
750.56598,0.23324
752.05577,0.26445
753.54556,0.29446
755.03534,0.31663
756.52513,0.33881
758.01492,0.35195
759.50471,0.53177
760.99450,0.56546
762.48429,0.61788
763.97407,0.67031
765.46386,0.79824
766.95365,0.82473
768.44344,0.85365
769.93323,0.86446
771.42302,0.90669
772.91281,0.94892
774.40259,0.85832
775.89238,0.86918
777.38217,0.73391
778.87196,0.72064
780.36175,0.70738
781.85154,0.78350
783.34132,0.63258
784.83111,0.56017
786.32090,0.59104
787.81069,0.62191
789.30048,0.58215
790.79027,0.63902
792.28006,0.67657
793.76984,0.56800
795.25963,0.53311
796.74942,0.49824
798.23921,0.47666
799.72900,0.28963
801.21879,0.30069
802.70857,0.27914
804.19836,0.25761
805.68815,0.25541
807.17794,0.13245
808.66773,0.10612
810.15752,0.12509
811.64730,0.14407
813.13709,0.24700
814.62688,0.23400
816.11667,0.17754
817.60646,0.25273
819.09625,0.25123
820.58604,0.24975
822.07582,0.31773
823.56561,0.33741
825.05540,0.33415
826.54519,0.38586
828.03498,0.43757
829.52477,0.47421
831.01455,0.42751
832.50434,0.42311
833.99413,0.45253
835.48392,0.50672
836.97371,0.56092
838.46350,0.55776
839.95329,0.47491
841.44307,0.46091
842.93286,0.52059
844.42265,0.57122
845.91244,0.62187
847.40223,0.69970
848.89202,0.78359
850.38180,0.74429
851.87159,0.74848
853.36138,0.75269
854.85117,0.99241
856.34096,1.09568
857.83075,1.13494
859.32053,1.22253
860.81032,1.19479
862.30011,1.16705
863.78990,1.16289
865.27969,1.16115
866.76948,1.15458
868.25927,1.01156
869.74905,1.03159
871.23884,1.05164
872.72863,1.09222
874.21842,1.08693
875.70821,0.98744
877.19800,0.93627
878.68778,0.92980
880.17757,0.92334
881.66736,0.97124
883.15715,0.96602
884.64694,0.88109
886.13673,0.90064
887.62651,0.92021
889.11630,0.92348
890.60609,0.91831
892.09588,0.94214
893.58567,0.91284
895.07546,0.93789
896.56525,0.96296
898.05503,0.89625
899.54482,0.88149
901.03461,0.96336
902.52440,0.91480
904.01419,0.92060
905.50398,0.92641
906.99376,0.84045
908.48355,0.91513
909.97334,0.89561
911.46313,0.83263
912.95292,0.85783
914.44271,0.88303
915.93250,0.82612
917.42228,0.92382
918.91207,0.95630
920.40186,0.94653
921.89165,0.99293
923.38144,1.03934
924.87123,0.98370
926.36101,0.96552
927.85080,0.99445
929.34059,1.07412
930.83038,1.07288
932.32017,1.07165
933.80996,1.04266
935.29974,1.06199
936.78953,0.91587
938.27932,0.96179
939.76911,0.93948
941.25890,0.91719
942.74869,0.95348
944.23848,1.01756
945.72826,0.94518
947.21805,0.94527
948.70784,0.92847
950.19763,0.94187
951.68742,0.95529
953.17721,1.03152
954.66699,1.02925
956.15678,1.09584
957.64657,1.04287
959.13636,1.07446
960.62615,1.10606
962.11594,1.12801
963.60573,1.24055
965.09551,1.10793
966.58530,1.38112
968.07509,1.40613
969.56488,1.43116
971.05467,1.42902
972.54446,1.42447
974.03424,1.39217
975.52403,1.53378
977.01382,1.55343
978.50361,1.57973
979.99340,1.60604
981.48319,1.55205
982.97297,1.63334
984.46276,1.76415
985.95255,1.85392
987.44234,1.86579
988.93213,1.87768
990.42192,1.79719
991.91171,1.74569
993.40149,1.64590
994.89128,1.77800
996.38107,1.73620
997.87086,1.73367
999.36065,1.73114
1000.85044,1.75943
1002.34022,1.67902
1003.83001,1.78704
1005.31980,1.89265
1006.80959,1.89622
1008.29938,1.89981
1009.78917,1.92937
1011.27896,2.00000
1012.76874,1.99335
1014.25853,1.68357
1015.74832,1.53202
1017.23811,1.43784
1018.72790,1.34368
1020.21769,1.01583
1021.70747,0.91504
1023.19726,0.86741
1024.68705,0.75940
1026.17684,0.68160
1027.66663,0.62676
1029.15642,0.57192
1030.64620,0.57990
1032.13599,0.52630
1033.62578,0.47513
1035.11557,0.55923
1036.60536,0.55820
1038.09515,0.55718
1039.58494,0.43237
1041.07472,0.60469
1042.56451,0.64295
1044.05430,0.71263
1045.54409,0.78232
1047.03388,0.80311
1048.52367,0.82390
1050.01345,0.82479
1051.50324,0.90902
1052.99303,0.86403
1054.48282,1.00504
1055.97261,1.08447
1057.46240,1.08541
1058.95219,1.08636
1060.44197,1.13926
1061.93176,1.22960
1063.42155,1.21368
1064.91134,1.17241
1066.40113,1.19515
1067.89092,1.26683
1069.38070,1.33851
1070.87049,1.37337
1072.36028,1.29350
1073.85007,1.25471
1075.33986,1.22318
1076.82965,1.15181
1078.31943,1.19457
1079.80922,1.23735
1081.29901,1.24693
1082.78880,1.25168
1084.27859,1.13085
1085.76838,1.05713
1087.25817,1.03172
1088.74795,0.97614
1090.23774,1.02141
1091.72753,1.06670
1093.21732,1.05100
1094.70711,0.94716
1096.19690,0.89405
1097.68668,0.90133
1099.17647,0.97747
1100.66626,0.97210
1102.15605,0.96674
1103.64584,0.81103
1105.13563,0.75919
1106.62542,0.71945
1108.11520,0.62536
1109.60499,0.64361
1111.09478,0.58216
1112.58457,0.57446
1114.07436,0.56678
1115.56415,0.58024
1117.05393,0.55144
1118.54372,0.53594
1120.03351,0.55427
1121.52330,0.53034
1123.01309,0.52031
1124.50288,0.51029
1125.99266,0.50934
1127.48245,0.46975
1128.97224,0.40482
1130.46203,0.45100
1131.95182,0.37280
1133.44161,0.33568
1134.93140,0.35351
1136.42118,0.37136
1137.91097,0.28476
1139.40076,0.24768
1140.89055,0.22631
1142.38034,0.21099
1143.87013,0.16066
1145.35991,0.12967
1146.84970,0.12344
1148.33949,0.11723
1149.82928,0.13578
1151.31907,0.13261
1152.80886,0.14394
1154.29865,0.09249
1155.78843,0.01205
1157.27822,0.07530
1158.76801,0.06246
1160.25780,0.04964
1161.74759,0.05615
1163.23738,0.06268
1164.72716,0.10907
1166.21695,0.13856
1167.70674,0.04971
1169.19653,0.08527
1170.68632,0.06709
1172.17611,0.04893
1173.66589,0.01205
1175.15568,0.12039
1176.64547,0.10193
1178.13526,0.10039
1179.62505,0.03606
1181.11484,0.08405
1182.60463,0.08375
1184.09441,0.08347
1185.58420,0.03367
1187.07399,0.02737
1188.56378,0.07542
1190.05357,0.01358
1191.54336,0.02905
1193.03314,0.01796
1194.52293,0.03889
1196.01272,0.05983
1197.50251,0.03428
1198.99230,0.05585
1200.48209,0.04844
1201.97188,0.01205
1203.46166,0.04443
1204.95145,0.05629
1206.44124,0.03918
1207.93103,0.08367
1209.42082,0.12817
1210.91061,0.25239
1212.40039,0.20030
1213.89018,0.25812
1215.37997,0.24953
1216.86976,0.26269
1218.35955,0.23117
1219.84934,0.22140
1221.33912,0.21165
1222.82891,0.13186
1224.31870,0.21754
1225.80849,0.19453
1227.29828,0.22105
1228.78807,0.18358
1230.27786,0.27897
1231.76764,0.24634
1233.25743,0.27714
1234.74722,0.30795
1236.23701,0.32246
1237.72680,0.30076
1239.21659,0.32858
1240.70637,0.36003
1242.19616,0.45551
1243.68595,0.38433
1245.17574,0.47742
1246.66553,0.43706
1248.15532,0.39672
1249.64511,0.44153
1251.13489,0.47427
1252.62468,0.50099
1254.11447,0.56757
1255.60426,0.61847
1257.09405,0.61019
1258.58384,0.69614
1260.07362,0.65045
1261.56341,0.61503
1263.05320,0.57963
1264.54299,0.54605
1266.03278,0.55838
1267.52257,0.51758
1269.01235,0.49249
1270.50214,0.54350
1271.99193,0.49186
1273.48172,0.44507
1274.97151,0.45505
1276.46130,0.46504
1277.95109,0.49678
1279.44087,0.51042
1280.93066,0.40209
1282.42045,0.42662
1283.91024,0.40044
1285.40003,0.42016
1286.88982,0.41211
1288.37960,0.47292
1289.86939,0.47094
1291.35918,0.46897
1292.84897,0.40783
1294.33876,0.35636
1295.82855,0.42327
1297.31834,0.33801
1298.80812,0.35421
1300.29791,0.31849
1301.78770,0.32022
1303.27749,0.34853
1304.76728,0.34002
1306.25707,0.33153
1307.74685,0.33572
1309.23664,0.39789
1310.72643,0.35259
1312.21622,0.38339
1313.70601,0.43473
1315.19580,0.38705
1316.68558,0.42633
1318.17537,0.40766
1319.66516,0.40651
1321.15495,0.40537
1322.64474,0.37103
1324.13453,0.40796
1325.62432,0.43523
1327.11410,0.51325
1328.60389,0.59127
1330.09368,0.43621
1331.58347,0.44663
1333.07326,0.45826
1334.56305,0.46025
1336.05283,0.47009
1337.54262,0.47995
1339.03241,0.53027
1340.52220,0.51539
1342.01199,0.53313
1343.50178,0.63905
1344.99156,0.72807
1346.48135,0.77000
1347.97114,0.75759
1349.46093,0.76090
1350.95072,0.85721
1352.44051,0.88348
1353.93030,0.90977
1355.42008,0.85515
1356.90987,0.86697
1358.39966,0.86913
1359.88945,0.97276
1361.37924,0.93268
1362.86903,0.80565
1364.35881,0.77405
1365.84860,0.70380
1367.33839,0.59372
1368.82818,0.55732
1370.31797,0.52093
1371.80776,0.52803
1373.29755,0.36968
1374.78733,0.35023
1376.27712,0.33442
1377.76691,0.35364
1379.25670,0.34027
1380.74649,0.30396
1382.23628,0.29785
1383.72606,0.32074
1385.21585,0.33036
1386.70564,0.32972
1388.19543,0.32910
1389.68522,0.33150
1391.17501,0.37498
1392.66479,0.39311
1394.15458,0.37140
1395.64437,0.34124
1397.13416,0.32076
1398.62395,0.35705
1400.11374,0.32209
1401.60353,0.33304
1403.09331,0.31502
1404.58310,0.32901
1406.07289,0.34302
1407.56268,0.35160
1409.05247,0.32638
1410.54226,0.29996
1412.03204,0.36171
1413.52183,0.41986
1415.01162,0.33067
1416.50141,0.30792
1417.99120,0.37334
1419.48099,0.42187
1420.97078,0.37621
1422.46056,0.36316
1423.95035,0.32598
1425.44014,0.28880
1426.92993,0.33135
1428.41972,0.28574
1429.90951,0.32348
1431.39929,0.27306
1432.88908,0.25044
1434.37887,0.26889
1435.86866,0.29097
1437.35845,0.29133
1438.84824,0.34242
1440.33802,0.35729
1441.82781,0.34198
1443.31760,0.40277
1444.80739,0.45994
1446.29718,0.51713
1447.78697,0.46805
1449.27676,0.52888
1450.76654,0.55108
1452.25633,0.56846
1453.74612,0.65469
1455.23591,0.65277
1456.72570,0.65448
1458.21549,0.69123
1459.70527,0.70866
1461.19506,0.73456
1462.68485,0.80033
1464.17464,0.90476
1465.66443,0.92405
1467.15422,0.94335
1468.64401,0.98501
1470.13379,0.98683
1471.62358,1.08889
1473.11337,1.01102
1474.60316,0.95731
1476.09295,0.91690
1477.58274,0.84873
1479.07252,0.80472
1480.56231,0.68825
1482.05210,0.64306
1483.54189,0.65222
1485.03168,0.55512
1486.52147,0.51479
1488.01125,0.42314
1489.50104,0.33150
1490.99083,0.32502
1492.48062,0.26662
1493.97041,0.20582
1495.46020,0.22111
1496.94999,0.16637
1498.43977,0.11285
1499.92956,0.08349
1501.41935,0.07709
1502.90914,0.08157
1504.39893,0.07640
1505.88872,0.09298
1507.37850,0.05885
1508.86829,0.03681
1510.35808,0.06792
1511.84787,0.04590
1513.33766,0.04019
1514.82745,0.03450
1516.31724,0.05841
1517.80702,0.02677
1519.29681,0.01205
1520.78660,0.05735
1522.27639,0.08455
1523.76618,0.09847
1525.25597,0.05684
1526.74575,0.00798
1528.23554,0.07503
1529.72533,0.05634
1531.21512,0.02438
1532.70491,0.03469
1534.19470,0.09212
1535.68448,0.08918
1537.17427,0.06330
1538.66406,0.08453
1540.15385,0.08162
1541.64364,0.07872
1543.13343,0.08549
1544.62322,0.05605
1546.11300,0.03507
1547.60279,0.06845
1549.09258,0.07164
1550.58237,0.06277
1552.07216,0.08773
1553.56195,0.08855
1555.05173,0.11957
1556.54152,0.12523
1558.03131,0.06328
1559.52110,0.10521
1561.01089,0.11091
1562.50068,0.07194
1563.99047,0.06076
1565.48025,0.03268
1566.97004,0.08070
1568.45983,0.09008
1569.94962,0.08075
1571.43941,0.07144
1572.92920,0.04100
1574.41898,0.03836
1575.90877,0.09128
1577.39856,0.09348
1578.88835,0.06913
1580.37814,0.11363
1581.86793,0.06031
1583.35771,0.12054
1584.84750,0.06603
1586.33729,0.09246
1587.82708,0.10441
1589.31687,0.08980
1590.80666,0.06675
1592.29645,0.08235
1593.78623,0.14990
1595.27602,0.11843
1596.76581,0.11836
1598.25560,0.12798
1599.74539,0.10499
1601.23518,0.13516
1602.72496,0.11944
1604.21475,0.13997
1605.70454,0.16051
1607.19433,0.19555
1608.68412,0.22698
1610.17391,0.16664
1611.66370,0.21258
1613.15348,0.20540
1614.64327,0.21635
1616.13306,0.22006
1617.62285,0.16460
1619.11264,0.18887
1620.60243,0.17812
1622.09221,0.18187
1623.58200,0.17236
1625.07179,0.17493
1626.56158,0.18113
1628.05137,0.20547
1629.54116,0.17546
1631.03094,0.15513
1632.52073,0.20969
1634.01052,0.13021
1635.50031,0.14131
1636.99010,0.16209
1638.47989,0.18047
1639.96968,0.15054
1641.45946,0.17860
1642.94925,0.18856
1644.43904,0.20335
1645.92883,0.18193
1647.41862,0.16052
1648.90841,0.20313
1650.39819,0.21556
1651.88798,0.16157
1653.37777,0.16436
1654.86756,0.15629
1656.35735,0.19171
1657.84714,0.18487
1659.33693,0.24930
1660.82671,0.21953
1662.31650,0.25017
1663.80629,0.22888
1665.29608,0.23297
1666.78587,0.22378
1668.27566,0.20253
1669.76544,0.25738
1671.25523,0.27238
1672.74502,0.26203
1674.23481,0.29276
1675.72460,0.26190
1677.21439,0.20931
1678.70417,0.29805
1680.19396,0.29138
1681.68375,0.26177
1683.17354,0.24426
1684.66333,0.23763
1686.15312,0.27690
1687.64291,0.22077
1689.13269,0.23229
1690.62248,0.20275
1692.11227,0.24811
1693.60206,0.19565
1695.09185,0.21204
1696.58164,0.14390
1698.07142,0.20380
1699.56121,0.13085
1701.05100,0.14850
1702.54079,0.15287
1704.03058,0.15243
1705.52037,0.06624
1707.01016,0.09178
1708.49994,0.11734
1709.98973,0.07950
1711.47952,0.06341
1712.96931,0.07994
1714.45910,0.06629
1715.94889,0.08284
1717.43867,0.06800
1718.92846,0.06646
1720.41825,0.07580
1721.90804,0.03926
1723.39783,0.02085
1724.88762,0.07974
1726.37740,0.02995
1727.86719,0.06712
1729.35698,0.04876
1730.84677,0.06422
1732.33656,0.01205
1733.82635,0.01110
1735.31614,0.04011
1736.80592,0.10174
1738.29571,0.02450
1739.78550,0.06562
1741.27529,0.05483
1742.76508,0.02955
1744.25487,0.05138
1745.74465,0.02371
1747.23444,0.04316
1748.72423,0.05053
1750.21402,0.03497
1751.70381,0.02063
1753.19360,0.02804
1754.68339,0.07774
1756.17317,0.08275
1757.66296,0.07088
1759.15275,0.08196
1760.64254,0.03628
1762.13233,0.09570
1763.62212,0.01985
1765.11190,0.02252
1766.60169,0.01434
1768.09148,0.05326
1769.58127,0.05718
1771.07106,0.04661
1772.56085,0.00827
1774.05063,0.05328
1775.54042,0.06690
1777.03021,0.04793
1778.52000,0.01205
