299.16008,0.16055
300.64987,0.12672
302.13966,0.20914
303.62945,0.23950
305.11924,0.26986
306.60902,0.25118
308.09881,0.00000
309.58860,0.07344
311.07839,0.14688
312.56818,0.06484
314.05797,0.09302
315.54776,0.09103
317.03754,0.08904
318.52733,0.12632
320.01712,0.20287
321.50691,0.14960
322.99670,0.09633
324.48649,0.09441
325.97627,0.16800
327.46606,0.19102
328.95585,0.21405
330.44564,0.09745
331.93543,0.14693
333.42522,0.15189
334.91501,0.15686
336.40479,0.16108
337.89458,0.13815
339.38437,0.08957
340.87416,0.04099
342.36395,0.05282
343.85374,0.10241
345.34352,0.06143
346.83331,0.02046
348.32310,0.12444
349.81289,0.08350
351.30268,0.08409
352.79247,0.08469
354.28225,0.16759
355.77204,0.14029
357.26183,0.08054
358.75162,0.02081
360.24141,0.08413
361.73120,0.07651
363.22099,0.10061
364.71077,0.12472
366.20056,0.06279
367.69035,0.06730
369.18014,0.05748
370.66993,0.04768
372.15972,0.10960
373.64950,0.06435
375.13929,0.10742
376.62908,0.15052
378.11887,0.25326
379.60866,0.22617
381.09845,0.27157
382.58824,0.31698
384.07802,0.42430
385.56781,0.38670
387.05760,0.41479
388.54739,0.44289
390.03718,0.39325
391.52697,0.29381
393.01675,0.29628
394.50654,0.29877
395.99633,0.26429
397.48612,0.42306
398.97591,0.45654
400.46570,0.49004
401.95548,0.37106
403.44527,0.44987
404.93506,0.45396
406.42485,0.45807
407.91464,0.44332
409.40443,0.54785
410.89422,0.55124
412.38400,0.57654
413.87379,0.60185
415.36358,0.75777
416.85337,0.81255
418.34316,0.91414
419.83295,1.01575
421.32273,0.84562
422.81252,0.83100
424.30231,0.87830
425.79210,0.92561
427.28189,0.99407
428.77168,1.09726
430.26146,0.96042
431.75125,0.82360
433.24104,0.77737
434.73083,0.83382
436.22062,0.75969
437.71041,0.68557
439.20020,0.69375
440.68998,0.49510
442.17977,0.51387
443.66956,0.53266
445.15935,0.41709
446.64914,0.33324
448.13893,0.30225
449.62871,0.26371
451.11850,0.22520
452.60829,0.08252
454.09808,0.00025
455.58787,0.02325
457.07766,0.04626
458.56745,0.16441
460.05723,0.12555
461.54702,0.07991
463.03681,0.03429
464.52660,0.00000
466.01639,0.06301
467.50618,0.10264
468.99596,0.14228
470.48575,0.06190
471.97554,0.07062
473.46533,0.09294
474.95512,0.05940
476.44491,0.02589
477.93469,0.01201
479.42448,0.12044
480.91427,0.16547
482.40406,0.21051
483.89385,0.15290
485.38364,0.14211
486.87343,0.20532
488.36321,0.26853
489.85300,0.27288
491.34279,0.29234
492.83258,0.39938
494.32237,0.34866
495.81216,0.29795
497.30194,0.21027
498.79173,0.24490
500.28152,0.35880
501.77131,0.47271
503.26110,0.26732
504.75089,0.31257
506.24068,0.31631
507.73046,0.32006
509.22025,0.31704
510.71004,0.40159
512.19983,0.40161
513.68962,0.47487
515.17941,0.54814
516.66919,0.46818
518.15898,0.23575
519.64877,0.31133
521.13856,0.38692
522.62835,0.16661
524.11814,0.31469
525.60792,0.41146
527.09771,0.46823
528.58750,0.52501
530.07729,0.58106
531.56708,0.64466
533.05687,0.65921
534.54666,0.67378
536.03644,0.71327
537.52623,0.67275
539.01602,0.68660
540.50581,0.70877
541.99560,0.73095
543.48539,0.76749
544.97517,0.66665
546.46496,0.58923
547.95475,0.51182
549.44454,0.60277
550.93433,0.53218
552.42412,0.69109
553.91391,0.72092
555.40369,0.75077
556.89348,0.86594
558.38327,0.82109
559.87306,0.78153
561.36285,0.74198
562.85264,0.73642
564.34242,0.64331
565.83221,0.66797
567.32200,0.54243
568.81179,0.41689
570.30158,0.46424
571.79137,0.53123
573.28115,0.52652
574.77094,0.52182
576.26073,0.38503
577.75052,0.41735
579.24031,0.36815
580.73010,0.34992
582.21989,0.33170
583.70967,0.24933
585.19946,0.25907
586.68925,0.25523
588.17904,0.25141
589.66883,0.24609
591.15862,0.10642
592.64840,0.01809
594.13819,0.00904
595.62798,0.00000
597.11777,0.06579
598.60756,0.13008
600.09735,0.23363
601.58714,0.20736
603.07692,0.18111
604.56671,0.21677
606.05650,0.29773
607.54629,0.36210
609.03608,0.42649
610.52587,0.43955
612.01565,0.37261
613.50544,0.26644
614.99523,0.25161
616.48502,0.23680
617.97481,0.32240
619.46460,0.43821
620.95438,0.38041
622.44417,0.35811
623.93396,0.33581
625.42375,0.40940
626.91354,0.46036
628.40333,0.41999
629.89312,0.37964
631.38290,0.27966
632.87269,0.16913
634.36248,0.22619
635.85227,0.20929
637.34206,0.19240
638.83185,0.19063
640.32163,0.28700
641.81142,0.23694
643.30121,0.23294
644.79100,0.22895
646.28079,0.32236
647.77058,0.39464
649.26037,0.47599
650.75015,0.52943
652.23994,0.58288
653.72973,0.46952
655.21952,0.36523
656.70931,0.26095
658.19910,0.27369
659.68888,0.28645
661.17867,0.13088
662.66846,0.12026
664.15825,0.17155
665.64804,0.16171
667.13783,0.15189
668.62761,0.20021
670.11740,0.12926
671.60719,0.21233
673.09698,0.29541
674.58677,0.34227
676.07656,0.25327
677.56635,0.32431
679.05613,0.28062
680.54592,0.23695
682.03571,0.29143
683.52550,0.21758
685.01529,0.39438
686.50508,0.39001
687.99486,0.38566
689.48465,0.24997
690.97444,0.12940
692.46423,0.26700
693.95402,0.28083
695.44381,0.29466
696.93360,0.28284
698.42338,0.20913
699.91317,0.21093
701.40296,0.20670
702.89275,0.20248
704.38254,0.14393
705.87233,0.10652
707.36211,0.18236
708.85190,0.19707
710.34169,0.21180
711.83148,0.29372
713.32127,0.17485
714.81106,0.15414
716.30084,0.16212
717.79063,0.17011
719.28042,0.09660
720.77021,0.09405
722.26000,0.15191
723.74979,0.13958
725.23958,0.12726
726.72936,0.02512
728.21915,0.00000
729.70894,0.04134
731.19873,0.07816
732.68852,0.09311
734.17831,0.10807
735.66809,0.21438
737.15788,0.32373
738.64767,0.09340
740.13746,0.12653
741.62725,0.15967
743.11704,0.07733
744.60683,0.14598
746.09661,0.18143
747.58640,0.15952
749.07619,0.13763
750.56598,0.26672
752.05577,0.24486
753.54556,0.32416
755.03534,0.32874
756.52513,0.33333
758.01492,0.36436
759.50471,0.52524
760.99450,0.56233
762.48429,0.64171
763.97407,0.72111
765.46386,0.79598
766.95365,0.81200
768.44344,0.81594
769.93323,0.70667
771.42302,0.75744
772.91281,0.80823
774.40259,0.76694
775.89238,0.69396
777.38217,0.55909
778.87196,0.58275
780.36175,0.60643
781.85154,0.63919
783.34132,0.60251
784.83111,0.53564
786.32090,0.56617
787.81069,0.59671
789.30048,0.53895
790.79027,0.48270
792.28006,0.61520
793.76984,0.52728
795.25963,0.52920
796.74942,0.53114
798.23921,0.35871
799.72900,0.26179
801.21879,0.31283
802.70857,0.34653
804.19836,0.38024
805.68815,0.17466
807.17794,0.12612
808.66773,0.09872
810.15752,0.11135
811.64730,0.12399
813.13709,0.23553
814.62688,0.28368
816.11667,0.36053
817.60646,0.27584
819.09625,0.24477
820.58604,0.21370
822.07582,0.34345
823.56561,0.36148
825.05540,0.33725
826.54519,0.35304
828.03498,0.36885
829.52477,0.44280
831.01455,0.44580
832.50434,0.46392
833.99413,0.48657
835.48392,0.58322
836.97371,0.67988
838.46350,0.60595
839.95329,0.57582
841.44307,0.50192
842.93286,0.51107
844.42265,0.55646
845.91244,0.60187
847.40223,0.71977
848.89202,0.79842
850.38180,0.66723
851.87159,0.72552
853.36138,0.78383
854.85117,0.85197
856.34096,1.09978
857.83075,1.08944
859.32053,1.11082
860.81032,1.13145
862.30011,1.15210
863.78990,1.23692
865.27969,1.05604
866.76948,0.94614
868.25927,0.95400
869.74905,0.97849
871.23884,1.00299
872.72863,0.98675
874.21842,0.93428
875.70821,0.91504
877.19800,0.88373
878.68778,0.85169
880.17757,0.81965
881.66736,0.86992
883.15715,0.95945
884.64694,0.91915
886.13673,0.96794
887.62651,1.01675
889.11630,1.02330
890.60609,0.93474
892.09588,0.94131
893.58567,0.92224
895.07546,0.91374
896.56525,0.90526
898.05503,0.81677
899.54482,0.90343
901.03461,0.88442
902.52440,0.87900
904.01419,0.87512
905.50398,0.87124
906.99376,0.79944
908.48355,0.82730
909.97334,0.91557
911.46313,0.86645
912.95292,0.87850
914.44271,0.89056
915.93250,0.79318
917.42228,0.94039
918.91207,0.94267
920.40186,0.97819
921.89165,0.98126
923.38144,0.98434
924.87123,0.91119
926.36101,1.03885
927.85080,1.00650
929.34059,1.04209
930.83038,1.06714
932.32017,1.09219
933.80996,0.98893
935.29974,1.02609
936.78953,0.94550
938.27932,0.84832
939.76911,0.88627
941.25890,0.92424
942.74869,0.96147
944.23848,1.00022
945.72826,0.84271
947.21805,0.94490
948.70784,0.96406
950.19763,0.96965
951.68742,0.97525
953.17721,0.95973
954.66699,0.97744
956.15678,0.88797
957.64657,0.98874
959.13636,1.02762
960.62615,1.06652
962.11594,1.06165
963.60573,1.11718
965.09551,1.01873
966.58530,1.08486
968.07509,1.16836
969.56488,1.25188
971.05467,1.33315
972.54446,1.23627
974.03424,1.23604
975.52403,1.25242
977.01382,1.18881
978.50361,1.13049
979.99340,1.07218
981.48319,1.14448
982.97297,1.32399
984.46276,1.53220
985.95255,1.59095
987.44234,1.59008
988.93213,1.58923
990.42192,1.44571
991.91171,1.49848
993.40149,1.46823
994.89128,1.38363
996.38107,1.54817
997.87086,1.56173
999.36065,1.57532
1000.85044,1.48776
1002.34022,1.56478
1003.83001,1.74900
1005.31980,1.82605
1006.80959,1.84196
1008.29938,1.85789
1009.78917,1.91384
1011.27896,2.00000
1012.76874,1.82951
1014.25853,1.59110
1015.74832,1.48707
1017.23811,1.39664
1018.72790,1.30622
1020.21769,1.09353
1021.70747,0.94124
1023.19726,0.85690
1024.68705,0.84203
1026.17684,0.72752
1027.66663,0.64776
1029.15642,0.56800
1030.64620,0.60904
1032.13599,0.54894
1033.62578,0.57642
1035.11557,0.50880
1036.60536,0.47063
1038.09515,0.43248
1039.58494,0.34678
1041.07472,0.45283
1042.56451,0.50153
1044.05430,0.63328
1045.54409,0.64577
1047.03388,0.68394
1048.52367,0.72212
1050.01345,0.72408
1051.50324,0.84684
1052.99303,0.94696
1054.48282,0.94293
1055.97261,0.94645
1057.46240,0.93489
1058.95219,0.92335
1060.44197,1.09903
1061.93176,1.09053
1063.42155,1.19376
1064.91134,1.19284
1066.40113,1.11795
1067.89092,1.16084
1069.38070,1.20374
1070.87049,1.26477
1072.36028,1.18541
1073.85007,1.22684
1075.33986,1.05088
1076.82965,1.09083
1078.31943,1.08701
1079.80922,1.08320
1081.29901,1.17452
1082.78880,1.12394
1084.27859,1.06280
1085.76838,1.05904
1087.25817,1.00548
1088.74795,0.92778
1090.23774,0.96785
1091.72753,1.00793
1093.21732,1.00575
1094.70711,0.92055
1096.19690,0.92142
1097.68668,0.89362
1099.17647,0.84016
1100.66626,0.83881
1102.15605,0.83747
1103.64584,0.81123
1105.13563,0.84237
1106.62542,0.60480
1108.11520,0.68579
1109.60499,0.68829
1111.09478,0.60022
1112.58457,0.61181
1114.07436,0.62341
1115.56415,0.66823
1117.05393,0.61494
1118.54372,0.55260
1120.03351,0.47669
1121.52330,0.57743
1123.01309,0.58760
1124.50288,0.59779
1125.99266,0.56873
1127.48245,0.50798
1128.97224,0.54689
1130.46203,0.52995
1131.95182,0.43905
1133.44161,0.39195
1134.93140,0.40675
1136.42118,0.42157
1137.91097,0.35186
1139.40076,0.28820
1140.89055,0.20644
1142.38034,0.34964
1143.87013,0.20903
1145.35991,0.29187
1146.84970,0.26149
1148.33949,0.23113
1149.82928,0.13887
1151.31907,0.20365
1152.80886,0.23825
1154.29865,0.21700
1155.78843,0.19878
1157.27822,0.07489
1158.76801,0.10199
1160.25780,0.12911
1161.74759,0.23927
1163.23738,0.17281
1164.72716,0.20449
1166.21695,0.22260
1167.70674,0.24223
1169.19653,0.11694
1170.68632,0.15472
1172.17611,0.19251
1173.66589,0.21069
1175.15568,0.16396
1176.64547,0.26671
1178.13526,0.18679
1179.62505,0.19748
1181.11484,0.13268
1182.60463,0.13056
1184.09441,0.12845
1185.58420,0.20259
1187.07399,0.22089
1188.56378,0.17127
1190.05357,0.15336
1191.54336,0.20189
1193.03314,0.17042
1194.52293,0.19407
1196.01272,0.21773
1197.50251,0.14705
1198.99230,0.17753
1200.48209,0.04498
1201.97188,0.00000
1203.46166,0.06286
1204.95145,0.10611
1206.44124,0.24147
1207.93103,0.26813
1209.42082,0.29482
1210.91061,0.40908
1212.40039,0.34973
1213.89018,0.42476
1215.37997,0.38507
1216.86976,0.36049
1218.35955,0.40234
1219.84934,0.38383
1221.33912,0.36532
1222.82891,0.25021
1224.31870,0.44612
1225.80849,0.41709
1227.29828,0.36240
1228.78807,0.37265
1230.27786,0.45387
1231.76764,0.46113
1233.25743,0.46689
1234.74722,0.47266
1236.23701,0.46335
1237.72680,0.51897
1239.21659,0.58971
1240.70637,0.55628
1242.19616,0.66176
1243.68595,0.64497
1245.17574,0.68405
1246.66553,0.60237
1248.15532,0.52070
1249.64511,0.66701
1251.13489,0.80428
1252.62468,0.76342
1254.11447,0.78899
1255.60426,0.87497
1257.09405,0.81754
1258.58384,0.91562
1260.07362,0.83557
1261.56341,0.75704
1263.05320,0.67852
1264.54299,0.75250
1266.03278,0.73591
1267.52257,0.71782
1269.01235,0.77373
1270.50214,0.75265
1271.99193,0.62288
1273.48172,0.55654
1274.97151,0.58532
1276.46130,0.61412
1277.95109,0.79239
1279.44087,0.77894
1280.93066,0.64473
1282.42045,0.60866
1283.91024,0.57109
1285.40003,0.69962
1286.88982,0.59112
1288.37960,0.56265
1289.86939,0.56213
1291.35918,0.56162
1292.84897,0.54527
1294.33876,0.42929
1295.82855,0.56244
1297.31834,0.43139
1298.80812,0.42415
1300.29791,0.36862
1301.78770,0.43086
1303.27749,0.50066
1304.76728,0.51839
1306.25707,0.53614
1307.74685,0.44896
1309.23664,0.50372
1310.72643,0.56001
1312.21622,0.62687
1313.70601,0.74659
1315.19580,0.62627
1316.68558,0.55730
1318.17537,0.59704
1319.66516,0.59150
1321.15495,0.58598
1322.64474,0.53215
1324.13453,0.51005
1325.62432,0.67970
1327.11410,0.71952
1328.60389,0.68387
1330.09368,0.59690
1331.58347,0.64884
1333.07326,0.64796
1334.56305,0.65010
1336.05283,0.67491
1337.54262,0.69973
1339.03241,0.64605
1340.52220,0.67694
1342.01199,0.61574
1343.50178,0.70101
1344.99156,0.83309
1346.48135,0.79005
1347.97114,0.85724
1349.46093,0.75383
1350.95072,0.78028
1352.44051,0.80524
1353.93030,0.83021
1355.42008,0.79027
1356.90987,0.76544
1358.39966,0.79498
1359.88945,0.71281
1361.37924,0.70161
1362.86903,0.67532
1364.35881,0.71850
1365.84860,0.63940
1367.33839,0.61165
1368.82818,0.50918
1370.31797,0.40672
1371.80776,0.43185
1373.29755,0.38754
1374.78733,0.43233
1376.27712,0.45297
1377.76691,0.40115
1379.25670,0.29198
1380.74649,0.37456
1382.23628,0.29108
1383.72606,0.26046
1385.21585,0.31288
1386.70564,0.33135
1388.19543,0.34984
1389.68522,0.32380
1391.17501,0.33702
1392.66479,0.34120
1394.15458,0.38616
1395.64437,0.39339
1397.13416,0.46857
1398.62395,0.49998
1400.11374,0.38194
1401.60353,0.50396
1403.09331,0.44332
1404.58310,0.45742
1406.07289,0.47154
1407.56268,0.49548
1409.05247,0.47263
1410.54226,0.47547
1412.03204,0.39830
1413.52183,0.48872
1415.01162,0.41309
1416.50141,0.50354
1417.99120,0.50795
1419.48099,0.53049
1420.97078,0.47605
1422.46056,0.53334
1423.95035,0.51893
1425.44014,0.50454
1426.92993,0.44562
1428.41972,0.44106
1429.90951,0.35953
1431.39929,0.40180
1432.88908,0.38823
1434.37887,0.41090
1435.86866,0.39887
1437.35845,0.47894
1438.84824,0.55752
1440.33802,0.55005
1441.82781,0.53656
1443.31760,0.58800
1444.80739,0.59643
1446.29718,0.60487
1447.78697,0.73939
1449.27676,0.84976
1450.76654,0.72161
1452.25633,0.85013
1453.74612,0.82467
1455.23591,0.97133
1456.72570,0.95043
1458.21549,0.89330
1459.70527,0.91923
1461.19506,0.89534
1462.68485,0.94847
1464.17464,1.01369
1465.66443,1.04570
1467.15422,1.07773
1468.64401,1.13091
1470.13379,1.10409
1471.62358,1.06973
1473.11337,1.06860
1474.60316,0.99652
1476.09295,0.97579
1477.58274,0.89770
1479.07252,0.77434
1480.56231,0.66306
1482.05210,0.55482
1483.54189,0.70627
1485.03168,0.60711
1486.52147,0.53061
1488.01125,0.46319
1489.50104,0.39577
1490.99083,0.30271
1492.48062,0.28666
1493.97041,0.22381
1495.46020,0.23798
1496.94999,0.11176
1498.43977,0.12897
1499.92956,0.04354
1501.41935,0.07437
1502.90914,0.12031
1504.39893,0.14966
1505.88872,0.07937
1507.37850,0.07553
1508.86829,0.09737
1510.35808,0.16754
1511.84787,0.07315
1513.33766,0.05880
1514.82745,0.04445
1516.31724,0.07240
1517.80702,0.09130
1519.29681,0.00000
1520.78660,0.10961
1522.27639,0.08789
1523.76618,0.00579
1525.25597,0.08525
1526.74575,0.05602
1528.23554,0.08569
1529.72533,0.07460
1531.21512,0.00616
1532.70491,0.02831
1534.19470,0.08671
1535.68448,0.05153
1537.17427,0.09788
1538.66406,0.08536
1540.15385,0.08796
1541.64364,0.09057
1543.13343,0.04790
1544.62322,0.11998
1546.11300,0.06979
1547.60279,0.06490
1549.09258,0.07513
1550.58237,0.12462
1552.07216,0.10921
1553.56195,0.12853
1555.05173,0.20524
1556.54152,0.18383
1558.03131,0.16696
1559.52110,0.15010
1561.01089,0.15893
1562.50068,0.14059
1563.99047,0.15850
1565.48025,0.10546
1566.97004,0.10226
1568.45983,0.06737
1569.94962,0.07627
1571.43941,0.08519
1572.92920,0.01259
1574.41898,0.05324
1575.90877,0.11353
1577.39856,0.08476
1578.88835,0.05600
1580.37814,0.10274
1581.86793,0.09364
1583.35771,0.13437
1584.84750,0.10113
1586.33729,0.11773
1587.82708,0.09811
1589.31687,0.00000
1590.80666,0.01005
1592.29645,0.09258
1593.78623,0.08302
1595.27602,0.15803
1596.76581,0.11076
1598.25560,0.11785
1599.74539,0.07212
1601.23518,0.07773
1602.72496,0.09845
1604.21475,0.13504
1605.70454,0.17164
1607.19433,0.25129
1608.68412,0.32793
1610.17391,0.22643
1611.66370,0.29252
1613.15348,0.21973
1614.64327,0.29492
1616.13306,0.25084
1617.62285,0.18866
1619.11264,0.14008
1620.60243,0.12624
1622.09221,0.09279
1623.58200,0.17560
1625.07179,0.13614
1626.56158,0.14198
1628.05137,0.28371
1629.54116,0.28052
1631.03094,0.27130
1632.52073,0.13679
1634.01052,0.11854
1635.50031,0.10634
1636.99010,0.13794
1638.47989,0.18315
1639.96968,0.17250
1641.45946,0.17999
1642.94925,0.17843
1644.43904,0.21311
1645.92883,0.19271
1647.41862,0.17232
1648.90841,0.22516
1650.39819,0.24480
1651.88798,0.25238
1653.37777,0.19506
1654.86756,0.23437
1656.35735,0.19519
1657.84714,0.22848
1659.33693,0.40221
1660.82671,0.33287
1662.31650,0.34809
1663.80629,0.27878
1665.29608,0.35744
1666.78587,0.34854
1668.27566,0.31249
1669.76544,0.44705
1671.25523,0.39441
1672.74502,0.36595
1674.23481,0.43563
1675.72460,0.46607
1677.21439,0.46784
1678.70417,0.49378
1680.19396,0.43216
1681.68375,0.47927
1683.17354,0.45542
1684.66333,0.40593
1686.15312,0.39570
1687.64291,0.35378
1689.13269,0.43567
1690.62248,0.38774
1692.11227,0.34284
1693.60206,0.43082
1695.09185,0.37689
1696.58164,0.27164
1698.07142,0.34002
1699.56121,0.29821
1701.05100,0.20961
1702.54079,0.22520
1704.03058,0.26344
1705.52037,0.22319
1707.01016,0.19428
1708.49994,0.16538
1709.98973,0.11310
1711.47952,0.05328
1712.96931,0.08254
1714.45910,0.14353
1715.94889,0.11244
1717.43867,0.15382
1718.92846,0.11520
1720.41825,0.07660
1721.90804,0.04405
1723.39783,0.07643
1724.88762,0.03938
1726.37740,0.08537
1727.86719,0.14497
1729.35698,0.13815
1730.84677,0.00000
1732.33656,0.03079
1733.82635,0.01479
1735.31614,0.07580
1736.80592,0.13682
1738.29571,0.11784
1739.78550,0.00527
1741.27529,0.10861
1742.76508,0.05947
1744.25487,0.14170
1745.74465,0.08505
1747.23444,0.06917
1748.72423,0.11973
1750.21402,0.10841
1751.70381,0.05181
1753.19360,0.07372
1754.68339,0.06697
1756.17317,0.01645
1757.66296,0.07011
1759.15275,0.15700
1760.64254,0.13974
1762.13233,0.11040
1763.62212,0.03277
1765.11190,0.04574
1766.60169,0.04060
1768.09148,0.12758
1769.58127,0.21154
1771.07106,0.17927
1772.56085,0.14550
1774.05063,0.11477
1775.54042,0.12783
1777.03021,0.07901
1778.52000,0.00000
