1778.52000,0.00291
1777.03021,0.00000
1775.54042,0.00413
1774.05063,0.00915
1772.56085,0.00806
1771.07106,0.00393
1769.58127,0.00881
1768.09148,0.00735
1766.60169,0.00329
1765.11190,0.00846
1763.62212,0.00620
1762.13233,0.00593
1760.64254,0.00876
1759.15275,0.00701
1757.66296,0.01602
1756.17317,0.01081
1754.68339,0.00803
1753.19360,0.01383
1751.70381,0.01175
1750.21402,0.01650
1748.72423,0.00505
1747.23444,0.01138
1745.74465,0.01050
1744.25487,0.00701
1742.76508,0.01536
1741.27529,0.01103
1739.78550,0.01241
1738.29571,0.01097
1736.80592,0.01570
1735.31614,0.01211
1733.82635,0.01491
1732.33656,0.00524
1730.84677,0.01159
1729.35698,0.00525
1727.86719,0.01230
1726.37740,0.00820
1724.88762,0.01377
1723.39783,0.00797
1721.90804,0.00920
1720.41825,0.01002
1718.92846,0.01700
1717.43867,0.01238
1715.94889,0.01371
1714.45910,0.01199
1712.96931,0.00701
1711.47952,0.01908
1709.98973,0.01146
1708.49994,0.00955
1707.01016,0.00778
1705.52037,0.00603
1704.03058,0.01441
1702.54079,0.01623
1701.05100,0.00931
1699.56121,0.01074
1698.07142,0.01789
1696.58164,0.01433
1695.09185,0.02153
1693.60206,0.01122
1692.11227,0.01847
1690.62248,0.01215
1689.13269,0.01112
1687.64291,0.01339
1686.15312,0.01526
1684.66333,0.02197
1683.17354,0.02936
1681.68375,0.02362
1680.19396,0.02273
1678.70417,0.02120
1677.21439,0.04030
1675.72460,0.03510
1674.23481,0.03956
1672.74502,0.04383
1671.25523,0.04768
1669.76544,0.04893
1668.27566,0.05590
1666.78587,0.05544
1665.29608,0.05500
1663.80629,0.06160
1662.31650,0.06910
1660.82671,0.07641
1659.33693,0.08023
1657.84714,0.07005
1656.35735,0.07589
1654.86756,0.06817
1653.37777,0.06748
1651.88798,0.07888
1650.39819,0.07999
1648.90841,0.08552
1647.41862,0.07791
1645.92883,0.07800
1644.43904,0.07811
1642.94925,0.09140
1641.45946,0.10121
1639.96968,0.09854
1638.47989,0.09831
1636.99010,0.09526
1635.50031,0.09946
1634.01052,0.09360
1632.52073,0.08908
1631.03094,0.09752
1629.54116,0.09721
1628.05137,0.08246
1626.56158,0.10193
1625.07179,0.10761
1623.58200,0.10169
1622.09221,0.08967
1620.60243,0.09454
1619.11264,0.10712
1617.62285,0.10634
1616.13306,0.11063
1614.64327,0.09916
1613.15348,0.09604
1611.66370,0.10479
1610.17391,0.09733
1608.68412,0.10678
1607.19433,0.10792
1605.70454,0.11106
1604.21475,0.10327
1602.72496,0.09549
1601.23518,0.09147
1599.74539,0.09602
1598.25560,0.08766
1596.76581,0.09686
1595.27602,0.08767
1593.78623,0.08859
1592.29645,0.09742
1590.80666,0.09531
1589.31687,0.08666
1587.82708,0.08833
1586.33729,0.07117
1584.84750,0.08253
1583.35771,0.07813
1581.86793,0.06850
1580.37814,0.07993
1578.88835,0.07166
1577.39856,0.07371
1575.90877,0.07908
1574.41898,0.07022
1572.92920,0.06073
1571.43941,0.04534
1569.94962,0.04554
1568.45983,0.04576
1566.97004,0.02979
1565.48025,0.03707
1563.99047,0.03934
1562.50068,0.03681
1561.01089,0.03781
1559.52110,0.03532
1558.03131,0.03571
1556.54152,0.02670
1555.05173,0.04248
1553.56195,0.03285
1552.07216,0.02501
1550.58237,0.01872
1549.09258,0.01333
1547.60279,0.02046
1546.11300,0.00701
1544.62322,0.01753
1543.13343,0.00834
1541.64364,0.01012
1540.15385,0.01258
1538.66406,0.01506
1537.17427,0.02042
1535.68448,0.01243
1534.19470,0.02156
1532.70491,0.00660
1531.21512,0.00701
1529.72533,0.01158
1528.23554,0.01551
1526.74575,0.03328
1525.25597,0.02367
1523.76618,0.03316
1522.27639,0.03434
1520.78660,0.04168
1519.29681,0.02339
1517.80702,0.03188
1516.31724,0.03819
1514.82745,0.03927
1513.33766,0.04333
1511.84787,0.04742
1510.35808,0.04484
1508.86829,0.04185
1507.37850,0.04327
1505.88872,0.02432
1504.39893,0.04310
1502.90914,0.05642
1501.41935,0.06517
1499.92956,0.05991
1498.43977,0.07812
1496.94999,0.06414
1495.46020,0.07495
1493.97041,0.08601
1492.48062,0.09709
1490.99083,0.09591
1489.50104,0.11668
1488.01125,0.12279
1486.52147,0.12892
1485.03168,0.15349
1483.54189,0.18816
1482.05210,0.20291
1480.56231,0.22909
1479.07252,0.24783
1477.58274,0.26243
1476.09295,0.26128
1474.60316,0.26431
1473.11337,0.26407
1471.62358,0.27746
1470.13379,0.27793
1468.64401,0.27974
1467.15422,0.31248
1465.66443,0.32903
1464.17464,0.34560
1462.68485,0.35649
1461.19506,0.39196
1459.70527,0.42789
1458.21549,0.48422
1456.72570,0.57544
1455.23591,0.62371
1453.74612,0.67925
1452.25633,0.72275
1450.76654,0.74062
1449.27676,0.70723
1447.78697,0.70565
1446.29718,0.68173
1444.80739,0.66364
1443.31760,0.64558
1441.82781,0.60924
1440.33802,0.57621
1438.84824,0.54627
1437.35845,0.50802
1435.86866,0.50487
1434.37887,0.50460
1432.88908,0.56441
1431.39929,0.59180
1429.90951,0.66174
1428.41972,0.75713
1426.92993,0.83588
1425.44014,0.90590
1423.95035,0.90907
1422.46056,0.91227
1420.97078,0.97578
1419.48099,0.94856
1417.99120,0.94526
1416.50141,0.96083
1415.01162,0.95538
1413.52183,0.88156
1412.03204,0.81588
1410.54226,0.75834
1409.05247,0.69643
1407.56268,0.62490
1406.07289,0.58956
1404.58310,0.55874
1403.09331,0.52795
1401.60353,0.46287
1400.11374,0.41448
1398.62395,0.38518
1397.13416,0.32170
1395.64437,0.27601
1394.15458,0.24832
1392.66479,0.19412
1391.17501,0.15858
1389.68522,0.13534
1388.19543,0.11015
1386.70564,0.10209
1385.21585,0.09404
1383.72606,0.07287
1382.23628,0.05303
1380.74649,0.03936
1379.25670,0.02769
1377.76691,0.01494
1376.27712,0.00638
1374.78733,0.01384
1373.29755,0.01256
1371.80776,0.01394
1370.31797,0.00701
1368.82818,0.01076
1367.33839,0.01453
1365.84860,0.00924
1364.35881,0.01974
1362.86903,0.02896
1361.37924,0.05026
1359.88945,0.07728
1358.39966,0.09226
1356.90987,0.14629
1355.42008,0.18609
1353.93030,0.23513
1352.44051,0.27279
1350.95072,0.31047
1349.46093,0.35826
1347.97114,0.42054
1346.48135,0.49446
1344.99156,0.58243
1343.50178,0.67306
1342.01199,0.73631
1340.52220,0.76276
1339.03241,0.82759
1337.54262,0.85913
1336.05283,0.88324
1334.56305,0.90737
1333.07326,0.91794
1331.58347,0.93708
1330.09368,0.92468
1328.60389,0.94079
1327.11410,0.89490
1325.62432,0.85758
1324.13453,0.82225
1322.64474,0.80252
1321.15495,0.75518
1319.66516,0.73429
1318.17537,0.71342
1316.68558,0.67120
1315.19580,0.62966
1313.70601,0.58529
1312.21622,0.55235
1310.72643,0.52381
1309.23664,0.45365
1307.74685,0.43678
1306.25707,0.40590
1304.76728,0.39741
1303.27749,0.38894
1301.78770,0.33139
1300.29791,0.28812
1298.80812,0.24793
1297.31834,0.20076
1295.82855,0.16369
1294.33876,0.13542
1292.84897,0.12010
1291.35918,0.12015
1289.86939,0.11573
1288.37960,0.11133
1286.88982,0.10312
1285.40003,0.08178
1283.91024,0.07296
1282.42045,0.07687
1280.93066,0.05298
1279.44087,0.05913
1277.95109,0.06290
1276.46130,0.05486
1274.97151,0.05264
1273.48172,0.05046
1271.99193,0.04709
1270.50214,0.04637
1269.01235,0.04239
1267.52257,0.03514
1266.03278,0.03428
1264.54299,0.03519
1263.05320,0.03613
1261.56341,0.03051
1260.07362,0.02492
1258.58384,0.01277
1257.09405,0.00701
1255.60426,0.00904
1254.11447,0.01198
1252.62468,0.01691
1251.13489,0.01309
1249.64511,0.00996
1248.15532,0.02198
1246.66553,0.02547
1245.17574,0.02898
1243.68595,0.02222
1242.19616,0.02008
1240.70637,0.00701
1239.21659,0.01700
1237.72680,0.01583
1236.23701,0.02389
1234.74722,0.02847
1233.25743,0.02245
1231.76764,0.01644
1230.27786,0.02723
1228.78807,0.02401
1227.29828,0.02608
1225.80849,0.02269
1224.31870,0.01209
1222.82891,0.01160
1221.33912,0.02100
1219.84934,0.02461
1218.35955,0.02824
1216.86976,0.03552
1215.37997,0.04764
1213.89018,0.06154
1212.40039,0.08203
1210.91061,0.07800
1209.42082,0.08649
1207.93103,0.08120
1206.44124,0.07592
1204.95145,0.08492
1203.46166,0.07334
1201.97188,0.07471
1200.48209,0.05989
1198.99230,0.07271
1197.50251,0.07415
1196.01272,0.06685
1194.52293,0.05585
1193.03314,0.04487
1191.54336,0.03041
1190.05357,0.00939
1188.56378,0.01755
1187.07399,0.01018
1185.58420,0.01839
1184.09441,0.02333
1182.60463,0.02019
1181.11484,0.01707
1179.62505,0.01639
1178.13526,0.01967
1176.64547,0.01378
1175.15568,0.02851
1173.66589,0.01652
1172.17611,0.01355
1170.68632,0.01026
1169.19653,0.00701
1167.70674,0.02370
1166.21695,0.02156
1164.72716,0.03062
1163.23738,0.04081
1161.74759,0.05079
1160.25780,0.06914
1158.76801,0.07566
1157.27822,0.08222
1155.78843,0.08857
1154.29865,0.09298
1152.80886,0.08798
1151.31907,0.09989
1149.82928,0.12607
1148.33949,0.12816
1146.84970,0.13060
1145.35991,0.13307
1143.87013,0.13194
1142.38034,0.15298
1140.89055,0.16527
1139.40076,0.18811
1137.91097,0.19343
1136.42118,0.20273
1134.93140,0.21117
1133.44161,0.21963
1131.95182,0.22264
1130.46203,0.23335
1128.97224,0.24912
1127.48245,0.24365
1125.99266,0.25530
1124.50288,0.23343
1123.01309,0.23615
1121.52330,0.23888
1120.03351,0.22301
1118.54372,0.24311
1117.05393,0.24328
1115.56415,0.22814
1114.07436,0.24414
1112.58457,0.24297
1111.09478,0.24181
1109.60499,0.23553
1108.11520,0.24440
1106.62542,0.21273
1105.13563,0.23436
1103.64584,0.23322
1102.15605,0.22552
1100.66626,0.22266
1099.17647,0.21984
1097.68668,0.21593
1096.19690,0.21359
1094.70711,0.22048
1093.21732,0.20130
1091.72753,0.19794
1090.23774,0.19481
1088.74795,0.19171
1087.25817,0.17592
1085.76838,0.19237
1084.27859,0.19833
1082.78880,0.21834
1081.29901,0.22259
1079.80922,0.20933
1078.31943,0.21658
1076.82965,0.22386
1075.33986,0.23654
1073.85007,0.22753
1072.36028,0.24179
1070.87049,0.25213
1069.38070,0.27257
1067.89092,0.29643
1066.40113,0.32031
1064.91134,0.38335
1063.42155,0.44882
1061.93176,0.57942
1060.44197,0.64077
1058.95219,0.74994
1057.46240,0.81057
1055.97261,0.87123
1054.48282,0.96600
1052.99303,1.08884
1051.50324,1.08918
1050.01345,1.05930
1048.52367,1.02461
1047.03388,1.00836
1045.54409,0.99214
1044.05430,0.96344
1042.56451,0.86046
1041.07472,0.79498
1039.58494,0.72624
1038.09515,0.62859
1036.60536,0.59464
1035.11557,0.56072
1033.62578,0.49383
1032.13599,0.43222
1030.64620,0.36581
1029.15642,0.30360
1027.66663,0.27834
1026.17684,0.25310
1024.68705,0.23918
1023.19726,0.22200
1021.70747,0.18883
1020.21769,0.16029
1018.72790,0.15392
1017.23811,0.14571
1015.74832,0.13751
1014.25853,0.10776
1012.76874,0.10893
1011.27896,0.09675
1009.78917,0.08921
1008.29938,0.06809
1006.80959,0.06125
1005.31980,0.05443
1003.83001,0.04062
1002.34022,0.04086
1000.85044,0.05165
999.36065,0.05150
997.87086,0.05652
996.38107,0.06157
994.89128,0.08298
993.40149,0.11032
991.91171,0.11336
990.42192,0.11730
988.93213,0.12981
987.44234,0.13599
985.95255,0.14219
984.46276,0.14885
982.97297,0.13493
981.48319,0.14428
979.99340,0.12471
978.50361,0.10845
977.01382,0.09221
975.52403,0.05912
974.03424,0.05061
972.54446,0.03971
971.05467,0.02050
969.56488,0.01337
968.07509,0.01634
966.58530,0.01935
965.09551,0.01382
963.60573,0.00701
962.11594,0.01150
960.62615,0.03027
959.13636,0.02341
957.64657,0.01658
956.15678,0.02292
954.66699,0.01833
953.17721,0.02406
951.68742,0.04231
950.19763,0.04393
948.70784,0.04556
947.21805,0.05687
945.72826,0.07412
944.23848,0.09380
942.74869,0.10847
941.25890,0.12250
939.76911,0.13130
938.27932,0.14011
936.78953,0.13975
935.29974,0.16484
933.80996,0.18447
932.32017,0.18702
930.83038,0.19114
929.34059,0.19527
927.85080,0.20908
926.36101,0.24571
924.87123,0.28236
923.38144,0.34490
921.89165,0.37842
920.40186,0.41196
918.91207,0.50920
917.42228,0.61787
915.93250,0.74826
914.44271,0.96964
912.95292,1.07926
911.46313,1.18890
909.97334,1.41429
908.48355,1.62350
906.99376,1.80971
905.50398,1.89861
904.01419,1.94929
902.52440,2.00000
901.03461,1.96951
899.54482,1.91100
898.05503,1.80713
896.56525,1.62700
895.07546,1.52317
893.58567,1.41938
892.09588,1.14287
890.60609,0.86200
889.11630,0.65218
887.62651,0.46584
886.13673,0.40381
884.64694,0.34180
883.15715,0.25855
881.66736,0.18891
880.17757,0.14166
878.68778,0.12644
877.19800,0.11124
875.70821,0.09058
874.21842,0.06424
872.72863,0.04363
871.23884,0.05439
869.74905,0.04830
868.25927,0.04222
866.76948,0.03201
865.27969,0.02730
863.78990,0.04432
862.30011,0.05237
860.81032,0.05430
859.32053,0.05626
857.83075,0.08850
856.34096,0.10980
854.85117,0.10876
853.36138,0.12353
851.87159,0.13865
850.38180,0.15379
848.89202,0.18069
847.40223,0.19840
845.91244,0.21175
844.42265,0.22425
842.93286,0.23678
841.44307,0.24253
839.95329,0.28097
838.46350,0.28589
836.97371,0.29938
835.48392,0.29898
833.99413,0.29860
832.50434,0.30976
831.01455,0.28214
829.52477,0.27405
828.03498,0.23990
826.54519,0.22791
825.05540,0.21595
823.56561,0.19765
822.07582,0.17543
820.58604,0.17056
819.09625,0.15606
817.60646,0.14158
816.11667,0.14949
814.62688,0.15260
813.13709,0.15770
811.64730,0.16064
810.15752,0.15878
808.66773,0.15694
807.17794,0.15797
805.68815,0.18424
804.19836,0.19014
802.70857,0.18796
801.21879,0.18580
799.72900,0.16832
798.23921,0.14977
796.74942,0.13803
795.25963,0.14277
793.76984,0.14752
792.28006,0.17203
790.79027,0.17091
789.30048,0.19086
787.81069,0.22881
786.32090,0.25067
784.83111,0.27255
783.34132,0.30750
781.85154,0.34116
780.36175,0.38010
778.87196,0.40110
777.38217,0.42211
775.89238,0.45323
774.40259,0.46005
772.91281,0.43686
771.42302,0.42037
769.93323,0.40392
768.44344,0.36282
766.95365,0.31167
765.46386,0.27193
763.97407,0.22368
762.48429,0.20744
760.99450,0.19124
759.50471,0.17571
758.01492,0.15714
756.52513,0.12478
755.03534,0.11788
753.54556,0.11099
752.05577,0.08725
750.56598,0.09511
749.07619,0.06309
747.58640,0.06189
746.09661,0.06071
744.60683,0.04893
743.11704,0.04353
741.62725,0.02083
740.13746,0.02085
738.64767,0.02089
737.15788,0.02062
735.66809,0.02871
734.17831,0.00701
732.68852,0.01275
731.19873,0.01851
729.70894,0.00621
728.21915,0.02039
726.72936,0.01727
725.23958,0.01243
723.74979,0.01122
722.26000,0.01004
720.77021,0.02762
719.28042,0.01915
717.79063,0.01223
716.30084,0.00960
714.81106,0.00701
713.32127,0.01513
711.83148,0.01998
710.34169,0.02464
708.85190,0.02450
707.36211,0.02439
705.87233,0.02079
704.38254,0.03387
702.89275,0.04413
701.40296,0.04378
699.91317,0.04346
698.42338,0.05444
696.93360,0.07817
695.44381,0.08942
693.95402,0.09347
692.46423,0.09753
690.97444,0.10776
689.48465,0.12547
687.99486,0.16489
686.50508,0.17476
685.01529,0.18464
683.52550,0.19652
682.03571,0.23078
680.54592,0.23635
679.05613,0.23844
677.56635,0.24055
676.07656,0.22252
674.58677,0.23739
673.09698,0.22445
671.60719,0.21098
670.11740,0.19754
668.62761,0.16713
667.13783,0.16042
665.64804,0.14289
664.15825,0.12537
662.66846,0.10755
661.17867,0.08800
659.68888,0.07790
658.19910,0.06092
656.70931,0.04397
655.21952,0.04051
653.72973,0.02810
652.23994,0.03236
650.75015,0.03501
649.26037,0.03768
647.77058,0.04443
646.28079,0.05515
644.79100,0.02797
643.30121,0.03117
641.81142,0.03440
640.32163,0.02263
638.83185,0.03961
637.34206,0.02263
635.85227,0.02014
634.36248,0.01768
632.87269,0.01633
631.38290,0.02224
629.89312,0.02160
628.40333,0.02603
626.91354,0.03048
625.42375,0.01610
623.93396,0.00701
622.44417,0.01569
620.95438,0.02440
619.46460,0.04706
617.97481,0.06710
616.48502,0.08783
614.99523,0.08940
613.50544,0.09100
612.01565,0.13371
610.52587,0.15651
609.03608,0.20782
607.54629,0.21346
606.05650,0.21912
604.56671,0.24946
603.07692,0.32454
601.58714,0.36107
600.09735,0.39762
598.60756,0.43222
597.11777,0.44076
595.62798,0.43661
594.13819,0.42952
592.64840,0.42246
591.15862,0.40107
589.66883,0.34616
588.17904,0.28163
586.68925,0.24803
585.19946,0.21445
583.70967,0.15152
582.21989,0.14671
580.73010,0.12942
579.24031,0.11216
577.75052,0.09821
576.26073,0.07705
574.77094,0.06666
573.28115,0.06560
571.79137,0.06457
570.30158,0.06652
568.81179,0.07332
567.32200,0.08299
565.83221,0.09269
564.34242,0.12016
562.85264,0.13407
561.36285,0.16356
559.87306,0.18321
558.38327,0.20289
556.89348,0.19628
555.40369,0.18948
553.91391,0.19542
552.42412,0.20138
550.93433,0.21241
549.44454,0.23573
547.95475,0.24199
546.46496,0.24848
544.97517,0.25500
543.48539,0.24006
541.99560,0.27052
540.50581,0.28390
539.01602,0.29731
537.52623,0.35830
536.03644,0.39653
534.54666,0.42294
533.05687,0.44258
531.56708,0.46224
530.07729,0.49442
528.58750,0.55381
527.09771,0.59481
525.60792,0.63583
524.11814,0.67709
522.62835,0.70369
521.13856,0.76166
519.64877,0.79905
518.15898,0.83646
516.66919,0.85811
515.17941,0.82499
513.68962,0.83486
512.19983,0.84474
510.71004,0.85794
509.22025,0.78677
507.73046,0.75201
506.24068,0.70391
504.75089,0.65582
503.26110,0.52863
501.77131,0.40344
500.28152,0.35105
498.79173,0.29867
497.30194,0.25904
495.81216,0.20759
494.32237,0.17589
492.83258,0.14422
491.34279,0.09131
489.85300,0.09695
488.36321,0.09713
486.87343,0.09679
485.38364,0.09647
483.89385,0.08642
482.40406,0.11519
480.91427,0.11769
479.42448,0.12020
477.93469,0.15738
476.44491,0.18296
474.95512,0.18763
473.46533,0.19232
471.97554,0.20043
470.48575,0.22260
468.99596,0.22309
467.50618,0.21505
466.01639,0.20704
464.52660,0.15434
463.03681,0.10516
461.54702,0.09459
460.05723,0.08404
458.56745,0.05006
457.07766,0.03145
455.58787,0.03314
454.09808,0.03485
452.60829,0.03210
451.11850,0.01468
449.62871,0.01383
448.13893,0.01301
446.64914,0.01473
445.15935,0.02129
443.66956,0.01495
442.17977,0.01422
440.68998,0.01352
439.20020,0.02018
437.71041,0.01941
436.22062,0.01911
434.73083,0.01882
433.24104,0.01615
431.75125,0.03017
430.26146,0.02086
428.77168,0.01158
427.28189,0.01689
425.79210,0.04130
424.30231,0.03439
422.81252,0.02750
421.32273,0.02743
419.83295,0.02432
418.34316,0.02474
416.85337,0.02518
415.36358,0.00701
413.87379,0.02756
412.38400,0.02347
410.89422,0.01941
409.40443,0.02249
407.91464,0.02911
406.42485,0.02764
404.93506,0.01622
403.44527,0.00482
401.95548,0.01263
400.46570,0.02353
398.97591,0.02744
397.48612,0.03137
395.99633,0.01077
394.50654,0.01716
393.01675,0.01306
391.52697,0.00897
390.03718,0.00732
388.54739,0.01417
387.05760,0.00954
385.56781,0.00493
384.07802,0.00582
382.58824,0.00562
381.09845,0.00381
379.60866,0.00202
378.11887,0.01935
376.62908,0.02553
375.13929,0.01430
373.64950,0.00310
372.15972,0.01746
370.66993,0.01343
369.18014,0.01401
367.69035,0.01462
366.20056,0.04145
364.71077,0.04989
363.22099,0.05112
361.73120,0.05237
360.24141,0.01880
358.75162,0.05824
357.26183,0.05408
355.77204,0.04995
354.28225,0.04321
352.79247,0.05776
351.30268,0.06005
349.81289,0.06237
348.32310,0.07063
346.83331,0.03858
345.34352,0.04097
343.85374,0.04339
342.36395,0.03749
340.87416,0.04587
339.38437,0.04332
337.89458,0.04078
336.40479,0.04989
334.91501,0.03381
333.42522,0.03157
331.93543,0.02935
330.44564,0.01334
328.95585,0.00701
327.46606,0.01242
325.97627,0.01785
324.48649,0.04859
322.99670,0.05261
321.50691,0.04449
320.01712,0.03639
318.52733,0.07840
317.03754,0.07791
315.54776,0.07788
314.05797,0.07787
312.56818,0.06913
311.07839,0.08517
309.58860,0.07241
308.09881,0.05968
306.60902,0.05541
305.11924,0.04262
303.62945,0.04310
302.13966,0.04362
300.64987,0.00744
299.16008,0.00701
