1778.52000,0.02434
1777.03021,0.01854
1775.54042,0.02241
1774.05063,0.02765
1772.56085,0.02282
1771.07106,0.01532
1769.58127,0.02131
1768.09148,0.01296
1766.60169,0.01204
1765.11190,0.03021
1763.62212,0.01835
1762.13233,0.01526
1760.64254,0.00457
1759.15275,0.01274
1757.66296,0.01287
1756.17317,0.01167
1754.68339,0.01341
1753.19360,0.01585
1751.70381,0.01113
1750.21402,0.00510
1748.72423,0.00896
1747.23444,0.02248
1745.74465,0.01584
1744.25487,0.01372
1742.76508,0.00780
1741.27529,0.01066
1739.78550,0.00592
1738.29571,0.01241
1736.80592,0.00457
1735.31614,0.00972
1733.82635,0.00749
1732.33656,0.00707
1730.84677,0.01386
1729.35698,0.01058
1727.86719,0.00889
1726.37740,0.01239
1724.88762,0.01412
1723.39783,0.01721
1721.90804,0.01786
1720.41825,0.01764
1718.92846,0.01184
1717.43867,0.01548
1715.94889,0.00457
1714.45910,0.00709
1712.96931,0.01322
1711.47952,0.01759
1709.98973,0.01345
1708.49994,0.00687
1707.01016,0.00705
1705.52037,0.00724
1704.03058,0.01285
1702.54079,0.00457
1701.05100,0.02295
1699.56121,0.00973
1698.07142,0.00998
1696.58164,0.01655
1695.09185,0.02268
1693.60206,0.02660
1692.11227,0.01103
1690.62248,0.01994
1689.13269,0.02370
1687.64291,0.01157
1686.15312,0.02839
1684.66333,0.03582
1683.17354,0.03610
1681.68375,0.03662
1680.19396,0.04390
1678.70417,0.04178
1677.21439,0.04193
1675.72460,0.04053
1674.23481,0.05934
1672.74502,0.04252
1671.25523,0.04882
1669.76544,0.06703
1668.27566,0.06643
1666.78587,0.06428
1665.29608,0.07494
1663.80629,0.07216
1662.31650,0.08287
1660.82671,0.08127
1659.33693,0.08574
1657.84714,0.07768
1656.35735,0.06225
1654.86756,0.07734
1653.37777,0.08752
1651.88798,0.08785
1650.39819,0.09404
1648.90841,0.08949
1647.41862,0.07869
1645.92883,0.08181
1644.43904,0.08496
1642.94925,0.08185
1641.45946,0.09043
1639.96968,0.08154
1638.47989,0.09264
1636.99010,0.08626
1635.50031,0.06758
1634.01052,0.07785
1632.52073,0.07379
1631.03094,0.07760
1629.54116,0.07987
1628.05137,0.09540
1626.56158,0.09906
1625.07179,0.09467
1623.58200,0.11700
1622.09221,0.09786
1620.60243,0.09332
1619.11264,0.10966
1617.62285,0.10764
1616.13306,0.09577
1614.64327,0.08057
1613.15348,0.09902
1611.66370,0.08566
1610.17391,0.09722
1608.68412,0.08592
1607.19433,0.09595
1605.70454,0.09412
1604.21475,0.09994
1602.72496,0.10579
1601.23518,0.09147
1599.74539,0.08929
1598.25560,0.09633
1596.76581,0.08410
1595.27602,0.08581
1593.78623,0.08417
1592.29645,0.08570
1590.80666,0.06707
1589.31687,0.07717
1587.82708,0.07025
1586.33729,0.06941
1584.84750,0.07083
1583.35771,0.09045
1581.86793,0.06994
1580.37814,0.08669
1578.88835,0.07745
1577.39856,0.07406
1575.90877,0.05881
1574.41898,0.04426
1572.92920,0.05731
1571.43941,0.04954
1569.94962,0.04851
1568.45983,0.04752
1566.97004,0.03510
1565.48025,0.04357
1563.99047,0.03681
1562.50068,0.03882
1561.01089,0.05589
1559.52110,0.05862
1558.03131,0.05106
1556.54152,0.03837
1555.05173,0.02615
1553.56195,0.03907
1552.07216,0.03004
1550.58237,0.02642
1549.09258,0.00308
1547.60279,0.01072
1546.11300,0.00762
1544.62322,0.02225
1543.13343,0.01830
1541.64364,0.00675
1540.15385,0.00565
1538.66406,0.00457
1537.17427,0.01745
1535.68448,0.01285
1534.19470,0.02129
1532.70491,0.02392
1531.21512,0.00908
1529.72533,0.01423
1528.23554,0.02299
1526.74575,0.03065
1525.25597,0.02690
1523.76618,0.03102
1522.27639,0.02463
1520.78660,0.02992
1519.29681,0.03658
1517.80702,0.03586
1516.31724,0.04257
1514.82745,0.04661
1513.33766,0.05147
1511.84787,0.05634
1510.35808,0.03422
1508.86829,0.03343
1507.37850,0.04947
1505.88872,0.04223
1504.39893,0.05698
1502.90914,0.06390
1501.41935,0.06503
1499.92956,0.07492
1498.43977,0.07048
1496.94999,0.05530
1495.46020,0.04822
1493.97041,0.07884
1492.48062,0.09693
1490.99083,0.09620
1489.50104,0.11097
1488.01125,0.11758
1486.52147,0.12421
1485.03168,0.14287
1483.54189,0.16356
1482.05210,0.17307
1480.56231,0.17565
1479.07252,0.19553
1477.58274,0.21722
1476.09295,0.20911
1474.60316,0.22434
1473.11337,0.21606
1471.62358,0.22820
1470.13379,0.22109
1468.64401,0.23530
1467.15422,0.26344
1465.66443,0.27534
1464.17464,0.28727
1462.68485,0.31526
1461.19506,0.35965
1459.70527,0.39082
1458.21549,0.44826
1456.72570,0.51290
1455.23591,0.56635
1453.74612,0.57767
1452.25633,0.60067
1450.76654,0.63872
1449.27676,0.65100
1447.78697,0.63483
1446.29718,0.62002
1444.80739,0.59908
1443.31760,0.57816
1441.82781,0.56971
1440.33802,0.53437
1438.84824,0.48336
1437.35845,0.45838
1435.86866,0.45474
1434.37887,0.44708
1432.88908,0.48856
1431.39929,0.52984
1429.90951,0.58056
1428.41972,0.71899
1426.92993,0.74084
1425.44014,0.78603
1423.95035,0.79188
1422.46056,0.79776
1420.97078,0.82800
1419.48099,0.86902
1417.99120,0.86051
1416.50141,0.86772
1415.01162,0.82517
1413.52183,0.77973
1412.03204,0.71659
1410.54226,0.66783
1409.05247,0.64153
1407.56268,0.61008
1406.07289,0.55938
1404.58310,0.53617
1403.09331,0.51299
1401.60353,0.43702
1400.11374,0.39404
1398.62395,0.34727
1397.13416,0.30658
1395.64437,0.23989
1394.15458,0.20934
1392.66479,0.17344
1391.17501,0.14226
1389.68522,0.11604
1388.19543,0.09927
1386.70564,0.09037
1385.21585,0.08149
1383.72606,0.05672
1382.23628,0.03174
1380.74649,0.03011
1379.25670,0.02851
1377.76691,0.01953
1376.27712,0.00273
1374.78733,0.00640
1373.29755,0.00988
1371.80776,0.00979
1370.31797,0.00457
1368.82818,0.00840
1367.33839,0.01224
1365.84860,0.00569
1364.35881,0.00857
1362.86903,0.03974
1361.37924,0.04739
1359.88945,0.05707
1358.39966,0.09280
1356.90987,0.11061
1355.42008,0.15759
1353.93030,0.20550
1352.44051,0.23135
1350.95072,0.25721
1349.46093,0.33345
1347.97114,0.38616
1346.48135,0.45505
1344.99156,0.50534
1343.50178,0.60680
1342.01199,0.61789
1340.52220,0.67746
1339.03241,0.72673
1337.54262,0.75248
1336.05283,0.76917
1334.56305,0.78588
1333.07326,0.82179
1331.58347,0.86513
1330.09368,0.86678
1328.60389,0.85119
1327.11410,0.81499
1325.62432,0.80325
1324.13453,0.78078
1322.64474,0.74689
1321.15495,0.71303
1319.66516,0.68143
1318.17537,0.64986
1316.68558,0.60172
1315.19580,0.55158
1313.70601,0.51717
1312.21622,0.49153
1310.72643,0.43967
1309.23664,0.41968
1307.74685,0.40420
1306.25707,0.37462
1304.76728,0.35773
1303.27749,0.34086
1301.78770,0.28713
1300.29791,0.23275
1298.80812,0.19095
1297.31834,0.16847
1295.82855,0.14511
1294.33876,0.12940
1292.84897,0.10272
1291.35918,0.09200
1289.86939,0.09037
1288.37960,0.08878
1286.88982,0.07094
1285.40003,0.04775
1283.91024,0.06361
1282.42045,0.04630
1280.93066,0.03619
1279.44087,0.05212
1277.95109,0.04071
1276.46130,0.03695
1274.97151,0.03355
1273.48172,0.03018
1271.99193,0.04556
1270.50214,0.02149
1269.01235,0.02121
1267.52257,0.00863
1266.03278,0.01670
1264.54299,0.03086
1263.05320,0.04032
1261.56341,0.03658
1260.07362,0.03287
1258.58384,0.00630
1257.09405,0.02595
1255.60426,0.01917
1254.11447,0.01959
1252.62468,0.00769
1251.13489,0.00457
1249.64511,0.00863
1248.15532,0.01608
1246.66553,0.01492
1245.17574,0.01378
1243.68595,0.01502
1242.19616,0.01897
1240.70637,0.00456
1239.21659,0.00408
1237.72680,0.01237
1236.23701,0.03100
1234.74722,0.01781
1233.25743,0.01922
1231.76764,0.02065
1230.27786,0.01269
1228.78807,0.02965
1227.29828,0.01232
1225.80849,0.00398
1224.31870,0.01641
1222.82891,0.00510
1221.33912,0.00457
1219.84934,0.01790
1218.35955,0.03125
1216.86976,0.03151
1215.37997,0.04547
1213.89018,0.05610
1212.40039,0.05351
1210.91061,0.07136
1209.42082,0.06837
1207.93103,0.06676
1206.44124,0.06517
1204.95145,0.05687
1203.46166,0.05421
1201.97188,0.06839
1200.48209,0.05613
1198.99230,0.06027
1197.50251,0.05972
1196.01272,0.02376
1194.52293,0.03078
1193.03314,0.03781
1191.54336,0.01740
1190.05357,0.03357
1188.56378,0.02666
1187.07399,0.01731
1185.58420,0.01830
1184.09441,0.01438
1182.60463,0.01172
1181.11484,0.00909
1179.62505,0.02027
1178.13526,0.02743
1176.64547,0.00457
1175.15568,0.03062
1173.66589,0.03045
1172.17611,0.00945
1170.68632,0.01180
1169.19653,0.01417
1167.70674,0.01477
1166.21695,0.02885
1164.72716,0.03802
1163.23738,0.04475
1161.74759,0.04769
1160.25780,0.05985
1158.76801,0.05981
1157.27822,0.05980
1155.78843,0.07091
1154.29865,0.08362
1152.80886,0.08850
1151.31907,0.09452
1149.82928,0.09967
1148.33949,0.09117
1146.84970,0.09559
1145.35991,0.10003
1143.87013,0.11156
1142.38034,0.14441
1140.89055,0.14276
1139.40076,0.13866
1137.91097,0.17518
1136.42118,0.18975
1134.93140,0.19256
1133.44161,0.19540
1131.95182,0.19972
1130.46203,0.22964
1128.97224,0.22504
1127.48245,0.22876
1125.99266,0.20402
1124.50288,0.22775
1123.01309,0.22392
1121.52330,0.22012
1120.03351,0.24033
1118.54372,0.23612
1117.05393,0.21243
1115.56415,0.22218
1114.07436,0.21558
1112.58457,0.22548
1111.09478,0.23541
1109.60499,0.20018
1108.11520,0.21431
1106.62542,0.22824
1105.13563,0.22694
1103.64584,0.20952
1102.15605,0.21343
1100.66626,0.20806
1099.17647,0.20271
1097.68668,0.18852
1096.19690,0.16382
1094.70711,0.16763
1093.21732,0.18581
1091.72753,0.18070
1090.23774,0.16641
1088.74795,0.15215
1087.25817,0.14419
1085.76838,0.15823
1084.27859,0.15010
1082.78880,0.14939
1081.29901,0.15476
1079.80922,0.18504
1078.31943,0.18317
1076.82965,0.18133
1075.33986,0.15764
1073.85007,0.15371
1072.36028,0.16685
1070.87049,0.19123
1069.38070,0.21764
1067.89092,0.23142
1066.40113,0.24521
1064.91134,0.27911
1063.42155,0.32558
1061.93176,0.38397
1060.44197,0.47691
1058.95219,0.56360
1057.46240,0.61869
1055.97261,0.67381
1054.48282,0.76013
1052.99303,0.80273
1051.50324,0.80612
1050.01345,0.81760
1048.52367,0.81498
1047.03388,0.80319
1045.54409,0.79143
1044.05430,0.78148
1042.56451,0.69396
1041.07472,0.67128
1039.58494,0.61521
1038.09515,0.56678
1036.60536,0.53218
1035.11557,0.49759
1033.62578,0.45597
1032.13599,0.39845
1030.64620,0.34095
1029.15642,0.29357
1027.66663,0.26976
1026.17684,0.24597
1024.68705,0.22423
1023.19726,0.19354
1021.70747,0.14561
1020.21769,0.14188
1018.72790,0.12606
1017.23811,0.12675
1015.74832,0.12747
1014.25853,0.09782
1012.76874,0.09870
1011.27896,0.10364
1009.78917,0.08550
1008.29938,0.06223
1006.80959,0.05535
1005.31980,0.04850
1003.83001,0.03517
1002.34022,0.03868
1000.85044,0.02899
999.36065,0.03703
997.87086,0.03086
996.38107,0.02472
994.89128,0.04158
993.40149,0.06071
991.91171,0.05543
990.42192,0.07079
988.93213,0.10749
987.44234,0.10048
985.95255,0.09350
984.46276,0.11950
982.97297,0.08924
981.48319,0.08681
979.99340,0.06602
978.50361,0.05736
977.01382,0.04873
975.52403,0.05357
974.03424,0.03019
972.54446,0.01938
971.05467,0.00793
969.56488,0.00457
968.07509,0.00621
966.58530,0.00787
965.09551,0.00440
963.60573,0.00824
962.11594,0.00650
960.62615,0.02093
959.13636,0.02182
957.64657,0.02273
956.15678,0.02199
954.66699,0.03450
953.17721,0.04613
951.68742,0.04434
950.19763,0.04963
948.70784,0.05495
947.21805,0.06108
945.72826,0.07688
944.23848,0.10054
942.74869,0.10585
941.25890,0.13450
939.76911,0.13559
938.27932,0.13670
936.78953,0.15713
935.29974,0.18834
933.80996,0.18123
932.32017,0.19500
930.83038,0.19870
929.34059,0.20243
927.85080,0.22592
926.36101,0.25369
924.87123,0.27274
923.38144,0.34361
921.89165,0.37415
920.40186,0.40471
918.91207,0.51019
917.42228,0.59126
915.93250,0.73245
914.44271,0.96068
912.95292,1.07142
911.46313,1.18218
909.97334,1.41362
908.48355,1.65137
906.99376,1.77409
905.50398,1.89146
904.01419,1.94572
902.52440,2.00000
901.03461,1.99903
899.54482,1.99158
898.05503,1.87202
896.56525,1.70315
895.07546,1.58724
893.58567,1.47134
892.09588,1.20342
890.60609,0.96535
889.11630,0.70130
887.62651,0.48413
886.13673,0.43171
884.64694,0.37932
883.15715,0.30149
881.66736,0.20037
880.17757,0.15847
878.68778,0.14676
877.19800,0.13508
875.70821,0.08316
874.21842,0.05527
872.72863,0.03054
871.23884,0.04485
869.74905,0.04215
868.25927,0.03946
866.76948,0.01550
865.27969,0.00457
863.78990,0.01616
862.30011,0.04527
860.81032,0.05030
859.32053,0.05535
857.83075,0.06636
856.34096,0.07382
854.85117,0.06604
853.36138,0.08633
851.87159,0.09901
850.38180,0.11172
848.89202,0.11682
847.40223,0.14976
845.91244,0.14797
844.42265,0.15763
842.93286,0.16732
841.44307,0.17501
839.95329,0.20202
838.46350,0.22411
836.97371,0.21529
835.48392,0.21388
833.99413,0.21250
832.50434,0.22326
831.01455,0.21677
829.52477,0.19551
828.03498,0.16260
826.54519,0.16213
825.05540,0.16168
823.56561,0.16092
822.07582,0.12094
820.58604,0.12807
819.09625,0.11606
817.60646,0.10407
816.11667,0.07944
814.62688,0.09093
813.13709,0.11075
811.64730,0.10726
810.15752,0.10683
808.66773,0.10642
807.17794,0.11154
805.68815,0.12475
804.19836,0.12834
802.70857,0.12960
801.21879,0.13088
799.72900,0.10158
798.23921,0.09091
796.74942,0.09440
795.25963,0.10183
793.76984,0.10929
792.28006,0.08392
790.79027,0.09850
789.30048,0.11982
787.81069,0.15889
786.32090,0.17263
784.83111,0.18641
783.34132,0.22487
781.85154,0.25080
780.36175,0.26868
778.87196,0.29029
777.38217,0.31192
775.89238,0.33548
774.40259,0.34763
772.91281,0.33984
771.42302,0.32333
769.93323,0.30685
768.44344,0.28344
766.95365,0.27104
765.46386,0.20865
763.97407,0.16782
762.48429,0.15067
760.99450,0.13355
759.50471,0.10781
758.01492,0.09511
756.52513,0.08691
755.03534,0.08110
753.54556,0.07531
752.05577,0.08154
750.56598,0.05662
749.07619,0.03936
747.58640,0.03165
746.09661,0.02396
744.60683,0.04758
743.11704,0.03624
741.62725,0.02918
740.13746,0.02159
738.64767,0.01403
737.15788,0.01131
735.66809,0.00457
734.17831,0.02560
732.68852,0.01717
731.19873,0.00876
729.70894,0.00362
728.21915,0.00574
726.72936,0.00474
725.23958,0.00924
723.74979,0.00792
722.26000,0.00663
720.77021,0.00917
719.28042,0.00277
717.79063,0.01045
716.30084,0.01109
714.81106,0.01175
713.32127,0.02085
711.83148,0.02010
710.34169,0.03126
708.85190,0.03000
707.36211,0.02876
705.87233,0.02340
704.38254,0.02166
702.89275,0.02374
701.40296,0.03045
699.91317,0.03719
698.42338,0.04070
696.93360,0.08213
695.44381,0.10385
693.95402,0.10597
692.46423,0.10812
690.97444,0.12139
689.48465,0.14926
687.99486,0.16998
686.50508,0.17480
685.01529,0.17965
683.52550,0.22533
682.03571,0.24121
680.54592,0.25510
679.05613,0.25601
677.56635,0.25694
676.07656,0.27651
674.58677,0.25327
673.09698,0.23498
671.60719,0.23377
670.11740,0.23258
668.62761,0.17333
667.13783,0.17151
665.64804,0.16176
664.15825,0.15203
662.66846,0.11867
661.17867,0.07748
659.68888,0.06166
658.19910,0.05517
656.70931,0.04870
655.21952,0.03160
653.72973,0.03449
652.23994,0.02955
650.75015,0.04179
649.26037,0.05406
647.77058,0.04695
646.28079,0.04458
644.79100,0.03371
643.30121,0.02443
641.81142,0.01518
640.32163,0.02546
638.83185,0.02097
637.34206,0.01986
635.85227,0.01586
634.36248,0.01189
632.87269,0.00457
631.38290,0.01297
629.89312,0.02072
628.40333,0.01773
626.91354,0.01476
625.42375,0.02415
623.93396,0.01496
622.44417,0.02272
620.95438,0.03050
619.46460,0.03303
617.97481,0.05062
616.48502,0.06150
614.99523,0.07017
613.50544,0.07886
612.01565,0.09901
610.52587,0.14833
609.03608,0.17773
607.54629,0.19526
606.05650,0.21281
604.56671,0.24452
603.07692,0.28859
601.58714,0.32988
600.09735,0.37119
598.60756,0.38191
597.11777,0.40903
595.62798,0.39626
594.13819,0.39326
592.64840,0.39029
591.15862,0.37131
589.66883,0.28979
588.17904,0.26861
586.68925,0.23446
585.19946,0.20032
583.70967,0.14491
582.21989,0.10096
580.73010,0.08641
579.24031,0.07188
577.75052,0.04998
576.26073,0.03909
574.77094,0.04302
573.28115,0.04059
571.79137,0.03818
570.30158,0.04623
568.81179,0.03546
567.32200,0.03683
565.83221,0.03822
564.34242,0.06609
562.85264,0.08413
561.36285,0.11833
559.87306,0.11040
558.38327,0.10249
556.89348,0.11098
555.40369,0.12353
553.91391,0.12545
552.42412,0.12739
550.93433,0.14831
549.44454,0.15333
547.95475,0.17160
546.46496,0.16467
544.97517,0.15777
543.48539,0.16199
541.99560,0.20391
540.50581,0.22186
539.01602,0.23983
537.52623,0.27891
536.03644,0.30926
534.54666,0.36139
533.05687,0.36859
531.56708,0.37580
530.07729,0.43608
528.58750,0.53226
527.09771,0.55267
525.60792,0.57310
524.11814,0.62496
522.62835,0.66226
521.13856,0.69263
519.64877,0.72628
518.15898,0.75995
516.66919,0.78905
515.17941,0.79732
513.68962,0.80202
512.19983,0.80675
510.71004,0.78527
509.22025,0.73353
507.73046,0.66276
506.24068,0.61600
504.75089,0.56927
503.26110,0.45955
501.77131,0.34738
500.28152,0.29680
498.79173,0.24624
497.30194,0.18775
495.81216,0.15551
494.32237,0.13777
492.83258,0.12005
491.34279,0.08744
489.85300,0.06719
488.36321,0.05437
486.87343,0.05020
485.38364,0.04606
483.89385,0.03689
482.40406,0.05534
480.91427,0.05811
479.42448,0.06090
477.93469,0.07157
476.44491,0.09639
474.95512,0.11069
473.46533,0.12502
471.97554,0.12704
470.48575,0.13177
468.99596,0.14281
467.50618,0.13963
466.01639,0.13647
464.52660,0.10834
463.03681,0.07215
461.54702,0.06133
460.05723,0.05053
458.56745,0.01577
457.07766,0.00457
455.58787,0.01129
454.09808,0.01803
452.60829,0.02266
451.11850,0.01588
449.62871,0.01036
448.13893,0.00487
446.64914,0.00758
445.15935,0.00000
443.66956,0.02070
442.17977,0.02046
440.68998,0.02024
439.20020,0.00760
437.71041,0.02504
436.22062,0.03420
434.73083,0.04338
433.24104,0.01895
431.75125,0.02774
430.26146,0.02265
428.77168,0.01758
427.28189,0.02621
425.79210,0.01962
424.30231,0.03133
422.81252,0.04306
421.32273,0.01434
419.83295,0.03700
418.34316,0.02077
416.85337,0.00457
415.36358,0.00759
413.87379,0.00457
412.38400,0.00700
410.89422,0.00945
409.40443,0.03042
407.91464,0.03169
406.42485,0.00696
404.93506,0.00984
403.44527,0.01275
401.95548,0.01859
400.46570,0.03254
398.97591,0.03215
397.48612,0.03179
395.99633,0.04603
394.50654,0.04931
393.01675,0.03814
391.52697,0.02700
390.03718,0.01578
388.54739,0.00457
387.05760,0.00831
385.56781,0.01208
384.07802,0.00982
382.58824,0.02686
381.09845,0.02925
379.60866,0.03165
378.11887,0.05146
376.62908,0.02600
375.13929,0.01491
373.64950,0.00384
372.15972,0.02734
370.66993,0.01139
369.18014,0.02109
367.69035,0.03081
366.20056,0.04000
364.71077,0.03441
363.22099,0.02996
361.73120,0.02554
360.24141,0.03640
358.75162,0.05557
357.26183,0.05593
355.77204,0.05632
354.28225,0.06480
352.79247,0.05268
351.30268,0.05235
349.81289,0.05205
348.32310,0.05032
346.83331,0.02506
345.34352,0.04116
343.85374,0.05728
342.36395,0.06120
340.87416,0.06044
339.38437,0.06430
337.89458,0.06818
336.40479,0.06233
334.91501,0.02310
333.42522,0.01382
331.93543,0.00457
330.44564,0.01051
328.95585,0.00773
327.46606,0.02481
325.97627,0.04192
324.48649,0.04773
322.99670,0.04482
321.50691,0.03935
320.01712,0.03391
318.52733,0.07727
317.03754,0.07154
315.54776,0.05720
314.05797,0.04288
312.56818,0.05517
311.07839,0.08205
309.58860,0.07566
308.09881,0.06928
306.60902,0.05453
305.11924,0.04496
303.62945,0.02599
302.13966,0.00704
300.64987,0.00894
299.16008,0.00457
