1778.52000,0.01644
1777.03021,0.01872
1775.54042,0.02335
1774.05063,0.01869
1772.56085,0.01765
1771.07106,0.01960
1769.58127,0.02920
1768.09148,0.00940
1766.60169,0.01968
1765.11190,0.02533
1763.62212,0.01449
1762.13233,0.01489
1760.64254,0.01363
1759.15275,0.00583
1757.66296,0.01583
1756.17317,0.00702
1754.68339,0.01496
1753.19360,0.00873
1751.70381,0.00762
1750.21402,0.02410
1748.72423,0.02112
1747.23444,0.01267
1745.74465,0.01419
1744.25487,0.00409
1742.76508,0.01751
1741.27529,0.01255
1739.78550,0.01649
1738.29571,0.00564
1736.80592,0.01133
1735.31614,0.00583
1733.82635,0.00450
1732.33656,0.00976
1730.84677,0.00784
1729.35698,0.00214
1727.86719,0.00790
1726.37740,0.00394
1724.88762,0.00763
1723.39783,0.01536
1721.90804,0.00957
1720.41825,0.01312
1718.92846,0.00568
1717.43867,0.00865
1715.94889,0.01333
1714.45910,0.00935
1712.96931,0.00583
1711.47952,0.00942
1709.98973,0.01028
1708.49994,0.01202
1707.01016,0.01240
1705.52037,0.01281
1704.03058,0.01864
1702.54079,0.01200
1701.05100,0.02042
1699.56121,0.01680
1698.07142,0.00685
1696.58164,0.01153
1695.09185,0.01031
1693.60206,0.00720
1692.11227,0.01619
1690.62248,0.01251
1689.13269,0.01329
1687.64291,0.00944
1686.15312,0.01556
1684.66333,0.02467
1683.17354,0.02089
1681.68375,0.02836
1680.19396,0.02273
1678.70417,0.02474
1677.21439,0.02529
1675.72460,0.03116
1674.23481,0.03854
1672.74502,0.03049
1671.25523,0.04787
1669.76544,0.04833
1668.27566,0.04649
1666.78587,0.05208
1665.29608,0.06511
1663.80629,0.06377
1662.31650,0.06055
1660.82671,0.07111
1659.33693,0.06963
1657.84714,0.06542
1656.35735,0.06271
1654.86756,0.05622
1653.37777,0.07114
1651.88798,0.07846
1650.39819,0.07437
1648.90841,0.07200
1647.41862,0.07199
1645.92883,0.07475
1644.43904,0.07753
1642.94925,0.07124
1641.45946,0.07703
1639.96968,0.08815
1638.47989,0.07981
1636.99010,0.07510
1635.50031,0.07549
1634.01052,0.06489
1632.52073,0.07909
1631.03094,0.07553
1629.54116,0.06861
1628.05137,0.07717
1626.56158,0.08872
1625.07179,0.07869
1623.58200,0.09918
1622.09221,0.08095
1620.60243,0.10466
1619.11264,0.09283
1617.62285,0.09775
1616.13306,0.09909
1614.64327,0.08521
1613.15348,0.08322
1611.66370,0.09924
1610.17391,0.08332
1608.68412,0.09029
1607.19433,0.09263
1605.70454,0.09139
1604.21475,0.09589
1602.72496,0.10042
1601.23518,0.09693
1599.74539,0.08711
1598.25560,0.08112
1596.76581,0.09210
1595.27602,0.08680
1593.78623,0.07728
1592.29645,0.07584
1590.80666,0.06511
1589.31687,0.07493
1587.82708,0.07124
1586.33729,0.06862
1584.84750,0.07260
1583.35771,0.07554
1581.86793,0.07024
1580.37814,0.06942
1578.88835,0.07095
1577.39856,0.05832
1575.90877,0.05757
1574.41898,0.05239
1572.92920,0.03793
1571.43941,0.04318
1569.94962,0.04052
1568.45983,0.03788
1566.97004,0.02732
1565.48025,0.02738
1563.99047,0.03508
1562.50068,0.04281
1561.01089,0.04188
1559.52110,0.03950
1558.03131,0.02739
1556.54152,0.01616
1555.05173,0.01999
1553.56195,0.02320
1552.07216,0.01628
1550.58237,0.01256
1549.09258,0.00505
1547.60279,0.00773
1546.11300,0.00577
1544.62322,0.01358
1543.13343,0.00363
1541.64364,0.00441
1540.15385,0.00510
1538.66406,0.00583
1537.17427,0.02094
1535.68448,0.01702
1534.19470,0.01397
1532.70491,0.01328
1531.21512,0.02299
1529.72533,0.00583
1528.23554,0.02615
1526.74575,0.01346
1525.25597,0.03107
1523.76618,0.01483
1522.27639,0.02657
1520.78660,0.02118
1519.29681,0.03635
1517.80702,0.02402
1516.31724,0.05237
1514.82745,0.04433
1513.33766,0.03959
1511.84787,0.03487
1510.35808,0.04278
1508.86829,0.02890
1507.37850,0.04300
1505.88872,0.04526
1504.39893,0.03845
1502.90914,0.04542
1501.41935,0.06830
1499.92956,0.07680
1498.43977,0.06966
1496.94999,0.05280
1495.46020,0.07408
1493.97041,0.09687
1492.48062,0.10761
1490.99083,0.10821
1489.50104,0.13785
1488.01125,0.14062
1486.52147,0.14341
1485.03168,0.16317
1483.54189,0.19269
1482.05210,0.22393
1480.56231,0.20459
1479.07252,0.22741
1477.58274,0.25279
1476.09295,0.24411
1474.60316,0.25578
1473.11337,0.25583
1471.62358,0.27009
1470.13379,0.26257
1468.64401,0.26989
1467.15422,0.31027
1465.66443,0.32102
1464.17464,0.33181
1462.68485,0.38390
1461.19506,0.41168
1459.70527,0.46170
1458.21549,0.51705
1456.72570,0.58449
1455.23591,0.61850
1453.74612,0.65571
1452.25633,0.69718
1450.76654,0.70056
1449.27676,0.69571
1447.78697,0.70612
1446.29718,0.66977
1444.80739,0.64582
1443.31760,0.62190
1441.82781,0.61506
1440.33802,0.56080
1438.84824,0.52203
1437.35845,0.48391
1435.86866,0.50066
1434.37887,0.51024
1432.88908,0.55563
1431.39929,0.61840
1429.90951,0.70005
1428.41972,0.76795
1426.92993,0.83546
1425.44014,0.84836
1423.95035,0.86647
1422.46056,0.88460
1420.97078,0.92595
1419.48099,0.94085
1417.99120,0.90666
1416.50141,0.91632
1415.01162,0.90546
1413.52183,0.86498
1412.03204,0.80653
1410.54226,0.71423
1409.05247,0.68166
1407.56268,0.63218
1406.07289,0.60050
1404.58310,0.57224
1403.09331,0.54401
1401.60353,0.45990
1400.11374,0.39974
1398.62395,0.37581
1397.13416,0.32417
1395.64437,0.26429
1394.15458,0.22646
1392.66479,0.17257
1391.17501,0.15257
1389.68522,0.11439
1388.19543,0.12091
1386.70564,0.11910
1385.21585,0.11731
1383.72606,0.09701
1382.23628,0.05218
1380.74649,0.04273
1379.25670,0.05363
1377.76691,0.03958
1376.27712,0.02512
1374.78733,0.00730
1373.29755,0.02698
1371.80776,0.00583
1370.31797,0.00626
1368.82818,0.01963
1367.33839,0.03302
1365.84860,0.02654
1364.35881,0.04612
1362.86903,0.04689
1361.37924,0.07796
1359.88945,0.11180
1358.39966,0.12873
1356.90987,0.15415
1355.42008,0.20459
1353.93030,0.24679
1352.44051,0.28023
1350.95072,0.31369
1349.46093,0.38370
1347.97114,0.46771
1346.48135,0.53396
1344.99156,0.61548
1343.50178,0.70338
1342.01199,0.72143
1340.52220,0.77528
1339.03241,0.81942
1337.54262,0.87078
1336.05283,0.87887
1334.56305,0.88698
1333.07326,0.93651
1331.58347,0.95981
1330.09368,0.95179
1328.60389,0.95036
1327.11410,0.90746
1325.62432,0.87453
1324.13453,0.84269
1322.64474,0.79816
1321.15495,0.77462
1319.66516,0.75683
1318.17537,0.73905
1316.68558,0.68044
1315.19580,0.60830
1313.70601,0.56307
1312.21622,0.55599
1310.72643,0.50149
1309.23664,0.47286
1307.74685,0.43853
1306.25707,0.42053
1304.76728,0.41367
1303.27749,0.40683
1301.78770,0.34105
1300.29791,0.28398
1298.80812,0.23582
1297.31834,0.21585
1295.82855,0.18214
1294.33876,0.14697
1292.84897,0.12220
1291.35918,0.11270
1289.86939,0.10800
1288.37960,0.10331
1286.88982,0.09156
1285.40003,0.08385
1283.91024,0.07003
1282.42045,0.06068
1280.93066,0.04457
1279.44087,0.05645
1277.95109,0.04145
1276.46130,0.05464
1274.97151,0.04499
1273.48172,0.03536
1271.99193,0.04884
1270.50214,0.03841
1269.01235,0.02822
1267.52257,0.02610
1266.03278,0.02507
1264.54299,0.01982
1263.05320,0.01375
1261.56341,0.01797
1260.07362,0.02222
1258.58384,0.01199
1257.09405,0.00729
1255.60426,0.01108
1254.11447,0.01596
1252.62468,0.00583
1251.13489,0.01068
1249.64511,0.00878
1248.15532,0.02765
1246.66553,0.02972
1245.17574,0.03181
1243.68595,0.01603
1242.19616,0.01637
1240.70637,0.01038
1239.21659,0.00653
1237.72680,0.01901
1236.23701,0.04592
1234.74722,0.03219
1233.25743,0.03310
1231.76764,0.03404
1230.27786,0.02779
1228.78807,0.04720
1227.29828,0.02809
1225.80849,0.02319
1224.31870,0.00583
1222.82891,0.02338
1221.33912,0.03080
1219.84934,0.03348
1218.35955,0.03619
1216.86976,0.05766
1215.37997,0.08338
1213.89018,0.09050
1212.40039,0.09087
1210.91061,0.10841
1209.42082,0.10967
1207.93103,0.09910
1206.44124,0.08855
1204.95145,0.08121
1203.46166,0.07897
1201.97188,0.06892
1200.48209,0.06800
1198.99230,0.06520
1197.50251,0.06644
1196.01272,0.05268
1194.52293,0.04995
1193.03314,0.04725
1191.54336,0.03800
1190.05357,0.02392
1188.56378,0.01578
1187.07399,0.02800
1185.58420,0.02287
1184.09441,0.02476
1182.60463,0.01937
1181.11484,0.01400
1179.62505,0.03566
1178.13526,0.02007
1176.64547,0.01149
1175.15568,0.01988
1173.66589,0.02300
1172.17611,0.01238
1170.68632,0.00909
1169.19653,0.00583
1167.70674,0.02096
1166.21695,0.02532
1164.72716,0.05575
1163.23738,0.04999
1161.74759,0.07094
1160.25780,0.06841
1158.76801,0.06135
1157.27822,0.05432
1155.78843,0.08532
1154.29865,0.08225
1152.80886,0.10652
1151.31907,0.11684
1149.82928,0.11618
1148.33949,0.12549
1146.84970,0.12117
1145.35991,0.11687
1143.87013,0.13028
1142.38034,0.17377
1140.89055,0.17876
1139.40076,0.18081
1137.91097,0.18478
1136.42118,0.19831
1134.93140,0.21377
1133.44161,0.22926
1131.95182,0.23524
1130.46203,0.25670
1128.97224,0.25595
1127.48245,0.25311
1125.99266,0.25538
1124.50288,0.23417
1123.01309,0.23659
1121.52330,0.23903
1120.03351,0.24309
1118.54372,0.27428
1117.05393,0.23963
1115.56415,0.24313
1114.07436,0.25512
1112.58457,0.25210
1111.09478,0.24911
1109.60499,0.23491
1108.11520,0.25187
1106.62542,0.23921
1105.13563,0.26045
1103.64584,0.25779
1102.15605,0.23292
1100.66626,0.22904
1099.17647,0.22518
1097.68668,0.21245
1096.19690,0.21309
1094.70711,0.22963
1093.21732,0.22248
1091.72753,0.22552
1090.23774,0.21525
1088.74795,0.20500
1087.25817,0.21192
1085.76838,0.20426
1084.27859,0.19662
1082.78880,0.19134
1081.29901,0.20979
1079.80922,0.23124
1078.31943,0.24445
1076.82965,0.25769
1075.33986,0.24427
1073.85007,0.23151
1072.36028,0.23952
1070.87049,0.27784
1069.38070,0.31492
1067.89092,0.32830
1066.40113,0.34171
1064.91134,0.39622
1063.42155,0.46515
1061.93176,0.55486
1060.44197,0.66767
1058.95219,0.78559
1057.46240,0.83884
1055.97261,0.89213
1054.48282,0.96205
1052.99303,1.02014
1051.50324,1.01940
1050.01345,1.02037
1048.52367,0.97266
1047.03388,0.96860
1045.54409,0.96456
1044.05430,0.92053
1042.56451,0.85175
1041.07472,0.76414
1039.58494,0.70557
1038.09515,0.64152
1036.60536,0.59676
1035.11557,0.55203
1033.62578,0.49123
1032.13599,0.41859
1030.64620,0.36250
1029.15642,0.31702
1027.66663,0.29940
1026.17684,0.28181
1024.68705,0.26203
1023.19726,0.22193
1021.70747,0.17869
1020.21769,0.15982
1018.72790,0.15538
1017.23811,0.14312
1015.74832,0.13089
1014.25853,0.12123
1012.76874,0.09443
1011.27896,0.10959
1009.78917,0.07904
1008.29938,0.05994
1006.80959,0.06310
1005.31980,0.06629
1003.83001,0.04811
1002.34022,0.04097
1000.85044,0.04127
999.36065,0.04137
997.87086,0.05050
996.38107,0.05966
994.89128,0.06937
993.40149,0.10218
991.91171,0.11935
990.42192,0.13633
988.93213,0.15863
987.44234,0.16539
985.95255,0.17218
984.46276,0.18502
982.97297,0.16084
981.48319,0.13011
979.99340,0.11317
978.50361,0.09806
977.01382,0.08297
975.52403,0.06356
974.03424,0.04884
972.54446,0.03139
971.05467,0.02264
969.56488,0.00694
968.07509,0.01105
966.58530,0.01519
965.09551,0.00591
963.60573,0.01623
962.11594,0.02107
960.62615,0.00583
959.13636,0.01277
957.64657,0.01973
956.15678,0.01317
954.66699,0.03289
953.17721,0.02553
951.68742,0.03661
950.19763,0.02962
948.70784,0.02265
947.21805,0.04524
945.72826,0.05897
944.23848,0.07886
942.74869,0.11148
941.25890,0.10452
939.76911,0.11888
938.27932,0.13325
936.78953,0.15009
935.29974,0.17775
933.80996,0.17473
932.32017,0.18189
930.83038,0.18972
929.34059,0.19758
927.85080,0.20228
926.36101,0.23855
924.87123,0.28057
923.38144,0.34061
921.89165,0.38543
920.40186,0.43027
918.91207,0.50902
917.42228,0.62696
915.93250,0.76631
914.44271,0.99822
912.95292,1.11232
911.46313,1.22645
909.97334,1.44869
908.48355,1.62416
906.99376,1.74185
905.50398,1.91526
904.01419,1.95762
902.52440,2.00000
901.03461,1.99307
899.54482,1.94551
898.05503,1.76881
896.56525,1.62115
895.07546,1.49479
893.58567,1.36845
892.09588,1.07729
890.60609,0.86705
889.11630,0.64709
887.62651,0.47818
886.13673,0.41549
884.64694,0.35283
883.15715,0.27589
881.66736,0.21338
880.17757,0.16084
878.68778,0.14052
877.19800,0.12021
875.70821,0.07897
874.21842,0.06169
872.72863,0.05162
871.23884,0.04179
869.74905,0.03750
868.25927,0.03322
866.76948,0.03067
865.27969,0.02009
863.78990,0.03685
862.30011,0.05935
860.81032,0.06473
859.32053,0.07013
857.83075,0.07937
856.34096,0.10091
854.85117,0.11697
853.36138,0.13369
851.87159,0.14366
850.38180,0.15365
848.89202,0.17595
847.40223,0.21289
845.91244,0.19416
844.42265,0.20658
842.93286,0.21902
841.44307,0.23361
839.95329,0.26749
838.46350,0.28912
836.97371,0.28514
835.48392,0.28225
833.99413,0.27939
832.50434,0.29666
831.01455,0.26886
829.52477,0.23642
828.03498,0.21714
826.54519,0.21006
825.05540,0.20300
823.56561,0.20200
822.07582,0.18069
820.58604,0.16301
819.09625,0.14779
817.60646,0.13260
816.11667,0.12071
814.62688,0.12811
813.13709,0.13363
811.64730,0.14363
810.15752,0.15195
808.66773,0.16030
807.17794,0.17100
805.68815,0.17834
804.19836,0.15754
802.70857,0.16207
801.21879,0.16663
799.72900,0.14738
798.23921,0.13790
796.74942,0.12951
795.25963,0.13395
793.76984,0.13841
792.28006,0.13750
790.79027,0.16520
789.30048,0.17027
787.81069,0.19674
786.32090,0.22420
784.83111,0.25168
783.34132,0.29474
781.85154,0.31666
780.36175,0.37417
778.87196,0.38322
777.38217,0.39230
775.89238,0.41304
774.40259,0.41729
772.91281,0.41162
771.42302,0.40258
769.93323,0.39356
768.44344,0.35175
766.95365,0.30065
765.46386,0.26820
763.97407,0.19915
762.48429,0.17628
760.99450,0.15344
759.50471,0.13507
758.01492,0.12328
756.52513,0.10983
755.03534,0.10021
753.54556,0.09062
752.05577,0.10477
750.56598,0.09141
749.07619,0.05521
747.58640,0.05027
746.09661,0.04535
744.60683,0.05179
743.11704,0.05570
741.62725,0.02556
740.13746,0.02666
738.64767,0.02780
737.15788,0.02059
735.66809,0.01341
734.17831,0.00583
732.68852,0.00923
731.19873,0.01266
729.70894,0.01336
728.21915,0.00710
726.72936,0.01121
725.23958,0.01345
723.74979,0.01009
722.26000,0.00676
720.77021,0.01796
719.28042,0.00864
717.79063,0.01375
716.30084,0.01274
714.81106,0.01176
713.32127,0.00296
711.83148,0.00752
710.34169,0.01908
708.85190,0.02474
707.36211,0.03043
705.87233,0.03169
704.38254,0.02218
702.89275,0.02222
701.40296,0.03022
699.91317,0.03825
698.42338,0.04472
696.93360,0.07006
695.44381,0.10050
693.95402,0.10588
692.46423,0.11127
690.97444,0.11871
689.48465,0.13655
687.99486,0.16542
686.50508,0.17631
685.01529,0.18724
683.52550,0.21660
682.03571,0.21847
680.54592,0.23052
679.05613,0.23741
677.56635,0.24433
676.07656,0.26407
674.58677,0.23218
673.09698,0.21662
671.60719,0.20976
670.11740,0.20293
668.62761,0.16732
667.13783,0.15546
665.64804,0.14679
664.15825,0.13815
662.66846,0.08592
661.17867,0.06568
659.68888,0.05139
658.19910,0.04941
656.70931,0.04746
655.21952,0.04214
653.72973,0.02308
652.23994,0.02756
650.75015,0.03597
649.26037,0.04441
647.77058,0.04281
646.28079,0.04441
644.79100,0.04287
643.30121,0.02980
641.81142,0.01676
640.32163,0.03138
638.83185,0.03629
637.34206,0.02427
635.85227,0.01504
634.36248,0.00583
632.87269,0.00988
631.38290,0.00803
629.89312,0.00430
628.40333,0.00356
626.91354,0.00284
625.42375,0.03342
623.93396,0.03776
622.44417,0.04129
620.95438,0.04484
619.46460,0.05815
617.97481,0.05730
616.48502,0.08062
614.99523,0.09051
613.50544,0.10043
612.01565,0.12869
610.52587,0.16480
609.03608,0.19332
607.54629,0.21805
606.05650,0.24281
604.56671,0.26420
603.07692,0.34343
601.58714,0.37757
600.09735,0.41174
598.60756,0.40486
597.11777,0.41939
595.62798,0.43584
594.13819,0.43189
592.64840,0.42796
591.15862,0.39113
589.66883,0.34777
588.17904,0.27838
586.68925,0.25740
585.19946,0.23644
583.70967,0.18427
582.21989,0.13933
580.73010,0.11665
579.24031,0.09399
577.75052,0.07348
576.26073,0.07458
574.77094,0.07846
573.28115,0.06998
571.79137,0.06153
570.30158,0.06697
568.81179,0.07074
567.32200,0.07241
565.83221,0.07411
564.34242,0.11501
562.85264,0.14259
561.36285,0.15834
559.87306,0.16734
558.38327,0.17636
556.89348,0.16719
555.40369,0.19172
553.91391,0.21119
552.42412,0.23069
550.93433,0.23030
549.44454,0.21893
547.95475,0.21669
546.46496,0.21871
544.97517,0.22075
543.48539,0.25754
541.99560,0.29584
540.50581,0.30918
539.01602,0.32254
537.52623,0.35032
536.03644,0.40227
534.54666,0.41931
533.05687,0.43594
531.56708,0.45260
530.07729,0.51291
528.58750,0.58573
527.09771,0.59421
525.60792,0.60271
524.11814,0.65421
522.62835,0.69241
521.13856,0.74502
519.64877,0.76357
518.15898,0.78215
516.66919,0.89497
515.17941,0.84901
513.68962,0.84987
512.19983,0.85076
510.71004,0.84426
509.22025,0.75838
507.73046,0.70831
506.24068,0.67647
504.75089,0.64466
503.26110,0.49111
501.77131,0.37783
500.28152,0.32438
498.79173,0.27096
497.30194,0.22339
495.81216,0.16547
494.32237,0.15521
492.83258,0.14498
491.34279,0.11360
489.85300,0.11697
488.36321,0.08373
486.87343,0.06852
485.38364,0.05333
483.89385,0.06823
482.40406,0.09162
480.91427,0.09662
479.42448,0.10164
477.93469,0.10351
476.44491,0.12976
474.95512,0.15582
473.46533,0.18190
471.97554,0.18916
470.48575,0.20619
468.99596,0.19487
467.50618,0.18844
466.01639,0.18203
464.52660,0.12441
463.03681,0.08312
461.54702,0.07774
460.05723,0.07239
458.56745,0.04091
457.07766,0.01496
455.58787,0.02418
454.09808,0.03343
452.60829,0.03275
451.11850,0.01029
449.62871,0.01548
448.13893,0.02070
446.64914,0.01673
445.15935,0.01575
443.66956,0.01416
442.17977,0.02043
440.68998,0.02672
439.20020,0.03029
437.71041,0.02265
436.22062,0.02394
434.73083,0.02524
433.24104,0.00583
431.75125,0.02950
430.26146,0.03499
428.77168,0.04050
427.28189,0.02741
425.79210,0.05055
424.30231,0.05539
422.81252,0.06026
421.32273,0.03986
419.83295,0.05314
418.34316,0.04644
416.85337,0.03976
415.36358,0.01331
413.87379,0.03706
412.38400,0.03141
410.89422,0.02579
409.40443,0.03628
407.91464,0.03874
406.42485,0.02663
404.93506,0.02152
403.44527,0.01644
401.95548,0.03848
400.46570,0.03874
398.97591,0.04147
397.48612,0.04421
395.99633,0.05852
394.50654,0.07794
393.01675,0.05143
391.52697,0.02494
390.03718,0.01987
388.54739,0.01643
387.05760,0.01112
385.56781,0.00583
384.07802,0.02846
382.58824,0.06129
381.09845,0.05105
379.60866,0.04083
378.11887,0.05425
376.62908,0.03635
375.13929,0.01816
373.64950,0.00000
372.15972,0.00081
370.66993,0.02134
369.18014,0.02619
367.69035,0.03107
366.20056,0.02327
364.71077,0.02863
363.22099,0.03316
361.73120,0.03771
360.24141,0.04886
358.75162,0.06383
357.26183,0.07026
355.77204,0.07671
354.28225,0.07313
352.79247,0.07593
351.30268,0.06689
349.81289,0.05788
348.32310,0.05820
346.83331,0.05856
345.34352,0.05787
343.85374,0.05722
342.36395,0.08792
340.87416,0.06042
339.38437,0.05602
337.89458,0.05165
336.40479,0.02528
334.91501,0.01461
333.42522,0.01021
331.93543,0.00583
330.44564,0.01294
328.95585,0.02537
327.46606,0.02226
325.97627,0.01917
324.48649,0.04290
322.99670,0.07004
321.50691,0.05994
320.01712,0.04986
318.52733,0.07326
317.03754,0.06005
315.54776,0.06656
314.05797,0.07310
312.56818,0.06865
311.07839,0.09069
309.58860,0.08406
308.09881,0.07746
306.60902,0.05702
305.11924,0.02389
303.62945,0.03229
302.13966,0.04071
300.64987,0.00639
299.16008,0.00583
