1778.52000,0.00822
1777.03021,0.01425
1775.54042,0.01524
1774.05063,0.00976
1772.56085,0.01033
1771.07106,0.01308
1769.58127,0.00334
1768.09148,0.00373
1766.60169,0.00824
1765.11190,0.01807
1763.62212,0.01180
1762.13233,0.02240
1760.64254,0.00438
1759.15275,0.01021
1757.66296,0.00355
1756.17317,0.00245
1754.68339,0.00089
1753.19360,0.00272
1751.70381,0.00218
1750.21402,0.00743
1748.72423,0.00693
1747.23444,0.00862
1745.74465,0.00359
1744.25487,0.00413
1742.76508,0.01095
1741.27529,0.01153
1739.78550,0.00443
1738.29571,0.01517
1736.80592,0.00355
1735.31614,0.01046
1733.82635,0.01451
1732.33656,0.01400
1730.84677,0.01954
1729.35698,0.01451
1727.86719,0.01071
1726.37740,0.01271
1724.88762,0.01714
1723.39783,0.01173
1721.90804,0.01332
1720.41825,0.01228
1718.92846,0.00670
1717.43867,0.00355
1715.94889,0.00975
1714.45910,0.01309
1712.96931,0.01838
1711.47952,0.01335
1709.98973,0.01026
1708.49994,0.01297
1707.01016,0.00825
1705.52037,0.00355
1704.03058,0.02134
1702.54079,0.01387
1701.05100,0.01053
1699.56121,0.01852
1698.07142,0.01185
1696.58164,0.01940
1695.09185,0.01423
1693.60206,0.00955
1692.11227,0.01694
1690.62248,0.01497
1689.13269,0.01518
1687.64291,0.02312
1686.15312,0.01905
1684.66333,0.02631
1683.17354,0.03096
1681.68375,0.03057
1680.19396,0.02587
1678.70417,0.03516
1677.21439,0.04808
1675.72460,0.03936
1674.23481,0.04150
1672.74502,0.02921
1671.25523,0.04055
1669.76544,0.05046
1668.27566,0.07171
1666.78587,0.07035
1665.29608,0.06902
1663.80629,0.07157
1662.31650,0.07703
1660.82671,0.08154
1659.33693,0.07573
1657.84714,0.07428
1656.35735,0.07526
1654.86756,0.07193
1653.37777,0.07681
1651.88798,0.08388
1650.39819,0.07364
1648.90841,0.07690
1647.41862,0.08139
1645.92883,0.08013
1644.43904,0.07889
1642.94925,0.07888
1641.45946,0.07529
1639.96968,0.07581
1638.47989,0.08694
1636.99010,0.07451
1635.50031,0.06956
1634.01052,0.06945
1632.52073,0.07828
1631.03094,0.07797
1629.54116,0.08131
1628.05137,0.09261
1626.56158,0.09166
1625.07179,0.08351
1623.58200,0.10451
1622.09221,0.10122
1620.60243,0.09314
1619.11264,0.09520
1617.62285,0.09463
1616.13306,0.08831
1614.64327,0.09116
1613.15348,0.08802
1611.66370,0.09886
1610.17391,0.09191
1608.68412,0.10111
1607.19433,0.08290
1605.70454,0.08276
1604.21475,0.08758
1602.72496,0.09243
1601.23518,0.08370
1599.74539,0.07379
1598.25560,0.09977
1596.76581,0.09159
1595.27602,0.09042
1593.78623,0.08614
1592.29645,0.07972
1590.80666,0.08150
1589.31687,0.07176
1587.82708,0.07576
1586.33729,0.07256
1584.84750,0.08431
1583.35771,0.07828
1581.86793,0.07924
1580.37814,0.08288
1578.88835,0.09425
1577.39856,0.08397
1575.90877,0.05807
1574.41898,0.05820
1572.92920,0.05329
1571.43941,0.05009
1569.94962,0.05137
1568.45983,0.05267
1566.97004,0.03943
1565.48025,0.03705
1563.99047,0.03662
1562.50068,0.03934
1561.01089,0.03510
1559.52110,0.03691
1558.03131,0.03898
1556.54152,0.03626
1555.05173,0.02658
1553.56195,0.02198
1552.07216,0.02222
1550.58237,0.01286
1549.09258,0.01748
1547.60279,0.02308
1546.11300,0.01644
1544.62322,0.01752
1543.13343,0.02248
1541.64364,0.00675
1540.15385,0.00514
1538.66406,0.00355
1537.17427,0.02735
1535.68448,0.01579
1534.19470,0.01701
1532.70491,0.00742
1531.21512,0.01038
1529.72533,0.02467
1528.23554,0.01299
1526.74575,0.02372
1525.25597,0.03688
1523.76618,0.03442
1522.27639,0.03463
1520.78660,0.04473
1519.29681,0.03825
1517.80702,0.05538
1516.31724,0.04509
1514.82745,0.04686
1513.33766,0.04673
1511.84787,0.04663
1510.35808,0.04101
1508.86829,0.03806
1507.37850,0.03827
1505.88872,0.04380
1504.39893,0.04694
1502.90914,0.04842
1501.41935,0.06702
1499.92956,0.06951
1498.43977,0.06216
1496.94999,0.06638
1495.46020,0.07328
1493.97041,0.07972
1492.48062,0.08835
1490.99083,0.09532
1489.50104,0.10568
1488.01125,0.10800
1486.52147,0.11035
1485.03168,0.12439
1483.54189,0.17505
1482.05210,0.17952
1480.56231,0.18328
1479.07252,0.20007
1477.58274,0.20653
1476.09295,0.20291
1474.60316,0.21351
1473.11337,0.22293
1471.62358,0.21721
1470.13379,0.23919
1468.64401,0.25326
1467.15422,0.27048
1465.66443,0.27003
1464.17464,0.26960
1462.68485,0.30302
1461.19506,0.35500
1459.70527,0.40484
1458.21549,0.44916
1456.72570,0.52457
1455.23591,0.59349
1453.74612,0.61767
1452.25633,0.65823
1450.76654,0.66175
1449.27676,0.67709
1447.78697,0.65659
1446.29718,0.66138
1444.80739,0.64345
1443.31760,0.62555
1441.82781,0.57601
1440.33802,0.54623
1438.84824,0.52876
1437.35845,0.48387
1435.86866,0.46428
1434.37887,0.49430
1432.88908,0.50845
1431.39929,0.54478
1429.90951,0.61050
1428.41972,0.68058
1426.92993,0.76464
1425.44014,0.80034
1423.95035,0.83486
1422.46056,0.86941
1420.97078,0.91577
1419.48099,0.91305
1417.99120,0.89928
1416.50141,0.92285
1415.01162,0.87591
1413.52183,0.82249
1412.03204,0.76645
1410.54226,0.71404
1409.05247,0.67465
1407.56268,0.62518
1406.07289,0.59548
1404.58310,0.56001
1403.09331,0.52458
1401.60353,0.47255
1400.11374,0.43644
1398.62395,0.37749
1397.13416,0.30844
1395.64437,0.26133
1394.15458,0.22242
1392.66479,0.19847
1391.17501,0.16731
1389.68522,0.14196
1388.19543,0.10941
1386.70564,0.09818
1385.21585,0.08699
1383.72606,0.06678
1382.23628,0.04805
1380.74649,0.02958
1379.25670,0.02702
1377.76691,0.01775
1376.27712,0.00368
1374.78733,0.01371
1373.29755,0.00355
1371.80776,0.00504
1370.31797,0.01305
1368.82818,0.01002
1367.33839,0.00701
1365.84860,0.01605
1364.35881,0.03403
1362.86903,0.02845
1361.37924,0.04912
1359.88945,0.07054
1358.39966,0.08597
1356.90987,0.13560
1355.42008,0.17106
1353.93030,0.22194
1352.44051,0.24986
1350.95072,0.27781
1349.46093,0.33117
1347.97114,0.40911
1346.48135,0.51115
1344.99156,0.57205
1343.50178,0.67558
1342.01199,0.69415
1340.52220,0.74525
1339.03241,0.78338
1337.54262,0.83164
1336.05283,0.86451
1334.56305,0.89741
1333.07326,0.89856
1331.58347,0.89444
1330.09368,0.91730
1328.60389,0.90263
1327.11410,0.88774
1325.62432,0.85266
1324.13453,0.84649
1322.64474,0.81964
1321.15495,0.80990
1319.66516,0.77612
1318.17537,0.74236
1316.68558,0.68840
1315.19580,0.62484
1313.70601,0.59091
1312.21622,0.55339
1310.72643,0.47185
1309.23664,0.43197
1307.74685,0.41379
1306.25707,0.40020
1304.76728,0.38639
1303.27749,0.37261
1301.78770,0.31167
1300.29791,0.29047
1298.80812,0.21393
1297.31834,0.18701
1295.82855,0.15625
1294.33876,0.13708
1292.84897,0.11841
1291.35918,0.11252
1289.86939,0.10978
1288.37960,0.10707
1286.88982,0.09235
1285.40003,0.06369
1283.91024,0.06875
1282.42045,0.05290
1280.93066,0.05873
1279.44087,0.05399
1277.95109,0.04134
1276.46130,0.05037
1274.97151,0.04667
1273.48172,0.04300
1271.99193,0.05066
1270.50214,0.04173
1269.01235,0.04728
1267.52257,0.02901
1266.03278,0.01703
1264.54299,0.02048
1263.05320,0.01889
1261.56341,0.01830
1260.07362,0.01772
1258.58384,0.02079
1257.09405,0.02459
1255.60426,0.02602
1254.11447,0.01952
1252.62468,0.00848
1251.13489,0.01021
1249.64511,0.00355
1248.15532,0.02312
1246.66553,0.02816
1245.17574,0.03322
1243.68595,0.01291
1242.19616,0.00995
1240.70637,0.01906
1239.21659,0.02602
1237.72680,0.02386
1236.23701,0.01715
1234.74722,0.02635
1233.25743,0.02293
1231.76764,0.01954
1230.27786,0.02953
1228.78807,0.01114
1227.29828,0.01276
1225.80849,0.01945
1224.31870,0.00884
1222.82891,0.00355
1221.33912,0.02440
1219.84934,0.02855
1218.35955,0.03272
1216.86976,0.03487
1215.37997,0.03584
1213.89018,0.05970
1212.40039,0.06986
1210.91061,0.06705
1209.42082,0.07413
1207.93103,0.07125
1206.44124,0.06839
1204.95145,0.06158
1203.46166,0.06948
1201.97188,0.06127
1200.48209,0.06537
1198.99230,0.06877
1197.50251,0.06280
1196.01272,0.03567
1194.52293,0.03180
1193.03314,0.02795
1191.54336,0.03460
1190.05357,0.01864
1188.56378,0.02124
1187.07399,0.02459
1185.58420,0.02772
1184.09441,0.00848
1182.60463,0.00697
1181.11484,0.00547
1179.62505,0.02242
1178.13526,0.02591
1176.64547,0.01113
1175.15568,0.02358
1173.66589,0.00355
1172.17611,0.00911
1170.68632,0.01421
1169.19653,0.01934
1167.70674,0.01823
1166.21695,0.02221
1164.72716,0.04113
1163.23738,0.02854
1161.74759,0.03908
1160.25780,0.04291
1158.76801,0.05338
1157.27822,0.06387
1155.78843,0.07860
1154.29865,0.09456
1152.80886,0.09779
1151.31907,0.11355
1149.82928,0.11417
1148.33949,0.12662
1146.84970,0.12717
1145.35991,0.12774
1143.87013,0.13905
1142.38034,0.15785
1140.89055,0.17282
1139.40076,0.18348
1137.91097,0.20139
1136.42118,0.20078
1134.93140,0.20525
1133.44161,0.20975
1131.95182,0.22366
1130.46203,0.22387
1128.97224,0.25010
1127.48245,0.23832
1125.99266,0.22994
1124.50288,0.24999
1123.01309,0.25068
1121.52330,0.25139
1120.03351,0.23372
1118.54372,0.25819
1117.05393,0.24610
1115.56415,0.26412
1114.07436,0.26484
1112.58457,0.25956
1111.09478,0.25430
1109.60499,0.24449
1108.11520,0.23904
1106.62542,0.24156
1105.13563,0.24651
1103.64584,0.24234
1102.15605,0.24878
1100.66626,0.24176
1099.17647,0.23477
1097.68668,0.22925
1096.19690,0.20955
1094.70711,0.20214
1093.21732,0.20704
1091.72753,0.19800
1090.23774,0.18466
1088.74795,0.17133
1087.25817,0.17705
1085.76838,0.19122
1084.27859,0.19024
1082.78880,0.17484
1081.29901,0.17705
1079.80922,0.17373
1078.31943,0.18694
1076.82965,0.20016
1075.33986,0.17574
1073.85007,0.18119
1072.36028,0.19027
1070.87049,0.19649
1069.38070,0.25257
1067.89092,0.26666
1066.40113,0.28077
1064.91134,0.30346
1063.42155,0.38370
1061.93176,0.47143
1060.44197,0.54907
1058.95219,0.63443
1057.46240,0.68998
1055.97261,0.74554
1054.48282,0.83026
1052.99303,0.91404
1051.50324,0.90011
1050.01345,0.88957
1048.52367,0.90337
1047.03388,0.89589
1045.54409,0.88843
1044.05430,0.86017
1042.56451,0.81822
1041.07472,0.74668
1039.58494,0.70044
1038.09515,0.59934
1036.60536,0.56579
1035.11557,0.53226
1033.62578,0.48780
1032.13599,0.43084
1030.64620,0.37199
1029.15642,0.31821
1027.66663,0.29251
1026.17684,0.26682
1024.68705,0.24152
1023.19726,0.20012
1021.70747,0.16476
1020.21769,0.15999
1018.72790,0.12805
1017.23811,0.12442
1015.74832,0.12080
1014.25853,0.10626
1012.76874,0.09367
1011.27896,0.09339
1009.78917,0.09890
1008.29938,0.06182
1006.80959,0.05944
1005.31980,0.05708
1003.83001,0.04776
1002.34022,0.03389
1000.85044,0.03522
999.36065,0.03969
997.87086,0.03877
996.38107,0.03788
994.89128,0.04868
993.40149,0.05879
991.91171,0.06555
990.42192,0.06849
988.93213,0.10972
987.44234,0.11294
985.95255,0.11618
984.46276,0.11681
982.97297,0.10927
981.48319,0.08514
979.99340,0.06224
978.50361,0.05886
977.01382,0.05551
975.52403,0.04280
974.03424,0.02457
972.54446,0.01888
971.05467,0.01514
969.56488,0.00469
968.07509,0.00882
966.58530,0.01298
965.09551,0.01342
963.60573,0.00355
962.11594,0.01866
960.62615,0.01767
959.13636,0.01875
957.64657,0.01986
956.15678,0.03700
954.66699,0.04717
953.17721,0.04077
951.68742,0.04209
950.19763,0.05005
948.70784,0.05804
947.21805,0.06039
945.72826,0.08540
944.23848,0.09936
942.74869,0.12128
941.25890,0.13360
939.76911,0.14426
938.27932,0.15494
936.78953,0.15819
935.29974,0.17277
933.80996,0.20206
932.32017,0.19550
930.83038,0.20667
929.34059,0.21785
927.85080,0.24772
926.36101,0.24824
924.87123,0.27960
923.38144,0.33530
921.89165,0.36959
920.40186,0.40391
918.91207,0.49290
917.42228,0.62861
915.93250,0.74220
914.44271,0.95716
912.95292,1.06393
911.46313,1.17073
909.97334,1.37782
908.48355,1.58854
906.99376,1.76847
905.50398,1.88295
904.01419,1.92198
902.52440,1.96104
901.03461,2.00000
899.54482,1.96075
898.05503,1.89456
896.56525,1.70972
895.07546,1.59820
893.58567,1.48671
892.09588,1.19434
890.60609,0.93978
889.11630,0.70956
887.62651,0.52438
886.13673,0.44948
884.64694,0.37460
883.15715,0.28457
881.66736,0.21335
880.17757,0.15515
878.68778,0.14103
877.19800,0.12693
875.70821,0.07844
874.21842,0.04657
872.72863,0.03808
871.23884,0.03684
869.74905,0.02912
868.25927,0.02142
866.76948,0.02193
865.27969,0.00586
863.78990,0.01797
862.30011,0.01061
860.81032,0.03409
859.32053,0.05759
857.83075,0.04765
856.34096,0.06783
854.85117,0.09068
853.36138,0.10152
851.87159,0.10107
850.38180,0.10064
848.89202,0.12960
847.40223,0.13163
845.91244,0.15197
844.42265,0.16331
842.93286,0.17468
841.44307,0.14984
839.95329,0.18905
838.46350,0.19868
836.97371,0.20304
835.48392,0.20526
833.99413,0.20750
832.50434,0.22060
831.01455,0.21061
829.52477,0.19920
828.03498,0.16302
826.54519,0.16056
825.05540,0.15813
823.56561,0.11263
822.07582,0.11940
820.58604,0.11680
819.09625,0.11037
817.60646,0.10396
816.11667,0.08988
814.62688,0.09508
813.13709,0.09139
811.64730,0.10145
810.15752,0.09745
808.66773,0.09348
807.17794,0.10530
805.68815,0.11979
804.19836,0.12106
802.70857,0.12308
801.21879,0.12512
799.72900,0.10937
798.23921,0.09437
796.74942,0.08060
795.25963,0.08346
793.76984,0.08634
792.28006,0.08925
790.79027,0.12131
789.30048,0.13052
787.81069,0.15613
786.32090,0.16647
784.83111,0.17684
783.34132,0.21528
781.85154,0.24772
780.36175,0.26310
778.87196,0.28560
777.38217,0.30812
775.89238,0.32429
774.40259,0.34409
772.91281,0.32324
771.42302,0.31444
769.93323,0.30567
768.44344,0.27357
766.95365,0.23332
765.46386,0.23160
763.97407,0.17044
762.48429,0.15541
760.99450,0.14040
759.50471,0.13108
758.01492,0.10444
756.52513,0.08216
755.03534,0.08134
753.54556,0.08053
752.05577,0.06266
750.56598,0.05901
749.07619,0.04191
747.58640,0.04047
746.09661,0.03906
744.60683,0.03575
743.11704,0.02548
741.62725,0.01572
740.13746,0.01345
738.64767,0.01119
737.15788,0.00680
735.66809,0.02361
734.17831,0.00650
732.68852,0.01325
731.19873,0.02003
729.70894,0.00997
728.21915,0.01824
726.72936,0.01208
725.23958,0.00355
723.74979,0.01639
722.26000,0.02926
720.77021,0.02879
719.28042,0.01752
717.79063,0.00193
716.30084,0.00700
714.81106,0.01208
713.32127,0.00805
711.83148,0.02041
710.34169,0.03544
708.85190,0.03364
707.36211,0.03187
705.87233,0.05058
704.38254,0.04548
702.89275,0.04186
701.40296,0.04415
699.91317,0.04647
698.42338,0.05687
696.93360,0.08488
695.44381,0.10327
693.95402,0.09726
692.46423,0.09127
690.97444,0.10541
689.48465,0.12318
687.99486,0.17925
686.50508,0.19165
685.01529,0.20408
683.52550,0.22772
682.03571,0.25789
680.54592,0.25149
679.05613,0.26413
677.56635,0.27680
676.07656,0.26662
674.58677,0.26007
673.09698,0.25211
671.60719,0.22864
670.11740,0.20520
668.62761,0.20525
667.13783,0.16536
665.64804,0.15342
664.15825,0.14151
662.66846,0.11638
661.17867,0.07755
659.68888,0.07220
658.19910,0.05954
656.70931,0.04690
655.21952,0.04476
653.72973,0.03879
652.23994,0.04055
650.75015,0.03788
649.26037,0.03523
647.77058,0.02430
646.28079,0.03770
644.79100,0.02345
643.30121,0.03077
641.81142,0.03811
640.32163,0.01574
638.83185,0.01867
637.34206,0.02934
635.85227,0.01643
634.36248,0.00355
632.87269,0.00619
631.38290,0.00670
629.89312,0.01613
628.40333,0.01247
626.91354,0.00883
625.42375,0.02003
623.93396,0.02257
622.44417,0.01407
620.95438,0.00560
619.46460,0.02362
617.97481,0.03614
616.48502,0.06577
614.99523,0.07448
613.50544,0.08321
612.01565,0.11267
610.52587,0.15058
609.03608,0.18322
607.54629,0.19758
606.05650,0.21197
604.56671,0.24877
603.07692,0.31473
601.58714,0.34784
600.09735,0.38099
598.60756,0.39862
597.11777,0.42568
595.62798,0.42988
594.13819,0.41750
592.64840,0.40514
591.15862,0.36970
589.66883,0.34945
588.17904,0.24448
586.68925,0.22909
585.19946,0.21372
583.70967,0.16131
582.21989,0.14743
580.73010,0.12143
579.24031,0.09544
577.75052,0.05131
576.26073,0.06208
574.77094,0.04303
573.28115,0.04434
571.79137,0.04568
570.30158,0.05221
568.81179,0.07153
567.32200,0.07354
565.83221,0.07558
564.34242,0.08317
562.85264,0.07900
561.36285,0.12154
559.87306,0.12945
558.38327,0.13738
556.89348,0.14437
555.40369,0.16126
553.91391,0.15253
552.42412,0.14382
550.93433,0.16560
549.44454,0.18065
547.95475,0.19140
546.46496,0.20024
544.97517,0.20911
543.48539,0.19344
541.99560,0.22210
540.50581,0.24981
539.01602,0.27755
537.52623,0.33083
536.03644,0.36271
534.54666,0.40665
533.05687,0.42269
531.56708,0.43875
530.07729,0.50154
528.58750,0.57615
527.09771,0.60179
525.60792,0.62746
524.11814,0.66266
522.62835,0.72821
521.13856,0.79499
519.64877,0.81113
518.15898,0.82728
516.66919,0.86958
515.17941,0.86521
513.68962,0.89263
512.19983,0.92007
510.71004,0.86522
509.22025,0.81929
507.73046,0.74017
506.24068,0.67394
504.75089,0.60775
503.26110,0.51088
501.77131,0.39984
500.28152,0.35851
498.79173,0.31720
497.30194,0.23367
495.81216,0.17712
494.32237,0.15791
492.83258,0.13873
491.34279,0.11788
489.85300,0.11415
488.36321,0.10370
486.87343,0.09665
485.38364,0.08962
483.89385,0.07924
482.40406,0.08309
480.91427,0.09371
479.42448,0.10434
477.93469,0.11958
476.44491,0.14423
474.95512,0.15771
473.46533,0.17121
471.97554,0.16824
470.48575,0.17228
468.99596,0.16263
467.50618,0.16443
466.01639,0.16625
464.52660,0.12465
463.03681,0.09463
461.54702,0.09773
460.05723,0.10086
458.56745,0.06850
457.07766,0.04579
455.58787,0.04140
454.09808,0.03704
452.60829,0.03776
451.11850,0.02839
449.62871,0.03132
448.13893,0.03427
446.64914,0.00355
445.15935,0.02073
443.66956,0.03721
442.17977,0.03855
440.68998,0.03991
439.20020,0.05093
437.71041,0.04391
436.22062,0.04065
434.73083,0.03742
433.24104,0.04251
431.75125,0.04787
430.26146,0.04507
428.77168,0.04229
427.28189,0.05470
425.79210,0.05630
424.30231,0.04637
422.81252,0.03647
421.32273,0.02779
419.83295,0.02828
418.34316,0.01821
416.85337,0.00816
415.36358,0.02798
413.87379,0.03122
412.38400,0.02689
410.89422,0.02260
409.40443,0.03265
407.91464,0.05235
406.42485,0.00611
404.93506,0.01142
403.44527,0.01675
401.95548,0.03197
400.46570,0.02940
398.97591,0.03168
397.48612,0.03397
395.99633,0.03749
394.50654,0.03069
393.01675,0.03282
391.52697,0.03497
390.03718,0.04051
388.54739,0.01695
387.05760,0.01207
385.56781,0.00721
384.07802,0.02475
382.58824,0.02738
381.09845,0.01860
379.60866,0.00984
378.11887,0.03565
376.62908,0.03019
375.13929,0.01838
373.64950,0.00659
372.15972,0.00000
370.66993,0.02153
369.18014,0.01324
367.69035,0.00497
366.20056,0.01678
364.71077,0.02139
363.22099,0.01399
361.73120,0.00661
360.24141,0.02261
358.75162,0.04537
357.26183,0.04240
355.77204,0.03945
354.28225,0.03869
352.79247,0.04253
351.30268,0.04086
349.81289,0.03921
348.32310,0.05708
346.83331,0.01865
345.34352,0.02309
343.85374,0.02756
342.36395,0.04817
340.87416,0.04257
339.38437,0.04603
337.89458,0.04950
336.40479,0.04422
334.91501,0.02716
333.42522,0.03035
331.93543,0.03356
330.44564,0.01296
328.95585,0.00827
327.46606,0.00590
325.97627,0.00355
324.48649,0.02825
322.99670,0.03901
321.50691,0.03595
320.01712,0.03292
318.52733,0.05916
317.03754,0.09625
315.54776,0.07283
314.05797,0.04943
312.56818,0.05434
311.07839,0.07347
309.58860,0.06579
308.09881,0.05814
306.60902,0.04075
305.11924,0.03495
303.62945,0.02171
302.13966,0.00849
300.64987,0.01287
299.16008,0.00355
