1778.52000,0.00535
1777.03021,0.00412
1775.54042,-0.00000
1774.05063,0.01238
1772.56085,0.00591
1771.07106,0.01674
1769.58127,0.01006
1768.09148,0.00791
1766.60169,0.00499
1765.11190,0.02151
1763.62212,0.01305
1762.13233,0.01739
1760.64254,0.01722
1759.15275,0.01841
1757.66296,0.02122
1756.17317,0.01183
1754.68339,0.01708
1753.19360,0.00348
1751.70381,0.02686
1750.21402,0.01439
1748.72423,0.01815
1747.23444,0.01875
1745.74465,0.02867
1744.25487,0.02054
1742.76508,0.01430
1741.27529,0.00915
1739.78550,0.01250
1738.29571,0.01640
1736.80592,0.01847
1735.31614,0.02561
1733.82635,0.01762
1732.33656,0.00992
1730.84677,0.01289
1729.35698,0.01109
1727.86719,0.01383
1726.37740,0.00862
1724.88762,0.00902
1723.39783,0.01875
1721.90804,0.01228
1720.41825,0.01461
1718.92846,0.00740
1717.43867,0.00499
1715.94889,0.00801
1714.45910,0.00707
1712.96931,0.01308
1711.47952,0.00849
1709.98973,0.00738
1708.49994,0.00922
1707.01016,0.00696
1705.52037,0.00473
1704.03058,0.01594
1702.54079,0.01203
1701.05100,0.01531
1699.56121,0.01995
1698.07142,0.01611
1696.58164,0.01176
1695.09185,0.01860
1693.60206,0.00499
1692.11227,0.01460
1690.62248,0.01651
1689.13269,0.04264
1687.64291,0.02706
1686.15312,0.03570
1684.66333,0.02841
1683.17354,0.03177
1681.68375,0.03065
1680.19396,0.03353
1678.70417,0.04521
1677.21439,0.04894
1675.72460,0.05428
1674.23481,0.04636
1672.74502,0.05787
1671.25523,0.05426
1669.76544,0.06714
1668.27566,0.05640
1666.78587,0.06720
1665.29608,0.08734
1663.80629,0.08969
1662.31650,0.08090
1660.82671,0.09207
1659.33693,0.08147
1657.84714,0.08737
1656.35735,0.07230
1654.86756,0.09074
1653.37777,0.08316
1651.88798,0.09686
1650.39819,0.07710
1648.90841,0.08926
1647.41862,0.08523
1645.92883,0.08561
1644.43904,0.08602
1642.94925,0.09907
1641.45946,0.08052
1639.96968,0.08379
1638.47989,0.08841
1636.99010,0.08588
1635.50031,0.08257
1634.01052,0.07929
1632.52073,0.07576
1631.03094,0.08821
1629.54116,0.09431
1628.05137,0.09219
1626.56158,0.10657
1625.07179,0.10370
1623.58200,0.11148
1622.09221,0.10308
1620.60243,0.11038
1619.11264,0.09963
1617.62285,0.09714
1616.13306,0.08379
1614.64327,0.09623
1613.15348,0.10020
1611.66370,0.08798
1610.17391,0.09279
1608.68412,0.10161
1607.19433,0.08361
1605.70454,0.09674
1604.21475,0.08649
1602.72496,0.07628
1601.23518,0.09240
1599.74539,0.08276
1598.25560,0.09308
1596.76581,0.10103
1595.27602,0.10396
1593.78623,0.07501
1592.29645,0.07134
1590.80666,0.07912
1589.31687,0.06833
1587.82708,0.06180
1586.33729,0.07019
1584.84750,0.07010
1583.35771,0.08172
1581.86793,0.07583
1580.37814,0.08723
1578.88835,0.06012
1577.39856,0.07610
1575.90877,0.06764
1574.41898,0.06479
1572.92920,0.05346
1571.43941,0.04933
1569.94962,0.04562
1568.45983,0.04194
1566.97004,0.03203
1565.48025,0.03225
1563.99047,0.03462
1562.50068,0.04419
1561.01089,0.04607
1559.52110,0.03017
1558.03131,0.03929
1556.54152,0.02529
1555.05173,0.02037
1553.56195,0.02556
1552.07216,0.02201
1550.58237,0.02778
1549.09258,0.01498
1547.60279,0.01230
1546.11300,0.00884
1544.62322,0.01152
1543.13343,0.00891
1541.64364,0.01164
1540.15385,0.00921
1538.66406,0.00681
1537.17427,0.02264
1535.68448,0.00499
1534.19470,0.02204
1532.70491,0.02582
1531.21512,0.01872
1529.72533,0.02893
1528.23554,0.01736
1526.74575,0.03240
1525.25597,0.03125
1523.76618,0.04182
1522.27639,0.03088
1520.78660,0.02714
1519.29681,0.04416
1517.80702,0.04234
1516.31724,0.04452
1514.82745,0.05497
1513.33766,0.04470
1511.84787,0.03447
1510.35808,0.04233
1508.86829,0.05128
1507.37850,0.06184
1505.88872,0.03336
1504.39893,0.04451
1502.90914,0.06286
1501.41935,0.06741
1499.92956,0.08075
1498.43977,0.06143
1496.94999,0.07323
1495.46020,0.07282
1493.97041,0.08308
1492.48062,0.09495
1490.99083,0.11774
1489.50104,0.10361
1488.01125,0.11130
1486.52147,0.11902
1485.03168,0.13712
1483.54189,0.17758
1482.05210,0.16915
1480.56231,0.17829
1479.07252,0.19304
1477.58274,0.20621
1476.09295,0.20160
1474.60316,0.20712
1473.11337,0.21744
1471.62358,0.22885
1470.13379,0.22195
1468.64401,0.22995
1467.15422,0.26908
1465.66443,0.28696
1464.17464,0.30487
1462.68485,0.30181
1461.19506,0.37133
1459.70527,0.41855
1458.21549,0.44135
1456.72570,0.48755
1455.23591,0.55053
1453.74612,0.57578
1452.25633,0.60266
1450.76654,0.62584
1449.27676,0.63947
1447.78697,0.64621
1446.29718,0.62189
1444.80739,0.60556
1443.31760,0.58925
1441.82781,0.57855
1440.33802,0.53651
1438.84824,0.50725
1437.35845,0.45356
1435.86866,0.45199
1434.37887,0.46082
1432.88908,0.49864
1431.39929,0.53116
1429.90951,0.60571
1428.41972,0.70128
1426.92993,0.75143
1425.44014,0.81860
1423.95035,0.82108
1422.46056,0.82359
1420.97078,0.87170
1419.48099,0.87332
1417.99120,0.84467
1416.50141,0.88461
1415.01162,0.88019
1413.52183,0.80403
1412.03204,0.75049
1410.54226,0.69590
1409.05247,0.65065
1407.56268,0.64528
1406.07289,0.57376
1404.58310,0.54971
1403.09331,0.52568
1401.60353,0.44945
1400.11374,0.39742
1398.62395,0.36616
1397.13416,0.30674
1395.64437,0.27765
1394.15458,0.23210
1392.66479,0.18977
1391.17501,0.16686
1389.68522,0.12697
1388.19543,0.09853
1386.70564,0.09908
1385.21585,0.09966
1383.72606,0.06572
1382.23628,0.06129
1380.74649,0.04095
1379.25670,0.02648
1377.76691,0.03356
1376.27712,0.02976
1374.78733,0.00499
1373.29755,0.00697
1371.80776,0.00578
1370.31797,0.00612
1368.82818,0.00891
1367.33839,0.01174
1365.84860,0.02535
1364.35881,0.03234
1362.86903,0.03564
1361.37924,0.05676
1359.88945,0.07499
1358.39966,0.11238
1356.90987,0.12002
1355.42008,0.18643
1353.93030,0.20901
1352.44051,0.24809
1350.95072,0.28719
1349.46093,0.34174
1347.97114,0.41571
1346.48135,0.46685
1344.99156,0.54299
1343.50178,0.63113
1342.01199,0.66639
1340.52220,0.72985
1339.03241,0.77074
1337.54262,0.80501
1336.05283,0.82256
1334.56305,0.84013
1333.07326,0.88351
1331.58347,0.92320
1330.09368,0.90523
1328.60389,0.91625
1327.11410,0.88690
1325.62432,0.85571
1324.13453,0.80913
1322.64474,0.78915
1321.15495,0.75431
1319.66516,0.72587
1318.17537,0.69746
1316.68558,0.65366
1315.19580,0.59207
1313.70601,0.56320
1312.21622,0.52718
1310.72643,0.47762
1309.23664,0.43926
1307.74685,0.41819
1306.25707,0.41203
1304.76728,0.37573
1303.27749,0.33946
1301.78770,0.30759
1300.29791,0.25767
1298.80812,0.20485
1297.31834,0.17572
1295.82855,0.14155
1294.33876,0.12177
1292.84897,0.11078
1291.35918,0.10380
1289.86939,0.09883
1288.37960,0.09390
1286.88982,0.06892
1285.40003,0.06389
1283.91024,0.06182
1282.42045,0.07332
1280.93066,0.04605
1279.44087,0.06398
1277.95109,0.04605
1276.46130,0.05766
1274.97151,0.05453
1273.48172,0.05143
1271.99193,0.05141
1270.50214,0.03014
1269.01235,0.03416
1267.52257,0.02996
1266.03278,0.01940
1264.54299,0.01285
1263.05320,0.03504
1261.56341,0.03200
1260.07362,0.02898
1258.58384,0.02997
1257.09405,0.02062
1255.60426,0.01342
1254.11447,0.01847
1252.62468,0.02515
1251.13489,0.00499
1249.64511,0.02490
1248.15532,0.02993
1246.66553,0.02769
1245.17574,0.02547
1243.68595,0.03058
1242.19616,0.02030
1240.70637,0.01483
1239.21659,0.02107
1237.72680,0.02628
1236.23701,0.02885
1234.74722,0.03092
1233.25743,0.03647
1231.76764,0.04204
1230.27786,0.02743
1228.78807,0.02507
1227.29828,0.01238
1225.80849,0.00927
1224.31870,0.01735
1222.82891,0.00499
1221.33912,0.01050
1219.84934,0.02015
1218.35955,0.02982
1216.86976,0.02556
1215.37997,0.05216
1213.89018,0.06443
1212.40039,0.05519
1210.91061,0.08266
1209.42082,0.07825
1207.93103,0.07068
1206.44124,0.06314
1204.95145,0.06598
1203.46166,0.04812
1201.97188,0.07227
1200.48209,0.05366
1198.99230,0.06617
1197.50251,0.04894
1196.01272,0.03199
1194.52293,0.03115
1193.03314,0.03033
1191.54336,0.02303
1190.05357,0.02532
1188.56378,0.01460
1187.07399,0.02385
1185.58420,0.02435
1184.09441,0.00946
1182.60463,0.00721
1181.11484,0.00499
1179.62505,0.00794
1178.13526,0.01064
1176.64547,0.01231
1175.15568,0.01161
1173.66589,0.01385
1172.17611,0.02808
1170.68632,0.01908
1169.19653,0.01010
1167.70674,0.00499
1166.21695,0.02358
1164.72716,0.06398
1163.23738,0.05177
1161.74759,0.06325
1160.25780,0.07316
1158.76801,0.07179
1157.27822,0.07045
1155.78843,0.08628
1154.29865,0.10027
1152.80886,0.10391
1151.31907,0.11131
1149.82928,0.11341
1148.33949,0.11952
1146.84970,0.12964
1145.35991,0.13979
1143.87013,0.14119
1142.38034,0.15644
1140.89055,0.17383
1139.40076,0.16866
1137.91097,0.19408
1136.42118,0.21846
1134.93140,0.22000
1133.44161,0.22157
1131.95182,0.22502
1130.46203,0.25375
1128.97224,0.26576
1127.48245,0.26583
1125.99266,0.26645
1124.50288,0.26790
1123.01309,0.26658
1121.52330,0.26529
1120.03351,0.25351
1118.54372,0.24655
1117.05393,0.25716
1115.56415,0.25795
1114.07436,0.27578
1112.58457,0.27211
1111.09478,0.26845
1109.60499,0.26456
1108.11520,0.26680
1106.62542,0.27146
1105.13563,0.26578
1103.64584,0.24417
1102.15605,0.22871
1100.66626,0.22735
1099.17647,0.22602
1097.68668,0.21833
1096.19690,0.20614
1094.70711,0.22296
1093.21732,0.21720
1091.72753,0.21626
1090.23774,0.20404
1088.74795,0.19184
1087.25817,0.17741
1085.76838,0.19145
1084.27859,0.19700
1082.78880,0.19115
1081.29901,0.18080
1079.80922,0.18244
1078.31943,0.19672
1076.82965,0.21104
1075.33986,0.20451
1073.85007,0.20411
1072.36028,0.19923
1070.87049,0.22998
1069.38070,0.24534
1067.89092,0.26179
1066.40113,0.27827
1064.91134,0.31231
1063.42155,0.38545
1061.93176,0.45435
1060.44197,0.55970
1058.95219,0.64859
1057.46240,0.70136
1055.97261,0.75415
1054.48282,0.86465
1052.99303,0.92759
1051.50324,0.94536
1050.01345,0.91692
1048.52367,0.91826
1047.03388,0.90036
1045.54409,0.88249
1044.05430,0.89321
1042.56451,0.81890
1041.07472,0.77784
1039.58494,0.71102
1038.09515,0.62854
1036.60536,0.60496
1035.11557,0.58140
1033.62578,0.51415
1032.13599,0.43097
1030.64620,0.35632
1029.15642,0.31731
1027.66663,0.29693
1026.17684,0.27658
1024.68705,0.25891
1023.19726,0.21867
1021.70747,0.17712
1020.21769,0.14703
1018.72790,0.14567
1017.23811,0.13250
1015.74832,0.11936
1014.25853,0.11408
1012.76874,0.10245
1011.27896,0.10227
1009.78917,0.10424
1008.29938,0.06850
1006.80959,0.06839
1005.31980,0.06831
1003.83001,0.04513
1002.34022,0.02542
1000.85044,0.02409
999.36065,0.04217
997.87086,0.03995
996.38107,0.03776
994.89128,0.04024
993.40149,0.06135
991.91171,0.06494
990.42192,0.08450
988.93213,0.10382
987.44234,0.11120
985.95255,0.11861
984.46276,0.13030
982.97297,0.09815
981.48319,0.08808
979.99340,0.06050
978.50361,0.04942
977.01382,0.03837
975.52403,0.04595
974.03424,0.02856
972.54446,0.02104
971.05467,0.02523
969.56488,0.01749
968.07509,0.01123
966.58530,0.00499
965.09551,0.00861
963.60573,0.01598
962.11594,0.02868
960.62615,0.02599
959.13636,0.03329
957.64657,0.04062
956.15678,0.03747
954.66699,0.02318
953.17721,0.03736
951.68742,0.04066
950.19763,0.05130
948.70784,0.06196
947.21805,0.07730
945.72826,0.07804
944.23848,0.10858
942.74869,0.10485
941.25890,0.13756
939.76911,0.13826
938.27932,0.13899
936.78953,0.17204
935.29974,0.18518
933.80996,0.18000
932.32017,0.20195
930.83038,0.20413
929.34059,0.20633
927.85080,0.22969
926.36101,0.26397
924.87123,0.30306
923.38144,0.35068
921.89165,0.38556
920.40186,0.42047
918.91207,0.49873
917.42228,0.60598
915.93250,0.77359
914.44271,0.99865
912.95292,1.09534
911.46313,1.19206
909.97334,1.38927
908.48355,1.60512
906.99376,1.78617
905.50398,1.88856
904.01419,1.92241
902.52440,1.95627
901.03461,2.00000
899.54482,1.97969
898.05503,1.89190
896.56525,1.73847
895.07546,1.60447
893.58567,1.47050
892.09588,1.19381
890.60609,0.91795
889.11630,0.69979
887.62651,0.50956
886.13673,0.44747
884.64694,0.38541
883.15715,0.26915
881.66736,0.22202
880.17757,0.16747
878.68778,0.14790
877.19800,0.12835
875.70821,0.09088
874.21842,0.05344
872.72863,0.03596
871.23884,0.04535
869.74905,0.03788
868.25927,0.03044
866.76948,0.02688
865.27969,0.00499
863.78990,0.00560
862.30011,0.03706
860.81032,0.04355
859.32053,0.05007
857.83075,0.06220
856.34096,0.07754
854.85117,0.10195
853.36138,0.07720
851.87159,0.08504
850.38180,0.09290
848.89202,0.12192
847.40223,0.13926
845.91244,0.13431
844.42265,0.13775
842.93286,0.14121
841.44307,0.16795
839.95329,0.17798
838.46350,0.19520
836.97371,0.19730
835.48392,0.20089
833.99413,0.20449
832.50434,0.21411
831.01455,0.20540
829.52477,0.18662
828.03498,0.16548
826.54519,0.15432
825.05540,0.14319
823.56561,0.12132
822.07582,0.12047
820.58604,0.11831
819.09625,0.10980
817.60646,0.10131
816.11667,0.08302
814.62688,0.09584
813.13709,0.08769
811.64730,0.08887
810.15752,0.09287
808.66773,0.09688
807.17794,0.10505
805.68815,0.11616
804.19836,0.10789
802.70857,0.11001
801.21879,0.11215
799.72900,0.08641
798.23921,0.07292
796.74942,0.08178
795.25963,0.08495
793.76984,0.08815
792.28006,0.09150
790.79027,0.10046
789.30048,0.11157
787.81069,0.14955
786.32090,0.16708
784.83111,0.18464
783.34132,0.20940
781.85154,0.23100
780.36175,0.26830
778.87196,0.28609
777.38217,0.30390
775.89238,0.30779
774.40259,0.32366
772.91281,0.30526
771.42302,0.29965
769.93323,0.29406
768.44344,0.26723
766.95365,0.23457
765.46386,0.18600
763.97407,0.15525
762.48429,0.14340
760.99450,0.13158
759.50471,0.11181
758.01492,0.07983
756.52513,0.07658
755.03534,0.07163
753.54556,0.06671
752.05577,0.07762
750.56598,0.06012
749.07619,0.04849
747.58640,0.03621
746.09661,0.02397
744.60683,0.03261
743.11704,0.02798
741.62725,0.02232
740.13746,0.02266
738.64767,0.02303
737.15788,0.00574
735.66809,0.01426
734.17831,0.00499
732.68852,0.00629
731.19873,0.00761
729.70894,0.00431
728.21915,0.00717
726.72936,0.01405
725.23958,0.00499
723.74979,0.00461
722.26000,0.00426
720.77021,0.01141
719.28042,0.02497
717.79063,0.00612
716.30084,0.01122
714.81106,0.01634
713.32127,0.00209
711.83148,0.01597
710.34169,0.01446
708.85190,0.01895
707.36211,0.02347
705.87233,0.02868
704.38254,0.04667
702.89275,0.04103
701.40296,0.03993
699.91317,0.03885
698.42338,0.04019
696.93360,0.07372
695.44381,0.09238
693.95402,0.10150
692.46423,0.11065
690.97444,0.12195
689.48465,0.14735
687.99486,0.16162
686.50508,0.17086
685.01529,0.18013
683.52550,0.22849
682.03571,0.23249
680.54592,0.24395
679.05613,0.24986
677.56635,0.25579
676.07656,0.26254
674.58677,0.25177
673.09698,0.24794
671.60719,0.23483
670.11740,0.22175
668.62761,0.17891
667.13783,0.14594
665.64804,0.14249
664.15825,0.13907
662.66846,0.11122
661.17867,0.08472
659.68888,0.05798
658.19910,0.04881
656.70931,0.03966
655.21952,0.03506
653.72973,0.03685
652.23994,0.03283
650.75015,0.04118
649.26037,0.04957
647.77058,0.04322
646.28079,0.03876
644.79100,0.04256
643.30121,0.03735
641.81142,0.03216
640.32163,0.04614
638.83185,0.03302
637.34206,0.03216
635.85227,0.01857
634.36248,0.00499
632.87269,0.01388
631.38290,0.01535
629.89312,0.01020
628.40333,0.01823
626.91354,0.02628
625.42375,0.01588
623.93396,0.02199
622.44417,0.02360
620.95438,0.02524
619.46460,0.03062
617.97481,0.05118
616.48502,0.07202
614.99523,0.07296
613.50544,0.07392
612.01565,0.12035
610.52587,0.15033
609.03608,0.17236
607.54629,0.19083
606.05650,0.20932
604.56671,0.25694
603.07692,0.31761
601.58714,0.33723
600.09735,0.35688
598.60756,0.42081
597.11777,0.39572
595.62798,0.41159
594.13819,0.40728
592.64840,0.40300
591.15862,0.38917
589.66883,0.32539
588.17904,0.25340
586.68925,0.22529
585.19946,0.19720
583.70967,0.18296
582.21989,0.12595
580.73010,0.10711
579.24031,0.08829
577.75052,0.05979
576.26073,0.05231
574.77094,0.03901
573.28115,0.03810
571.79137,0.03721
570.30158,0.04764
568.81179,0.03124
567.32200,0.03827
565.83221,0.04531
564.34242,0.07258
562.85264,0.09297
561.36285,0.10461
559.87306,0.11986
558.38327,0.13513
556.89348,0.11414
555.40369,0.12641
553.91391,0.13245
552.42412,0.13852
550.93433,0.17531
549.44454,0.18528
547.95475,0.17879
546.46496,0.16994
544.97517,0.16111
543.48539,0.19669
541.99560,0.22858
540.50581,0.24640
539.01602,0.26424
537.52623,0.31481
536.03644,0.37550
534.54666,0.40989
533.05687,0.43063
531.56708,0.45138
530.07729,0.49622
528.58750,0.56181
527.09771,0.59553
525.60792,0.62928
524.11814,0.67607
522.62835,0.69339
521.13856,0.76256
519.64877,0.79706
518.15898,0.83159
516.66919,0.85884
515.17941,0.84491
513.68962,0.83924
512.19983,0.83360
510.71004,0.85695
509.22025,0.82478
507.73046,0.72059
506.24068,0.66521
504.75089,0.60985
503.26110,0.47570
501.77131,0.38703
500.28152,0.33068
498.79173,0.27436
497.30194,0.22350
495.81216,0.19287
494.32237,0.16506
492.83258,0.13727
491.34279,0.10273
489.85300,0.09665
488.36321,0.07332
486.87343,0.06795
485.38364,0.06261
483.89385,0.07310
482.40406,0.09240
480.91427,0.08753
479.42448,0.08268
477.93469,0.10922
476.44491,0.12196
474.95512,0.13819
473.46533,0.15444
471.97554,0.16699
470.48575,0.16149
468.99596,0.17276
467.50618,0.17289
466.01639,0.17304
464.52660,0.10889
463.03681,0.07986
461.54702,0.07344
460.05723,0.06704
458.56745,0.04393
457.07766,0.01738
455.58787,0.02913
454.09808,0.04091
452.60829,0.02241
451.11850,0.00499
449.62871,0.01423
448.13893,0.02350
446.64914,0.01617
445.15935,0.04582
443.66956,0.01063
442.17977,0.01932
440.68998,0.02804
439.20020,0.02296
437.71041,0.01791
436.22062,0.02723
434.73083,0.03658
433.24104,0.03239
431.75125,0.03514
430.26146,0.02595
428.77168,0.01679
427.28189,0.03530
425.79210,0.03389
424.30231,0.03477
422.81252,0.03567
421.32273,0.04390
419.83295,0.01947
418.34316,0.02629
416.85337,0.03313
415.36358,0.03615
413.87379,0.02430
412.38400,0.02975
410.89422,0.03523
409.40443,0.02745
407.91464,0.03670
406.42485,0.02603
404.93506,0.02988
403.44527,0.03375
401.95548,0.02236
400.46570,0.04635
398.97591,0.04059
397.48612,0.03486
395.99633,0.04590
394.50654,0.03144
393.01675,0.02857
391.52697,0.02572
390.03718,0.01347
388.54739,0.00954
387.05760,0.01294
385.56781,0.01637
384.07802,0.02686
382.58824,0.03180
381.09845,0.03597
379.60866,0.04015
378.11887,0.04729
376.62908,0.03106
375.13929,0.01645
373.64950,0.00186
372.15972,0.02045
370.66993,0.02976
369.18014,0.04372
367.69035,0.05772
366.20056,0.04290
364.71077,0.06371
363.22099,0.04283
361.73120,0.02196
360.24141,0.04870
358.75162,0.06909
357.26183,0.06251
355.77204,0.05597
354.28225,0.06180
352.79247,0.06899
351.30268,0.06318
349.81289,0.05740
348.32310,0.04499
346.83331,0.07142
345.34352,0.06304
343.85374,0.05470
342.36395,0.07455
340.87416,0.08273
339.38437,0.08189
337.89458,0.08109
336.40479,0.06462
334.91501,0.03276
333.42522,0.01886
331.93543,0.00499
330.44564,0.01402
328.95585,0.02840
327.46606,0.03588
325.97627,0.04339
324.48649,0.05358
322.99670,0.04093
321.50691,0.05276
320.01712,0.06462
318.52733,0.07783
317.03754,0.07937
315.54776,0.07588
314.05797,0.07242
312.56818,0.10486
311.07839,0.09108
309.58860,0.08968
308.09881,0.08831
306.60902,0.05254
305.11924,0.04071
303.62945,0.02586
302.13966,0.01102
300.64987,0.00499
299.16008,0.00499
