1778.52000,0.02382
1777.03021,0.01608
1775.54042,0.02463
1774.05063,0.02523
1772.56085,0.01541
1771.07106,0.01083
1769.58127,0.01519
1768.09148,0.01742
1766.60169,0.01046
1765.11190,0.01703
1763.62212,0.01073
1762.13233,0.02565
1760.64254,0.00988
1759.15275,0.02515
1757.66296,0.02048
1756.17317,0.00478
1754.68339,0.01336
1753.19360,0.00447
1751.70381,0.00327
1750.21402,0.01746
1748.72423,0.00863
1747.23444,0.01304
1745.74465,0.02423
1744.25487,0.01639
1742.76508,0.00859
1741.27529,0.01063
1739.78550,0.02068
1738.29571,0.00988
1736.80592,0.01467
1735.31614,0.01335
1733.82635,0.00775
1732.33656,0.00248
1730.84677,0.00000
1729.35698,0.01044
1727.86719,0.01231
1726.37740,0.00437
1724.88762,0.00967
1723.39783,0.01806
1721.90804,0.00773
1720.41825,0.01156
1718.92846,0.00651
1717.43867,0.01622
1715.94889,0.01797
1714.45910,0.01975
1712.96931,0.00988
1711.47952,0.01381
1709.98973,0.00978
1708.49994,0.01653
1707.01016,0.01761
1705.52037,0.01872
1704.03058,0.00988
1702.54079,0.02290
1701.05100,0.02950
1699.56121,0.01984
1698.07142,0.02986
1696.58164,0.02240
1695.09185,0.02909
1693.60206,0.05086
1692.11227,0.02781
1690.62248,0.03549
1689.13269,0.03276
1687.64291,0.03650
1686.15312,0.04487
1684.66333,0.04804
1683.17354,0.04049
1681.68375,0.04986
1680.19396,0.05187
1678.70417,0.04562
1677.21439,0.05475
1675.72460,0.06083
1674.23481,0.06264
1672.74502,0.07214
1671.25523,0.06386
1669.76544,0.08570
1668.27566,0.07839
1666.78587,0.08154
1665.29608,0.09578
1663.80629,0.08792
1662.31650,0.10251
1660.82671,0.09194
1659.33693,0.09337
1657.84714,0.09359
1656.35735,0.10951
1654.86756,0.09135
1653.37777,0.09441
1651.88798,0.10855
1650.39819,0.10091
1648.90841,0.08961
1647.41862,0.09246
1645.92883,0.10086
1644.43904,0.10929
1642.94925,0.09962
1641.45946,0.10440
1639.96968,0.09662
1638.47989,0.08518
1636.99010,0.09649
1635.50031,0.09861
1634.01052,0.09553
1632.52073,0.08787
1631.03094,0.08146
1629.54116,0.08030
1628.05137,0.10741
1626.56158,0.10323
1625.07179,0.11288
1623.58200,0.08724
1622.09221,0.10493
1620.60243,0.11129
1619.11264,0.09954
1617.62285,0.10041
1616.13306,0.10008
1614.64327,0.09270
1613.15348,0.09057
1611.66370,0.10259
1610.17391,0.10758
1608.68412,0.09784
1607.19433,0.10010
1605.70454,0.09349
1604.21475,0.10041
1602.72496,0.10735
1601.23518,0.09712
1599.74539,0.09613
1598.25560,0.09393
1596.76581,0.09360
1595.27602,0.10128
1593.78623,0.08902
1592.29645,0.08691
1590.80666,0.09405
1589.31687,0.08278
1587.82708,0.08628
1586.33729,0.08120
1584.84750,0.10686
1583.35771,0.09691
1581.86793,0.10143
1580.37814,0.11303
1578.88835,0.09210
1577.39856,0.07580
1575.90877,0.09239
1574.41898,0.07706
1572.92920,0.06237
1571.43941,0.06244
1569.94962,0.06362
1568.45983,0.06482
1566.97004,0.05636
1565.48025,0.06237
1563.99047,0.05304
1562.50068,0.04497
1561.01089,0.04521
1559.52110,0.05131
1558.03131,0.04607
1556.54152,0.05406
1555.05173,0.04703
1553.56195,0.03572
1552.07216,0.03856
1550.58237,0.03498
1549.09258,0.01391
1547.60279,0.01437
1546.11300,0.04802
1544.62322,0.03931
1543.13343,0.01220
1541.64364,0.00661
1540.15385,0.01046
1538.66406,0.01435
1537.17427,0.01917
1535.68448,0.02586
1534.19470,0.01016
1532.70491,0.02181
1531.21512,0.01629
1529.72533,0.00988
1528.23554,0.01938
1526.74575,0.01693
1525.25597,0.03385
1523.76618,0.03790
1522.27639,0.03736
1520.78660,0.05037
1519.29681,0.05203
1517.80702,0.05402
1516.31724,0.05573
1514.82745,0.05654
1513.33766,0.04601
1511.84787,0.03551
1510.35808,0.04499
1508.86829,0.05511
1507.37850,0.05912
1505.88872,0.04932
1504.39893,0.06658
1502.90914,0.06605
1501.41935,0.06953
1499.92956,0.09423
1498.43977,0.07350
1496.94999,0.05986
1495.46020,0.08831
1493.97041,0.09407
1492.48062,0.09432
1490.99083,0.10626
1489.50104,0.13266
1488.01125,0.13114
1486.52147,0.12964
1485.03168,0.15182
1483.54189,0.17002
1482.05210,0.21036
1480.56231,0.20712
1479.07252,0.21526
1477.58274,0.24554
1476.09295,0.23714
1474.60316,0.23860
1473.11337,0.24100
1471.62358,0.25633
1470.13379,0.26830
1468.64401,0.27661
1467.15422,0.29108
1465.66443,0.30328
1464.17464,0.31550
1462.68485,0.35400
1461.19506,0.41096
1459.70527,0.43661
1458.21549,0.50405
1456.72570,0.56783
1455.23591,0.62857
1453.74612,0.68196
1452.25633,0.68961
1450.76654,0.73414
1449.27676,0.75443
1447.78697,0.73481
1446.29718,0.69680
1444.80739,0.69704
1443.31760,0.69731
1441.82781,0.62159
1440.33802,0.61377
1438.84824,0.58386
1437.35845,0.54230
1435.86866,0.54315
1434.37887,0.55662
1432.88908,0.56826
1431.39929,0.61126
1429.90951,0.68806
1428.41972,0.76305
1426.92993,0.87369
1425.44014,0.89467
1423.95035,0.92826
1422.46056,0.96188
1420.97078,1.02286
1419.48099,0.97759
1417.99120,1.00207
1416.50141,0.96730
1415.01162,0.97708
1413.52183,0.86434
1412.03204,0.80292
1410.54226,0.76210
1409.05247,0.70165
1407.56268,0.68760
1406.07289,0.64285
1404.58310,0.62363
1403.09331,0.60443
1401.60353,0.51123
1400.11374,0.44601
1398.62395,0.39217
1397.13416,0.35341
1395.64437,0.29993
1394.15458,0.23326
1392.66479,0.20317
1391.17501,0.19675
1389.68522,0.15688
1388.19543,0.11857
1386.70564,0.11191
1385.21585,0.10528
1383.72606,0.07134
1382.23628,0.05093
1380.74649,0.04376
1379.25670,0.03722
1377.76691,0.02703
1376.27712,0.02177
1374.78733,0.03005
1373.29755,0.01593
1371.80776,0.01596
1370.31797,0.00988
1368.82818,0.01109
1367.33839,0.01232
1365.84860,0.03308
1364.35881,0.06093
1362.86903,0.05779
1361.37924,0.06756
1359.88945,0.09917
1358.39966,0.12834
1356.90987,0.16030
1355.42008,0.20580
1353.93030,0.26821
1352.44051,0.31023
1350.95072,0.35227
1349.46093,0.40001
1347.97114,0.49937
1346.48135,0.58341
1344.99156,0.63644
1343.50178,0.73588
1342.01199,0.74658
1340.52220,0.83624
1339.03241,0.89735
1337.54262,0.90966
1336.05283,0.93428
1334.56305,0.95892
1333.07326,0.96884
1331.58347,0.94808
1330.09368,0.99460
1328.60389,0.93242
1327.11410,0.90466
1325.62432,0.92330
1324.13453,0.88146
1322.64474,0.88295
1321.15495,0.81106
1319.66516,0.79633
1318.17537,0.78161
1316.68558,0.71348
1315.19580,0.64353
1313.70601,0.61046
1312.21622,0.56912
1310.72643,0.50968
1309.23664,0.46870
1307.74685,0.45876
1306.25707,0.43901
1304.76728,0.40485
1303.27749,0.37072
1301.78770,0.35013
1300.29791,0.26629
1298.80812,0.23438
1297.31834,0.21140
1295.82855,0.16633
1294.33876,0.13664
1292.84897,0.10789
1291.35918,0.13108
1289.86939,0.12664
1288.37960,0.12223
1286.88982,0.09420
1285.40003,0.07786
1283.91024,0.07813
1282.42045,0.05447
1280.93066,0.04434
1279.44087,0.04437
1277.95109,0.05211
1276.46130,0.05188
1274.97151,0.04738
1273.48172,0.04290
1271.99193,0.03968
1270.50214,0.04876
1269.01235,0.04466
1267.52257,0.03659
1266.03278,0.01626
1264.54299,0.02206
1263.05320,0.02543
1261.56341,0.02483
1260.07362,0.02425
1258.58384,0.01295
1257.09405,0.03730
1255.60426,0.04908
1254.11447,0.04429
1252.62468,0.02326
1251.13489,0.03050
1249.64511,0.02057
1248.15532,0.01343
1246.66553,0.02259
1245.17574,0.03177
1243.68595,0.05264
1242.19616,0.03178
1240.70637,0.00817
1239.21659,0.01591
1237.72680,0.03627
1236.23701,0.04344
1234.74722,0.03744
1233.25743,0.03299
1231.76764,0.02856
1230.27786,0.03829
1228.78807,0.04927
1227.29828,0.03325
1225.80849,0.02462
1224.31870,0.00988
1222.82891,0.02489
1221.33912,0.04422
1219.84934,0.04838
1218.35955,0.05256
1216.86976,0.04433
1215.37997,0.05116
1213.89018,0.07308
1212.40039,0.09532
1210.91061,0.08134
1209.42082,0.08367
1207.93103,0.07927
1206.44124,0.07489
1204.95145,0.08650
1203.46166,0.06650
1201.97188,0.07355
1200.48209,0.07940
1198.99230,0.09111
1197.50251,0.08134
1196.01272,0.06331
1194.52293,0.04714
1193.03314,0.03100
1191.54336,0.03146
1190.05357,0.03656
1188.56378,0.03338
1187.07399,0.02747
1185.58420,0.03079
1184.09441,0.04642
1182.60463,0.04442
1181.11484,0.04244
1179.62505,0.04740
1178.13526,0.03364
1176.64547,0.02667
1175.15568,0.03261
1173.66589,0.02906
1172.17611,0.00988
1170.68632,0.01625
1169.19653,0.02264
1167.70674,0.03428
1166.21695,0.03980
1164.72716,0.03858
1163.23738,0.04722
1161.74759,0.05926
1160.25780,0.06396
1158.76801,0.07159
1157.27822,0.07925
1155.78843,0.08832
1154.29865,0.08328
1152.80886,0.11174
1151.31907,0.12487
1149.82928,0.14570
1148.33949,0.14690
1146.84970,0.13722
1145.35991,0.12757
1143.87013,0.13897
1142.38034,0.17405
1140.89055,0.19410
1139.40076,0.18500
1137.91097,0.20572
1136.42118,0.22185
1134.93140,0.22711
1133.44161,0.23238
1131.95182,0.23569
1130.46203,0.26328
1128.97224,0.28874
1127.48245,0.26847
1125.99266,0.26174
1124.50288,0.28083
1123.01309,0.28136
1121.52330,0.28191
1120.03351,0.26636
1118.54372,0.25944
1117.05393,0.27865
1115.56415,0.26870
1114.07436,0.28458
1112.58457,0.27652
1111.09478,0.26849
1109.60499,0.27123
1108.11520,0.26663
1106.62542,0.24362
1105.13563,0.27438
1103.64584,0.27538
1102.15605,0.26073
1100.66626,0.25747
1099.17647,0.25424
1097.68668,0.23045
1096.19690,0.25337
1094.70711,0.24530
1093.21732,0.23448
1091.72753,0.22430
1090.23774,0.21538
1088.74795,0.20647
1087.25817,0.19944
1085.76838,0.20533
1084.27859,0.20786
1082.78880,0.22025
1081.29901,0.19887
1079.80922,0.19318
1078.31943,0.20180
1076.82965,0.21044
1075.33986,0.19561
1073.85007,0.20476
1072.36028,0.20718
1070.87049,0.23081
1069.38070,0.23236
1067.89092,0.26679
1066.40113,0.30124
1064.91134,0.33541
1063.42155,0.36377
1061.93176,0.46986
1060.44197,0.55047
1058.95219,0.64862
1057.46240,0.67877
1055.97261,0.70893
1054.48282,0.81237
1052.99303,0.86977
1051.50324,0.86208
1050.01345,0.81971
1048.52367,0.85568
1047.03388,0.85773
1045.54409,0.85981
1044.05430,0.80617
1042.56451,0.76668
1041.07472,0.71463
1039.58494,0.66689
1038.09515,0.62410
1036.60536,0.58762
1035.11557,0.55117
1033.62578,0.52319
1032.13599,0.43811
1030.64620,0.40188
1029.15642,0.32391
1027.66663,0.30509
1026.17684,0.28629
1024.68705,0.25077
1023.19726,0.21436
1021.70747,0.21052
1020.21769,0.17723
1018.72790,0.15470
1017.23811,0.16430
1015.74832,0.17392
1014.25853,0.14779
1012.76874,0.12413
1011.27896,0.14381
1009.78917,0.13740
1008.29938,0.09785
1006.80959,0.08580
1005.31980,0.07379
1003.83001,0.05089
1002.34022,0.05136
1000.85044,0.05124
999.36065,0.05667
997.87086,0.06120
996.38107,0.06576
994.89128,0.07679
993.40149,0.07218
991.91171,0.08018
990.42192,0.08422
988.93213,0.10855
987.44234,0.10926
985.95255,0.10999
984.46276,0.12641
982.97297,0.10753
981.48319,0.11018
979.99340,0.08920
978.50361,0.08237
977.01382,0.07557
975.52403,0.05374
974.03424,0.05865
972.54446,0.04087
971.05467,0.04368
969.56488,0.02594
968.07509,0.01789
966.58530,0.00988
965.09551,0.04334
963.60573,0.05042
962.11594,0.04401
960.62615,0.05666
959.13636,0.05045
957.64657,0.04427
956.15678,0.05208
954.66699,0.05654
953.17721,0.05180
951.68742,0.06337
950.19763,0.06283
948.70784,0.06232
947.21805,0.08686
945.72826,0.10835
944.23848,0.12035
942.74869,0.14465
941.25890,0.14564
939.76911,0.14957
938.27932,0.15352
936.78953,0.18099
935.29974,0.19129
933.80996,0.20191
932.32017,0.23468
930.83038,0.23998
929.34059,0.24530
927.85080,0.24681
926.36101,0.26892
924.87123,0.31869
923.38144,0.34546
921.89165,0.37486
920.40186,0.40428
918.91207,0.50360
917.42228,0.64839
915.93250,0.79260
914.44271,0.97706
912.95292,1.08446
911.46313,1.19188
909.97334,1.42402
908.48355,1.63591
906.99376,1.80667
905.50398,1.98391
904.01419,1.99194
902.52440,2.00000
901.03461,1.99641
899.54482,1.96520
898.05503,1.87198
896.56525,1.72289
895.07546,1.60192
893.58567,1.48097
892.09588,1.20756
890.60609,0.96305
889.11630,0.70167
887.62651,0.51955
886.13673,0.44847
884.64694,0.37743
883.15715,0.27277
881.66736,0.20592
880.17757,0.15567
878.68778,0.14307
877.19800,0.13050
875.70821,0.08739
874.21842,0.05905
872.72863,0.04178
871.23884,0.02424
869.74905,0.03312
868.25927,0.04204
866.76948,0.03316
865.27969,0.00988
863.78990,0.03359
862.30011,0.04197
860.81032,0.04608
859.32053,0.05021
857.83075,0.05099
856.34096,0.07390
854.85117,0.09530
853.36138,0.08079
851.87159,0.08182
850.38180,0.08286
848.89202,0.12279
847.40223,0.12158
845.91244,0.14466
844.42265,0.14826
842.93286,0.15189
841.44307,0.16183
839.95329,0.17211
838.46350,0.18825
836.97371,0.18813
835.48392,0.19156
833.99413,0.19503
832.50434,0.19621
831.01455,0.20079
829.52477,0.18298
828.03498,0.15629
826.54519,0.15127
825.05540,0.14627
823.56561,0.12333
822.07582,0.10533
820.58604,0.10425
819.09625,0.08829
817.60646,0.07236
816.11667,0.09039
814.62688,0.08142
813.13709,0.07431
811.64730,0.07061
810.15752,0.07998
808.66773,0.08937
807.17794,0.08605
805.68815,0.08950
804.19836,0.09851
802.70857,0.09802
801.21879,0.09755
799.72900,0.09742
798.23921,0.08225
796.74942,0.07480
795.25963,0.07550
793.76984,0.07623
792.28006,0.09095
790.79027,0.10601
789.30048,0.10819
787.81069,0.13988
786.32090,0.15225
784.83111,0.16463
783.34132,0.18472
781.85154,0.23739
780.36175,0.25937
778.87196,0.27339
777.38217,0.28744
775.89238,0.32055
774.40259,0.32788
772.91281,0.31558
771.42302,0.30500
769.93323,0.29444
768.44344,0.27238
766.95365,0.25711
765.46386,0.22773
763.97407,0.16460
762.48429,0.15339
760.99450,0.14220
759.50471,0.12275
758.01492,0.09564
756.52513,0.09067
755.03534,0.08633
753.54556,0.08203
752.05577,0.06699
750.56598,0.05751
749.07619,0.04866
747.58640,0.04721
746.09661,0.04579
744.60683,0.03671
743.11704,0.02458
741.62725,0.01340
740.13746,0.01698
738.64767,0.02059
737.15788,0.01900
735.66809,0.01283
734.17831,0.03064
732.68852,0.02635
731.19873,0.02210
729.70894,0.00988
728.21915,0.02735
726.72936,0.01476
725.23958,0.01754
723.74979,0.02450
722.26000,0.03147
720.77021,0.02788
719.28042,0.00988
717.79063,0.01851
716.30084,0.02103
714.81106,0.02357
713.32127,0.01846
711.83148,0.04838
710.34169,0.03994
708.85190,0.04350
707.36211,0.04708
705.87233,0.04270
704.38254,0.06415
702.89275,0.05367
701.40296,0.05044
699.91317,0.04723
698.42338,0.06847
696.93360,0.07989
695.44381,0.12022
693.95402,0.11296
692.46423,0.10572
690.97444,0.13567
689.48465,0.16104
687.99486,0.19411
686.50508,0.21016
685.01529,0.22623
683.52550,0.25323
682.03571,0.27626
680.54592,0.28242
679.05613,0.27387
677.56635,0.26534
676.07656,0.27065
674.58677,0.30148
673.09698,0.24971
671.60719,0.23836
670.11740,0.22703
668.62761,0.20482
667.13783,0.16974
665.64804,0.15740
664.15825,0.14509
662.66846,0.12359
661.17867,0.09475
659.68888,0.07299
658.19910,0.07260
656.70931,0.07223
655.21952,0.06129
653.72973,0.06052
652.23994,0.06222
650.75015,0.05826
649.26037,0.05433
647.77058,0.05273
646.28079,0.04162
644.79100,0.04191
643.30121,0.04713
641.81142,0.05238
640.32163,0.04629
638.83185,0.03562
637.34206,0.02926
635.85227,0.01956
634.36248,0.00988
632.87269,0.02248
631.38290,0.03542
629.89312,0.02104
628.40333,0.02051
626.91354,0.02000
625.42375,0.00662
623.93396,0.02520
622.44417,0.03490
620.95438,0.04463
619.46460,0.03533
617.97481,0.06599
616.48502,0.07947
614.99523,0.08376
613.50544,0.08808
612.01565,0.12159
610.52587,0.16005
609.03608,0.18286
607.54629,0.19879
606.05650,0.21474
604.56671,0.27141
603.07692,0.33240
601.58714,0.36071
600.09735,0.38904
598.60756,0.42431
597.11777,0.44209
595.62798,0.44117
594.13819,0.42844
592.64840,0.41574
591.15862,0.40782
589.66883,0.36522
588.17904,0.27473
586.68925,0.25214
585.19946,0.22958
583.70967,0.17172
582.21989,0.13507
580.73010,0.12670
579.24031,0.11836
577.75052,0.09438
576.26073,0.06889
574.77094,0.06707
573.28115,0.05728
571.79137,0.04753
570.30158,0.05868
568.81179,0.06402
567.32200,0.06277
565.83221,0.06156
564.34242,0.08570
562.85264,0.11571
561.36285,0.14758
559.87306,0.14200
558.38327,0.13645
556.89348,0.12970
555.40369,0.13740
553.91391,0.14328
552.42412,0.14919
550.93433,0.16710
549.44454,0.17644
547.95475,0.18979
546.46496,0.18996
544.97517,0.19015
543.48539,0.20756
541.99560,0.23514
540.50581,0.25537
539.01602,0.27562
537.52623,0.33090
536.03644,0.39328
534.54666,0.40255
533.05687,0.43840
531.56708,0.47428
530.07729,0.52293
528.58750,0.60109
527.09771,0.62537
525.60792,0.64968
524.11814,0.72176
522.62835,0.77299
521.13856,0.85096
519.64877,0.85586
518.15898,0.86078
516.66919,0.91302
515.17941,0.89096
513.68962,0.90103
512.19983,0.91111
510.71004,0.91922
509.22025,0.84167
507.73046,0.80530
506.24068,0.71474
504.75089,0.62421
503.26110,0.51328
501.77131,0.40237
500.28152,0.36105
498.79173,0.31975
497.30194,0.27065
495.81216,0.20591
494.32237,0.18249
492.83258,0.15911
491.34279,0.09873
489.85300,0.09428
488.36321,0.09169
486.87343,0.08422
485.38364,0.07677
483.89385,0.09852
482.40406,0.10401
480.91427,0.11767
479.42448,0.13135
477.93469,0.13477
476.44491,0.14097
474.95512,0.14505
473.46533,0.14915
471.97554,0.15727
470.48575,0.16419
468.99596,0.18740
467.50618,0.18116
466.01639,0.17494
464.52660,0.14233
463.03681,0.10637
461.54702,0.09899
460.05723,0.09164
458.56745,0.06005
457.07766,0.04107
455.58787,0.03625
454.09808,0.03145
452.60829,0.04510
451.11850,0.02622
449.62871,0.02395
448.13893,0.02170
446.64914,0.02285
445.15935,0.02741
443.66956,0.00988
442.17977,0.03429
440.68998,0.05872
439.20020,0.04710
437.71041,0.06713
436.22062,0.05447
434.73083,0.04184
433.24104,0.04812
431.75125,0.05596
430.26146,0.05262
428.77168,0.04930
427.28189,0.04124
425.79210,0.06822
424.30231,0.05161
422.81252,0.03502
421.32273,0.03351
419.83295,0.05291
418.34316,0.05098
416.85337,0.04908
415.36358,0.02309
413.87379,0.04995
412.38400,0.05012
410.89422,0.05031
409.40443,0.04930
407.91464,0.06090
406.42485,0.02952
404.93506,0.02812
403.44527,0.02674
401.95548,0.00988
400.46570,0.04534
398.97591,0.04336
397.48612,0.04140
395.99633,0.04130
394.50654,0.01943
393.01675,0.02630
391.52697,0.03319
390.03718,0.03595
388.54739,0.00988
387.05760,0.00936
385.56781,0.00887
384.07802,0.01178
382.58824,0.02331
381.09845,0.02013
379.60866,0.01697
378.11887,0.03042
376.62908,0.01564
375.13929,0.02253
373.64950,0.02945
372.15972,0.01136
370.66993,0.00988
369.18014,0.01951
367.69035,0.02917
366.20056,0.03670
364.71077,0.03781
363.22099,0.02189
361.73120,0.00600
360.24141,0.02222
358.75162,0.05721
357.26183,0.05060
355.77204,0.04402
354.28225,0.02502
352.79247,0.03922
351.30268,0.05620
349.81289,0.07321
348.32310,0.04540
346.83331,0.01578
345.34352,0.02410
343.85374,0.03245
342.36395,0.02993
340.87416,0.03971
339.38437,0.05458
337.89458,0.06947
336.40479,0.03387
334.91501,0.06064
333.42522,0.04198
331.93543,0.02334
330.44564,0.00687
328.95585,0.02098
327.46606,0.01990
325.97627,0.01885
324.48649,0.05115
322.99670,0.06350
321.50691,0.07143
320.01712,0.07938
318.52733,0.07553
317.03754,0.11593
315.54776,0.09048
314.05797,0.06505
312.56818,0.09938
311.07839,0.11346
309.58860,0.10715
308.09881,0.10085
306.60902,0.09535
305.11924,0.08865
303.62945,0.07152
302.13966,0.05442
300.64987,0.01001
299.16008,0.00988
