1778.52000,0.01411
1777.03021,0.02115
1775.54042,0.01094
1774.05063,0.01484
1772.56085,0.00718
1771.07106,0.01409
1769.58127,0.01125
1768.09148,0.00820
1766.60169,0.00518
1765.11190,0.00946
1763.62212,0.01649
1762.13233,0.01377
1760.64254,0.01289
1759.15275,0.01113
1757.66296,0.01507
1756.17317,0.00472
1754.68339,0.00757
1753.19360,0.00523
1751.70381,0.00608
1750.21402,0.00151
1748.72423,0.00856
1747.23444,0.00790
1745.74465,0.00613
1744.25487,0.00801
1742.76508,0.00675
1741.27529,0.00664
1739.78550,0.01155
1738.29571,0.00536
1736.80592,0.00668
1735.31614,0.01346
1733.82635,0.01436
1732.33656,0.00437
1730.84677,0.00554
1729.35698,0.00787
1727.86719,0.00000
1726.37740,0.00420
1724.88762,0.00229
1723.39783,0.00244
1721.90804,0.01080
1720.41825,0.00214
1718.92846,0.01078
1717.43867,0.00831
1715.94889,0.00404
1714.45910,0.01790
1712.96931,0.00518
1711.47952,0.00831
1709.98973,0.00534
1708.49994,0.01011
1707.01016,0.00763
1705.52037,0.00518
1704.03058,0.01326
1702.54079,0.01909
1701.05100,0.01425
1699.56121,0.01990
1698.07142,0.01512
1696.58164,0.01673
1695.09185,0.02563
1693.60206,0.02729
1692.11227,0.02828
1690.62248,0.02544
1689.13269,0.02467
1687.64291,0.02665
1686.15312,0.03138
1684.66333,0.04182
1683.17354,0.03659
1681.68375,0.03549
1680.19396,0.03282
1678.70417,0.04630
1677.21439,0.04413
1675.72460,0.04813
1674.23481,0.06373
1672.74502,0.06141
1671.25523,0.06093
1669.76544,0.06138
1668.27566,0.06617
1666.78587,0.07349
1665.29608,0.06674
1663.80629,0.08820
1662.31650,0.09151
1660.82671,0.10051
1659.33693,0.09227
1657.84714,0.08905
1656.35735,0.09790
1654.86756,0.09291
1653.37777,0.09477
1651.88798,0.08619
1650.39819,0.09151
1648.90841,0.09230
1647.41862,0.08266
1645.92883,0.08781
1644.43904,0.09300
1642.94925,0.09184
1641.45946,0.09775
1639.96968,0.10119
1638.47989,0.11215
1636.99010,0.10018
1635.50031,0.07369
1634.01052,0.08449
1632.52073,0.06941
1631.03094,0.08209
1629.54116,0.06819
1628.05137,0.08546
1626.56158,0.09912
1625.07179,0.11189
1623.58200,0.09923
1622.09221,0.08954
1620.60243,0.09989
1619.11264,0.10366
1617.62285,0.11337
1616.13306,0.09515
1614.64327,0.09377
1613.15348,0.09333
1611.66370,0.09495
1610.17391,0.09705
1608.68412,0.10009
1607.19433,0.09792
1605.70454,0.09783
1604.21475,0.09457
1602.72496,0.09134
1601.23518,0.08904
1599.74539,0.08063
1598.25560,0.08930
1596.76581,0.09935
1595.27602,0.10396
1593.78623,0.08520
1592.29645,0.07941
1590.80666,0.08660
1589.31687,0.07813
1587.82708,0.08355
1586.33729,0.08218
1584.84750,0.08174
1583.35771,0.07769
1581.86793,0.08730
1580.37814,0.07420
1578.88835,0.07454
1577.39856,0.08786
1575.90877,0.07075
1574.41898,0.07048
1572.92920,0.07023
1571.43941,0.05046
1569.94962,0.04265
1568.45983,0.03486
1566.97004,0.04404
1565.48025,0.04709
1563.99047,0.05177
1562.50068,0.03919
1561.01089,0.03777
1559.52110,0.04525
1558.03131,0.03911
1556.54152,0.04231
1555.05173,0.02531
1553.56195,0.03447
1552.07216,0.04366
1550.58237,0.02309
1549.09258,0.02483
1547.60279,0.01976
1546.11300,0.00950
1544.62322,0.01722
1543.13343,0.00518
1541.64364,0.00616
1540.15385,0.00649
1538.66406,0.00684
1537.17427,0.01933
1535.68448,0.01867
1534.19470,0.01780
1532.70491,0.01877
1531.21512,0.01068
1529.72533,0.02647
1528.23554,0.01070
1526.74575,0.02927
1525.25597,0.03514
1523.76618,0.04239
1522.27639,0.03490
1520.78660,0.03788
1519.29681,0.03703
1517.80702,0.04756
1516.31724,0.04471
1514.82745,0.04711
1513.33766,0.05181
1511.84787,0.05653
1510.35808,0.05151
1508.86829,0.04127
1507.37850,0.03970
1505.88872,0.05043
1504.39893,0.04505
1502.90914,0.04991
1501.41935,0.06890
1499.92956,0.07995
1498.43977,0.07421
1496.94999,0.06144
1495.46020,0.06893
1493.97041,0.08508
1492.48062,0.08967
1490.99083,0.09632
1489.50104,0.11550
1488.01125,0.11333
1486.52147,0.11119
1485.03168,0.13136
1483.54189,0.16677
1482.05210,0.18243
1480.56231,0.20062
1479.07252,0.20656
1477.58274,0.22434
1476.09295,0.22623
1474.60316,0.22929
1473.11337,0.24851
1471.62358,0.23888
1470.13379,0.24451
1468.64401,0.25653
1467.15422,0.29357
1465.66443,0.29654
1464.17464,0.29954
1462.68485,0.31461
1461.19506,0.36948
1459.70527,0.41733
1458.21549,0.46157
1456.72570,0.55538
1455.23591,0.61467
1453.74612,0.64738
1452.25633,0.68808
1450.76654,0.68311
1449.27676,0.69226
1447.78697,0.68325
1446.29718,0.65358
1444.80739,0.65155
1443.31760,0.64955
1441.82781,0.60154
1440.33802,0.56810
1438.84824,0.54310
1437.35845,0.51039
1435.86866,0.50180
1434.37887,0.51665
1432.88908,0.54607
1431.39929,0.57460
1429.90951,0.63271
1428.41972,0.74017
1426.92993,0.79855
1425.44014,0.83332
1423.95035,0.86175
1422.46056,0.89020
1420.97078,0.94846
1419.48099,0.95764
1417.99120,0.93729
1416.50141,0.91879
1415.01162,0.90872
1413.52183,0.86595
1412.03204,0.79251
1410.54226,0.74046
1409.05247,0.67185
1407.56268,0.62485
1406.07289,0.57765
1404.58310,0.55320
1403.09331,0.52878
1401.60353,0.47756
1400.11374,0.40750
1398.62395,0.37270
1397.13416,0.32655
1395.64437,0.27884
1394.15458,0.22888
1392.66479,0.19076
1391.17501,0.16904
1389.68522,0.13369
1388.19543,0.11474
1386.70564,0.10105
1385.21585,0.08737
1383.72606,0.06463
1382.23628,0.04214
1380.74649,0.02695
1379.25670,0.03223
1377.76691,0.00572
1376.27712,0.00629
1374.78733,0.00983
1373.29755,0.01044
1371.80776,0.01335
1370.31797,0.01697
1368.82818,0.01106
1367.33839,0.00518
1365.84860,0.00618
1364.35881,0.03084
1362.86903,0.03507
1361.37924,0.05841
1359.88945,0.08019
1358.39966,0.10722
1356.90987,0.14133
1355.42008,0.19432
1353.93030,0.25120
1352.44051,0.28151
1350.95072,0.31184
1349.46093,0.35448
1347.97114,0.41123
1346.48135,0.48300
1344.99156,0.57935
1343.50178,0.66391
1342.01199,0.71939
1340.52220,0.76626
1339.03241,0.81157
1337.54262,0.85144
1336.05283,0.86520
1334.56305,0.87898
1333.07326,0.90915
1331.58347,0.92821
1330.09368,0.90478
1328.60389,0.91093
1327.11410,0.90506
1325.62432,0.83715
1324.13453,0.80792
1322.64474,0.75711
1321.15495,0.77020
1319.66516,0.74411
1318.17537,0.71803
1316.68558,0.65551
1315.19580,0.60437
1313.70601,0.56302
1312.21622,0.54421
1310.72643,0.49019
1309.23664,0.44551
1307.74685,0.40699
1306.25707,0.38941
1304.76728,0.37583
1303.27749,0.36228
1301.78770,0.31067
1300.29791,0.26864
1298.80812,0.22981
1297.31834,0.18783
1295.82855,0.15655
1294.33876,0.12348
1292.84897,0.10135
1291.35918,0.09924
1289.86939,0.09318
1288.37960,0.08714
1286.88982,0.09169
1285.40003,0.06604
1283.91024,0.07110
1282.42045,0.06254
1280.93066,0.05129
1279.44087,0.06505
1277.95109,0.04907
1276.46130,0.03129
1274.97151,0.03854
1273.48172,0.04582
1271.99193,0.04130
1270.50214,0.03907
1269.01235,0.03437
1267.52257,0.02901
1266.03278,0.02527
1264.54299,0.02564
1263.05320,0.03286
1261.56341,0.02919
1260.07362,0.02555
1258.58384,0.02556
1257.09405,0.01674
1255.60426,0.01907
1254.11447,0.02189
1252.62468,0.00518
1251.13489,0.00799
1249.64511,0.03310
1248.15532,0.02618
1246.66553,0.01918
1245.17574,0.01220
1243.68595,0.01763
1242.19616,0.01513
1240.70637,0.00265
1239.21659,0.01157
1237.72680,0.02255
1236.23701,0.02356
1234.74722,0.02345
1233.25743,0.02587
1231.76764,0.02831
1230.27786,0.01896
1228.78807,0.02577
1227.29828,0.03783
1225.80849,0.01878
1224.31870,0.01862
1222.82891,0.01757
1221.33912,0.00518
1219.84934,0.02244
1218.35955,0.03972
1216.86976,0.04885
1215.37997,0.06322
1213.89018,0.05012
1212.40039,0.06250
1210.91061,0.07695
1209.42082,0.07324
1207.93103,0.07421
1206.44124,0.07521
1204.95145,0.06748
1203.46166,0.06205
1201.97188,0.04528
1200.48209,0.04330
1198.99230,0.04840
1197.50251,0.05830
1196.01272,0.04003
1194.52293,0.03554
1193.03314,0.03107
1191.54336,0.02561
1190.05357,0.02607
1188.56378,0.02225
1187.07399,0.01504
1185.58420,0.02672
1184.09441,0.02183
1182.60463,0.01946
1181.11484,0.01712
1179.62505,0.01321
1178.13526,0.01842
1176.64547,0.01684
1175.15568,0.02346
1173.66589,0.02329
1172.17611,0.02041
1170.68632,0.01278
1169.19653,0.00518
1167.70674,0.01205
1166.21695,0.02712
1164.72716,0.02926
1163.23738,0.03347
1161.74759,0.02770
1160.25780,0.04241
1158.76801,0.05454
1157.27822,0.06669
1155.78843,0.07579
1154.29865,0.07606
1152.80886,0.07475
1151.31907,0.08825
1149.82928,0.09495
1148.33949,0.10668
1146.84970,0.11013
1145.35991,0.11361
1143.87013,0.11336
1142.38034,0.14541
1140.89055,0.16726
1139.40076,0.17368
1137.91097,0.17148
1136.42118,0.18613
1134.93140,0.18228
1133.44161,0.17845
1131.95182,0.19885
1130.46203,0.22019
1128.97224,0.23018
1127.48245,0.24930
1125.99266,0.22661
1124.50288,0.22327
1123.01309,0.22029
1121.52330,0.21734
1120.03351,0.22861
1118.54372,0.22741
1117.05393,0.23669
1115.56415,0.22827
1114.07436,0.23964
1112.58457,0.22638
1111.09478,0.21314
1109.60499,0.23777
1108.11520,0.22742
1106.62542,0.20982
1105.13563,0.22248
1103.64584,0.20561
1102.15605,0.20831
1100.66626,0.20638
1099.17647,0.20448
1097.68668,0.21930
1096.19690,0.18278
1094.70711,0.18015
1093.21732,0.18072
1091.72753,0.18473
1090.23774,0.17808
1088.74795,0.17146
1087.25817,0.16054
1085.76838,0.14737
1084.27859,0.15355
1082.78880,0.16589
1081.29901,0.14233
1079.80922,0.16859
1078.31943,0.16884
1076.82965,0.16911
1075.33986,0.17180
1073.85007,0.16292
1072.36028,0.16110
1070.87049,0.16250
1069.38070,0.17983
1067.89092,0.20525
1066.40113,0.23070
1064.91134,0.28970
1063.42155,0.34918
1061.93176,0.42414
1060.44197,0.47707
1058.95219,0.54662
1057.46240,0.59142
1055.97261,0.63625
1054.48282,0.73815
1052.99303,0.83439
1051.50324,0.84679
1050.01345,0.79760
1048.52367,0.80323
1047.03388,0.79558
1045.54409,0.78795
1044.05430,0.78228
1042.56451,0.72094
1041.07472,0.67282
1039.58494,0.62721
1038.09515,0.58254
1036.60536,0.54290
1035.11557,0.50328
1033.62578,0.46300
1032.13599,0.40161
1030.64620,0.32979
1029.15642,0.29594
1027.66663,0.27088
1026.17684,0.24584
1024.68705,0.21116
1023.19726,0.20629
1021.70747,0.16234
1020.21769,0.13842
1018.72790,0.11816
1017.23811,0.12281
1015.74832,0.12749
1014.25853,0.11117
1012.76874,0.10123
1011.27896,0.09314
1009.78917,0.10030
1008.29938,0.07544
1006.80959,0.06174
1005.31980,0.04806
1003.83001,0.01440
1002.34022,0.03464
1000.85044,0.02445
999.36065,0.02814
997.87086,0.03948
996.38107,0.05084
994.89128,0.04733
993.40149,0.06408
991.91171,0.06835
990.42192,0.05832
988.93213,0.07810
987.44234,0.07915
985.95255,0.08022
984.46276,0.09461
982.97297,0.08039
981.48319,0.08597
979.99340,0.06247
978.50361,0.06151
977.01382,0.06056
975.52403,0.03896
974.03424,0.02829
972.54446,0.02538
971.05467,0.00885
969.56488,0.00530
968.07509,0.00524
966.58530,0.00520
965.09551,0.00518
963.60573,0.01764
962.11594,0.00739
960.62615,0.01172
959.13636,0.01857
957.64657,0.02544
956.15678,0.03689
954.66699,0.03381
953.17721,0.02961
951.68742,0.04295
950.19763,0.04449
948.70784,0.04605
947.21805,0.06833
945.72826,0.07880
944.23848,0.09976
942.74869,0.11415
941.25890,0.13720
939.76911,0.14062
938.27932,0.14406
936.78953,0.16536
935.29974,0.15760
933.80996,0.18259
932.32017,0.18260
930.83038,0.20162
929.34059,0.22066
927.85080,0.21892
926.36101,0.25722
924.87123,0.27508
923.38144,0.31002
921.89165,0.35055
920.40186,0.39110
918.91207,0.47475
917.42228,0.60388
915.93250,0.72486
914.44271,0.92928
912.95292,1.04792
911.46313,1.16659
909.97334,1.38790
908.48355,1.60901
906.99376,1.79855
905.50398,1.93652
904.01419,1.96825
902.52440,2.00000
901.03461,1.97234
899.54482,1.93924
898.05503,1.85275
896.56525,1.69583
895.07546,1.57734
893.58567,1.45887
892.09588,1.20655
890.60609,0.93857
889.11630,0.69584
887.62651,0.50860
886.13673,0.43890
884.64694,0.36922
883.15715,0.26002
881.66736,0.17085
880.17757,0.14011
878.68778,0.12327
877.19800,0.10645
875.70821,0.06010
874.21842,0.05583
872.72863,0.04522
871.23884,0.01009
869.74905,0.01350
868.25927,0.01694
866.76948,0.03393
865.27969,0.02163
863.78990,0.01707
862.30011,0.03573
860.81032,0.03736
859.32053,0.03901
857.83075,0.05819
856.34096,0.07876
854.85117,0.08890
853.36138,0.08065
851.87159,0.08515
850.38180,0.08968
848.89202,0.10878
847.40223,0.12836
845.91244,0.15501
844.42265,0.16895
842.93286,0.18292
841.44307,0.16509
839.95329,0.18388
838.46350,0.21156
836.97371,0.19949
835.48392,0.19221
833.99413,0.18496
832.50434,0.22433
831.01455,0.20121
829.52477,0.18040
828.03498,0.17574
826.54519,0.15895
825.05540,0.14218
823.56561,0.12669
822.07582,0.10645
820.58604,0.11510
819.09625,0.10684
817.60646,0.09860
816.11667,0.09300
814.62688,0.07925
813.13709,0.09370
811.64730,0.07840
810.15752,0.08199
808.66773,0.08561
807.17794,0.10425
805.68815,0.10746
804.19836,0.11456
802.70857,0.11702
801.21879,0.11951
799.72900,0.09872
798.23921,0.08068
796.74942,0.07517
795.25963,0.08083
793.76984,0.08650
792.28006,0.09107
790.79027,0.09725
789.30048,0.12005
787.81069,0.14378
786.32090,0.15673
784.83111,0.16972
783.34132,0.21148
781.85154,0.24394
780.36175,0.29143
778.87196,0.29360
777.38217,0.29579
775.89238,0.30267
774.40259,0.30866
772.91281,0.32877
771.42302,0.30526
769.93323,0.28178
768.44344,0.28014
766.95365,0.22261
765.46386,0.19510
763.97407,0.17217
762.48429,0.16267
760.99450,0.15320
759.50471,0.12806
758.01492,0.09045
756.52513,0.07810
755.03534,0.07883
753.54556,0.07960
752.05577,0.07345
750.56598,0.05324
749.07619,0.03827
747.58640,0.03925
746.09661,0.04024
744.60683,0.03081
743.11704,0.01731
741.62725,0.02588
740.13746,0.01947
738.64767,0.01309
737.15788,0.02401
735.66809,0.00926
734.17831,0.01341
732.68852,0.01133
731.19873,0.00927
729.70894,0.00781
728.21915,0.00978
726.72936,0.00518
725.23958,0.00851
723.74979,0.01197
722.26000,0.01546
720.77021,0.01613
719.28042,0.01432
717.79063,0.00322
716.30084,0.01056
714.81106,0.01792
713.32127,0.00530
711.83148,0.00702
710.34169,0.02014
708.85190,0.02680
707.36211,0.03348
705.87233,0.03940
704.38254,0.03692
702.89275,0.03493
701.40296,0.04262
699.91317,0.05034
698.42338,0.05955
696.93360,0.07402
695.44381,0.09829
693.95402,0.10610
692.46423,0.11394
690.97444,0.11214
689.48465,0.13514
687.99486,0.15703
686.50508,0.18031
685.01529,0.20361
683.52550,0.21534
682.03571,0.25801
680.54592,0.26411
679.05613,0.26682
677.56635,0.26956
676.07656,0.23982
674.58677,0.26260
673.09698,0.24223
671.60719,0.23461
670.11740,0.22701
668.62761,0.19216
667.13783,0.16006
665.64804,0.14595
664.15825,0.13186
662.66846,0.10438
661.17867,0.07920
659.68888,0.07563
658.19910,0.06414
656.70931,0.05267
655.21952,0.04281
653.72973,0.04275
652.23994,0.04499
650.75015,0.04453
649.26037,0.04409
647.77058,0.05300
646.28079,0.04647
644.79100,0.02519
643.30121,0.02371
641.81142,0.02226
640.32163,0.01901
638.83185,0.03034
637.34206,0.02714
635.85227,0.02328
634.36248,0.01945
632.87269,0.00518
631.38290,0.01199
629.89312,0.02677
628.40333,0.02658
626.91354,0.02641
625.42375,0.02331
623.93396,0.01319
622.44417,0.02571
620.95438,0.03825
619.46460,0.04639
617.97481,0.06455
616.48502,0.07092
614.99523,0.08049
613.50544,0.09009
612.01565,0.11335
610.52587,0.13640
609.03608,0.18835
607.54629,0.20282
606.05650,0.21731
604.56671,0.23410
603.07692,0.29728
601.58714,0.33514
600.09735,0.37303
598.60756,0.42151
597.11777,0.42024
595.62798,0.43535
594.13819,0.41947
592.64840,0.40360
591.15862,0.37924
589.66883,0.34058
588.17904,0.26899
586.68925,0.23754
585.19946,0.20611
583.70967,0.14255
582.21989,0.10924
580.73010,0.10096
579.24031,0.09270
577.75052,0.07128
576.26073,0.07012
574.77094,0.04671
573.28115,0.04594
571.79137,0.04519
570.30158,0.04208
568.81179,0.05376
567.32200,0.06218
565.83221,0.07062
564.34242,0.09920
562.85264,0.08962
561.36285,0.12552
559.87306,0.13440
558.38327,0.14330
556.89348,0.15019
555.40369,0.13845
553.91391,0.14243
552.42412,0.14643
550.93433,0.14863
549.44454,0.16109
547.95475,0.18994
546.46496,0.19051
544.97517,0.19111
543.48539,0.20593
541.99560,0.21647
540.50581,0.23350
539.01602,0.25056
537.52623,0.27322
536.03644,0.34317
534.54666,0.37906
533.05687,0.38860
531.56708,0.39817
530.07729,0.45640
528.58750,0.54671
527.09771,0.56998
525.60792,0.59329
524.11814,0.65889
522.62835,0.69679
521.13856,0.75994
519.64877,0.78232
518.15898,0.80472
516.66919,0.80793
515.17941,0.81436
513.68962,0.80683
512.19983,0.79932
510.71004,0.79695
509.22025,0.75483
507.73046,0.70546
506.24068,0.65600
504.75089,0.60656
503.26110,0.45225
501.77131,0.37933
500.28152,0.33769
498.79173,0.29608
497.30194,0.20528
495.81216,0.16906
494.32237,0.14707
492.83258,0.12511
491.34279,0.10509
489.85300,0.08806
488.36321,0.07083
486.87343,0.06976
485.38364,0.06871
483.89385,0.07405
482.40406,0.06919
480.91427,0.08333
479.42448,0.09750
477.93469,0.10089
476.44491,0.12795
474.95512,0.12457
473.46533,0.12122
471.97554,0.14448
470.48575,0.14709
468.99596,0.14653
467.50618,0.14453
466.01639,0.14254
464.52660,0.11888
463.03681,0.08433
461.54702,0.07617
460.05723,0.06803
458.56745,0.03401
457.07766,0.04706
455.58787,0.04161
454.09808,0.03618
452.60829,0.03976
451.11850,0.03768
449.62871,0.02142
448.13893,0.00518
446.64914,0.00449
445.15935,0.02632
443.66956,0.02045
442.17977,0.02221
440.68998,0.02400
439.20020,0.01638
437.71041,0.03629
436.22062,0.03474
434.73083,0.03322
433.24104,0.03525
431.75125,0.03889
430.26146,0.03357
428.77168,0.02828
427.28189,0.04700
425.79210,0.03255
424.30231,0.02926
422.81252,0.02600
421.32273,0.03004
419.83295,0.03615
418.34316,0.03875
416.85337,0.04139
415.36358,0.01961
413.87379,0.02786
412.38400,0.02795
410.89422,0.02806
409.40443,0.03298
407.91464,0.02632
406.42485,0.02469
404.93506,0.02286
403.44527,0.02105
401.95548,0.02813
400.46570,0.00727
398.97591,0.02190
397.48612,0.03656
395.99633,0.03646
394.50654,0.03411
393.01675,0.02906
391.52697,0.02404
390.03718,0.02908
388.54739,0.02029
387.05760,0.01413
385.56781,0.00799
384.07802,0.00518
382.58824,0.02057
381.09845,0.02654
379.60866,0.03255
378.11887,0.01777
376.62908,0.03553
375.13929,0.02569
373.64950,0.01588
372.15972,0.02280
370.66993,0.02406
369.18014,0.02019
367.69035,0.01634
366.20056,0.01751
364.71077,0.04963
363.22099,0.03165
361.73120,0.01369
360.24141,0.02678
358.75162,0.04240
357.26183,0.03509
355.77204,0.02780
354.28225,0.02303
352.79247,0.03693
351.30268,0.03369
349.81289,0.03047
348.32310,0.04308
346.83331,0.02093
345.34352,0.01585
343.85374,0.01080
342.36395,0.01168
340.87416,0.01896
339.38437,0.02455
337.89458,0.03016
336.40479,0.04296
334.91501,0.02487
333.42522,0.01761
331.93543,0.01036
330.44564,0.01576
328.95585,0.01959
327.46606,0.02003
325.97627,0.02050
324.48649,0.02135
322.99670,0.00518
321.50691,0.02425
320.01712,0.04335
318.52733,0.04679
317.03754,0.07139
315.54776,0.05680
314.05797,0.04224
312.56818,0.07623
311.07839,0.08752
309.58860,0.08326
308.09881,0.07902
306.60902,0.05197
305.11924,0.04312
303.62945,0.02498
302.13966,0.00686
300.64987,0.03556
299.16008,0.00518
