1778.52000,0.02057
1777.03021,0.01851
1775.54042,0.01314
1774.05063,0.01564
1772.56085,0.02125
1771.07106,0.01738
1769.58127,0.01211
1768.09148,0.00852
1766.60169,0.01304
1765.11190,0.01854
1763.62212,0.01075
1762.13233,0.01178
1760.64254,0.01235
1759.15275,0.00535
1757.66296,0.00858
1756.17317,0.00876
1754.68339,0.00254
1753.19360,0.00894
1751.70381,0.01441
1750.21402,0.00826
1748.72423,0.00665
1747.23444,0.00982
1745.74465,0.01753
1744.25487,0.00886
1742.76508,0.01044
1741.27529,0.01133
1739.78550,0.00535
1738.29571,0.01271
1736.80592,0.01344
1735.31614,0.01182
1733.82635,0.00000
1732.33656,0.00366
1730.84677,0.01304
1729.35698,0.00605
1727.86719,0.01429
1726.37740,0.00663
1724.88762,0.00637
1723.39783,0.00256
1721.90804,0.01209
1720.41825,0.00191
1718.92846,0.01306
1717.43867,0.01068
1715.94889,0.00428
1714.45910,0.00861
1712.96931,0.00535
1711.47952,0.00525
1709.98973,0.00566
1708.49994,0.01037
1707.01016,0.00606
1705.52037,0.00179
1704.03058,0.00158
1702.54079,0.01327
1701.05100,0.00313
1699.56121,0.00441
1698.07142,0.00905
1696.58164,0.00468
1695.09185,0.00842
1693.60206,0.01265
1692.11227,0.00954
1690.62248,0.00598
1689.13269,0.00672
1687.64291,0.00535
1686.15312,0.01211
1684.66333,0.01319
1683.17354,0.02380
1681.68375,0.02255
1680.19396,0.01657
1678.70417,0.02868
1677.21439,0.01277
1675.72460,0.02564
1674.23481,0.02998
1672.74502,0.03696
1671.25523,0.02970
1669.76544,0.04029
1668.27566,0.04852
1666.78587,0.04918
1665.29608,0.05271
1663.80629,0.06102
1662.31650,0.05628
1660.82671,0.05917
1659.33693,0.06517
1657.84714,0.06288
1656.35735,0.06608
1654.86756,0.06479
1653.37777,0.07042
1651.88798,0.06608
1650.39819,0.08126
1648.90841,0.06937
1647.41862,0.06131
1645.92883,0.06717
1644.43904,0.07306
1642.94925,0.07766
1641.45946,0.07635
1639.96968,0.07696
1638.47989,0.07973
1636.99010,0.08467
1635.50031,0.08345
1634.01052,0.07109
1632.52073,0.07467
1631.03094,0.08137
1629.54116,0.07668
1628.05137,0.06845
1626.56158,0.07570
1625.07179,0.08130
1623.58200,0.09097
1622.09221,0.09853
1620.60243,0.08305
1619.11264,0.09303
1617.62285,0.08402
1616.13306,0.07884
1614.64327,0.08057
1613.15348,0.06711
1611.66370,0.08410
1610.17391,0.09233
1608.68412,0.08298
1607.19433,0.09339
1605.70454,0.08386
1604.21475,0.08564
1602.72496,0.08745
1601.23518,0.07917
1599.74539,0.07188
1598.25560,0.08195
1596.76581,0.06948
1595.27602,0.07485
1593.78623,0.07359
1592.29645,0.08234
1590.80666,0.07708
1589.31687,0.07447
1587.82708,0.07806
1586.33729,0.06385
1584.84750,0.06535
1583.35771,0.06830
1581.86793,0.04631
1580.37814,0.07355
1578.88835,0.04948
1577.39856,0.06892
1575.90877,0.05749
1574.41898,0.06796
1572.92920,0.04136
1571.43941,0.04735
1569.94962,0.03709
1568.45983,0.02685
1566.97004,0.03078
1565.48025,0.01523
1563.99047,0.01350
1562.50068,0.01703
1561.01089,0.02057
1559.52110,0.02391
1558.03131,0.02346
1556.54152,0.00925
1555.05173,0.01860
1553.56195,0.02750
1552.07216,0.01526
1550.58237,0.00923
1549.09258,0.01035
1547.60279,0.00152
1546.11300,0.01030
1544.62322,0.01316
1543.13343,0.01057
1541.64364,0.01776
1540.15385,0.01154
1538.66406,0.00535
1537.17427,0.01221
1535.68448,0.00888
1534.19470,0.01960
1532.70491,0.01917
1531.21512,0.00902
1529.72533,0.01814
1528.23554,0.01874
1526.74575,0.03385
1525.25597,0.04044
1523.76618,0.01947
1522.27639,0.03656
1520.78660,0.02871
1519.29681,0.04395
1517.80702,0.04233
1516.31724,0.03908
1514.82745,0.04155
1513.33766,0.04607
1511.84787,0.05061
1510.35808,0.05173
1508.86829,0.04645
1507.37850,0.03953
1505.88872,0.03977
1504.39893,0.04812
1502.90914,0.06219
1501.41935,0.05989
1499.92956,0.08067
1498.43977,0.06867
1496.94999,0.05859
1495.46020,0.08015
1493.97041,0.09746
1492.48062,0.10291
1490.99083,0.10030
1489.50104,0.13384
1488.01125,0.13793
1486.52147,0.14205
1485.03168,0.16283
1483.54189,0.19362
1482.05210,0.22538
1480.56231,0.21200
1479.07252,0.24904
1477.58274,0.24189
1476.09295,0.25925
1474.60316,0.24620
1473.11337,0.26195
1471.62358,0.25466
1470.13379,0.26807
1468.64401,0.29149
1467.15422,0.31256
1465.66443,0.32283
1464.17464,0.33313
1462.68485,0.34904
1461.19506,0.38922
1459.70527,0.45225
1458.21549,0.48296
1456.72570,0.56648
1455.23591,0.63789
1453.74612,0.65537
1452.25633,0.70259
1450.76654,0.70158
1449.27676,0.72959
1447.78697,0.70248
1446.29718,0.69155
1444.80739,0.67043
1443.31760,0.64933
1441.82781,0.60592
1440.33802,0.56086
1438.84824,0.53984
1437.35845,0.50529
1435.86866,0.50784
1434.37887,0.51755
1432.88908,0.53228
1431.39929,0.57389
1429.90951,0.64238
1428.41972,0.74156
1426.92993,0.80892
1425.44014,0.89769
1423.95035,0.91030
1422.46056,0.92293
1420.97078,0.97327
1419.48099,0.93687
1417.99120,0.89574
1416.50141,0.91809
1415.01162,0.92740
1413.52183,0.82050
1412.03204,0.79468
1410.54226,0.72514
1409.05247,0.67774
1407.56268,0.62299
1406.07289,0.58633
1404.58310,0.55195
1403.09331,0.51760
1401.60353,0.44440
1400.11374,0.41021
1398.62395,0.38057
1397.13416,0.31196
1395.64437,0.27333
1394.15458,0.22616
1392.66479,0.18140
1391.17501,0.16352
1389.68522,0.12879
1388.19543,0.12118
1386.70564,0.09944
1385.21585,0.07774
1383.72606,0.07376
1382.23628,0.05032
1380.74649,0.02691
1379.25670,0.03798
1377.76691,0.02531
1376.27712,0.01290
1374.78733,0.01049
1373.29755,0.01810
1371.80776,0.01360
1370.31797,0.00390
1368.82818,0.00737
1367.33839,0.01086
1365.84860,0.00535
1364.35881,0.02039
1362.86903,0.03071
1361.37924,0.05936
1359.88945,0.07543
1358.39966,0.09937
1356.90987,0.14591
1355.42008,0.18416
1353.93030,0.23218
1352.44051,0.25681
1350.95072,0.28146
1349.46093,0.33478
1347.97114,0.40904
1346.48135,0.48285
1344.99156,0.56596
1343.50178,0.67452
1342.01199,0.69278
1340.52220,0.75361
1339.03241,0.82540
1337.54262,0.81260
1336.05283,0.84284
1334.56305,0.87310
1333.07326,0.89531
1331.58347,0.91469
1330.09368,0.92767
1328.60389,0.91501
1327.11410,0.89738
1325.62432,0.86005
1324.13453,0.81584
1322.64474,0.81350
1321.15495,0.77695
1319.66516,0.75207
1318.17537,0.72721
1316.68558,0.69905
1315.19580,0.64525
1313.70601,0.57459
1312.21622,0.54959
1310.72643,0.50537
1309.23664,0.46188
1307.74685,0.42626
1306.25707,0.41705
1304.76728,0.40239
1303.27749,0.38776
1301.78770,0.33892
1300.29791,0.27727
1298.80812,0.23348
1297.31834,0.18828
1295.82855,0.17282
1294.33876,0.12790
1292.84897,0.12176
1291.35918,0.11730
1289.86939,0.10681
1288.37960,0.09634
1286.88982,0.08601
1285.40003,0.08284
1283.91024,0.08516
1282.42045,0.07158
1280.93066,0.05374
1279.44087,0.03379
1277.95109,0.04690
1276.46130,0.05029
1274.97151,0.05145
1273.48172,0.05263
1271.99193,0.04991
1270.50214,0.06100
1269.01235,0.03813
1267.52257,0.03405
1266.03278,0.04451
1264.54299,0.04357
1263.05320,0.02531
1261.56341,0.02169
1260.07362,0.01809
1258.58384,0.01702
1257.09405,0.01169
1255.60426,0.00638
1254.11447,0.01488
1252.62468,0.00535
1251.13489,0.01037
1249.64511,0.00972
1248.15532,0.02002
1246.66553,0.02393
1245.17574,0.02786
1243.68595,0.02540
1242.19616,0.01726
1240.70637,0.01794
1239.21659,0.01270
1237.72680,0.00986
1236.23701,0.02439
1234.74722,0.02446
1233.25743,0.02240
1231.76764,0.02037
1230.27786,0.02906
1228.78807,0.02090
1227.29828,0.03843
1225.80849,0.02247
1224.31870,0.00535
1222.82891,0.00716
1221.33912,0.01589
1219.84934,0.01989
1218.35955,0.02391
1216.86976,0.03604
1215.37997,0.06340
1213.89018,0.05728
1212.40039,0.06995
1210.91061,0.07219
1209.42082,0.07755
1207.93103,0.07734
1206.44124,0.07716
1204.95145,0.08568
1203.46166,0.07116
1201.97188,0.06023
1200.48209,0.05860
1198.99230,0.06127
1197.50251,0.06040
1196.01272,0.04910
1194.52293,0.04197
1193.03314,0.03488
1191.54336,0.02150
1190.05357,0.02313
1188.56378,0.01741
1187.07399,0.00768
1185.58420,0.00937
1184.09441,0.02322
1182.60463,0.01653
1181.11484,0.00986
1179.62505,0.00975
1178.13526,0.00634
1176.64547,0.01127
1175.15568,0.01290
1173.66589,0.01812
1172.17611,0.00886
1170.68632,0.01424
1169.19653,0.01965
1167.70674,0.01379
1166.21695,0.00535
1164.72716,0.02663
1163.23738,0.02964
1161.74759,0.04907
1160.25780,0.06068
1158.76801,0.06696
1157.27822,0.07327
1155.78843,0.08424
1154.29865,0.09048
1152.80886,0.09461
1151.31907,0.11206
1149.82928,0.10839
1148.33949,0.13065
1146.84970,0.12489
1145.35991,0.11915
1143.87013,0.11557
1142.38034,0.13912
1140.89055,0.16816
1139.40076,0.19318
1137.91097,0.17591
1136.42118,0.19099
1134.93140,0.19422
1133.44161,0.19747
1131.95182,0.21856
1130.46203,0.23802
1128.97224,0.23730
1127.48245,0.24920
1125.99266,0.25566
1124.50288,0.24574
1123.01309,0.24048
1121.52330,0.23524
1120.03351,0.20733
1118.54372,0.23031
1117.05393,0.23905
1115.56415,0.23569
1114.07436,0.24709
1112.58457,0.24438
1111.09478,0.24169
1109.60499,0.23272
1108.11520,0.21878
1106.62542,0.22009
1105.13563,0.22522
1103.64584,0.22989
1102.15605,0.22271
1100.66626,0.21353
1099.17647,0.20438
1097.68668,0.20511
1096.19690,0.20967
1094.70711,0.20926
1093.21732,0.20864
1091.72753,0.21018
1090.23774,0.19368
1088.74795,0.17721
1087.25817,0.17217
1085.76838,0.19092
1084.27859,0.20185
1082.78880,0.19855
1081.29901,0.18932
1079.80922,0.19914
1078.31943,0.21029
1076.82965,0.22146
1075.33986,0.22469
1073.85007,0.21963
1072.36028,0.21459
1070.87049,0.22882
1069.38070,0.26781
1067.89092,0.28922
1066.40113,0.31067
1064.91134,0.37563
1063.42155,0.44490
1061.93176,0.54604
1060.44197,0.62391
1058.95219,0.74364
1057.46240,0.80195
1055.97261,0.86028
1054.48282,0.99316
1052.99303,1.08708
1051.50324,1.10044
1050.01345,1.05297
1048.52367,1.04499
1047.03388,1.01053
1045.54409,0.97609
1044.05430,0.96509
1042.56451,0.86426
1041.07472,0.80220
1039.58494,0.73494
1038.09515,0.64298
1036.60536,0.60488
1035.11557,0.56681
1033.62578,0.49037
1032.13599,0.43844
1030.64620,0.36823
1029.15642,0.30660
1027.66663,0.28504
1026.17684,0.26351
1024.68705,0.25045
1023.19726,0.23194
1021.70747,0.20109
1020.21769,0.15434
1018.72790,0.12973
1017.23811,0.12522
1015.74832,0.12073
1014.25853,0.11140
1012.76874,0.10756
1011.27896,0.10398
1009.78917,0.10185
1008.29938,0.07312
1006.80959,0.06403
1005.31980,0.05496
1003.83001,0.03343
1002.34022,0.04045
1000.85044,0.06984
999.36065,0.04839
997.87086,0.05061
996.38107,0.05286
994.89128,0.07806
993.40149,0.11233
991.91171,0.09622
990.42192,0.11532
988.93213,0.13587
987.44234,0.13719
985.95255,0.13853
984.46276,0.15274
982.97297,0.13250
981.48319,0.12060
979.99340,0.10588
978.50361,0.09154
977.01382,0.07722
975.52403,0.07730
974.03424,0.04913
972.54446,0.03452
971.05467,0.02208
969.56488,0.00871
968.07509,0.00702
966.58530,0.00535
965.09551,0.01024
963.60573,0.00494
962.11594,0.00988
960.62615,0.00843
959.13636,0.00807
957.64657,0.00774
956.15678,0.02157
954.66699,0.03495
953.17721,0.02150
951.68742,0.03374
950.19763,0.03721
948.70784,0.04070
947.21805,0.05634
945.72826,0.06369
944.23848,0.09316
942.74869,0.09842
941.25890,0.12485
939.76911,0.12504
938.27932,0.12526
936.78953,0.14844
935.29974,0.16593
933.80996,0.16824
932.32017,0.18270
930.83038,0.19087
929.34059,0.19908
927.85080,0.23880
926.36101,0.26524
924.87123,0.27720
923.38144,0.34100
921.89165,0.38581
920.40186,0.43064
918.91207,0.50712
917.42228,0.61404
915.93250,0.75497
914.44271,0.99672
912.95292,1.09432
911.46313,1.19195
909.97334,1.39716
908.48355,1.64209
906.99376,1.77343
905.50398,1.93260
904.01419,1.96629
902.52440,2.00000
901.03461,1.94531
899.54482,1.92702
898.05503,1.78871
896.56525,1.65684
895.07546,1.53902
893.58567,1.42122
892.09588,1.18128
890.60609,0.89833
889.11630,0.65771
887.62651,0.48130
886.13673,0.41295
884.64694,0.34462
883.15715,0.23769
881.66736,0.18189
880.17757,0.12468
878.68778,0.11861
877.19800,0.11256
875.70821,0.07872
874.21842,0.05774
872.72863,0.05129
871.23884,0.03583
869.74905,0.02954
868.25927,0.02328
866.76948,0.03451
865.27969,0.02841
863.78990,0.03518
862.30011,0.04410
860.81032,0.04331
859.32053,0.04254
857.83075,0.07031
856.34096,0.09360
854.85117,0.10454
853.36138,0.12954
851.87159,0.13507
850.38180,0.14062
848.89202,0.17662
847.40223,0.17985
845.91244,0.18975
844.42265,0.20075
842.93286,0.21177
841.44307,0.23839
839.95329,0.24720
838.46350,0.30547
836.97371,0.27321
835.48392,0.28007
833.99413,0.28696
832.50434,0.27545
831.01455,0.26230
829.52477,0.24418
828.03498,0.23440
826.54519,0.22334
825.05540,0.21231
823.56561,0.18977
822.07582,0.15632
820.58604,0.14904
819.09625,0.14131
817.60646,0.13361
816.11667,0.13187
814.62688,0.13942
813.13709,0.14748
811.64730,0.13511
810.15752,0.14310
808.66773,0.15110
807.17794,0.16068
805.68815,0.19143
804.19836,0.18608
802.70857,0.17874
801.21879,0.17141
799.72900,0.14641
798.23921,0.13259
796.74942,0.13449
795.25963,0.13796
793.76984,0.14146
792.28006,0.16031
790.79027,0.16515
789.30048,0.18263
787.81069,0.20440
786.32090,0.22025
784.83111,0.23613
783.34132,0.29197
781.85154,0.31717
780.36175,0.37519
778.87196,0.38486
777.38217,0.39456
775.89238,0.41415
774.40259,0.43234
772.91281,0.41180
771.42302,0.40330
769.93323,0.39481
768.44344,0.33917
766.95365,0.28379
765.46386,0.26837
763.97407,0.20353
762.48429,0.18161
760.99450,0.15973
759.50471,0.14297
758.01492,0.13218
756.52513,0.11001
755.03534,0.11021
753.54556,0.11043
752.05577,0.09569
750.56598,0.07314
749.07619,0.06535
747.58640,0.06020
746.09661,0.05507
744.60683,0.03927
743.11704,0.03989
741.62725,0.02628
740.13746,0.02672
738.64767,0.02717
737.15788,0.03312
735.66809,0.02270
734.17831,0.01943
732.68852,0.01237
731.19873,0.00535
729.70894,0.01818
728.21915,0.01938
726.72936,0.01419
725.23958,0.00832
723.74979,0.01825
722.26000,0.02820
720.77021,0.02486
719.28042,0.02203
717.79063,0.00591
716.30084,0.00978
714.81106,0.01367
713.32127,0.00475
711.83148,0.03340
710.34169,0.02855
708.85190,0.02718
707.36211,0.02583
705.87233,0.03746
704.38254,0.03699
702.89275,0.05009
701.40296,0.05454
699.91317,0.05902
698.42338,0.05888
696.93360,0.08611
695.44381,0.10123
693.95402,0.10509
692.46423,0.10897
690.97444,0.11965
689.48465,0.14533
687.99486,0.16723
686.50508,0.18214
685.01529,0.19708
683.52550,0.22500
682.03571,0.24604
680.54592,0.27353
679.05613,0.26978
677.56635,0.26606
676.07656,0.25630
674.58677,0.24562
673.09698,0.21926
671.60719,0.21528
670.11740,0.21132
668.62761,0.16460
667.13783,0.17567
665.64804,0.15170
664.15825,0.12775
662.66846,0.11915
661.17867,0.09490
659.68888,0.07328
658.19910,0.06000
656.70931,0.04675
655.21952,0.02307
653.72973,0.04576
652.23994,0.02331
650.75015,0.03392
649.26037,0.04456
647.77058,0.04524
646.28079,0.05284
644.79100,0.03432
643.30121,0.03245
641.81142,0.03061
640.32163,0.03807
638.83185,0.03937
637.34206,0.03285
635.85227,0.02278
634.36248,0.01275
632.87269,0.00535
631.38290,0.00747
629.89312,0.01961
628.40333,0.01964
626.91354,0.01970
625.42375,0.01693
623.93396,0.02013
622.44417,0.02003
620.95438,0.01994
619.46460,0.04009
617.97481,0.05313
616.48502,0.06168
614.99523,0.07334
613.50544,0.08502
612.01565,0.09697
610.52587,0.15292
609.03608,0.18203
607.54629,0.20724
606.05650,0.23247
604.56671,0.23883
603.07692,0.29918
601.58714,0.33281
600.09735,0.36646
598.60756,0.42592
597.11777,0.41719
595.62798,0.41086
594.13819,0.41133
592.64840,0.41182
591.15862,0.37324
589.66883,0.31804
588.17904,0.27356
586.68925,0.24764
585.19946,0.22175
583.70967,0.15928
582.21989,0.11347
580.73010,0.09597
579.24031,0.07850
577.75052,0.07840
576.26073,0.04861
574.77094,0.04618
573.28115,0.03213
571.79137,0.01810
570.30158,0.04356
568.81179,0.06119
567.32200,0.06340
565.83221,0.06563
564.34242,0.09546
562.85264,0.12008
561.36285,0.14140
559.87306,0.15526
558.38327,0.16914
556.89348,0.16177
555.40369,0.16845
553.91391,0.16493
552.42412,0.16143
550.93433,0.19243
549.44454,0.20491
547.95475,0.21527
546.46496,0.21211
544.97517,0.20897
543.48539,0.22107
541.99560,0.22084
540.50581,0.24891
539.01602,0.27701
537.52623,0.34102
536.03644,0.36560
534.54666,0.39449
533.05687,0.41935
531.56708,0.44424
530.07729,0.45798
528.58750,0.54092
527.09771,0.57277
525.60792,0.60465
524.11814,0.64820
522.62835,0.69582
521.13856,0.73894
519.64877,0.77507
518.15898,0.81123
516.66919,0.82733
515.17941,0.80114
513.68962,0.80493
512.19983,0.80873
510.71004,0.82683
509.22025,0.72277
507.73046,0.70169
506.24068,0.65782
504.75089,0.61397
503.26110,0.50573
501.77131,0.36923
500.28152,0.32866
498.79173,0.28811
497.30194,0.21634
495.81216,0.17216
494.32237,0.14381
492.83258,0.11548
491.34279,0.07660
489.85300,0.08315
488.36321,0.06975
486.87343,0.07432
485.38364,0.07892
483.89385,0.07082
482.40406,0.08605
480.91427,0.09939
479.42448,0.11276
477.93469,0.11831
476.44491,0.16001
474.95512,0.17524
473.46533,0.19048
471.97554,0.20112
470.48575,0.19704
468.99596,0.19917
467.50618,0.19015
466.01639,0.18115
464.52660,0.16505
463.03681,0.09905
461.54702,0.08763
460.05723,0.07624
458.56745,0.05595
457.07766,0.02499
455.58787,0.02781
454.09808,0.03065
452.60829,0.03637
451.11850,0.01716
449.62871,0.01330
448.13893,0.00946
446.64914,0.02835
445.15935,0.00899
443.66956,0.00535
442.17977,0.01043
440.68998,0.01555
439.20020,0.01712
437.71041,0.01515
436.22062,0.02509
434.73083,0.03505
433.24104,0.01794
431.75125,0.02319
430.26146,0.02859
428.77168,0.03402
427.28189,0.02912
425.79210,0.05302
424.30231,0.04413
422.81252,0.03527
421.32273,0.02762
419.83295,0.00977
418.34316,0.01869
416.85337,0.02764
415.36358,0.00535
413.87379,0.02149
412.38400,0.01913
410.89422,0.01678
409.40443,0.03181
407.91464,0.02167
406.42485,0.02487
404.93506,0.02381
403.44527,0.02277
401.95548,0.02960
400.46570,0.04074
398.97591,0.03918
397.48612,0.03765
395.99633,0.03816
394.50654,0.03608
393.01675,0.02748
391.52697,0.01892
390.03718,0.02119
388.54739,0.01280
387.05760,0.01132
385.56781,0.00987
384.07802,0.00535
382.58824,0.00798
381.09845,0.00541
379.60866,0.00286
378.11887,0.02762
376.62908,0.01485
375.13929,0.01434
373.64950,0.01386
372.15972,0.02517
370.66993,0.02509
369.18014,0.02214
367.69035,0.01922
366.20056,0.02178
364.71077,0.05194
363.22099,0.03756
361.73120,0.02320
360.24141,0.03465
358.75162,0.03163
357.26183,0.03612
355.77204,0.04063
354.28225,0.05551
352.79247,0.07232
351.30268,0.06894
349.81289,0.06559
348.32310,0.08436
346.83331,0.02734
345.34352,0.02406
343.85374,0.02080
342.36395,0.03825
340.87416,0.02577
339.38437,0.03114
337.89458,0.03654
336.40479,0.02461
334.91501,0.03884
333.42522,0.03112
331.93543,0.02342
330.44564,0.02181
328.95585,0.01237
327.46606,0.01199
325.97627,0.01164
324.48649,0.00720
322.99670,0.03749
321.50691,0.04320
320.01712,0.04893
318.52733,0.06099
317.03754,0.08495
315.54776,0.08078
314.05797,0.07662
312.56818,0.10161
311.07839,0.10285
309.58860,0.09461
308.09881,0.08640
306.60902,0.03399
305.11924,0.05078
303.62945,0.03134
302.13966,0.01193
300.64987,0.00535
299.16008,0.00535
