1778.52000,0.02791
1777.03021,0.02615
1775.54042,0.02975
1774.05063,0.02382
1772.56085,0.01482
1771.07106,0.01821
1769.58127,0.01854
1768.09148,0.01495
1766.60169,0.02179
1765.11190,0.02444
1763.62212,0.00351
1762.13233,0.02756
1760.64254,0.01426
1759.15275,0.01701
1757.66296,0.00854
1756.17317,0.01836
1754.68339,0.02146
1753.19360,0.01081
1751.70381,0.01255
1750.21402,0.00786
1748.72423,0.01331
1747.23444,0.01372
1745.74465,0.02202
1744.25487,0.00956
1742.76508,0.02213
1741.27529,0.01449
1739.78550,0.01137
1738.29571,0.01024
1736.80592,0.00465
1735.31614,0.00866
1733.82635,0.01522
1732.33656,0.00467
1730.84677,0.01044
1729.35698,0.00583
1727.86719,0.00659
1726.37740,0.01244
1724.88762,0.01662
1723.39783,0.01717
1721.90804,0.01269
1720.41825,0.00852
1718.92846,0.00746
1717.43867,0.01036
1715.94889,0.01188
1714.45910,0.01145
1712.96931,0.00909
1711.47952,0.00225
1709.98973,0.01031
1708.49994,0.00351
1707.01016,0.00508
1705.52037,0.00668
1704.03058,0.01955
1702.54079,0.01558
1701.05100,0.02034
1699.56121,0.01670
1698.07142,0.01589
1696.58164,0.01933
1695.09185,0.01182
1693.60206,0.01784
1692.11227,0.02724
1690.62248,0.02263
1689.13269,0.01635
1687.64291,0.01037
1686.15312,0.03730
1684.66333,0.02379
1683.17354,0.03531
1681.68375,0.03000
1680.19396,0.02977
1678.70417,0.04136
1677.21439,0.03949
1675.72460,0.05001
1674.23481,0.05691
1672.74502,0.05258
1671.25523,0.05587
1669.76544,0.05778
1668.27566,0.06421
1666.78587,0.08359
1665.29608,0.08445
1663.80629,0.07718
1662.31650,0.08595
1660.82671,0.10346
1659.33693,0.09992
1657.84714,0.09388
1656.35735,0.09123
1654.86756,0.10996
1653.37777,0.08572
1651.88798,0.10591
1650.39819,0.09268
1648.90841,0.09802
1647.41862,0.09271
1645.92883,0.10077
1644.43904,0.10886
1642.94925,0.10278
1641.45946,0.10431
1639.96968,0.09800
1638.47989,0.10407
1636.99010,0.08966
1635.50031,0.08426
1634.01052,0.09238
1632.52073,0.08816
1631.03094,0.09239
1629.54116,0.10002
1628.05137,0.10767
1626.56158,0.09315
1625.07179,0.11715
1623.58200,0.09987
1622.09221,0.10003
1620.60243,0.11511
1619.11264,0.12600
1617.62285,0.11135
1616.13306,0.11133
1614.64327,0.10290
1613.15348,0.11445
1611.66370,0.11058
1610.17391,0.10307
1608.68412,0.10289
1607.19433,0.09543
1605.70454,0.10486
1604.21475,0.10250
1602.72496,0.10018
1601.23518,0.10799
1599.74539,0.10543
1598.25560,0.08604
1596.76581,0.11500
1595.27602,0.10717
1593.78623,0.09994
1592.29645,0.09778
1590.80666,0.09340
1589.31687,0.07472
1587.82708,0.09371
1586.33729,0.07901
1584.84750,0.08962
1583.35771,0.09126
1581.86793,0.07888
1580.37814,0.09210
1578.88835,0.08735
1577.39856,0.09275
1575.90877,0.09761
1574.41898,0.07636
1572.92920,0.05429
1571.43941,0.06006
1569.94962,0.05406
1568.45983,0.04808
1566.97004,0.05168
1565.48025,0.05250
1563.99047,0.05840
1562.50068,0.04521
1561.01089,0.03149
1559.52110,0.04533
1558.03131,0.03615
1556.54152,0.02503
1555.05173,0.04175
1553.56195,0.03321
1552.07216,0.03621
1550.58237,0.01114
1549.09258,0.01925
1547.60279,0.01389
1546.11300,0.00351
1544.62322,0.01774
1543.13343,0.01036
1541.64364,0.00637
1540.15385,0.00784
1538.66406,0.00932
1537.17427,0.01126
1535.68448,0.01603
1534.19470,0.01436
1532.70491,0.01018
1531.21512,0.00351
1529.72533,0.00931
1528.23554,0.02637
1526.74575,0.02323
1525.25597,0.02517
1523.76618,0.03500
1522.27639,0.03840
1520.78660,0.03817
1519.29681,0.02531
1517.80702,0.04086
1516.31724,0.03087
1514.82745,0.04759
1513.33766,0.04959
1511.84787,0.05161
1510.35808,0.04368
1508.86829,0.03465
1507.37850,0.04503
1505.88872,0.04448
1504.39893,0.06110
1502.90914,0.05301
1501.41935,0.06461
1499.92956,0.08692
1498.43977,0.07469
1496.94999,0.07654
1495.46020,0.09105
1493.97041,0.08564
1492.48062,0.08953
1490.99083,0.09709
1489.50104,0.12097
1488.01125,0.13069
1486.52147,0.14044
1485.03168,0.15962
1483.54189,0.19007
1482.05210,0.20537
1480.56231,0.24738
1479.07252,0.23828
1477.58274,0.27164
1476.09295,0.26118
1474.60316,0.24428
1473.11337,0.28811
1471.62358,0.29824
1470.13379,0.29772
1468.64401,0.31043
1467.15422,0.33271
1465.66443,0.33423
1464.17464,0.33577
1462.68485,0.36740
1461.19506,0.41171
1459.70527,0.46278
1458.21549,0.54591
1456.72570,0.61643
1455.23591,0.67994
1453.74612,0.72043
1452.25633,0.74352
1450.76654,0.75259
1449.27676,0.76562
1447.78697,0.76771
1446.29718,0.73779
1444.80739,0.71759
1443.31760,0.69742
1441.82781,0.63076
1440.33802,0.60994
1438.84824,0.56581
1437.35845,0.56189
1435.86866,0.53242
1434.37887,0.55722
1432.88908,0.59946
1431.39929,0.62037
1429.90951,0.68064
1428.41972,0.76427
1426.92993,0.83414
1425.44014,0.91444
1423.95035,0.94082
1422.46056,0.96721
1420.97078,1.00262
1419.48099,1.00799
1417.99120,1.02294
1416.50141,1.00503
1415.01162,0.99558
1413.52183,0.92799
1412.03204,0.83428
1410.54226,0.78078
1409.05247,0.73827
1407.56268,0.71461
1406.07289,0.62662
1404.58310,0.60147
1403.09331,0.57634
1401.60353,0.52242
1400.11374,0.44830
1398.62395,0.39725
1397.13416,0.34257
1395.64437,0.28960
1394.15458,0.24846
1392.66479,0.19919
1391.17501,0.17861
1389.68522,0.14288
1388.19543,0.10661
1386.70564,0.10002
1385.21585,0.09344
1383.72606,0.07495
1382.23628,0.05846
1380.74649,0.03945
1379.25670,0.02918
1377.76691,0.02316
1376.27712,0.00507
1374.78733,0.01258
1373.29755,0.00663
1371.80776,0.00351
1370.31797,0.01041
1368.82818,0.00862
1367.33839,0.00685
1365.84860,0.01130
1364.35881,0.02869
1362.86903,0.03543
1361.37924,0.06103
1359.88945,0.08496
1358.39966,0.12437
1356.90987,0.17055
1355.42008,0.20186
1353.93030,0.25259
1352.44051,0.28465
1350.95072,0.31674
1349.46093,0.38383
1347.97114,0.46501
1346.48135,0.55239
1344.99156,0.64344
1343.50178,0.74071
1342.01199,0.76212
1340.52220,0.83864
1339.03241,0.90282
1337.54262,0.93527
1336.05283,0.95650
1334.56305,0.97776
1333.07326,1.01113
1331.58347,1.01389
1330.09368,0.98773
1328.60389,1.04449
1327.11410,0.96161
1325.62432,0.92738
1324.13453,0.93082
1322.64474,0.88202
1321.15495,0.87653
1319.66516,0.83368
1318.17537,0.79085
1316.68558,0.75958
1315.19580,0.71399
1313.70601,0.65213
1312.21622,0.60210
1310.72643,0.55012
1309.23664,0.50970
1307.74685,0.48306
1306.25707,0.45673
1304.76728,0.44265
1303.27749,0.42860
1301.78770,0.37396
1300.29791,0.28984
1298.80812,0.25717
1297.31834,0.22228
1295.82855,0.18516
1294.33876,0.15256
1292.84897,0.13208
1291.35918,0.12060
1289.86939,0.11899
1288.37960,0.11741
1286.88982,0.11135
1285.40003,0.08649
1283.91024,0.08750
1282.42045,0.06185
1280.93066,0.06769
1279.44087,0.05248
1277.95109,0.05331
1276.46130,0.05501
1274.97151,0.05393
1273.48172,0.05287
1271.99193,0.04818
1270.50214,0.04352
1269.01235,0.04562
1267.52257,0.03482
1266.03278,0.03136
1264.54299,0.03016
1263.05320,0.03321
1261.56341,0.03066
1260.07362,0.02813
1258.58384,0.01889
1257.09405,0.02175
1255.60426,0.01986
1254.11447,0.02979
1252.62468,0.00351
1251.13489,0.01052
1249.64511,0.01644
1248.15532,0.01142
1246.66553,0.01668
1245.17574,0.02197
1243.68595,0.00662
1242.19616,0.02868
1240.70637,0.00383
1239.21659,0.01891
1237.72680,0.02586
1236.23701,0.02722
1234.74722,0.03957
1233.25743,0.03535
1231.76764,0.03117
1230.27786,0.01239
1228.78807,0.05153
1227.29828,0.02493
1225.80849,0.00960
1224.31870,0.00329
1222.82891,0.00351
1221.33912,0.01728
1219.84934,0.01478
1218.35955,0.01230
1216.86976,0.03683
1215.37997,0.05407
1213.89018,0.06965
1212.40039,0.08891
1210.91061,0.06352
1209.42082,0.09154
1207.93103,0.07518
1206.44124,0.05885
1204.95145,0.07458
1203.46166,0.06111
1201.97188,0.07801
1200.48209,0.07892
1198.99230,0.08603
1197.50251,0.07210
1196.01272,0.04723
1194.52293,0.04023
1193.03314,0.03325
1191.54336,0.02784
1190.05357,0.01881
1188.56378,0.02469
1187.07399,0.03060
1185.58420,0.02782
1184.09441,0.02057
1182.60463,0.02500
1181.11484,0.02946
1179.62505,0.02790
1178.13526,0.02525
1176.64547,0.00351
1175.15568,0.02604
1173.66589,0.01010
1172.17611,0.02510
1170.68632,0.01793
1169.19653,0.01077
1167.70674,0.01966
1166.21695,0.02521
1164.72716,0.03471
1163.23738,0.04058
1161.74759,0.03861
1160.25780,0.06195
1158.76801,0.07225
1157.27822,0.08258
1155.78843,0.10515
1154.29865,0.09796
1152.80886,0.09754
1151.31907,0.11963
1149.82928,0.12066
1148.33949,0.11610
1146.84970,0.12351
1145.35991,0.13094
1143.87013,0.12308
1142.38034,0.15824
1140.89055,0.17937
1139.40076,0.16962
1137.91097,0.18125
1136.42118,0.19403
1134.93140,0.19418
1133.44161,0.19436
1131.95182,0.23756
1130.46203,0.26196
1128.97224,0.26165
1127.48245,0.25294
1125.99266,0.22626
1124.50288,0.24682
1123.01309,0.25097
1121.52330,0.25514
1120.03351,0.25414
1118.54372,0.24641
1117.05393,0.25501
1115.56415,0.26223
1114.07436,0.26723
1112.58457,0.26649
1111.09478,0.26577
1109.60499,0.24527
1108.11520,0.25008
1106.62542,0.26391
1105.13563,0.25360
1103.64584,0.26748
1102.15605,0.25665
1100.66626,0.25035
1099.17647,0.24407
1097.68668,0.23950
1096.19690,0.23299
1094.70711,0.20598
1093.21732,0.23324
1091.72753,0.22315
1090.23774,0.22404
1088.74795,0.22496
1087.25817,0.20033
1085.76838,0.20860
1084.27859,0.21240
1082.78880,0.23056
1081.29901,0.21867
1079.80922,0.22451
1078.31943,0.23361
1076.82965,0.24273
1075.33986,0.23600
1073.85007,0.23098
1072.36028,0.25324
1070.87049,0.28227
1069.38070,0.28379
1067.89092,0.32355
1066.40113,0.36333
1064.91134,0.43292
1063.42155,0.50844
1061.93176,0.60563
1060.44197,0.70564
1058.95219,0.78264
1057.46240,0.83873
1055.97261,0.89484
1054.48282,1.00480
1052.99303,1.09903
1051.50324,1.08061
1050.01345,1.08301
1048.52367,1.03907
1047.03388,1.03856
1045.54409,1.03808
1044.05430,0.97426
1042.56451,0.90344
1041.07472,0.87985
1039.58494,0.77648
1038.09515,0.65571
1036.60536,0.62334
1035.11557,0.59100
1033.62578,0.56725
1032.13599,0.47636
1030.64620,0.41080
1029.15642,0.33907
1027.66663,0.31781
1026.17684,0.29657
1024.68705,0.27887
1023.19726,0.23675
1021.70747,0.19915
1020.21769,0.16270
1018.72790,0.17010
1017.23811,0.16545
1015.74832,0.16083
1014.25853,0.15679
1012.76874,0.13592
1011.27896,0.11478
1009.78917,0.12037
1008.29938,0.07709
1006.80959,0.06657
1005.31980,0.05608
1003.83001,0.04434
1002.34022,0.05033
1000.85044,0.04820
999.36065,0.05846
997.87086,0.06818
996.38107,0.07792
994.89128,0.10511
993.40149,0.09355
991.91171,0.09522
990.42192,0.11883
988.93213,0.14724
987.44234,0.15826
985.95255,0.16930
984.46276,0.17671
982.97297,0.16363
981.48319,0.14412
979.99340,0.09680
978.50361,0.08984
977.01382,0.08290
975.52403,0.06264
974.03424,0.05646
972.54446,0.05591
971.05467,0.03067
969.56488,0.00348
968.07509,0.00351
966.58530,0.00329
965.09551,0.00573
963.60573,0.01382
962.11594,0.00732
960.62615,0.00871
959.13636,0.01490
957.64657,0.02112
956.15678,0.02034
954.66699,0.02014
953.17721,0.02250
951.68742,0.02797
950.19763,0.02658
948.70784,0.02522
947.21805,0.05886
945.72826,0.06191
944.23848,0.08183
942.74869,0.12146
941.25890,0.12766
939.76911,0.13783
938.27932,0.14802
936.78953,0.15289
935.29974,0.16987
933.80996,0.18520
932.32017,0.20307
930.83038,0.20018
929.34059,0.19731
927.85080,0.24926
926.36101,0.27257
924.87123,0.31108
923.38144,0.37603
921.89165,0.41810
920.40186,0.46020
918.91207,0.57356
917.42228,0.70156
915.93250,0.83660
914.44271,1.04698
912.95292,1.18137
911.46313,1.31579
909.97334,1.50461
908.48355,1.70188
906.99376,1.86124
905.50398,1.93322
904.01419,1.96660
902.52440,2.00000
901.03461,1.97652
899.54482,1.90023
898.05503,1.79447
896.56525,1.66371
895.07546,1.53425
893.58567,1.40481
892.09588,1.15442
890.60609,0.90490
889.11630,0.65316
887.62651,0.50288
886.13673,0.41389
884.64694,0.32492
883.15715,0.24160
881.66736,0.17264
880.17757,0.14219
878.68778,0.13285
877.19800,0.12353
875.70821,0.07630
874.21842,0.04624
872.72863,0.02941
871.23884,0.01372
869.74905,0.00860
868.25927,0.00351
866.76948,0.02439
865.27969,0.01607
863.78990,0.02436
862.30011,0.02790
860.81032,0.02471
859.32053,0.02155
857.83075,0.07743
856.34096,0.09230
854.85117,0.10354
853.36138,0.11313
851.87159,0.12386
850.38180,0.13462
848.89202,0.14315
847.40223,0.15957
845.91244,0.20216
844.42265,0.20838
842.93286,0.21462
841.44307,0.21344
839.95329,0.21509
838.46350,0.25836
836.97371,0.26709
835.48392,0.25702
833.99413,0.24697
832.50434,0.27937
831.01455,0.25673
829.52477,0.25434
828.03498,0.20477
826.54519,0.19105
825.05540,0.17735
823.56561,0.16129
822.07582,0.12896
820.58604,0.13037
819.09625,0.12450
817.60646,0.11865
816.11667,0.12548
814.62688,0.12277
813.13709,0.11503
811.64730,0.13120
810.15752,0.12295
808.66773,0.11472
807.17794,0.12282
805.68815,0.14134
804.19836,0.14218
802.70857,0.15035
801.21879,0.15854
799.72900,0.11983
798.23921,0.11880
796.74942,0.11779
795.25963,0.11808
793.76984,0.11838
792.28006,0.11155
790.79027,0.13734
789.30048,0.16062
787.81069,0.17438
786.32090,0.20586
784.83111,0.23737
783.34132,0.28520
781.85154,0.31366
780.36175,0.34468
778.87196,0.36322
777.38217,0.38178
775.89238,0.40360
774.40259,0.41223
772.91281,0.39785
771.42302,0.39276
769.93323,0.38770
768.44344,0.34951
766.95365,0.29223
765.46386,0.26926
763.97407,0.20922
762.48429,0.19276
760.99450,0.17632
759.50471,0.15570
758.01492,0.13791
756.52513,0.11312
755.03534,0.10591
753.54556,0.09874
752.05577,0.08610
750.56598,0.06478
749.07619,0.05360
747.58640,0.05087
746.09661,0.04817
744.60683,0.05224
743.11704,0.02936
741.62725,0.02729
740.13746,0.02033
738.64767,0.01340
737.15788,0.00972
735.66809,0.00607
734.17831,0.00750
732.68852,0.01851
731.19873,0.02954
729.70894,0.00351
728.21915,0.01598
726.72936,0.00824
725.23958,0.02947
723.74979,0.02825
722.26000,0.02705
720.77021,0.02110
719.28042,0.01461
717.79063,0.01517
716.30084,0.01196
714.81106,0.00877
713.32127,0.00351
711.83148,0.01967
710.34169,0.02771
708.85190,0.03929
707.36211,0.05089
705.87233,0.04102
704.38254,0.05618
702.89275,0.06237
701.40296,0.05693
699.91317,0.05151
698.42338,0.07015
696.93360,0.09134
695.44381,0.10805
693.95402,0.11088
692.46423,0.11373
690.97444,0.12406
689.48465,0.15211
687.99486,0.19171
686.50508,0.20071
685.01529,0.20973
683.52550,0.22608
682.03571,0.25847
680.54592,0.26840
679.05613,0.27204
677.56635,0.27570
676.07656,0.26435
674.58677,0.26961
673.09698,0.25944
671.60719,0.24690
670.11740,0.23438
668.62761,0.20011
667.13783,0.17571
665.64804,0.16186
664.15825,0.14804
662.66846,0.13410
661.17867,0.08675
659.68888,0.06246
658.19910,0.05240
656.70931,0.04235
655.21952,0.01926
653.72973,0.05437
652.23994,0.06224
650.75015,0.06269
649.26037,0.06317
647.77058,0.06662
646.28079,0.04705
644.79100,0.01992
643.30121,0.02386
641.81142,0.02783
640.32163,0.02522
638.83185,0.03135
637.34206,0.03047
635.85227,0.01698
634.36248,0.00351
632.87269,0.01293
631.38290,0.00720
629.89312,0.00852
628.40333,0.01549
626.91354,0.02248
625.42375,0.01291
623.93396,0.00000
622.44417,0.00397
620.95438,0.00797
619.46460,0.03307
617.97481,0.05707
616.48502,0.08952
614.99523,0.08856
613.50544,0.08762
612.01565,0.11818
610.52587,0.15804
609.03608,0.19764
607.54629,0.21310
606.05650,0.22858
604.56671,0.23313
603.07692,0.30093
601.58714,0.34360
600.09735,0.38630
598.60756,0.41371
597.11777,0.42007
595.62798,0.44331
594.13819,0.42485
592.64840,0.40641
591.15862,0.39123
589.66883,0.32717
588.17904,0.28843
586.68925,0.24705
585.19946,0.20569
583.70967,0.18023
582.21989,0.13316
580.73010,0.11169
579.24031,0.09024
577.75052,0.06123
576.26073,0.05444
574.77094,0.06426
573.28115,0.04937
571.79137,0.03451
570.30158,0.06154
568.81179,0.05684
567.32200,0.07689
565.83221,0.09697
564.34242,0.11595
562.85264,0.13159
561.36285,0.14078
559.87306,0.14143
558.38327,0.14210
556.89348,0.15811
555.40369,0.16881
553.91391,0.16731
552.42412,0.16583
550.93433,0.19740
549.44454,0.21494
547.95475,0.23756
546.46496,0.23829
544.97517,0.23904
543.48539,0.21846
541.99560,0.27153
540.50581,0.28458
539.01602,0.29765
537.52623,0.36766
536.03644,0.41043
534.54666,0.42259
533.05687,0.45164
531.56708,0.48072
530.07729,0.51488
528.58750,0.56226
527.09771,0.59226
525.60792,0.62227
524.11814,0.66468
522.62835,0.70064
521.13856,0.75181
519.64877,0.78206
518.15898,0.81234
516.66919,0.82227
515.17941,0.82014
513.68962,0.82394
512.19983,0.82776
510.71004,0.82290
509.22025,0.79108
507.73046,0.71039
506.24068,0.66359
504.75089,0.61681
503.26110,0.47606
501.77131,0.36737
500.28152,0.32249
498.79173,0.27763
497.30194,0.22381
495.81216,0.16749
494.32237,0.14842
492.83258,0.12938
491.34279,0.09617
489.85300,0.07844
488.36321,0.06298
486.87343,0.07312
485.38364,0.08329
483.89385,0.07802
482.40406,0.10453
480.91427,0.11294
479.42448,0.12138
477.93469,0.12408
476.44491,0.14676
474.95512,0.16341
473.46533,0.18010
471.97554,0.15676
470.48575,0.18769
468.99596,0.19756
467.50618,0.19045
466.01639,0.18337
464.52660,0.14948
463.03681,0.10578
461.54702,0.09891
460.05723,0.09207
458.56745,0.03889
457.07766,0.02901
455.58787,0.02940
454.09808,0.02983
452.60829,0.04728
451.11850,0.02878
449.62871,0.02843
448.13893,0.02811
446.64914,0.00351
445.15935,0.03042
443.66956,0.01520
442.17977,0.01856
440.68998,0.02194
439.20020,0.03405
437.71041,0.02540
436.22062,0.03798
434.73083,0.05060
433.24104,0.03977
431.75125,0.02025
430.26146,0.03771
428.77168,0.05520
427.28189,0.04615
425.79210,0.05596
424.30231,0.04711
422.81252,0.03828
421.32273,0.01921
419.83295,0.02041
418.34316,0.03708
416.85337,0.05378
415.36358,0.03116
413.87379,0.02150
412.38400,0.02057
410.89422,0.01966
409.40443,0.03929
407.91464,0.05642
406.42485,0.01821
404.93506,0.01628
403.44527,0.01437
401.95548,0.02373
400.46570,0.04126
398.97591,0.03816
397.48612,0.03509
395.99633,0.04454
394.50654,0.04784
393.01675,0.03261
391.52697,0.01741
390.03718,0.02978
388.54739,0.02615
387.05760,0.01481
385.56781,0.00351
384.07802,0.01295
382.58824,0.01709
381.09845,0.02068
379.60866,0.02430
378.11887,0.03834
376.62908,0.04060
375.13929,0.03278
373.64950,0.02497
372.15972,0.00989
370.66993,0.03529
369.18014,0.02615
367.69035,0.01704
366.20056,0.04449
364.71077,0.04470
363.22099,0.03538
361.73120,0.02609
360.24141,0.03368
358.75162,0.06012
357.26183,0.05737
355.77204,0.05463
354.28225,0.07103
352.79247,0.06779
351.30268,0.07567
349.81289,0.08357
348.32310,0.05342
346.83331,0.04999
345.34352,0.04996
343.85374,0.04996
342.36395,0.06402
340.87416,0.02585
339.38437,0.03617
337.89458,0.04652
336.40479,0.01488
334.91501,0.03385
333.42522,0.02952
331.93543,0.02521
330.44564,0.00351
328.95585,0.02399
327.46606,0.01962
325.97627,0.01528
324.48649,0.03347
322.99670,0.04184
321.50691,0.02663
320.01712,0.01145
318.52733,0.06963
317.03754,0.06040
315.54776,0.06201
314.05797,0.06365
312.56818,0.06910
311.07839,0.09902
309.58860,0.08219
308.09881,0.06537
306.60902,0.05491
305.11924,0.03772
303.62945,0.03138
302.13966,0.02506
300.64987,0.00795
299.16008,0.00351
