1778.52000,0.01260
1777.03021,0.01720
1775.54042,0.00222
1774.05063,0.02586
1772.56085,0.01031
1771.07106,-0.00000
1769.58127,0.01605
1768.09148,0.00763
1766.60169,0.01760
1765.11190,0.01657
1763.62212,0.01159
1762.13233,0.01551
1760.64254,0.00384
1759.15275,0.01577
1757.66296,0.01456
1756.17317,0.01338
1754.68339,0.00609
1753.19360,0.00250
1751.70381,0.01425
1750.21402,0.00857
1748.72423,0.00505
1747.23444,0.01657
1745.74465,0.01953
1744.25487,0.00384
1742.76508,0.01406
1741.27529,0.01175
1739.78550,0.01130
1738.29571,0.00965
1736.80592,0.01996
1735.31614,0.01836
1733.82635,0.01801
1732.33656,0.01462
1730.84677,0.01921
1729.35698,0.00147
1727.86719,0.01624
1726.37740,0.01846
1724.88762,0.01582
1723.39783,0.00952
1721.90804,0.01213
1720.41825,0.00772
1718.92846,0.00517
1717.43867,0.00509
1715.94889,0.01147
1714.45910,0.01451
1712.96931,0.01236
1711.47952,0.00840
1709.98973,0.00569
1708.49994,0.01005
1707.01016,0.00678
1705.52037,0.00353
1704.03058,0.01102
1702.54079,0.01364
1701.05100,0.01598
1699.56121,0.02355
1698.07142,0.02655
1696.58164,0.00384
1695.09185,0.02844
1693.60206,0.02122
1692.11227,0.02473
1690.62248,0.03869
1689.13269,0.03153
1687.64291,0.03206
1686.15312,0.04823
1684.66333,0.04452
1683.17354,0.04972
1681.68375,0.04054
1680.19396,0.04425
1678.70417,0.04431
1677.21439,0.04685
1675.72460,0.03838
1674.23481,0.04679
1672.74502,0.05460
1671.25523,0.04927
1669.76544,0.07459
1668.27566,0.06564
1666.78587,0.05732
1665.29608,0.07934
1663.80629,0.08424
1662.31650,0.09835
1660.82671,0.08737
1659.33693,0.08010
1657.84714,0.07682
1656.35735,0.06132
1654.86756,0.07464
1653.37777,0.07572
1651.88798,0.07775
1650.39819,0.07521
1648.90841,0.07270
1647.41862,0.06929
1645.92883,0.07617
1644.43904,0.08307
1642.94925,0.08095
1641.45946,0.09633
1639.96968,0.09243
1638.47989,0.08763
1636.99010,0.07612
1635.50031,0.08026
1634.01052,0.06083
1632.52073,0.08187
1631.03094,0.07382
1629.54116,0.06948
1628.05137,0.09242
1626.56158,0.09762
1625.07179,0.09795
1623.58200,0.09707
1622.09221,0.09009
1620.60243,0.09264
1619.11264,0.10225
1617.62285,0.08677
1616.13306,0.07009
1614.64327,0.08896
1613.15348,0.08917
1611.66370,0.07991
1610.17391,0.08385
1608.68412,0.07954
1607.19433,0.09119
1605.70454,0.08754
1604.21475,0.08805
1602.72496,0.08859
1601.23518,0.07001
1599.74539,0.07320
1598.25560,0.07120
1596.76581,0.08976
1595.27602,0.09149
1593.78623,0.09385
1592.29645,0.07511
1590.80666,0.06344
1589.31687,0.06619
1587.82708,0.07508
1586.33729,0.06502
1584.84750,0.09111
1583.35771,0.08967
1581.86793,0.08365
1580.37814,0.08165
1578.88835,0.08028
1577.39856,0.08169
1575.90877,0.07638
1574.41898,0.07018
1572.92920,0.04717
1571.43941,0.06246
1569.94962,0.05602
1568.45983,0.04962
1566.97004,0.06069
1565.48025,0.04545
1563.99047,0.04769
1562.50068,0.03863
1561.01089,0.04766
1559.52110,0.05089
1558.03131,0.05231
1556.54152,0.03691
1555.05173,0.04359
1553.56195,0.03467
1552.07216,0.04813
1550.58237,0.01445
1549.09258,0.01816
1547.60279,0.00780
1546.11300,0.01891
1544.62322,0.00983
1543.13343,0.00384
1541.64364,0.01624
1540.15385,0.01319
1538.66406,0.01017
1537.17427,0.01865
1535.68448,0.01920
1534.19470,0.02192
1532.70491,0.00781
1531.21512,0.00384
1529.72533,0.02394
1528.23554,0.01711
1526.74575,0.02685
1525.25597,0.02834
1523.76618,0.01607
1522.27639,0.02006
1520.78660,0.03051
1519.29681,0.03332
1517.80702,0.03739
1516.31724,0.03718
1514.82745,0.05140
1513.33766,0.04528
1511.84787,0.03918
1510.35808,0.04398
1508.86829,0.03930
1507.37850,0.04323
1505.88872,0.03615
1504.39893,0.05085
1502.90914,0.06588
1501.41935,0.06316
1499.92956,0.08191
1498.43977,0.07343
1496.94999,0.06527
1495.46020,0.06786
1493.97041,0.08549
1492.48062,0.10252
1490.99083,0.09293
1489.50104,0.12196
1488.01125,0.12237
1486.52147,0.12281
1485.03168,0.14824
1483.54189,0.17798
1482.05210,0.16823
1480.56231,0.19985
1479.07252,0.19689
1477.58274,0.21938
1476.09295,0.21891
1474.60316,0.23226
1473.11337,0.23828
1471.62358,0.24524
1470.13379,0.24028
1468.64401,0.26015
1467.15422,0.27392
1465.66443,0.28573
1464.17464,0.29756
1462.68485,0.31600
1461.19506,0.38071
1459.70527,0.39583
1458.21549,0.47744
1456.72570,0.53457
1455.23591,0.60152
1453.74612,0.64614
1452.25633,0.67700
1450.76654,0.69135
1449.27676,0.72073
1447.78697,0.69041
1446.29718,0.66746
1444.80739,0.67103
1443.31760,0.67463
1441.82781,0.63184
1440.33802,0.59001
1438.84824,0.56259
1437.35845,0.50242
1435.86866,0.52742
1434.37887,0.53836
1432.88908,0.55086
1431.39929,0.58574
1429.90951,0.64637
1428.41972,0.73979
1426.92993,0.81731
1425.44014,0.88567
1423.95035,0.90612
1422.46056,0.92660
1420.97078,0.96655
1419.48099,0.97497
1417.99120,0.99506
1416.50141,0.96433
1415.01162,0.91127
1413.52183,0.84414
1412.03204,0.78653
1410.54226,0.77704
1409.05247,0.74674
1407.56268,0.72105
1406.07289,0.65252
1404.58310,0.61586
1403.09331,0.57922
1401.60353,0.50800
1400.11374,0.45028
1398.62395,0.38584
1397.13416,0.33338
1395.64437,0.29564
1394.15458,0.25272
1392.66479,0.22728
1391.17501,0.18870
1389.68522,0.14370
1388.19543,0.13610
1386.70564,0.12270
1385.21585,0.10933
1383.72606,0.04790
1382.23628,0.05356
1380.74649,0.05588
1379.25670,0.02239
1377.76691,0.03487
1376.27712,0.01858
1374.78733,0.02192
1373.29755,0.00384
1371.80776,0.03389
1370.31797,0.01588
1368.82818,0.02332
1367.33839,0.03078
1365.84860,0.02173
1364.35881,0.03445
1362.86903,0.03187
1361.37924,0.08231
1359.88945,0.08806
1358.39966,0.11619
1356.90987,0.13913
1355.42008,0.20130
1353.93030,0.25707
1352.44051,0.28683
1350.95072,0.31661
1349.46093,0.41533
1347.97114,0.46690
1346.48135,0.55066
1344.99156,0.66385
1343.50178,0.72132
1342.01199,0.73042
1340.52220,0.83081
1339.03241,0.85099
1337.54262,0.90335
1336.05283,0.91683
1334.56305,0.93034
1333.07326,0.95490
1331.58347,0.99817
1330.09368,1.00103
1328.60389,0.94634
1327.11410,0.93578
1325.62432,0.92922
1324.13453,0.92268
1322.64474,0.85676
1321.15495,0.84415
1319.66516,0.81686
1318.17537,0.78959
1316.68558,0.70569
1315.19580,0.66531
1313.70601,0.61453
1312.21622,0.56654
1310.72643,0.49070
1309.23664,0.47706
1307.74685,0.44629
1306.25707,0.42596
1304.76728,0.40014
1303.27749,0.37434
1301.78770,0.35347
1300.29791,0.29342
1298.80812,0.22084
1297.31834,0.20372
1295.82855,0.17866
1294.33876,0.13831
1292.84897,0.14484
1291.35918,0.11036
1289.86939,0.10821
1288.37960,0.10609
1286.88982,0.08455
1285.40003,0.07620
1283.91024,0.06327
1282.42045,0.05497
1280.93066,0.05956
1279.44087,0.05253
1277.95109,0.06788
1276.46130,0.04773
1274.97151,0.04384
1273.48172,0.03997
1271.99193,0.05848
1270.50214,0.04456
1269.01235,0.04444
1267.52257,0.03607
1266.03278,0.00384
1264.54299,0.03294
1263.05320,0.01276
1261.56341,0.01389
1260.07362,0.01504
1258.58384,0.00657
1257.09405,0.02293
1255.60426,0.01910
1254.11447,0.03275
1252.62468,0.01642
1251.13489,0.02706
1249.64511,0.01383
1248.15532,0.01993
1246.66553,0.01931
1245.17574,0.01871
1243.68595,0.03162
1242.19616,0.00228
1240.70637,0.01589
1239.21659,0.01665
1237.72680,0.03429
1236.23701,0.02562
1234.74722,0.04238
1233.25743,0.03360
1231.76764,0.02484
1230.27786,0.02668
1228.78807,0.02547
1227.29828,0.02735
1225.80849,0.00506
1224.31870,0.00914
1222.82891,0.01140
1221.33912,0.00542
1219.84934,0.01606
1218.35955,0.02673
1216.86976,0.03283
1215.37997,0.05640
1213.89018,0.05367
1212.40039,0.06168
1210.91061,0.05746
1209.42082,0.07899
1207.93103,0.07222
1206.44124,0.06547
1204.95145,0.06196
1203.46166,0.04592
1201.97188,0.04583
1200.48209,0.05158
1198.99230,0.05093
1197.50251,0.05765
1196.01272,0.03468
1194.52293,0.02752
1193.03314,0.02037
1191.54336,0.02321
1190.05357,0.01596
1188.56378,0.00384
1187.07399,0.01834
1185.58420,0.02858
1184.09441,0.02046
1182.60463,0.02064
1181.11484,0.02084
1179.62505,0.01892
1178.13526,0.01826
1176.64547,0.01271
1175.15568,0.01270
1173.66589,0.00384
1172.17611,0.01474
1170.68632,0.00973
1169.19653,0.00475
1167.70674,0.02552
1166.21695,0.02641
1164.72716,0.02641
1163.23738,0.04174
1161.74759,0.04178
1160.25780,0.04950
1158.76801,0.05648
1157.27822,0.06349
1155.78843,0.06976
1154.29865,0.08095
1152.80886,0.09890
1151.31907,0.11810
1149.82928,0.10700
1148.33949,0.11370
1146.84970,0.11153
1145.35991,0.10939
1143.87013,0.12504
1142.38034,0.17073
1140.89055,0.17632
1139.40076,0.17335
1137.91097,0.17807
1136.42118,0.21467
1134.93140,0.21530
1133.44161,0.21596
1131.95182,0.22997
1130.46203,0.23787
1128.97224,0.23998
1127.48245,0.25344
1125.99266,0.23110
1124.50288,0.25748
1123.01309,0.25662
1121.52330,0.25579
1120.03351,0.23630
1118.54372,0.22847
1117.05393,0.25374
1115.56415,0.25332
1114.07436,0.28752
1112.58457,0.27428
1111.09478,0.26106
1109.60499,0.26011
1108.11520,0.24143
1106.62542,0.23809
1105.13563,0.24671
1103.64584,0.25107
1102.15605,0.22881
1100.66626,0.23643
1099.17647,0.24408
1097.68668,0.22496
1096.19690,0.21045
1094.70711,0.20577
1093.21732,0.20999
1091.72753,0.17810
1090.23774,0.17686
1088.74795,0.17565
1087.25817,0.18548
1085.76838,0.18585
1084.27859,0.17582
1082.78880,0.16582
1081.29901,0.19137
1079.80922,0.18265
1078.31943,0.17777
1076.82965,0.17292
1075.33986,0.17560
1073.85007,0.15656
1072.36028,0.19604
1070.87049,0.18960
1069.38070,0.21780
1067.89092,0.24863
1066.40113,0.27948
1064.91134,0.30438
1063.42155,0.38719
1061.93176,0.44859
1060.44197,0.53421
1058.95219,0.61679
1057.46240,0.64748
1055.97261,0.67819
1054.48282,0.78596
1052.99303,0.86128
1051.50324,0.82760
1050.01345,0.85091
1048.52367,0.84269
1047.03388,0.84951
1045.54409,0.85635
1044.05430,0.78144
1042.56451,0.75984
1041.07472,0.72388
1039.58494,0.66680
1038.09515,0.58464
1036.60536,0.56115
1035.11557,0.53769
1033.62578,0.47979
1032.13599,0.40661
1030.64620,0.36561
1029.15642,0.32157
1027.66663,0.28613
1026.17684,0.25071
1024.68705,0.24381
1023.19726,0.19282
1021.70747,0.17922
1020.21769,0.15217
1018.72790,0.12331
1017.23811,0.12235
1015.74832,0.12141
1014.25853,0.11467
1012.76874,0.11041
1011.27896,0.09239
1009.78917,0.08542
1008.29938,0.07143
1006.80959,0.06435
1005.31980,0.05730
1003.83001,0.04155
1002.34022,0.04113
1000.85044,0.04258
999.36065,0.03210
997.87086,0.04003
996.38107,0.04798
994.89128,0.04983
993.40149,0.04129
991.91171,0.04932
990.42192,0.07176
988.93213,0.08289
987.44234,0.09145
985.95255,0.10003
984.46276,0.11246
982.97297,0.07929
981.48319,0.07921
979.99340,0.05772
978.50361,0.05371
977.01382,0.04973
975.52403,0.01759
974.03424,0.02713
972.54446,0.01679
971.05467,0.00647
969.56488,0.00383
968.07509,0.00383
966.58530,0.00384
965.09551,0.01276
963.60573,0.01588
962.11594,0.00341
960.62615,0.02105
959.13636,0.01620
957.64657,0.01138
956.15678,0.02634
954.66699,0.03152
953.17721,0.03335
951.68742,0.04930
950.19763,0.04736
948.70784,0.04544
947.21805,0.05319
945.72826,0.07659
944.23848,0.09940
942.74869,0.11672
941.25890,0.13253
939.76911,0.13305
938.27932,0.13360
936.78953,0.14704
935.29974,0.17826
933.80996,0.16725
932.32017,0.17585
930.83038,0.18831
929.34059,0.20080
927.85080,0.23613
926.36101,0.25892
924.87123,0.28909
923.38144,0.33950
921.89165,0.36298
920.40186,0.38649
918.91207,0.47985
917.42228,0.58947
915.93250,0.70554
914.44271,0.93986
912.95292,1.02918
911.46313,1.11853
909.97334,1.37804
908.48355,1.63880
906.99376,1.75931
905.50398,1.91997
904.01419,1.95997
902.52440,2.00000
901.03461,1.93653
899.54482,1.94169
898.05503,1.83509
896.56525,1.70431
895.07546,1.59163
893.58567,1.47897
892.09588,1.19390
890.60609,0.90641
889.11630,0.67376
887.62651,0.49382
886.13673,0.42432
884.64694,0.35484
883.15715,0.28768
881.66736,0.20064
880.17757,0.13996
878.68778,0.12295
877.19800,0.10597
875.70821,0.05424
874.21842,0.04941
872.72863,0.04459
871.23884,0.03215
869.74905,0.02509
868.25927,0.01805
866.76948,0.00384
865.27969,0.01467
863.78990,0.00346
862.30011,0.02199
860.81032,0.02432
859.32053,0.02667
857.83075,0.05078
856.34096,0.06880
854.85117,0.07704
853.36138,0.06999
851.87159,0.07659
850.38180,0.08322
848.89202,0.09738
847.40223,0.09747
845.91244,0.12699
844.42265,0.13555
842.93286,0.14414
841.44307,0.14034
839.95329,0.15220
838.46350,0.17295
836.97371,0.17995
835.48392,0.18055
833.99413,0.18116
832.50434,0.17905
831.01455,0.18217
829.52477,0.16356
828.03498,0.12568
826.54519,0.11601
825.05540,0.10636
823.56561,0.10806
822.07582,0.10153
820.58604,0.06408
819.09625,0.07566
817.60646,0.08726
816.11667,0.06367
814.62688,0.05725
813.13709,0.06740
811.64730,0.07297
810.15752,0.07750
808.66773,0.08206
807.17794,0.08740
805.68815,0.08909
804.19836,0.07611
802.70857,0.08244
801.21879,0.08880
799.72900,0.07344
798.23921,0.07586
796.74942,0.05381
795.25963,0.06303
793.76984,0.07226
792.28006,0.07540
790.79027,0.09173
789.30048,0.08266
787.81069,0.11620
786.32090,0.13183
784.83111,0.14750
783.34132,0.17191
781.85154,0.19084
780.36175,0.22572
778.87196,0.25066
777.38217,0.27564
775.89238,0.28945
774.40259,0.28492
772.91281,0.26234
771.42302,0.25203
769.93323,0.24175
768.44344,0.23762
766.95365,0.20779
765.46386,0.19452
763.97407,0.15860
762.48429,0.13972
760.99450,0.12085
759.50471,0.11534
758.01492,0.10892
756.52513,0.08140
755.03534,0.07167
753.54556,0.06197
752.05577,0.03391
750.56598,0.05089
749.07619,0.03391
747.58640,0.03134
746.09661,0.02880
744.60683,0.01955
743.11704,0.01736
741.62725,0.00724
740.13746,0.01184
738.64767,0.01646
737.15788,0.02601
735.66809,0.01629
734.17831,0.00384
732.68852,0.01008
731.19873,0.01635
729.70894,0.02141
728.21915,0.00384
726.72936,0.00570
725.23958,0.00759
723.74979,0.00522
722.26000,0.00287
720.77021,0.01872
719.28042,0.02235
717.79063,0.01222
716.30084,0.00686
714.81106,0.00153
713.32127,0.01527
711.83148,0.01985
710.34169,0.03915
708.85190,0.04209
707.36211,0.04506
705.87233,0.03748
704.38254,0.06914
702.89275,0.07355
701.40296,0.05824
699.91317,0.04295
698.42338,0.04775
696.93360,0.08258
695.44381,0.10336
693.95402,0.09812
692.46423,0.09291
690.97444,0.12049
689.48465,0.14136
687.99486,0.18461
686.50508,0.17582
685.01529,0.16705
683.52550,0.23794
682.03571,0.23505
680.54592,0.26739
679.05613,0.26362
677.56635,0.25988
676.07656,0.26994
674.58677,0.27482
673.09698,0.24726
671.60719,0.22340
670.11740,0.19956
668.62761,0.17697
667.13783,0.14308
665.64804,0.13248
664.15825,0.12191
662.66846,0.10984
661.17867,0.10177
659.68888,0.07718
658.19910,0.05936
656.70931,0.04156
655.21952,0.03941
653.72973,0.03942
652.23994,0.04620
650.75015,0.05392
649.26037,0.06166
647.77058,0.04094
646.28079,0.05058
644.79100,0.02654
643.30121,0.02718
641.81142,0.02785
640.32163,0.03482
638.83185,0.03079
637.34206,0.02617
635.85227,0.01499
634.36248,0.00384
632.87269,0.02367
631.38290,0.00890
629.89312,0.00673
628.40333,0.01254
626.91354,0.01837
625.42375,0.02423
623.93396,0.02521
622.44417,0.03020
620.95438,0.03521
619.46460,0.05096
617.97481,0.06184
616.48502,0.06325
614.99523,0.06499
613.50544,0.06676
612.01565,0.10254
610.52587,0.14540
609.03608,0.19073
607.54629,0.19979
606.05650,0.20887
604.56671,0.26224
603.07692,0.31318
601.58714,0.34515
600.09735,0.37715
598.60756,0.40397
597.11777,0.42162
595.62798,0.39672
594.13819,0.39773
592.64840,0.39877
591.15862,0.36874
589.66883,0.31944
588.17904,0.24903
586.68925,0.23438
585.19946,0.21977
583.70967,0.17087
582.21989,0.13210
580.73010,0.11695
579.24031,0.10181
577.75052,0.07261
576.26073,0.06427
574.77094,0.03175
573.28115,0.03631
571.79137,0.04091
570.30158,0.05042
568.81179,0.05782
567.32200,0.06386
565.83221,0.06992
564.34242,0.08719
562.85264,0.09468
561.36285,0.11843
559.87306,0.12230
558.38327,0.12619
556.89348,0.10315
555.40369,0.11414
553.91391,0.12714
552.42412,0.14016
550.93433,0.13805
549.44454,0.14759
547.95475,0.16605
546.46496,0.16033
544.97517,0.15464
543.48539,0.17624
541.99560,0.18866
540.50581,0.22026
539.01602,0.25188
537.52623,0.27112
536.03644,0.35439
534.54666,0.38379
533.05687,0.41183
531.56708,0.43989
530.07729,0.46936
528.58750,0.52427
527.09771,0.55456
525.60792,0.58486
524.11814,0.62882
522.62835,0.71599
521.13856,0.78113
519.64877,0.78857
518.15898,0.79603
516.66919,0.84286
515.17941,0.84746
513.68962,0.86265
512.19983,0.87786
510.71004,0.87671
509.22025,0.77298
507.73046,0.70603
506.24068,0.66728
504.75089,0.62855
503.26110,0.47224
501.77131,0.36343
500.28152,0.33335
498.79173,0.30330
497.30194,0.22825
495.81216,0.18232
494.32237,0.15433
492.83258,0.12637
491.34279,0.09154
489.85300,0.09349
488.36321,0.08750
486.87343,0.08490
485.38364,0.08232
483.89385,0.07732
482.40406,0.08521
480.91427,0.09649
479.42448,0.10780
477.93469,0.12250
476.44491,0.12222
474.95512,0.12915
473.46533,0.13612
471.97554,0.16807
470.48575,0.15685
468.99596,0.15271
467.50618,0.15441
466.01639,0.15613
464.52660,0.10765
463.03681,0.07543
461.54702,0.08106
460.05723,0.08671
458.56745,0.04506
457.07766,0.04142
455.58787,0.03780
454.09808,0.03421
452.60829,0.02359
451.11850,0.02005
449.62871,0.01193
448.13893,0.00384
446.64914,0.02714
445.15935,0.01555
443.66956,0.02481
442.17977,0.02307
440.68998,0.02135
439.20020,0.03160
437.71041,0.02197
436.22062,0.03028
434.73083,0.03861
433.24104,0.03947
431.75125,0.02901
430.26146,0.03421
428.77168,0.03942
427.28189,0.02751
425.79210,0.04993
424.30231,0.05169
422.81252,0.05348
421.32273,0.06127
419.83295,0.05316
418.34316,0.04246
416.85337,0.03179
415.36358,0.01058
413.87379,0.01930
412.38400,0.02345
410.89422,0.02763
409.40443,0.06000
407.91464,0.03390
406.42485,0.01763
404.93506,0.01072
403.44527,0.00384
401.95548,0.04067
400.46570,0.04384
398.97591,0.04320
397.48612,0.04259
395.99633,0.05655
394.50654,0.04450
393.01675,0.03492
391.52697,0.02537
390.03718,0.04034
388.54739,0.01951
387.05760,0.02301
385.56781,0.02653
384.07802,0.01737
382.58824,0.03457
381.09845,0.04108
379.60866,0.04761
378.11887,0.03947
376.62908,0.01818
375.13929,0.02555
373.64950,0.03294
372.15972,0.02397
370.66993,0.07016
369.18014,0.04884
367.69035,0.02754
366.20056,0.06147
364.71077,0.04214
363.22099,0.02298
361.73120,0.00384
360.24141,0.03478
358.75162,0.05441
357.26183,0.05998
355.77204,0.06557
354.28225,0.05924
352.79247,0.06181
351.30268,0.06671
349.81289,0.07163
348.32310,0.06938
346.83331,0.02856
345.34352,0.04351
343.85374,0.05849
342.36395,0.07104
340.87416,0.05390
339.38437,0.06068
337.89458,0.06748
336.40479,0.05562
334.91501,0.05144
333.42522,0.03565
331.93543,0.01989
330.44564,0.00384
328.95585,0.01731
327.46606,0.01747
325.97627,0.01766
324.48649,0.04737
322.99670,0.07434
321.50691,0.06535
320.01712,0.05639
318.52733,0.06261
317.03754,0.08937
315.54776,0.07190
314.05797,0.05446
312.56818,0.05434
311.07839,0.07569
309.58860,0.07746
308.09881,0.07926
306.60902,0.08322
305.11924,0.07465
303.62945,0.04359
302.13966,0.01256
300.64987,0.00384
299.16008,0.00384
