1778.52000,0.02040
1777.03021,0.01644
1775.54042,0.01670
1774.05063,0.00439
1772.56085,0.00050
1771.07106,0.01735
1769.58127,0.00601
1768.09148,0.00549
1766.60169,0.00861
1765.11190,0.02045
1763.62212,0.01010
1762.13233,0.00999
1760.64254,0.01110
1759.15275,0.01374
1757.66296,0.01430
1756.17317,0.00768
1754.68339,0.00349
1753.19360,0.00322
1751.70381,0.00508
1750.21402,0.00786
1748.72423,0.00376
1747.23444,0.00660
1745.74465,0.01335
1744.25487,0.00723
1742.76508,0.01494
1741.27529,0.01967
1739.78550,0.00462
1738.29571,0.00956
1736.80592,0.01392
1735.31614,0.00961
1733.82635,0.00112
1732.33656,0.01756
1730.84677,0.01212
1729.35698,0.01751
1727.86719,0.00282
1726.37740,0.00406
1724.88762,0.00022
1723.39783,0.00000
1721.90804,0.00941
1720.41825,0.00744
1718.92846,0.00880
1717.43867,0.01169
1715.94889,0.01159
1714.45910,0.00222
1712.96931,0.01703
1711.47952,0.00935
1709.98973,0.00050
1708.49994,0.01721
1707.01016,0.01128
1705.52037,0.00538
1704.03058,0.01375
1702.54079,0.02035
1701.05100,0.02457
1699.56121,0.01802
1698.07142,0.01209
1696.58164,0.01459
1695.09185,0.01531
1693.60206,0.00945
1692.11227,0.02132
1690.62248,0.02842
1689.13269,0.03074
1687.64291,0.03518
1686.15312,0.03455
1684.66333,0.03574
1683.17354,0.03426
1681.68375,0.03370
1680.19396,0.03977
1678.70417,0.03986
1677.21439,0.04658
1675.72460,0.05242
1674.23481,0.04178
1672.74502,0.04797
1671.25523,0.05868
1669.76544,0.06702
1668.27566,0.06278
1666.78587,0.06097
1665.29608,0.07509
1663.80629,0.07782
1662.31650,0.09679
1660.82671,0.08547
1659.33693,0.07868
1657.84714,0.08991
1656.35735,0.06127
1654.86756,0.07915
1653.37777,0.07366
1651.88798,0.08199
1650.39819,0.05405
1648.90841,0.07023
1647.41862,0.07474
1645.92883,0.08017
1644.43904,0.08563
1642.94925,0.08421
1641.45946,0.08131
1639.96968,0.07004
1638.47989,0.08189
1636.99010,0.06977
1635.50031,0.07147
1634.01052,0.08370
1632.52073,0.06655
1631.03094,0.06952
1629.54116,0.06833
1628.05137,0.08185
1626.56158,0.08670
1625.07179,0.08408
1623.58200,0.08028
1622.09221,0.06900
1620.60243,0.10665
1619.11264,0.08612
1617.62285,0.09412
1616.13306,0.08414
1614.64327,0.08829
1613.15348,0.08676
1611.66370,0.06845
1610.17391,0.09697
1608.68412,0.08592
1607.19433,0.09349
1605.70454,0.07498
1604.21475,0.07674
1602.72496,0.07854
1601.23518,0.08951
1599.74539,0.09240
1598.25560,0.07551
1596.76581,0.08385
1595.27602,0.09282
1593.78623,0.07241
1592.29645,0.06942
1590.80666,0.07396
1589.31687,0.06082
1587.82708,0.07471
1586.33729,0.06342
1584.84750,0.07376
1583.35771,0.06432
1581.86793,0.08371
1580.37814,0.09983
1578.88835,0.08776
1577.39856,0.05471
1575.90877,0.06730
1574.41898,0.05561
1572.92920,0.05564
1571.43941,0.04970
1569.94962,0.03913
1568.45983,0.02858
1566.97004,0.04522
1565.48025,0.04057
1563.99047,0.03265
1562.50068,0.03256
1561.01089,0.04359
1559.52110,0.04984
1558.03131,0.04232
1556.54152,0.02702
1555.05173,0.03425
1553.56195,0.01120
1552.07216,0.02058
1550.58237,0.01498
1549.09258,0.01301
1547.60279,0.01946
1546.11300,0.02474
1544.62322,0.00573
1543.13343,0.00266
1541.64364,0.00050
1540.15385,0.01269
1538.66406,0.02491
1537.17427,0.01075
1535.68448,0.01101
1534.19470,0.01700
1532.70491,0.00050
1531.21512,0.00112
1529.72533,0.01406
1528.23554,0.01683
1526.74575,0.02231
1525.25597,0.03623
1523.76618,0.01866
1522.27639,0.03803
1520.78660,0.03702
1519.29681,0.04293
1517.80702,0.04166
1516.31724,0.03922
1514.82745,0.02721
1513.33766,0.03652
1511.84787,0.04585
1510.35808,0.02821
1508.86829,0.03489
1507.37850,0.04220
1505.88872,0.04863
1504.39893,0.04459
1502.90914,0.06458
1501.41935,0.07288
1499.92956,0.07401
1498.43977,0.06797
1496.94999,0.06375
1495.46020,0.05895
1493.97041,0.08688
1492.48062,0.08273
1490.99083,0.09211
1489.50104,0.12072
1488.01125,0.12445
1486.52147,0.12820
1485.03168,0.13588
1483.54189,0.17689
1482.05210,0.19211
1480.56231,0.19626
1479.07252,0.21364
1477.58274,0.19744
1476.09295,0.21336
1474.60316,0.23681
1473.11337,0.22788
1471.62358,0.24929
1470.13379,0.24040
1468.64401,0.26275
1467.15422,0.27823
1465.66443,0.29628
1464.17464,0.31435
1462.68485,0.31609
1461.19506,0.37847
1459.70527,0.39647
1458.21549,0.49341
1456.72570,0.55106
1455.23591,0.58923
1453.74612,0.63943
1452.25633,0.68246
1450.76654,0.70510
1449.27676,0.74037
1447.78697,0.69435
1446.29718,0.68347
1444.80739,0.66690
1443.31760,0.65036
1441.82781,0.61104
1440.33802,0.58945
1438.84824,0.55198
1437.35845,0.52624
1435.86866,0.51882
1434.37887,0.51773
1432.88908,0.56077
1431.39929,0.57504
1429.90951,0.65833
1428.41972,0.75186
1426.92993,0.80790
1425.44014,0.86457
1423.95035,0.89606
1422.46056,0.92757
1420.97078,0.96091
1419.48099,0.95077
1417.99120,0.94514
1416.50141,0.95665
1415.01162,0.92227
1413.52183,0.82941
1412.03204,0.76898
1410.54226,0.73108
1409.05247,0.69560
1407.56268,0.65474
1406.07289,0.60131
1404.58310,0.58031
1403.09331,0.55933
1401.60353,0.48316
1400.11374,0.42743
1398.62395,0.37202
1397.13416,0.32263
1395.64437,0.25707
1394.15458,0.23264
1392.66479,0.20073
1391.17501,0.16705
1389.68522,0.12078
1388.19543,0.10755
1386.70564,0.08759
1385.21585,0.06766
1383.72606,0.05240
1382.23628,0.03297
1380.74649,0.01506
1379.25670,0.02118
1377.76691,0.01922
1376.27712,0.00409
1374.78733,0.01058
1373.29755,0.00480
1371.80776,0.00024
1370.31797,0.00050
1368.82818,0.00169
1367.33839,0.00290
1365.84860,0.01433
1364.35881,0.03570
1362.86903,0.03098
1361.37924,0.05899
1359.88945,0.10173
1358.39966,0.12199
1356.90987,0.12907
1355.42008,0.19349
1353.93030,0.24623
1352.44051,0.28369
1350.95072,0.32118
1349.46093,0.38599
1347.97114,0.45593
1346.48135,0.55740
1344.99156,0.62709
1343.50178,0.68601
1342.01199,0.70684
1340.52220,0.78380
1339.03241,0.83769
1337.54262,0.88080
1336.05283,0.87547
1334.56305,0.87017
1333.07326,0.90165
1331.58347,0.91095
1330.09368,0.89807
1328.60389,0.89031
1327.11410,0.89278
1325.62432,0.83587
1324.13453,0.80388
1322.64474,0.79713
1321.15495,0.78140
1319.66516,0.76614
1318.17537,0.75090
1316.68558,0.68333
1315.19580,0.62749
1313.70601,0.56867
1312.21622,0.50418
1310.72643,0.46311
1309.23664,0.43017
1307.74685,0.43056
1306.25707,0.40187
1304.76728,0.39016
1303.27749,0.37847
1301.78770,0.32225
1300.29791,0.25645
1298.80812,0.21979
1297.31834,0.18614
1295.82855,0.16153
1294.33876,0.11383
1292.84897,0.10576
1291.35918,0.10942
1289.86939,0.09886
1288.37960,0.08832
1286.88982,0.08695
1285.40003,0.06431
1283.91024,0.02938
1282.42045,0.05690
1280.93066,0.04183
1279.44087,0.04688
1277.95109,0.05857
1276.46130,0.05497
1274.97151,0.04390
1273.48172,0.03286
1271.99193,0.04764
1270.50214,0.03334
1269.01235,0.02537
1267.52257,0.01622
1266.03278,0.01580
1264.54299,0.01630
1263.05320,0.00573
1261.56341,0.00463
1260.07362,0.00355
1258.58384,0.00416
1257.09405,0.01348
1255.60426,0.01683
1254.11447,0.01001
1252.62468,0.00050
1251.13489,0.01240
1249.64511,0.01771
1248.15532,0.00595
1246.66553,0.01551
1245.17574,0.02510
1243.68595,0.01221
1242.19616,0.00325
1240.70637,0.01681
1239.21659,0.01570
1237.72680,0.01971
1236.23701,0.03425
1234.74722,0.02240
1233.25743,0.02469
1231.76764,0.02700
1230.27786,0.02153
1228.78807,0.03559
1227.29828,0.01847
1225.80849,0.01157
1224.31870,0.00050
1222.82891,0.00130
1221.33912,0.02162
1219.84934,0.02771
1218.35955,0.03382
1216.86976,0.02361
1215.37997,0.05363
1213.89018,0.04797
1212.40039,0.06693
1210.91061,0.07572
1209.42082,0.06924
1207.93103,0.06097
1206.44124,0.05273
1204.95145,0.05562
1203.46166,0.05313
1201.97188,0.04886
1200.48209,0.05572
1198.99230,0.06741
1197.50251,0.05572
1196.01272,0.03594
1194.52293,0.02490
1193.03314,0.01388
1191.54336,0.01459
1190.05357,0.02372
1188.56378,0.02748
1187.07399,0.01536
1185.58420,0.01256
1184.09441,0.02179
1182.60463,0.01935
1181.11484,0.01692
1179.62505,0.01063
1178.13526,0.00855
1176.64547,0.00050
1175.15568,0.00128
1173.66589,0.00029
1172.17611,0.00346
1170.68632,0.00800
1169.19653,0.01257
1167.70674,0.00050
1166.21695,0.01649
1164.72716,0.03190
1163.23738,0.02994
1161.74759,0.02980
1160.25780,0.03088
1158.76801,0.03604
1157.27822,0.04122
1155.78843,0.05198
1154.29865,0.06366
1152.80886,0.08587
1151.31907,0.10991
1149.82928,0.11296
1148.33949,0.10494
1146.84970,0.10144
1145.35991,0.09797
1143.87013,0.12273
1142.38034,0.14121
1140.89055,0.16452
1139.40076,0.16834
1137.91097,0.17940
1136.42118,0.18987
1134.93140,0.20143
1133.44161,0.21300
1131.95182,0.23856
1130.46203,0.24403
1128.97224,0.23753
1127.48245,0.24905
1125.99266,0.24680
1124.50288,0.24757
1123.01309,0.24882
1121.52330,0.25009
1120.03351,0.25034
1118.54372,0.25271
1117.05393,0.24550
1115.56415,0.26472
1114.07436,0.24947
1112.58457,0.24248
1111.09478,0.23552
1109.60499,0.26175
1108.11520,0.25919
1106.62542,0.22755
1105.13563,0.26375
1103.64584,0.22556
1102.15605,0.23750
1100.66626,0.23461
1099.17647,0.23175
1097.68668,0.22396
1096.19690,0.20990
1094.70711,0.21836
1093.21732,0.22085
1091.72753,0.19306
1090.23774,0.18810
1088.74795,0.18316
1087.25817,0.17674
1085.76838,0.19465
1084.27859,0.18739
1082.78880,0.19395
1081.29901,0.16393
1079.80922,0.16814
1078.31943,0.17837
1076.82965,0.18863
1075.33986,0.16411
1073.85007,0.16542
1072.36028,0.17875
1070.87049,0.19271
1069.38070,0.21539
1067.89092,0.24920
1066.40113,0.28304
1064.91134,0.33100
1063.42155,0.37989
1061.93176,0.47171
1060.44197,0.53355
1058.95219,0.59691
1057.46240,0.63015
1055.97261,0.66340
1054.48282,0.75385
1052.99303,0.83441
1051.50324,0.80758
1050.01345,0.81138
1048.52367,0.78070
1047.03388,0.79250
1045.54409,0.80433
1044.05430,0.76022
1042.56451,0.74013
1041.07472,0.69187
1039.58494,0.63253
1038.09515,0.58972
1036.60536,0.56434
1035.11557,0.53898
1033.62578,0.48454
1032.13599,0.43792
1030.64620,0.35742
1029.15642,0.29886
1027.66663,0.27737
1026.17684,0.25591
1024.68705,0.22712
1023.19726,0.18245
1021.70747,0.17442
1020.21769,0.16071
1018.72790,0.13652
1017.23811,0.13486
1015.74832,0.13322
1014.25853,0.12921
1012.76874,0.11592
1011.27896,0.12246
1009.78917,0.09301
1008.29938,0.08520
1006.80959,0.06886
1005.31980,0.05254
1003.83001,0.03610
1002.34022,0.02418
1000.85044,0.02789
999.36065,0.01542
997.87086,0.02263
996.38107,0.02987
994.89128,0.05318
993.40149,0.06541
991.91171,0.05757
990.42192,0.08786
988.93213,0.06446
987.44234,0.08054
985.95255,0.09665
984.46276,0.10393
982.97297,0.11664
981.48319,0.07086
979.99340,0.05781
978.50361,0.05154
977.01382,0.04529
975.52403,0.03891
974.03424,0.02866
972.54446,0.00943
971.05467,0.03194
969.56488,0.01156
968.07509,0.01176
966.58530,0.01198
965.09551,0.02229
963.60573,0.00050
962.11594,0.01969
960.62615,0.01910
959.13636,0.02273
957.64657,0.02639
956.15678,0.02947
954.66699,0.02327
953.17721,0.04321
951.68742,0.06016
950.19763,0.05824
948.70784,0.05635
947.21805,0.06858
945.72826,0.10154
944.23848,0.11082
942.74869,0.10962
941.25890,0.13365
939.76911,0.13775
938.27932,0.14188
936.78953,0.15878
935.29974,0.17661
933.80996,0.19506
932.32017,0.20934
930.83038,0.20923
929.34059,0.20916
927.85080,0.24391
926.36101,0.27869
924.87123,0.30089
923.38144,0.32372
921.89165,0.35932
920.40186,0.39494
918.91207,0.51506
917.42228,0.62950
915.93250,0.77697
914.44271,0.97098
912.95292,1.07949
911.46313,1.18803
909.97334,1.43432
908.48355,1.64732
906.99376,1.80514
905.50398,1.96059
904.01419,1.98028
902.52440,2.00000
901.03461,1.97488
899.54482,1.96600
898.05503,1.84041
896.56525,1.69745
895.07546,1.57971
893.58567,1.46200
892.09588,1.18859
890.60609,0.92420
889.11630,0.69464
887.62651,0.51372
886.13673,0.43139
884.64694,0.34908
883.15715,0.28015
881.66736,0.20225
880.17757,0.14207
878.68778,0.13503
877.19800,0.12801
875.70821,0.06700
874.21842,0.02883
872.72863,0.03538
871.23884,0.02006
869.74905,0.01902
868.25927,0.01799
866.76948,0.01745
865.27969,0.01423
863.78990,0.01133
862.30011,0.02466
860.81032,0.02976
859.32053,0.03489
857.83075,0.06240
856.34096,0.06472
854.85117,0.06977
853.36138,0.06945
851.87159,0.07245
850.38180,0.07547
848.89202,0.08992
847.40223,0.11850
845.91244,0.12880
844.42265,0.13897
842.93286,0.14917
841.44307,0.14034
839.95329,0.16484
838.46350,0.18157
836.97371,0.17911
835.48392,0.17893
833.99413,0.17877
832.50434,0.18749
831.01455,0.17734
829.52477,0.16840
828.03498,0.14899
826.54519,0.14386
825.05540,0.13875
823.56561,0.11221
822.07582,0.07729
820.58604,0.06970
819.09625,0.07099
817.60646,0.07231
816.11667,0.08160
814.62688,0.07111
813.13709,0.05945
811.64730,0.07301
810.15752,0.06500
808.66773,0.05700
807.17794,0.07454
805.68815,0.08461
804.19836,0.07879
802.70857,0.08050
801.21879,0.08223
799.72900,0.06119
798.23921,0.06717
796.74942,0.07228
795.25963,0.07156
793.76984,0.07087
792.28006,0.05835
790.79027,0.07706
789.30048,0.08259
787.81069,0.13435
786.32090,0.13738
784.83111,0.14044
783.34132,0.18718
781.85154,0.19103
780.36175,0.25162
778.87196,0.26993
777.38217,0.28826
775.89238,0.30421
774.40259,0.31089
772.91281,0.29628
771.42302,0.28786
769.93323,0.27946
768.44344,0.25292
766.95365,0.23272
765.46386,0.19304
763.97407,0.14797
762.48429,0.13655
760.99450,0.12514
759.50471,0.10236
758.01492,0.08200
756.52513,0.10157
755.03534,0.09207
753.54556,0.08258
752.05577,0.07613
750.56598,0.03969
749.07619,0.04138
747.58640,0.03815
746.09661,0.03494
744.60683,0.01510
743.11704,0.04060
741.62725,0.01271
740.13746,0.01260
738.64767,0.01252
737.15788,0.00661
735.66809,0.02982
734.17831,0.00776
732.68852,0.00657
731.19873,0.00541
729.70894,0.00142
728.21915,0.02147
726.72936,0.00763
725.23958,0.00642
723.74979,0.01400
722.26000,0.02160
720.77021,0.03193
719.28042,0.01227
717.79063,0.01214
716.30084,0.01279
714.81106,0.01346
713.32127,0.00050
711.83148,0.03953
710.34169,0.01256
708.85190,0.02297
707.36211,0.03341
705.87233,0.05123
704.38254,0.06337
702.89275,0.06923
701.40296,0.06282
699.91317,0.05642
698.42338,0.04676
696.93360,0.08182
695.44381,0.11481
693.95402,0.11122
692.46423,0.10765
690.97444,0.12421
689.48465,0.15070
687.99486,0.16401
686.50508,0.17855
685.01529,0.19310
683.52550,0.21309
682.03571,0.25470
680.54592,0.25913
679.05613,0.25443
677.56635,0.24976
676.07656,0.26567
674.58677,0.28100
673.09698,0.24174
671.60719,0.21542
670.11740,0.18911
668.62761,0.16913
667.13783,0.17198
665.64804,0.16241
664.15825,0.15286
662.66846,0.09817
661.17867,0.09422
659.68888,0.05278
658.19910,0.04318
656.70931,0.03360
655.21952,0.04925
653.72973,0.04302
652.23994,0.04912
650.75015,0.05029
649.26037,0.05148
647.77058,0.03185
646.28079,0.03864
644.79100,0.03856
643.30121,0.02800
641.81142,0.01747
640.32163,0.01176
638.83185,0.02198
637.34206,0.00732
635.85227,0.01053
634.36248,0.01376
632.87269,0.01387
631.38290,0.00050
629.89312,0.00099
628.40333,0.00436
626.91354,0.00774
625.42375,0.01551
623.93396,0.00649
622.44417,0.01370
620.95438,0.02094
619.46460,0.02610
617.97481,0.04929
616.48502,0.06320
614.99523,0.06768
613.50544,0.07219
612.01565,0.09128
610.52587,0.13409
609.03608,0.15683
607.54629,0.17734
606.05650,0.19787
604.56671,0.24859
603.07692,0.31553
601.58714,0.34244
600.09735,0.36937
598.60756,0.40098
597.11777,0.40981
595.62798,0.40907
594.13819,0.39874
592.64840,0.38844
591.15862,0.37336
589.66883,0.30400
588.17904,0.25237
586.68925,0.22941
585.19946,0.20648
583.70967,0.16272
582.21989,0.13669
580.73010,0.11609
579.24031,0.09550
577.75052,0.07525
576.26073,0.05292
574.77094,0.03931
573.28115,0.03833
571.79137,0.03738
570.30158,0.04425
568.81179,0.06825
567.32200,0.06136
565.83221,0.05451
564.34242,0.07288
562.85264,0.10748
561.36285,0.09289
559.87306,0.10383
558.38327,0.11480
556.89348,0.10569
555.40369,0.11401
553.91391,0.12385
552.42412,0.13372
550.93433,0.14511
549.44454,0.15802
547.95475,0.16766
546.46496,0.16592
544.97517,0.16421
543.48539,0.18413
541.99560,0.16686
540.50581,0.21128
539.01602,0.25572
537.52623,0.27544
536.03644,0.32698
534.54666,0.40795
533.05687,0.41679
531.56708,0.42565
530.07729,0.45569
528.58750,0.54036
527.09771,0.56820
525.60792,0.59606
524.11814,0.70031
522.62835,0.71397
521.13856,0.76426
519.64877,0.79432
518.15898,0.82440
516.66919,0.86246
515.17941,0.85944
513.68962,0.86514
512.19983,0.87087
510.71004,0.84452
509.22025,0.74948
507.73046,0.72287
506.24068,0.66644
504.75089,0.61003
503.26110,0.45027
501.77131,0.35745
500.28152,0.31552
498.79173,0.27361
497.30194,0.22377
495.81216,0.16706
494.32237,0.14413
492.83258,0.12122
491.34279,0.09879
489.85300,0.07938
488.36321,0.07200
486.87343,0.07109
485.38364,0.07021
483.89385,0.06230
482.40406,0.05532
480.91427,0.06712
479.42448,0.07893
477.93469,0.09993
476.44491,0.10775
474.95512,0.12234
473.46533,0.13696
471.97554,0.13345
470.48575,0.13476
468.99596,0.16551
467.50618,0.16327
466.01639,0.16106
464.52660,0.09436
463.03681,0.09430
461.54702,0.08451
460.05723,0.07474
458.56745,0.02584
457.07766,0.02468
455.58787,0.02654
454.09808,0.02843
452.60829,0.03094
451.11850,0.00916
449.62871,0.00482
448.13893,0.00050
446.64914,0.02090
445.15935,0.02962
443.66956,0.03596
442.17977,0.03557
440.68998,0.03521
439.20020,0.02123
437.71041,0.02196
436.22062,0.03233
434.73083,0.04272
433.24104,0.04563
431.75125,0.03417
430.26146,0.03638
428.77168,0.03862
427.28189,0.03022
425.79210,0.04076
424.30231,0.04337
422.81252,0.04601
421.32273,0.04101
419.83295,0.01324
418.34316,0.03740
416.85337,0.06159
415.36358,0.02849
413.87379,0.02872
412.38400,0.02898
410.89422,0.02926
409.40443,0.03107
407.91464,0.04700
406.42485,0.01495
404.93506,0.00797
403.44527,0.00103
401.95548,0.02211
400.46570,0.03421
398.97591,0.03089
397.48612,0.02759
395.99633,0.07427
394.50654,0.04626
393.01675,0.04619
391.52697,0.04613
390.03718,0.03801
388.54739,0.04250
387.05760,0.03278
385.56781,0.02307
384.07802,0.01114
382.58824,0.02648
381.09845,0.03659
379.60866,0.04673
378.11887,0.04924
376.62908,0.01276
375.13929,0.00662
373.64950,0.00050
372.15972,0.01943
370.66993,0.02669
369.18014,0.01686
367.69035,0.00706
366.20056,0.01078
364.71077,0.01543
363.22099,0.00796
361.73120,0.00050
360.24141,0.00261
358.75162,0.06894
357.26183,0.04529
355.77204,0.02166
354.28225,0.05926
352.79247,0.03868
351.30268,0.04183
349.81289,0.04500
348.32310,0.02240
346.83331,0.03012
345.34352,0.02242
343.85374,0.01473
342.36395,0.03153
340.87416,0.01505
339.38437,0.03610
337.89458,0.05717
336.40479,0.03836
334.91501,0.03248
333.42522,0.04147
331.93543,0.05049
330.44564,0.01918
328.95585,0.03259
327.46606,0.01918
325.97627,0.00579
324.48649,0.03150
322.99670,0.02903
321.50691,0.05164
320.01712,0.07428
318.52733,0.09468
317.03754,0.09201
315.54776,0.07286
314.05797,0.05373
312.56818,0.05804
311.07839,0.08397
309.58860,0.07332
308.09881,0.06269
306.60902,0.08419
305.11924,0.10212
303.62945,0.05961
302.13966,0.01713
300.64987,0.00062
299.16008,0.00050
