1778.52000,0.01848
1777.03021,0.00455
1775.54042,0.00629
1774.05063,0.01755
1772.56085,0.00860
1771.07106,0.02299
1769.58127,0.00796
1768.09148,0.00000
1766.60169,0.01661
1765.11190,0.01269
1763.62212,0.02106
1762.13233,0.02240
1760.64254,0.01611
1759.15275,0.01290
1757.66296,0.00512
1756.17317,0.00564
1754.68339,0.01631
1753.19360,0.02117
1751.70381,0.00920
1750.21402,0.01166
1748.72423,0.00494
1747.23444,0.01205
1745.74465,0.01121
1744.25487,0.01439
1742.76508,0.01452
1741.27529,0.01375
1739.78550,0.01884
1738.29571,0.01445
1736.80592,0.01529
1735.31614,0.00512
1733.82635,0.01385
1732.33656,0.01862
1730.84677,0.01636
1729.35698,0.01597
1727.86719,0.01560
1726.37740,0.02169
1724.88762,0.00512
1723.39783,0.01887
1721.90804,0.01271
1720.41825,0.02375
1718.92846,0.01059
1717.43867,0.02045
1715.94889,0.01899
1714.45910,0.01418
1712.96931,0.02074
1711.47952,0.01783
1709.98973,0.00512
1708.49994,0.00965
1707.01016,0.00991
1705.52037,0.01020
1704.03058,0.02646
1702.54079,0.02649
1701.05100,0.02133
1699.56121,0.01528
1698.07142,0.01692
1696.58164,0.03514
1695.09185,0.02977
1693.60206,0.02382
1692.11227,0.02862
1690.62248,0.02916
1689.13269,0.03094
1687.64291,0.02570
1686.15312,0.02876
1684.66333,0.03859
1683.17354,0.03772
1681.68375,0.04116
1680.19396,0.03665
1678.70417,0.03708
1677.21439,0.05409
1675.72460,0.06744
1674.23481,0.05353
1672.74502,0.05313
1671.25523,0.06993
1669.76544,0.06498
1668.27566,0.08613
1666.78587,0.08614
1665.29608,0.08556
1663.80629,0.08255
1662.31650,0.09459
1660.82671,0.10083
1659.33693,0.09299
1657.84714,0.10572
1656.35735,0.10314
1654.86756,0.08770
1653.37777,0.08548
1651.88798,0.10138
1650.39819,0.10258
1648.90841,0.10012
1647.41862,0.07653
1645.92883,0.08547
1644.43904,0.09443
1642.94925,0.10097
1641.45946,0.13329
1639.96968,0.11626
1638.47989,0.10999
1636.99010,0.10712
1635.50031,0.10090
1634.01052,0.09255
1632.52073,0.08485
1631.03094,0.09158
1629.54116,0.09865
1628.05137,0.10727
1626.56158,0.10641
1625.07179,0.11171
1623.58200,0.11028
1622.09221,0.09570
1620.60243,0.11855
1619.11264,0.10248
1617.62285,0.09931
1616.13306,0.10875
1614.64327,0.08048
1613.15348,0.08751
1611.66370,0.09763
1610.17391,0.10195
1608.68412,0.08544
1607.19433,0.10483
1605.70454,0.09328
1604.21475,0.09892
1602.72496,0.10459
1601.23518,0.09310
1599.74539,0.09330
1598.25560,0.09935
1596.76581,0.10113
1595.27602,0.09925
1593.78623,0.09280
1592.29645,0.09097
1590.80666,0.07905
1589.31687,0.06623
1587.82708,0.09178
1586.33729,0.07349
1584.84750,0.08681
1583.35771,0.07317
1581.86793,0.07581
1580.37814,0.07326
1578.88835,0.06797
1577.39856,0.06517
1575.90877,0.06729
1574.41898,0.06423
1572.92920,0.06119
1571.43941,0.03425
1569.94962,0.04260
1568.45983,0.05099
1566.97004,0.03700
1565.48025,0.02918
1563.99047,0.03365
1562.50068,0.02771
1561.01089,0.03714
1559.52110,0.02083
1558.03131,0.03091
1556.54152,0.02998
1555.05173,0.02847
1553.56195,0.03035
1552.07216,0.02182
1550.58237,0.02467
1549.09258,0.02356
1547.60279,0.00100
1546.11300,0.00485
1544.62322,0.01148
1543.13343,0.00678
1541.64364,0.00763
1540.15385,0.00636
1538.66406,0.00512
1537.17427,0.03249
1535.68448,0.01357
1534.19470,0.01615
1532.70491,0.01139
1531.21512,0.01739
1529.72533,0.02373
1528.23554,0.01505
1526.74575,0.02174
1525.25597,0.04348
1523.76618,0.03151
1522.27639,0.02999
1520.78660,0.04169
1519.29681,0.04666
1517.80702,0.04644
1516.31724,0.04103
1514.82745,0.05589
1513.33766,0.05514
1511.84787,0.05440
1510.35808,0.05247
1508.86829,0.04933
1507.37850,0.04683
1505.88872,0.04926
1504.39893,0.04037
1502.90914,0.06157
1501.41935,0.07358
1499.92956,0.09973
1498.43977,0.08143
1496.94999,0.07634
1495.46020,0.08876
1493.97041,0.10120
1492.48062,0.11091
1490.99083,0.10960
1489.50104,0.12948
1488.01125,0.13114
1486.52147,0.13282
1485.03168,0.17240
1483.54189,0.18256
1482.05210,0.24397
1480.56231,0.24590
1479.07252,0.26503
1477.58274,0.27008
1476.09295,0.27454
1474.60316,0.26430
1473.11337,0.27801
1471.62358,0.30585
1470.13379,0.29476
1468.64401,0.30793
1467.15422,0.33830
1465.66443,0.35060
1464.17464,0.36293
1462.68485,0.35779
1461.19506,0.40175
1459.70527,0.49696
1458.21549,0.54864
1456.72570,0.63040
1455.23591,0.68274
1453.74612,0.72928
1452.25633,0.76480
1450.76654,0.78501
1449.27676,0.77305
1447.78697,0.74454
1446.29718,0.74735
1444.80739,0.72748
1443.31760,0.70764
1441.82781,0.64243
1440.33802,0.61559
1438.84824,0.58969
1437.35845,0.52609
1435.86866,0.53765
1434.37887,0.54740
1432.88908,0.57006
1431.39929,0.61880
1429.90951,0.69886
1428.41972,0.76851
1426.92993,0.85506
1425.44014,0.94623
1423.95035,0.97379
1422.46056,1.00137
1420.97078,1.03342
1419.48099,1.00784
1417.99120,0.99394
1416.50141,1.00582
1415.01162,0.96559
1413.52183,0.93060
1412.03204,0.88184
1410.54226,0.78280
1409.05247,0.73101
1407.56268,0.68569
1406.07289,0.62997
1404.58310,0.59620
1403.09331,0.56246
1401.60353,0.49761
1400.11374,0.41683
1398.62395,0.39221
1397.13416,0.33204
1395.64437,0.28262
1394.15458,0.25592
1392.66479,0.19092
1391.17501,0.17746
1389.68522,0.12722
1388.19543,0.11381
1386.70564,0.10334
1385.21585,0.09289
1383.72606,0.08140
1382.23628,0.06195
1380.74649,0.03977
1379.25670,0.03479
1377.76691,0.02891
1376.27712,0.02337
1374.78733,0.01724
1373.29755,0.02953
1371.80776,0.02927
1370.31797,0.00512
1368.82818,0.01596
1367.33839,0.02684
1365.84860,0.01933
1364.35881,0.03547
1362.86903,0.03752
1361.37924,0.07640
1359.88945,0.09322
1358.39966,0.11528
1356.90987,0.15546
1355.42008,0.21008
1353.93030,0.26534
1352.44051,0.28551
1350.95072,0.30570
1349.46093,0.37391
1347.97114,0.46761
1346.48135,0.52513
1344.99156,0.62072
1343.50178,0.71970
1342.01199,0.76135
1340.52220,0.83769
1339.03241,0.87050
1337.54262,0.89505
1336.05283,0.91564
1334.56305,0.93626
1333.07326,0.98020
1331.58347,0.98155
1330.09368,0.97678
1328.60389,0.97695
1327.11410,0.95659
1325.62432,0.95189
1324.13453,0.89325
1322.64474,0.88462
1321.15495,0.82909
1319.66516,0.79888
1318.17537,0.76870
1316.68558,0.71907
1315.19580,0.66180
1313.70601,0.60456
1312.21622,0.60254
1310.72643,0.53338
1309.23664,0.51332
1307.74685,0.46905
1306.25707,0.42695
1304.76728,0.41616
1303.27749,0.40540
1301.78770,0.33945
1300.29791,0.30972
1298.80812,0.24598
1297.31834,0.21752
1295.82855,0.18725
1294.33876,0.15241
1292.84897,0.12096
1291.35918,0.11592
1289.86939,0.11580
1288.37960,0.11571
1286.88982,0.10491
1285.40003,0.08310
1283.91024,0.09044
1282.42045,0.08186
1280.93066,0.06227
1279.44087,0.05466
1277.95109,0.05045
1276.46130,0.04104
1274.97151,0.04716
1273.48172,0.05329
1271.99193,0.04887
1270.50214,0.06012
1269.01235,0.04655
1267.52257,0.02963
1266.03278,0.04003
1264.54299,0.03420
1263.05320,0.04649
1261.56341,0.04163
1260.07362,0.03680
1258.58384,0.02278
1257.09405,0.00512
1255.60426,0.01819
1254.11447,0.00676
1252.62468,0.02326
1251.13489,0.00850
1249.64511,0.02536
1248.15532,0.01586
1246.66553,0.02341
1245.17574,0.03099
1243.68595,0.02770
1242.19616,0.03118
1240.70637,0.02212
1239.21659,0.01921
1237.72680,0.01602
1236.23701,0.03433
1234.74722,0.03763
1233.25743,0.03175
1231.76764,0.02590
1230.27786,0.03357
1228.78807,0.04740
1227.29828,0.02598
1225.80849,0.01931
1224.31870,0.01849
1222.82891,0.00512
1221.33912,0.01478
1219.84934,0.02462
1218.35955,0.03449
1216.86976,0.02981
1215.37997,0.05828
1213.89018,0.06623
1212.40039,0.07267
1210.91061,0.08772
1209.42082,0.08501
1207.93103,0.07925
1206.44124,0.07352
1204.95145,0.08714
1203.46166,0.07593
1201.97188,0.06322
1200.48209,0.05698
1198.99230,0.07836
1197.50251,0.06848
1196.01272,0.05955
1194.52293,0.05294
1193.03314,0.04636
1191.54336,0.01542
1190.05357,0.01487
1188.56378,0.02415
1187.07399,0.02426
1185.58420,0.02317
1184.09441,0.02762
1182.60463,0.01799
1181.11484,0.00839
1179.62505,0.02242
1178.13526,0.02728
1176.64547,0.02235
1175.15568,0.03002
1173.66589,0.03434
1172.17611,0.01844
1170.68632,0.01176
1169.19653,0.00512
1167.70674,0.00763
1166.21695,0.01416
1164.72716,0.04035
1163.23738,0.04907
1161.74759,0.06334
1160.25780,0.05924
1158.76801,0.06881
1157.27822,0.07840
1155.78843,0.09246
1154.29865,0.08876
1152.80886,0.10624
1151.31907,0.11455
1149.82928,0.10203
1148.33949,0.13738
1146.84970,0.13871
1145.35991,0.14007
1143.87013,0.13347
1142.38034,0.15972
1140.89055,0.17771
1139.40076,0.19756
1137.91097,0.19689
1136.42118,0.20974
1134.93140,0.21219
1133.44161,0.21466
1131.95182,0.22820
1130.46203,0.24390
1128.97224,0.26608
1127.48245,0.26558
1125.99266,0.25008
1124.50288,0.23890
1123.01309,0.23986
1121.52330,0.24084
1120.03351,0.25795
1118.54372,0.22693
1117.05393,0.24623
1115.56415,0.27169
1114.07436,0.26467
1112.58457,0.26595
1111.09478,0.26726
1109.60499,0.24620
1108.11520,0.24327
1106.62542,0.24189
1105.13563,0.27642
1103.64584,0.26282
1102.15605,0.27102
1100.66626,0.24919
1099.17647,0.22739
1097.68668,0.20776
1096.19690,0.22464
1094.70711,0.23113
1093.21732,0.22721
1091.72753,0.21627
1090.23774,0.20749
1088.74795,0.19874
1087.25817,0.20013
1085.76838,0.18867
1084.27859,0.21557
1082.78880,0.20355
1081.29901,0.19829
1079.80922,0.20748
1078.31943,0.20657
1076.82965,0.20568
1075.33986,0.20789
1073.85007,0.21441
1072.36028,0.22403
1070.87049,0.24409
1069.38070,0.26265
1067.89092,0.28584
1066.40113,0.30905
1064.91134,0.37614
1063.42155,0.44233
1061.93176,0.52726
1060.44197,0.63767
1058.95219,0.73430
1057.46240,0.78434
1055.97261,0.83440
1054.48282,0.95166
1052.99303,1.05851
1051.50324,1.02522
1050.01345,1.01037
1048.52367,0.99247
1047.03388,0.98717
1045.54409,0.98189
1044.05430,0.92941
1042.56451,0.87266
1041.07472,0.78189
1039.58494,0.73070
1038.09515,0.62772
1036.60536,0.60909
1035.11557,0.59049
1033.62578,0.53420
1032.13599,0.43652
1030.64620,0.36923
1029.15642,0.29767
1027.66663,0.28150
1026.17684,0.26535
1024.68705,0.25336
1023.19726,0.21932
1021.70747,0.19726
1020.21769,0.16542
1018.72790,0.14954
1017.23811,0.13845
1015.74832,0.12738
1014.25853,0.12630
1012.76874,0.12003
1011.27896,0.11440
1009.78917,0.12352
1008.29938,0.08298
1006.80959,0.07681
1005.31980,0.07066
1003.83001,0.03571
1002.34022,0.03545
1000.85044,0.06189
999.36065,0.03897
997.87086,0.05549
996.38107,0.07204
994.89128,0.07005
993.40149,0.09754
991.91171,0.11063
990.42192,0.10381
988.93213,0.12063
987.44234,0.12920
985.95255,0.13779
984.46276,0.16051
982.97297,0.12253
981.48319,0.11617
979.99340,0.09143
978.50361,0.09309
977.01382,0.09477
975.52403,0.06336
974.03424,0.03964
972.54446,0.03066
971.05467,0.03152
969.56488,0.00512
968.07509,0.00550
966.58530,0.00590
965.09551,0.00449
963.60573,0.02256
962.11594,0.04924
960.62615,0.01553
959.13636,0.02738
957.64657,0.03926
956.15678,0.02433
954.66699,0.03365
953.17721,0.03349
951.68742,0.03704
950.19763,0.04582
948.70784,0.05462
947.21805,0.05702
945.72826,0.08673
944.23848,0.10205
942.74869,0.13764
941.25890,0.12878
939.76911,0.13359
938.27932,0.13843
936.78953,0.17872
935.29974,0.17302
933.80996,0.18668
932.32017,0.20802
930.83038,0.20762
929.34059,0.20724
927.85080,0.23449
926.36101,0.27985
924.87123,0.31482
923.38144,0.39121
921.89165,0.42929
920.40186,0.46739
918.91207,0.55705
917.42228,0.71389
915.93250,0.83794
914.44271,1.02888
912.95292,1.14455
911.46313,1.26024
909.97334,1.48223
908.48355,1.70393
906.99376,1.86739
905.50398,1.99192
904.01419,1.99595
902.52440,2.00000
901.03461,1.99794
899.54482,1.96677
898.05503,1.87490
896.56525,1.69012
895.07546,1.57453
893.58567,1.45896
892.09588,1.17213
890.60609,0.89115
889.11630,0.66786
887.62651,0.49672
886.13673,0.42345
884.64694,0.35020
883.15715,0.26318
881.66736,0.16912
880.17757,0.12968
878.68778,0.12554
877.19800,0.12142
875.70821,0.08696
874.21842,0.06143
872.72863,0.04481
871.23884,0.03619
869.74905,0.03495
868.25927,0.03374
866.76948,0.02979
865.27969,0.03507
863.78990,0.02780
862.30011,0.04018
860.81032,0.05505
859.32053,0.06993
857.83075,0.08852
856.34096,0.09119
854.85117,0.07548
853.36138,0.10917
851.87159,0.11774
850.38180,0.12633
848.89202,0.15672
847.40223,0.16751
845.91244,0.17802
844.42265,0.19959
842.93286,0.22119
841.44307,0.23330
839.95329,0.25863
838.46350,0.24963
836.97371,0.26673
835.48392,0.26161
833.99413,0.25652
832.50434,0.25406
831.01455,0.24948
829.52477,0.20505
828.03498,0.20910
826.54519,0.19233
825.05540,0.17558
823.56561,0.17388
822.07582,0.14154
820.58604,0.14265
819.09625,0.13228
817.60646,0.12194
816.11667,0.11025
814.62688,0.11207
813.13709,0.10870
811.64730,0.12039
810.15752,0.11723
808.66773,0.11409
807.17794,0.14548
805.68815,0.16615
804.19836,0.14177
802.70857,0.14502
801.21879,0.14829
799.72900,0.12215
798.23921,0.11535
796.74942,0.09600
795.25963,0.09369
793.76984,0.09141
792.28006,0.11293
790.79027,0.12833
789.30048,0.15572
787.81069,0.18958
786.32090,0.20598
784.83111,0.22240
783.34132,0.25143
781.85154,0.30072
780.36175,0.33194
778.87196,0.35367
777.38217,0.37543
775.89238,0.37330
774.40259,0.40860
772.91281,0.41357
771.42302,0.39280
769.93323,0.37205
768.44344,0.33906
766.95365,0.27665
765.46386,0.23022
763.97407,0.20466
762.48429,0.19538
760.99450,0.18613
759.50471,0.14532
758.01492,0.13366
756.52513,0.11498
755.03534,0.11042
753.54556,0.10590
752.05577,0.07563
750.56598,0.06195
749.07619,0.05627
747.58640,0.04985
746.09661,0.04345
744.60683,0.03600
743.11704,0.03502
741.62725,0.01812
740.13746,0.02117
738.64767,0.02425
737.15788,0.02766
735.66809,0.02374
734.17831,0.00512
732.68852,0.00843
731.19873,0.01176
729.70894,0.01435
728.21915,0.02433
726.72936,0.01900
725.23958,0.01124
723.74979,0.01248
722.26000,0.01375
720.77021,0.03620
719.28042,0.02034
717.79063,0.01616
716.30084,0.01063
714.81106,0.00512
713.32127,0.01150
711.83148,0.02312
710.34169,0.03661
708.85190,0.04399
707.36211,0.05139
705.87233,0.04440
704.38254,0.05492
702.89275,0.05167
701.40296,0.05426
699.91317,0.05688
698.42338,0.07700
696.93360,0.08673
695.44381,0.11825
693.95402,0.11790
692.46423,0.11757
690.97444,0.13015
689.48465,0.13264
687.99486,0.14834
686.50508,0.17234
685.01529,0.19637
683.52550,0.22839
682.03571,0.26259
680.54592,0.26982
679.05613,0.27509
677.56635,0.28037
676.07656,0.27235
674.58677,0.28704
673.09698,0.25943
671.60719,0.24381
670.11740,0.22821
668.62761,0.19301
667.13783,0.18176
665.64804,0.17421
664.15825,0.16668
662.66846,0.12453
661.17867,0.11184
659.68888,0.08047
658.19910,0.06921
656.70931,0.05797
655.21952,0.04354
653.72973,0.05428
652.23994,0.06045
650.75015,0.06112
649.26037,0.06182
647.77058,0.04537
646.28079,0.06605
644.79100,0.04596
643.30121,0.04292
641.81142,0.03991
640.32163,0.04136
638.83185,0.04254
637.34206,0.03975
635.85227,0.02242
634.36248,0.00512
632.87269,0.01755
631.38290,0.03216
629.89312,0.01981
628.40333,0.02649
626.91354,0.03320
625.42375,0.02245
623.93396,0.02338
622.44417,0.03154
620.95438,0.03973
619.46460,0.04227
617.97481,0.06446
616.48502,0.08575
614.99523,0.09802
613.50544,0.11032
612.01565,0.10746
610.52587,0.13254
609.03608,0.18830
607.54629,0.21036
606.05650,0.23244
604.56671,0.26037
603.07692,0.28772
601.58714,0.33778
600.09735,0.38787
598.60756,0.40824
597.11777,0.44181
595.62798,0.43493
594.13819,0.42163
592.64840,0.40836
591.15862,0.39542
589.66883,0.35183
588.17904,0.28128
586.68925,0.24587
585.19946,0.21048
583.70967,0.17834
582.21989,0.16125
580.73010,0.13238
579.24031,0.10353
577.75052,0.08100
576.26073,0.07075
574.77094,0.07188
573.28115,0.06200
571.79137,0.05214
570.30158,0.06285
568.81179,0.07788
567.32200,0.08603
565.83221,0.09421
564.34242,0.10931
562.85264,0.13885
561.36285,0.16168
559.87306,0.18038
558.38327,0.19911
556.89348,0.18520
555.40369,0.17407
553.91391,0.18122
552.42412,0.18840
550.93433,0.22580
549.44454,0.22950
547.95475,0.24303
546.46496,0.25169
544.97517,0.26036
543.48539,0.24391
541.99560,0.25203
540.50581,0.29037
539.01602,0.32874
537.52623,0.34337
536.03644,0.39299
534.54666,0.41472
533.05687,0.44168
531.56708,0.46868
530.07729,0.49846
528.58750,0.55678
527.09771,0.58784
525.60792,0.61892
524.11814,0.66811
522.62835,0.71335
521.13856,0.75064
519.64877,0.81049
518.15898,0.87037
516.66919,0.86142
515.17941,0.80771
513.68962,0.82350
512.19983,0.83931
510.71004,0.82402
509.22025,0.79741
507.73046,0.73677
506.24068,0.68628
504.75089,0.63582
503.26110,0.51760
501.77131,0.40585
500.28152,0.34978
498.79173,0.29374
497.30194,0.25322
495.81216,0.20167
494.32237,0.17607
492.83258,0.15049
491.34279,0.10086
489.85300,0.10094
488.36321,0.09001
486.87343,0.09014
485.38364,0.09029
483.89385,0.11317
482.40406,0.12441
480.91427,0.11973
479.42448,0.11508
477.93469,0.11965
476.44491,0.16228
474.95512,0.18192
473.46533,0.20160
471.97554,0.17866
470.48575,0.21219
468.99596,0.20157
467.50618,0.21414
466.01639,0.22673
464.52660,0.17447
463.03681,0.13850
461.54702,0.11099
460.05723,0.08350
458.56745,0.08870
457.07766,0.05282
455.58787,0.05408
454.09808,0.05537
452.60829,0.05545
451.11850,0.02734
449.62871,0.02379
448.13893,0.02027
446.64914,0.00512
445.15935,0.02764
443.66956,0.04129
442.17977,0.04162
440.68998,0.04198
439.20020,0.04987
437.71041,0.04522
436.22062,0.05209
434.73083,0.05899
433.24104,0.04214
431.75125,0.03728
430.26146,0.04149
428.77168,0.04573
427.28189,0.04155
425.79210,0.05397
424.30231,0.03742
422.81252,0.02090
421.32273,0.03983
419.83295,0.05970
418.34316,0.05199
416.85337,0.04431
415.36358,0.03175
413.87379,0.05172
412.38400,0.05208
410.89422,0.05247
409.40443,0.06393
407.91464,0.05087
406.42485,0.06391
404.93506,0.04401
403.44527,0.02413
401.95548,0.04123
400.46570,0.05038
398.97591,0.05649
397.48612,0.06262
395.99633,0.03811
394.50654,0.04368
393.01675,0.03945
391.52697,0.03526
390.03718,0.04335
388.54739,0.02173
387.05760,0.02375
385.56781,0.02579
384.07802,0.03308
382.58824,0.00512
381.09845,0.01746
379.60866,0.02982
378.11887,0.03470
376.62908,0.04359
375.13929,0.02950
373.64950,0.01544
372.15972,0.04157
370.66993,0.02572
369.18014,0.02026
367.69035,0.01482
366.20056,0.06016
364.71077,0.08038
363.22099,0.06919
361.73120,0.05803
360.24141,0.05409
358.75162,0.08515
357.26183,0.07957
355.77204,0.07403
354.28225,0.08001
352.79247,0.08202
351.30268,0.08544
349.81289,0.08889
348.32310,0.08086
346.83331,0.05782
345.34352,0.06763
343.85374,0.07746
342.36395,0.07413
340.87416,0.04138
339.38437,0.04346
337.89458,0.04557
336.40479,0.07454
334.91501,0.06121
333.42522,0.05005
331.93543,0.03892
330.44564,0.00512
328.95585,0.04428
327.46606,0.03685
325.97627,0.02945
324.48649,0.05825
322.99670,0.05365
321.50691,0.05137
320.01712,0.04911
318.52733,0.06851
317.03754,0.05204
315.54776,0.06627
314.05797,0.08052
312.56818,0.09020
311.07839,0.06739
309.58860,0.05365
308.09881,0.03994
306.60902,0.04174
305.11924,0.03069
303.62945,0.01797
302.13966,0.00528
300.64987,0.02619
299.16008,0.00512
