1778.52000,0.01815
1777.03021,0.02168
1775.54042,0.01812
1774.05063,0.01755
1772.56085,0.01680
1771.07106,0.01746
1769.58127,0.02131
1768.09148,0.01451
1766.60169,0.00614
1765.11190,0.01461
1763.62212,0.01005
1762.13233,0.01086
1760.64254,0.01011
1759.15275,0.00384
1757.66296,0.00353
1756.17317,0.00859
1754.68339,0.00773
1753.19360,0.00532
1751.70381,0.00471
1750.21402,0.01085
1748.72423,0.01503
1747.23444,0.01647
1745.74465,0.00508
1744.25487,0.01408
1742.76508,0.00353
1741.27529,0.01218
1739.78550,0.00938
1738.29571,0.01530
1736.80592,0.01196
1735.31614,0.00903
1733.82635,0.00000
1732.33656,0.01512
1730.84677,0.00574
1729.35698,0.00766
1727.86719,0.00623
1726.37740,0.01196
1724.88762,0.00900
1723.39783,0.00587
1721.90804,0.01364
1720.41825,0.00364
1718.92846,0.00315
1717.43867,0.00454
1715.94889,0.00576
1714.45910,0.00563
1712.96931,0.01067
1711.47952,0.00921
1709.98973,0.00184
1708.49994,0.00571
1707.01016,0.01039
1705.52037,0.01510
1704.03058,0.02004
1702.54079,0.01313
1701.05100,0.01455
1699.56121,0.00353
1698.07142,0.01068
1696.58164,0.01568
1695.09185,0.01378
1693.60206,0.02040
1692.11227,0.01420
1690.62248,0.01059
1689.13269,0.01393
1687.64291,0.01274
1686.15312,0.02364
1684.66333,0.02626
1683.17354,0.02237
1681.68375,0.02642
1680.19396,0.02239
1678.70417,0.03618
1677.21439,0.02883
1675.72460,0.03930
1674.23481,0.04090
1672.74502,0.03679
1671.25523,0.04614
1669.76544,0.04940
1668.27566,0.06296
1666.78587,0.06705
1665.29608,0.06444
1663.80629,0.07056
1662.31650,0.07947
1660.82671,0.07396
1659.33693,0.06888
1657.84714,0.06540
1656.35735,0.08429
1654.86756,0.08304
1653.37777,0.07271
1651.88798,0.07763
1650.39819,0.09069
1648.90841,0.08894
1647.41862,0.08661
1645.92883,0.08412
1644.43904,0.08165
1642.94925,0.09245
1641.45946,0.09576
1639.96968,0.09712
1638.47989,0.08881
1636.99010,0.09555
1635.50031,0.08749
1634.01052,0.08004
1632.52073,0.08646
1631.03094,0.08401
1629.54116,0.08098
1628.05137,0.08866
1626.56158,0.09479
1625.07179,0.09658
1623.58200,0.10967
1622.09221,0.10242
1620.60243,0.09993
1619.11264,0.10538
1617.62285,0.09919
1616.13306,0.08965
1614.64327,0.09419
1613.15348,0.10210
1611.66370,0.09660
1610.17391,0.09013
1608.68412,0.09337
1607.19433,0.10198
1605.70454,0.10053
1604.21475,0.09761
1602.72496,0.09472
1601.23518,0.09591
1599.74539,0.09969
1598.25560,0.10390
1596.76581,0.08498
1595.27602,0.09022
1593.78623,0.08955
1592.29645,0.08653
1590.80666,0.08472
1589.31687,0.07582
1587.82708,0.07940
1586.33729,0.08083
1584.84750,0.07990
1583.35771,0.08019
1581.86793,0.07912
1580.37814,0.07787
1578.88835,0.08041
1577.39856,0.06379
1575.90877,0.05925
1574.41898,0.06067
1572.92920,0.05559
1571.43941,0.04855
1569.94962,0.04480
1568.45983,0.04108
1566.97004,0.03471
1565.48025,0.04458
1563.99047,0.03529
1562.50068,0.03453
1561.01089,0.03478
1559.52110,0.03427
1558.03131,0.02626
1556.54152,0.02737
1555.05173,0.03267
1553.56195,0.02473
1552.07216,0.02374
1550.58237,0.01803
1549.09258,0.01729
1547.60279,0.00529
1546.11300,0.01765
1544.62322,0.00353
1543.13343,0.02080
1541.64364,0.01298
1540.15385,0.00933
1538.66406,0.00571
1537.17427,0.01666
1535.68448,0.01853
1534.19470,0.01469
1532.70491,0.00790
1531.21512,0.00431
1529.72533,0.02125
1528.23554,0.01884
1526.74575,0.02139
1525.25597,0.03287
1523.76618,0.02993
1522.27639,0.02841
1520.78660,0.02117
1519.29681,0.03986
1517.80702,0.04810
1516.31724,0.03717
1514.82745,0.04684
1513.33766,0.04328
1511.84787,0.03975
1510.35808,0.03980
1508.86829,0.04600
1507.37850,0.04748
1505.88872,0.04483
1504.39893,0.05229
1502.90914,0.05385
1501.41935,0.06076
1499.92956,0.07482
1498.43977,0.07645
1496.94999,0.05852
1495.46020,0.07562
1493.97041,0.09155
1492.48062,0.09703
1490.99083,0.09541
1489.50104,0.13950
1488.01125,0.13586
1486.52147,0.13223
1485.03168,0.16354
1483.54189,0.19171
1482.05210,0.21159
1480.56231,0.20896
1479.07252,0.22474
1477.58274,0.23144
1476.09295,0.22650
1474.60316,0.25363
1473.11337,0.24992
1471.62358,0.26503
1470.13379,0.27561
1468.64401,0.28365
1467.15422,0.29586
1465.66443,0.31156
1464.17464,0.32728
1462.68485,0.36449
1461.19506,0.41794
1459.70527,0.45400
1458.21549,0.51798
1456.72570,0.58376
1455.23591,0.62840
1453.74612,0.63371
1452.25633,0.68196
1450.76654,0.70947
1449.27676,0.71603
1447.78697,0.71550
1446.29718,0.68098
1444.80739,0.67071
1443.31760,0.66046
1441.82781,0.63135
1440.33802,0.56429
1438.84824,0.54354
1437.35845,0.52122
1435.86866,0.49873
1434.37887,0.52512
1432.88908,0.57091
1431.39929,0.60664
1429.90951,0.69223
1428.41972,0.76994
1426.92993,0.82493
1425.44014,0.90209
1423.95035,0.90144
1422.46056,0.90083
1420.97078,0.94444
1419.48099,0.95425
1417.99120,0.95124
1416.50141,0.96308
1415.01162,0.93261
1413.52183,0.90633
1412.03204,0.81936
1410.54226,0.76345
1409.05247,0.69551
1407.56268,0.62107
1406.07289,0.60974
1404.58310,0.58370
1403.09331,0.55768
1401.60353,0.47621
1400.11374,0.43234
1398.62395,0.37624
1397.13416,0.31976
1395.64437,0.26667
1394.15458,0.23358
1392.66479,0.19398
1391.17501,0.16648
1389.68522,0.11823
1388.19543,0.11173
1386.70564,0.10566
1385.21585,0.09961
1383.72606,0.07360
1382.23628,0.05475
1380.74649,0.03749
1379.25670,0.02659
1377.76691,0.02541
1376.27712,0.00843
1374.78733,0.00353
1373.29755,0.01224
1371.80776,0.00912
1370.31797,0.01135
1368.82818,0.00827
1367.33839,0.00521
1365.84860,0.01273
1364.35881,0.03471
1362.86903,0.03970
1361.37924,0.04986
1359.88945,0.08793
1358.39966,0.09299
1356.90987,0.14199
1355.42008,0.17123
1353.93030,0.21948
1352.44051,0.25401
1350.95072,0.28857
1349.46093,0.35291
1347.97114,0.43864
1346.48135,0.49136
1344.99156,0.59216
1343.50178,0.65997
1342.01199,0.70386
1340.52220,0.74105
1339.03241,0.78064
1337.54262,0.84617
1336.05283,0.87157
1334.56305,0.89699
1333.07326,0.92461
1331.58347,0.90974
1330.09368,0.94710
1328.60389,0.92436
1327.11410,0.87356
1325.62432,0.84454
1324.13453,0.81535
1322.64474,0.77550
1321.15495,0.77424
1319.66516,0.74284
1318.17537,0.71147
1316.68558,0.66736
1315.19580,0.61062
1313.70601,0.54778
1312.21622,0.54528
1310.72643,0.49336
1309.23664,0.47350
1307.74685,0.43409
1306.25707,0.41744
1304.76728,0.40033
1303.27749,0.38324
1301.78770,0.31781
1300.29791,0.24905
1298.80812,0.23807
1297.31834,0.20515
1295.82855,0.18096
1294.33876,0.13701
1292.84897,0.13680
1291.35918,0.11446
1289.86939,0.11005
1288.37960,0.10566
1286.88982,0.09209
1285.40003,0.07400
1283.91024,0.06859
1282.42045,0.05490
1280.93066,0.03787
1279.44087,0.05291
1277.95109,0.05215
1276.46130,0.04903
1274.97151,0.05287
1273.48172,0.05672
1271.99193,0.05289
1270.50214,0.04948
1269.01235,0.02948
1267.52257,0.02275
1266.03278,0.01763
1264.54299,0.02202
1263.05320,0.03317
1261.56341,0.02772
1260.07362,0.02230
1258.58384,0.02027
1257.09405,0.01509
1255.60426,0.00875
1254.11447,0.01747
1252.62468,0.01909
1251.13489,0.00353
1249.64511,0.02275
1248.15532,0.02638
1246.66553,0.02775
1245.17574,0.02914
1243.68595,0.02077
1242.19616,0.01836
1240.70637,0.01300
1239.21659,0.01657
1237.72680,0.02986
1236.23701,0.02240
1234.74722,0.03039
1233.25743,0.02742
1231.76764,0.02449
1230.27786,0.02681
1228.78807,0.01849
1227.29828,0.01809
1225.80849,0.00981
1224.31870,0.00353
1222.82891,0.01202
1221.33912,0.01915
1219.84934,0.02492
1218.35955,0.03072
1216.86976,0.04207
1215.37997,0.05622
1213.89018,0.08206
1212.40039,0.08122
1210.91061,0.09188
1209.42082,0.09940
1207.93103,0.09745
1206.44124,0.09553
1204.95145,0.07583
1203.46166,0.06584
1201.97188,0.06102
1200.48209,0.07363
1198.99230,0.06905
1197.50251,0.05560
1196.01272,0.04969
1194.52293,0.04419
1193.03314,0.03873
1191.54336,0.04001
1190.05357,0.01916
1188.56378,0.01989
1187.07399,0.01274
1185.58420,0.01688
1184.09441,0.01789
1182.60463,0.01348
1181.11484,0.00909
1179.62505,0.02025
1178.13526,0.01225
1176.64547,0.00369
1175.15568,0.01334
1173.66589,0.00699
1172.17611,0.00977
1170.68632,0.00664
1169.19653,0.00353
1167.70674,0.01577
1166.21695,0.03515
1164.72716,0.03419
1163.23738,0.05579
1161.74759,0.05290
1160.25780,0.05675
1158.76801,0.05904
1157.27822,0.06136
1155.78843,0.07933
1154.29865,0.08842
1152.80886,0.09417
1151.31907,0.11439
1149.82928,0.11999
1148.33949,0.10999
1146.84970,0.11396
1145.35991,0.11796
1143.87013,0.14343
1142.38034,0.15786
1140.89055,0.16499
1139.40076,0.16858
1137.91097,0.17675
1136.42118,0.19068
1134.93140,0.20117
1133.44161,0.21168
1131.95182,0.23102
1130.46203,0.25632
1128.97224,0.25869
1127.48245,0.23123
1125.99266,0.22654
1124.50288,0.23808
1123.01309,0.24016
1121.52330,0.24226
1120.03351,0.24182
1118.54372,0.23685
1117.05393,0.24219
1115.56415,0.23885
1114.07436,0.25491
1112.58457,0.25271
1111.09478,0.25053
1109.60499,0.22256
1108.11520,0.21776
1106.62542,0.24403
1105.13563,0.22859
1103.64584,0.22920
1102.15605,0.22627
1100.66626,0.21813
1099.17647,0.21001
1097.68668,0.18520
1096.19690,0.18870
1094.70711,0.19855
1093.21732,0.20051
1091.72753,0.19518
1090.23774,0.20036
1088.74795,0.20556
1087.25817,0.18487
1085.76838,0.17429
1084.27859,0.18451
1082.78880,0.18189
1081.29901,0.18385
1079.80922,0.21134
1078.31943,0.21434
1076.82965,0.21735
1075.33986,0.20161
1073.85007,0.22643
1072.36028,0.23011
1070.87049,0.25102
1069.38070,0.27849
1067.89092,0.30034
1066.40113,0.32221
1064.91134,0.37407
1063.42155,0.44257
1061.93176,0.52988
1060.44197,0.62948
1058.95219,0.75817
1057.46240,0.80600
1055.97261,0.85385
1054.48282,0.97688
1052.99303,1.01786
1051.50324,1.00744
1050.01345,0.96105
1048.52367,0.96729
1047.03388,0.95961
1045.54409,0.95195
1044.05430,0.91337
1042.56451,0.84297
1041.07472,0.78940
1039.58494,0.70501
1038.09515,0.61569
1036.60536,0.58554
1035.11557,0.55540
1033.62578,0.47387
1032.13599,0.40819
1030.64620,0.34807
1029.15642,0.29370
1027.66663,0.27516
1026.17684,0.25664
1024.68705,0.24072
1023.19726,0.20900
1021.70747,0.17414
1020.21769,0.14602
1018.72790,0.12861
1017.23811,0.12359
1015.74832,0.11859
1014.25853,0.10085
1012.76874,0.10134
1011.27896,0.08880
1009.78917,0.08142
1008.29938,0.07268
1006.80959,0.06001
1005.31980,0.04736
1003.83001,0.03692
1002.34022,0.03639
1000.85044,0.04201
999.36065,0.04587
997.87086,0.05372
996.38107,0.06159
994.89128,0.08036
993.40149,0.11023
991.91171,0.10808
990.42192,0.12712
988.93213,0.14381
987.44234,0.15617
985.95255,0.16856
984.46276,0.18196
982.97297,0.15860
981.48319,0.13941
979.99340,0.11175
978.50361,0.09943
977.01382,0.08714
975.52403,0.06707
974.03424,0.05077
972.54446,0.03905
971.05467,0.02240
969.56488,0.01725
968.07509,0.01153
966.58530,0.00584
965.09551,0.00353
963.60573,0.00353
962.11594,0.01962
960.62615,0.02229
959.13636,0.02191
957.64657,0.02156
956.15678,0.03517
954.66699,0.03338
953.17721,0.02074
951.68742,0.03442
950.19763,0.03726
948.70784,0.04011
947.21805,0.05090
945.72826,0.07596
944.23848,0.10123
942.74869,0.11763
941.25890,0.10934
939.76911,0.11995
938.27932,0.13059
936.78953,0.15183
935.29974,0.16479
933.80996,0.18193
932.32017,0.18445
930.83038,0.19224
929.34059,0.20006
927.85080,0.20760
926.36101,0.24384
924.87123,0.27774
923.38144,0.34824
921.89165,0.38248
920.40186,0.41675
918.91207,0.50077
917.42228,0.62853
915.93250,0.77115
914.44271,1.00219
912.95292,1.11223
911.46313,1.22228
909.97334,1.43639
908.48355,1.63787
906.99376,1.79625
905.50398,1.91609
904.01419,1.95803
902.52440,2.00000
901.03461,1.99709
899.54482,1.95367
898.05503,1.81929
896.56525,1.62620
895.07546,1.50284
893.58567,1.37951
892.09588,1.08958
890.60609,0.87502
889.11630,0.64269
887.62651,0.48514
886.13673,0.42908
884.64694,0.37304
883.15715,0.27806
881.66736,0.19793
880.17757,0.15878
878.68778,0.13408
877.19800,0.10940
875.70821,0.06478
874.21842,0.06745
872.72863,0.04107
871.23884,0.04378
869.74905,0.03900
868.25927,0.03425
866.76948,0.03012
865.27969,0.02521
863.78990,0.02864
862.30011,0.03645
860.81032,0.04754
859.32053,0.05865
857.83075,0.06890
856.34096,0.09341
854.85117,0.10786
853.36138,0.11205
851.87159,0.12951
850.38180,0.14700
848.89202,0.16293
847.40223,0.17275
845.91244,0.19368
844.42265,0.20760
842.93286,0.22155
841.44307,0.23068
839.95329,0.25466
838.46350,0.26146
836.97371,0.26117
835.48392,0.26001
833.99413,0.25887
832.50434,0.24915
831.01455,0.25172
829.52477,0.23988
828.03498,0.21540
826.54519,0.20400
825.05540,0.19263
823.56561,0.17593
822.07582,0.17311
820.58604,0.15904
819.09625,0.14518
817.60646,0.13136
816.11667,0.10944
814.62688,0.11940
813.13709,0.11850
811.64730,0.13740
810.15752,0.13387
808.66773,0.13038
807.17794,0.15667
805.68815,0.16399
804.19836,0.15631
802.70857,0.15598
801.21879,0.15566
799.72900,0.13935
798.23921,0.15056
796.74942,0.12263
795.25963,0.12300
793.76984,0.12340
792.28006,0.14103
790.79027,0.15315
789.30048,0.17181
787.81069,0.19921
786.32090,0.21723
784.83111,0.23527
783.34132,0.28647
781.85154,0.31534
780.36175,0.34345
778.87196,0.36485
777.38217,0.38628
775.89238,0.41209
774.40259,0.42842
772.91281,0.41709
771.42302,0.39847
769.93323,0.37987
768.44344,0.34072
766.95365,0.29527
765.46386,0.24114
763.97407,0.21473
762.48429,0.18497
760.99450,0.15524
759.50471,0.14354
758.01492,0.13897
756.52513,0.10022
755.03534,0.10420
753.54556,0.10821
752.05577,0.07804
750.56598,0.07893
749.07619,0.06067
747.58640,0.05221
746.09661,0.04379
744.60683,0.03469
743.11704,0.03491
741.62725,0.02369
740.13746,0.01892
738.64767,0.01417
737.15788,0.01884
735.66809,0.00850
734.17831,0.00353
732.68852,0.00880
731.19873,0.01409
729.70894,0.01704
728.21915,0.00596
726.72936,0.00751
725.23958,0.00968
723.74979,0.00851
722.26000,0.00736
720.77021,0.00564
719.28042,0.00415
717.79063,0.00327
716.30084,0.00291
714.81106,0.00241
713.32127,0.01293
711.83148,0.01517
710.34169,0.02277
708.85190,0.02634
707.36211,0.02994
705.87233,0.03129
704.38254,0.03444
702.89275,0.04157
701.40296,0.03903
699.91317,0.03651
698.42338,0.05261
696.93360,0.08318
695.44381,0.09418
693.95402,0.10413
692.46423,0.11409
690.97444,0.11845
689.48465,0.14023
687.99486,0.17410
686.50508,0.18703
685.01529,0.19999
683.52550,0.22997
682.03571,0.23665
680.54592,0.23919
679.05613,0.24641
677.56635,0.25365
676.07656,0.26477
674.58677,0.24446
673.09698,0.23249
671.60719,0.22163
670.11740,0.21079
668.62761,0.17694
667.13783,0.14924
665.64804,0.14837
664.15825,0.14751
662.66846,0.10288
661.17867,0.09110
659.68888,0.06154
658.19910,0.05574
656.70931,0.04997
655.21952,0.03037
653.72973,0.02899
652.23994,0.03397
650.75015,0.03422
649.26037,0.03450
647.77058,0.05399
646.28079,0.05491
644.79100,0.05071
643.30121,0.04218
641.81142,0.03368
640.32163,0.02717
638.83185,0.03691
637.34206,0.02176
635.85227,0.01464
634.36248,0.00754
632.87269,0.00353
631.38290,0.00853
629.89312,0.00920
628.40333,0.01167
626.91354,0.01417
625.42375,0.01847
623.93396,0.03071
622.44417,0.02368
620.95438,0.01668
619.46460,0.04165
617.97481,0.04271
616.48502,0.05249
614.99523,0.07081
613.50544,0.08914
612.01565,0.10711
610.52587,0.14349
609.03608,0.17772
607.54629,0.20031
606.05650,0.22292
604.56671,0.25880
603.07692,0.32062
601.58714,0.34103
600.09735,0.36146
598.60756,0.39843
597.11777,0.40536
595.62798,0.41785
594.13819,0.41900
592.64840,0.42017
591.15862,0.38665
589.66883,0.33278
588.17904,0.26510
586.68925,0.24678
585.19946,0.22849
583.70967,0.16998
582.21989,0.12909
580.73010,0.10464
579.24031,0.08021
577.75052,0.07183
576.26073,0.06506
574.77094,0.06424
573.28115,0.05939
571.79137,0.05456
570.30158,0.05500
568.81179,0.07702
567.32200,0.08038
565.83221,0.08376
564.34242,0.11317
562.85264,0.11788
561.36285,0.14971
559.87306,0.16565
558.38327,0.18161
556.89348,0.16881
555.40369,0.19243
553.91391,0.19887
552.42412,0.20533
550.93433,0.23259
549.44454,0.23198
547.95475,0.21438
546.46496,0.21817
544.97517,0.22198
543.48539,0.23472
541.99560,0.29831
540.50581,0.31703
539.01602,0.33577
537.52623,0.37115
536.03644,0.40873
534.54666,0.41943
533.05687,0.44598
531.56708,0.47256
530.07729,0.50964
528.58750,0.57700
527.09771,0.60365
525.60792,0.63032
524.11814,0.67739
522.62835,0.72012
521.13856,0.79987
519.64877,0.83089
518.15898,0.86193
516.66919,0.89310
515.17941,0.89758
513.68962,0.90942
512.19983,0.92127
510.71004,0.86768
509.22025,0.77951
507.73046,0.71530
506.24068,0.67691
504.75089,0.63855
503.26110,0.50341
501.77131,0.38489
500.28152,0.34305
498.79173,0.30122
497.30194,0.23836
495.81216,0.18640
494.32237,0.17154
492.83258,0.15671
491.34279,0.10799
489.85300,0.08519
488.36321,0.09723
486.87343,0.07825
485.38364,0.05928
483.89385,0.07832
482.40406,0.09302
480.91427,0.10578
479.42448,0.11855
477.93469,0.13729
476.44491,0.15169
474.95512,0.16098
473.46533,0.17029
471.97554,0.21088
470.48575,0.21035
468.99596,0.19996
467.50618,0.19226
466.01639,0.18458
464.52660,0.14855
463.03681,0.09949
461.54702,0.09534
460.05723,0.09122
458.56745,0.05984
457.07766,0.04311
455.58787,0.04212
454.09808,0.04117
452.60829,0.03499
451.11850,0.02469
449.62871,0.01826
448.13893,0.01186
446.64914,0.01686
445.15935,0.02030
443.66956,0.02534
442.17977,0.02408
440.68998,0.02284
439.20020,0.03350
437.71041,0.02202
436.22062,0.03124
434.73083,0.04048
433.24104,0.02908
431.75125,0.02878
430.26146,0.03196
428.77168,0.03517
427.28189,0.03533
425.79210,0.04482
424.30231,0.03722
422.81252,0.02964
421.32273,0.04197
419.83295,0.02623
418.34316,0.02882
416.85337,0.03142
415.36358,0.01813
413.87379,0.02247
412.38400,0.02307
410.89422,0.02370
409.40443,0.04887
407.91464,0.03609
406.42485,0.03145
404.93506,0.02891
403.44527,0.02639
401.95548,0.03903
400.46570,0.03646
398.97591,0.04163
397.48612,0.04682
395.99633,0.04610
394.50654,0.03592
393.01675,0.02734
391.52697,0.01878
390.03718,0.01618
388.54739,0.02126
387.05760,0.02290
385.56781,0.02456
384.07802,0.02417
382.58824,0.02954
381.09845,0.03266
379.60866,0.03581
378.11887,0.05470
376.62908,0.03030
375.13929,0.01690
373.64950,0.00353
372.15972,0.03434
370.66993,0.03590
369.18014,0.03431
367.69035,0.03276
366.20056,0.04091
364.71077,0.04257
363.22099,0.02941
361.73120,0.01628
360.24141,0.05321
358.75162,0.05911
357.26183,0.05367
355.77204,0.04825
354.28225,0.06273
352.79247,0.05350
351.30268,0.05131
349.81289,0.04915
348.32310,0.05305
346.83331,0.05479
345.34352,0.04875
343.85374,0.04273
342.36395,0.06669
340.87416,0.04974
339.38437,0.04548
337.89458,0.04123
336.40479,0.02613
334.91501,0.00928
333.42522,0.00639
331.93543,0.00353
330.44564,0.00951
328.95585,0.00543
327.46606,0.01818
325.97627,0.03095
324.48649,0.04989
322.99670,0.04275
321.50691,0.04631
320.01712,0.04990
318.52733,0.08436
317.03754,0.08107
315.54776,0.06524
314.05797,0.04944
312.56818,0.04405
311.07839,0.07191
309.58860,0.06152
308.09881,0.05115
306.60902,0.04388
305.11924,0.01448
303.62945,0.01239
302.13966,0.00353
300.64987,0.00431
299.16008,0.00353
