1778.52000,0.02470
1777.03021,0.01227
1775.54042,0.01776
1774.05063,0.02085
1772.56085,0.01820
1771.07106,0.01710
1769.58127,0.01995
1768.09148,0.01253
1766.60169,0.01756
1765.11190,0.01958
1763.62212,0.01193
1762.13233,0.01885
1760.64254,0.01307
1759.15275,0.01943
1757.66296,0.00339
1756.17317,0.00768
1754.68339,0.01049
1753.19360,0.00877
1751.70381,0.00919
1750.21402,0.01359
1748.72423,0.01103
1747.23444,0.01820
1745.74465,0.01691
1744.25487,0.01382
1742.76508,0.00803
1741.27529,0.00105
1739.78550,0.01410
1738.29571,0.00596
1736.80592,0.01543
1735.31614,0.00339
1733.82635,0.01244
1732.33656,0.00212
1730.84677,0.01911
1729.35698,0.00610
1727.86719,0.00889
1726.37740,0.00655
1724.88762,0.00332
1723.39783,0.01922
1721.90804,0.00846
1720.41825,0.01652
1718.92846,0.00339
1717.43867,0.01716
1715.94889,0.00731
1714.45910,0.01173
1712.96931,0.01982
1711.47952,0.01095
1709.98973,0.01302
1708.49994,0.01148
1707.01016,0.00693
1705.52037,0.00240
1704.03058,0.01748
1702.54079,0.00438
1701.05100,0.01495
1699.56121,0.01100
1698.07142,0.01071
1696.58164,0.02227
1695.09185,0.00747
1693.60206,0.02484
1692.11227,0.01616
1690.62248,0.02114
1689.13269,0.02191
1687.64291,0.02998
1686.15312,0.02837
1684.66333,0.02830
1683.17354,0.02340
1681.68375,0.03066
1680.19396,0.03976
1678.70417,0.04434
1677.21439,0.04743
1675.72460,0.04569
1674.23481,0.04913
1672.74502,0.05138
1671.25523,0.06397
1669.76544,0.05960
1668.27566,0.06708
1666.78587,0.07064
1665.29608,0.07817
1663.80629,0.07935
1662.31650,0.09088
1660.82671,0.09636
1659.33693,0.08640
1657.84714,0.08344
1656.35735,0.08020
1654.86756,0.08457
1653.37777,0.07471
1651.88798,0.09065
1650.39819,0.09236
1648.90841,0.09652
1647.41862,0.07767
1645.92883,0.08597
1644.43904,0.09430
1642.94925,0.08340
1641.45946,0.08678
1639.96968,0.08533
1638.47989,0.08966
1636.99010,0.07856
1635.50031,0.07870
1634.01052,0.08220
1632.52073,0.06632
1631.03094,0.05683
1629.54116,0.07890
1628.05137,0.07704
1626.56158,0.07885
1625.07179,0.11100
1623.58200,0.10072
1622.09221,0.08623
1620.60243,0.09177
1619.11264,0.09764
1617.62285,0.08716
1616.13306,0.09581
1614.64327,0.07841
1613.15348,0.08801
1611.66370,0.07885
1610.17391,0.08972
1608.68412,0.08848
1607.19433,0.10031
1605.70454,0.09549
1604.21475,0.09099
1602.72496,0.08652
1601.23518,0.08450
1599.74539,0.08099
1598.25560,0.08993
1596.76581,0.07798
1595.27602,0.08849
1593.78623,0.08477
1592.29645,0.07411
1590.80666,0.07499
1589.31687,0.07468
1587.82708,0.07137
1586.33729,0.07384
1584.84750,0.08119
1583.35771,0.07977
1581.86793,0.06170
1580.37814,0.08034
1578.88835,0.07050
1577.39856,0.07464
1575.90877,0.07546
1574.41898,0.05842
1572.92920,0.03686
1571.43941,0.03988
1569.94962,0.03292
1568.45983,0.02599
1566.97004,0.03211
1565.48025,0.05222
1563.99047,0.04687
1562.50068,0.03063
1561.01089,0.02443
1559.52110,0.02007
1558.03131,0.02483
1556.54152,0.01567
1555.05173,0.03018
1553.56195,0.02228
1552.07216,0.03169
1550.58237,0.01049
1549.09258,0.01813
1547.60279,0.00336
1546.11300,0.01226
1544.62322,0.01148
1543.13343,0.00436
1541.64364,0.00969
1540.15385,0.00884
1538.66406,0.00801
1537.17427,0.02100
1535.68448,0.00672
1534.19470,0.00339
1532.70491,0.02526
1531.21512,0.00410
1529.72533,0.02208
1528.23554,0.02068
1526.74575,0.03294
1525.25597,0.02735
1523.76618,0.03602
1522.27639,0.04200
1520.78660,0.04587
1519.29681,0.03249
1517.80702,0.03915
1516.31724,0.03733
1514.82745,0.03858
1513.33766,0.03864
1511.84787,0.03872
1510.35808,0.04732
1508.86829,0.05503
1507.37850,0.05822
1505.88872,0.03263
1504.39893,0.04314
1502.90914,0.04489
1501.41935,0.06091
1499.92956,0.07150
1498.43977,0.08454
1496.94999,0.07365
1495.46020,0.08977
1493.97041,0.07833
1492.48062,0.08025
1490.99083,0.07188
1489.50104,0.10296
1488.01125,0.11132
1486.52147,0.11971
1485.03168,0.16360
1483.54189,0.15869
1482.05210,0.19566
1480.56231,0.18079
1479.07252,0.20659
1477.58274,0.24484
1476.09295,0.24096
1474.60316,0.22499
1473.11337,0.25543
1471.62358,0.24466
1470.13379,0.26635
1468.64401,0.27928
1467.15422,0.28465
1465.66443,0.28141
1464.17464,0.27819
1462.68485,0.32578
1461.19506,0.38826
1459.70527,0.42711
1458.21549,0.48145
1456.72570,0.56674
1455.23591,0.62235
1453.74612,0.66403
1452.25633,0.69633
1450.76654,0.72229
1449.27676,0.73160
1447.78697,0.69272
1446.29718,0.69934
1444.80739,0.67234
1443.31760,0.64536
1441.82781,0.61870
1440.33802,0.59572
1438.84824,0.57002
1437.35845,0.52555
1435.86866,0.50051
1434.37887,0.51674
1432.88908,0.55058
1431.39929,0.55412
1429.90951,0.62075
1428.41972,0.73047
1426.92993,0.77926
1425.44014,0.85871
1423.95035,0.88314
1422.46056,0.90760
1420.97078,0.91890
1419.48099,0.95205
1417.99120,0.94883
1416.50141,0.93867
1415.01162,0.89579
1413.52183,0.85960
1412.03204,0.78310
1410.54226,0.74332
1409.05247,0.69023
1407.56268,0.69052
1406.07289,0.61079
1404.58310,0.58324
1403.09331,0.55572
1401.60353,0.48546
1400.11374,0.42160
1398.62395,0.37989
1397.13416,0.33609
1395.64437,0.26987
1394.15458,0.22733
1392.66479,0.21999
1391.17501,0.17478
1389.68522,0.13049
1388.19543,0.11837
1386.70564,0.10886
1385.21585,0.09937
1383.72606,0.05973
1382.23628,0.03164
1380.74649,0.04906
1379.25670,0.02617
1377.76691,0.01119
1376.27712,0.01413
1374.78733,0.00375
1373.29755,0.01341
1371.80776,0.00763
1370.31797,0.00339
1368.82818,0.00470
1367.33839,0.00604
1365.84860,0.02029
1364.35881,0.03608
1362.86903,0.05128
1361.37924,0.05378
1359.88945,0.09026
1358.39966,0.10039
1356.90987,0.11843
1355.42008,0.16317
1353.93030,0.23068
1352.44051,0.26350
1350.95072,0.29634
1349.46093,0.36544
1347.97114,0.43153
1346.48135,0.49735
1344.99156,0.56774
1343.50178,0.65119
1342.01199,0.69403
1340.52220,0.77481
1339.03241,0.81982
1337.54262,0.86335
1336.05283,0.88597
1334.56305,0.90862
1333.07326,0.93342
1331.58347,0.94430
1330.09368,0.96763
1328.60389,0.94823
1327.11410,0.90005
1325.62432,0.87040
1324.13453,0.86836
1322.64474,0.81964
1321.15495,0.77126
1319.66516,0.75155
1318.17537,0.73187
1316.68558,0.72693
1315.19580,0.65317
1313.70601,0.58793
1312.21622,0.54576
1310.72643,0.49118
1309.23664,0.47635
1307.74685,0.42182
1306.25707,0.41128
1304.76728,0.38212
1303.27749,0.35298
1301.78770,0.30977
1300.29791,0.26537
1298.80812,0.20857
1297.31834,0.18453
1295.82855,0.16386
1294.33876,0.12441
1292.84897,0.12774
1291.35918,0.11654
1289.86939,0.10931
1288.37960,0.10210
1286.88982,0.07096
1285.40003,0.06502
1283.91024,0.05849
1282.42045,0.05623
1280.93066,0.05279
1279.44087,0.04845
1277.95109,0.06174
1276.46130,0.03774
1274.97151,0.03970
1273.48172,0.04169
1271.99193,0.04900
1270.50214,0.04634
1269.01235,0.02732
1267.52257,0.02683
1266.03278,0.01453
1264.54299,0.02531
1263.05320,0.03065
1261.56341,0.02783
1260.07362,0.02503
1258.58384,0.03044
1257.09405,0.02436
1255.60426,0.02952
1254.11447,0.01015
1252.62468,0.02627
1251.13489,0.00968
1249.64511,0.00978
1248.15532,0.00718
1246.66553,0.02078
1245.17574,0.03440
1243.68595,0.01999
1242.19616,0.01987
1240.70637,0.00339
1239.21659,0.01599
1237.72680,0.02438
1236.23701,0.03036
1234.74722,0.02787
1233.25743,0.02223
1231.76764,0.01661
1230.27786,0.02906
1228.78807,0.02183
1227.29828,0.01552
1225.80849,0.00712
1224.31870,0.00815
1222.82891,0.00647
1221.33912,0.02410
1219.84934,0.02720
1218.35955,0.03033
1216.86976,0.02954
1215.37997,0.02847
1213.89018,0.04744
1212.40039,0.06461
1210.91061,0.06998
1209.42082,0.06264
1207.93103,0.06185
1206.44124,0.06108
1204.95145,0.06594
1203.46166,0.05567
1201.97188,0.04452
1200.48209,0.06462
1198.99230,0.05048
1197.50251,0.03757
1196.01272,0.02803
1194.52293,0.02170
1193.03314,0.01539
1191.54336,0.00228
1190.05357,0.01929
1188.56378,0.02600
1187.07399,0.01334
1185.58420,0.01283
1184.09441,0.01720
1182.60463,0.01204
1181.11484,0.00690
1179.62505,0.00346
1178.13526,0.01018
1176.64547,0.02390
1175.15568,0.00339
1173.66589,0.00695
1172.17611,0.00932
1170.68632,0.00672
1169.19653,0.00413
1167.70674,0.00628
1166.21695,0.01845
1164.72716,0.02550
1163.23738,0.02711
1161.74759,0.02450
1160.25780,0.04011
1158.76801,0.05074
1157.27822,0.06139
1155.78843,0.06222
1154.29865,0.08035
1152.80886,0.08032
1151.31907,0.08789
1149.82928,0.08669
1148.33949,0.11463
1146.84970,0.11348
1145.35991,0.11235
1143.87013,0.10549
1142.38034,0.12140
1140.89055,0.14279
1139.40076,0.16450
1137.91097,0.15926
1136.42118,0.18951
1134.93140,0.18780
1133.44161,0.18612
1131.95182,0.19249
1130.46203,0.19920
1128.97224,0.19137
1127.48245,0.22632
1125.99266,0.22188
1124.50288,0.20533
1123.01309,0.20701
1121.52330,0.20870
1120.03351,0.20679
1118.54372,0.20459
1117.05393,0.19878
1115.56415,0.20755
1114.07436,0.23151
1112.58457,0.21880
1111.09478,0.20611
1109.60499,0.20710
1108.11520,0.22933
1106.62542,0.21157
1105.13563,0.21232
1103.64584,0.19976
1102.15605,0.20542
1100.66626,0.19776
1099.17647,0.19012
1097.68668,0.17917
1096.19690,0.17159
1094.70711,0.18101
1093.21732,0.17862
1091.72753,0.17991
1090.23774,0.16757
1088.74795,0.15525
1087.25817,0.13235
1085.76838,0.16072
1084.27859,0.14302
1082.78880,0.13747
1081.29901,0.14105
1079.80922,0.14829
1078.31943,0.15647
1076.82965,0.16467
1075.33986,0.12559
1073.85007,0.13869
1072.36028,0.14605
1070.87049,0.16011
1069.38070,0.18905
1067.89092,0.20665
1066.40113,0.22427
1064.91134,0.28907
1063.42155,0.34024
1061.93176,0.42480
1060.44197,0.49301
1058.95219,0.57125
1057.46240,0.61403
1055.97261,0.65684
1054.48282,0.75941
1052.99303,0.81864
1051.50324,0.85759
1050.01345,0.82802
1048.52367,0.90037
1047.03388,0.87510
1045.54409,0.84986
1044.05430,0.78826
1042.56451,0.73304
1041.07472,0.69089
1039.58494,0.62815
1038.09515,0.55846
1036.60536,0.53351
1035.11557,0.50859
1033.62578,0.45080
1032.13599,0.41153
1030.64620,0.34620
1029.15642,0.28212
1027.66663,0.26020
1026.17684,0.23831
1024.68705,0.19037
1023.19726,0.17763
1021.70747,0.15885
1020.21769,0.16131
1018.72790,0.12681
1017.23811,0.12281
1015.74832,0.11883
1014.25853,0.09987
1012.76874,0.07396
1011.27896,0.09113
1009.78917,0.08861
1008.29938,0.07551
1006.80959,0.06092
1005.31980,0.04635
1003.83001,0.02574
1002.34022,0.03063
1000.85044,0.01886
999.36065,0.01804
997.87086,0.02436
996.38107,0.03071
994.89128,0.04543
993.40149,0.03287
991.91171,0.04764
990.42192,0.06000
988.93213,0.08724
987.44234,0.08252
985.95255,0.07783
984.46276,0.11212
982.97297,0.08337
981.48319,0.07344
979.99340,0.05140
978.50361,0.03880
977.01382,0.02621
975.52403,0.04701
974.03424,0.04569
972.54446,0.00650
971.05467,0.02585
969.56488,0.00339
968.07509,0.00417
966.58530,0.00499
965.09551,0.00294
963.60573,0.01555
962.11594,0.01151
960.62615,0.02144
959.13636,0.02837
957.64657,0.03532
956.15678,0.03259
954.66699,0.04777
953.17721,0.04449
951.68742,0.05730
950.19763,0.04648
948.70784,0.03569
947.21805,0.06312
945.72826,0.07361
944.23848,0.07744
942.74869,0.11830
941.25890,0.12825
939.76911,0.13170
938.27932,0.13518
936.78953,0.14642
935.29974,0.16951
933.80996,0.19838
932.32017,0.20606
930.83038,0.21133
929.34059,0.21662
927.85080,0.23286
926.36101,0.27520
924.87123,0.30058
923.38144,0.34479
921.89165,0.37432
920.40186,0.40387
918.91207,0.50212
917.42228,0.61526
915.93250,0.75723
914.44271,0.97928
912.95292,1.09143
911.46313,1.20361
909.97334,1.42148
908.48355,1.63969
906.99376,1.80940
905.50398,1.95185
904.01419,1.97197
902.52440,1.99211
901.03461,2.00000
899.54482,1.96637
898.05503,1.91791
896.56525,1.76365
895.07546,1.63063
893.58567,1.49764
892.09588,1.22216
890.60609,1.00645
889.11630,0.74254
887.62651,0.53263
886.13673,0.46284
884.64694,0.39307
883.15715,0.29270
881.66736,0.20509
880.17757,0.17875
878.68778,0.14426
877.19800,0.10979
875.70821,0.08777
874.21842,0.05911
872.72863,0.04230
871.23884,0.01915
869.74905,0.03165
868.25927,0.04418
866.76948,0.03505
865.27969,0.03292
863.78990,0.01383
862.30011,0.04449
860.81032,0.05275
859.32053,0.06102
857.83075,0.06872
856.34096,0.07159
854.85117,0.09692
853.36138,0.09832
851.87159,0.10126
850.38180,0.10423
848.89202,0.12208
847.40223,0.15057
845.91244,0.15300
844.42265,0.17275
842.93286,0.19252
841.44307,0.16470
839.95329,0.18513
838.46350,0.20012
836.97371,0.22939
835.48392,0.22456
833.99413,0.21977
832.50434,0.24881
831.01455,0.22056
829.52477,0.22266
828.03498,0.18840
826.54519,0.16341
825.05540,0.13845
823.56561,0.13701
822.07582,0.09860
820.58604,0.10145
819.09625,0.10206
817.60646,0.10269
816.11667,0.10956
814.62688,0.08947
813.13709,0.09548
811.64730,0.09060
810.15752,0.09681
808.66773,0.10305
807.17794,0.11583
805.68815,0.12560
804.19836,0.12024
802.70857,0.12021
801.21879,0.12020
799.72900,0.11582
798.23921,0.08812
796.74942,0.09319
795.25963,0.09434
793.76984,0.09552
792.28006,0.11613
790.79027,0.11523
789.30048,0.12952
787.81069,0.15778
786.32090,0.16303
784.83111,0.16829
783.34132,0.22756
781.85154,0.23834
780.36175,0.27127
778.87196,0.29301
777.38217,0.31478
775.89238,0.34839
774.40259,0.35929
772.91281,0.33504
771.42302,0.33234
769.93323,0.32967
768.44344,0.29640
766.95365,0.26254
765.46386,0.22720
763.97407,0.18672
762.48429,0.17250
760.99450,0.15830
759.50471,0.15065
758.01492,0.11482
756.52513,0.09266
755.03534,0.08432
753.54556,0.07600
752.05577,0.06544
750.56598,0.04975
749.07619,0.05046
747.58640,0.04573
746.09661,0.04102
744.60683,0.01755
743.11704,0.02229
741.62725,0.01827
740.13746,0.01458
738.64767,0.01091
737.15788,0.03001
735.66809,0.01759
734.17831,0.02249
732.68852,0.01376
731.19873,0.00506
729.70894,0.02721
728.21915,0.00603
726.72936,0.01378
725.23958,0.01671
723.74979,0.02238
722.26000,0.02809
720.77021,0.01714
719.28042,0.01470
717.79063,0.00744
716.30084,0.00793
714.81106,0.00845
713.32127,0.00339
711.83148,0.00751
710.34169,0.02379
708.85190,0.03479
707.36211,0.04581
705.87233,0.03487
704.38254,0.03426
702.89275,0.04642
701.40296,0.04708
699.91317,0.04776
698.42338,0.03846
696.93360,0.09529
695.44381,0.09878
693.95402,0.10653
692.46423,0.11431
690.97444,0.14031
689.48465,0.15360
687.99486,0.16206
686.50508,0.17312
685.01529,0.18421
683.52550,0.22004
682.03571,0.24709
680.54592,0.25416
679.05613,0.25731
677.56635,0.26049
676.07656,0.27127
674.58677,0.26661
673.09698,0.25622
671.60719,0.24842
670.11740,0.24065
668.62761,0.18637
667.13783,0.18365
665.64804,0.16322
664.15825,0.14282
662.66846,0.10712
661.17867,0.10269
659.68888,0.09524
658.19910,0.07054
656.70931,0.04586
655.21952,0.02818
653.72973,0.05965
652.23994,0.05718
650.75015,0.06035
649.26037,0.06354
647.77058,0.05114
646.28079,0.04392
644.79100,0.07099
643.30121,0.05699
641.81142,0.04302
640.32163,0.02984
638.83185,0.03638
637.34206,0.02688
635.85227,0.03136
634.36248,0.03586
632.87269,0.00339
631.38290,0.02319
629.89312,0.02452
628.40333,0.03240
626.91354,0.04030
625.42375,0.04898
623.93396,0.03555
622.44417,0.04216
620.95438,0.04879
619.46460,0.05030
617.97481,0.07123
616.48502,0.07218
614.99523,0.08058
613.50544,0.08900
612.01565,0.12459
610.52587,0.15808
609.03608,0.16795
607.54629,0.18269
606.05650,0.19745
604.56671,0.25045
603.07692,0.29316
601.58714,0.32210
600.09735,0.35106
598.60756,0.40446
597.11777,0.44333
595.62798,0.40429
594.13819,0.40591
592.64840,0.40756
591.15862,0.37557
589.66883,0.31813
588.17904,0.28074
586.68925,0.24625
585.19946,0.21178
583.70967,0.16172
582.21989,0.12927
580.73010,0.11217
579.24031,0.09508
577.75052,0.07423
576.26073,0.06463
574.77094,0.04352
573.28115,0.03442
571.79137,0.02535
570.30158,0.04707
568.81179,0.08823
567.32200,0.08089
565.83221,0.07358
564.34242,0.10147
562.85264,0.09755
561.36285,0.11700
559.87306,0.12995
558.38327,0.14293
556.89348,0.13698
555.40369,0.14409
553.91391,0.13713
552.42412,0.13020
550.93433,0.16377
549.44454,0.17644
547.95475,0.17701
546.46496,0.17654
544.97517,0.17609
543.48539,0.19584
541.99560,0.23380
540.50581,0.25966
539.01602,0.28554
537.52623,0.31994
536.03644,0.34921
534.54666,0.36668
533.05687,0.38508
531.56708,0.40350
530.07729,0.46835
528.58750,0.53746
527.09771,0.56491
525.60792,0.59238
524.11814,0.64974
522.62835,0.67802
521.13856,0.71117
519.64877,0.73131
518.15898,0.75148
516.66919,0.77591
515.17941,0.80826
513.68962,0.81940
512.19983,0.83056
510.71004,0.81143
509.22025,0.75867
507.73046,0.69683
506.24068,0.64002
504.75089,0.58324
503.26110,0.47690
501.77131,0.34876
500.28152,0.30903
498.79173,0.26933
497.30194,0.24223
495.81216,0.15421
494.32237,0.14506
492.83258,0.13592
491.34279,0.09407
489.85300,0.07741
488.36321,0.06683
486.87343,0.07584
485.38364,0.08488
483.89385,0.07984
482.40406,0.08574
480.91427,0.08848
479.42448,0.09124
477.93469,0.11511
476.44491,0.13081
474.95512,0.13471
473.46533,0.13864
471.97554,0.13106
470.48575,0.12806
468.99596,0.14480
467.50618,0.14185
466.01639,0.13892
464.52660,0.11571
463.03681,0.08615
461.54702,0.07875
460.05723,0.07138
458.56745,0.03431
457.07766,0.02607
455.58787,0.02620
454.09808,0.02636
452.60829,0.03396
451.11850,0.00339
449.62871,0.01307
448.13893,0.02279
446.64914,0.00781
445.15935,0.02773
443.66956,0.01826
442.17977,0.02488
440.68998,0.03153
439.20020,0.02608
437.71041,0.02186
436.22062,0.02919
434.73083,0.03655
433.24104,0.06273
431.75125,0.03951
430.26146,0.04937
428.77168,0.05925
427.28189,0.04823
425.79210,0.02814
424.30231,0.03855
422.81252,0.04898
421.32273,0.02897
419.83295,0.04931
418.34316,0.04587
416.85337,0.04245
415.36358,0.02102
413.87379,0.03873
412.38400,0.02629
410.89422,0.01387
409.40443,0.03032
407.91464,0.05194
406.42485,0.02447
404.93506,0.02098
403.44527,0.01751
401.95548,0.02256
400.46570,0.04279
398.97591,0.04803
397.48612,0.05331
395.99633,0.03389
394.50654,0.04027
393.01675,0.03561
391.52697,0.03098
390.03718,0.04773
388.54739,0.02872
387.05760,0.02930
385.56781,0.02990
384.07802,0.00339
382.58824,0.00309
381.09845,0.00888
379.60866,0.01470
378.11887,0.00356
376.62908,0.02731
375.13929,0.01364
373.64950,0.00000
372.15972,0.01140
370.66993,0.03252
369.18014,0.02615
367.69035,0.01981
366.20056,0.02350
364.71077,0.04237
363.22099,0.04035
361.73120,0.03835
360.24141,0.03365
358.75162,0.03018
357.26183,0.03705
355.77204,0.04394
354.28225,0.06996
352.79247,0.07539
351.30268,0.07265
349.81289,0.06994
348.32310,0.06059
346.83331,0.02608
345.34352,0.03127
343.85374,0.03648
342.36395,0.05461
340.87416,0.07063
339.38437,0.07001
337.89458,0.06940
336.40479,0.04821
334.91501,0.05766
333.42522,0.05956
331.93543,0.06148
330.44564,0.00339
328.95585,0.03081
327.46606,0.02597
325.97627,0.02115
324.48649,0.07703
322.99670,0.05925
321.50691,0.06606
320.01712,0.07290
318.52733,0.07672
317.03754,0.08118
315.54776,0.08142
314.05797,0.08168
312.56818,0.11169
311.07839,0.09744
309.58860,0.07868
308.09881,0.05994
306.60902,0.05668
305.11924,0.05103
303.62945,0.03494
302.13966,0.01887
300.64987,0.00420
299.16008,0.00339
