1778.52000,0.01376
1777.03021,0.01256
1775.54042,0.01255
1774.05063,0.01102
1772.56085,0.00854
1771.07106,0.01015
1769.58127,0.01392
1768.09148,0.00609
1766.60169,0.00390
1765.11190,0.00387
1763.62212,0.00851
1762.13233,0.01026
1760.64254,0.00352
1759.15275,0.00804
1757.66296,0.00967
1756.17317,0.01094
1754.68339,0.00779
1753.19360,0.01220
1751.70381,0.01084
1750.21402,0.00504
1748.72423,0.00817
1747.23444,0.00455
1745.74465,0.01200
1744.25487,0.01017
1742.76508,0.00352
1741.27529,0.01321
1739.78550,0.00568
1738.29571,0.00922
1736.80592,0.01703
1735.31614,0.00977
1733.82635,0.01086
1732.33656,0.01643
1730.84677,0.00460
1729.35698,0.00227
1727.86719,0.00869
1726.37740,0.00990
1724.88762,0.01055
1723.39783,0.01413
1721.90804,0.00825
1720.41825,0.01536
1718.92846,0.01359
1717.43867,0.00352
1715.94889,0.01369
1714.45910,0.01788
1712.96931,0.00738
1711.47952,0.00310
1709.98973,0.00000
1708.49994,0.01238
1707.01016,0.00959
1705.52037,0.00682
1704.03058,0.00204
1702.54079,0.00503
1701.05100,0.01075
1699.56121,0.00992
1698.07142,0.00252
1696.58164,0.00328
1695.09185,0.01123
1693.60206,0.00352
1692.11227,0.01220
1690.62248,0.00754
1689.13269,0.01239
1687.64291,0.01398
1686.15312,0.01597
1684.66333,0.01567
1683.17354,0.00977
1681.68375,0.01571
1680.19396,0.01413
1678.70417,0.02670
1677.21439,0.03213
1675.72460,0.02500
1674.23481,0.03454
1672.74502,0.03772
1671.25523,0.03821
1669.76544,0.04803
1668.27566,0.05534
1666.78587,0.05572
1665.29608,0.05359
1663.80629,0.06292
1662.31650,0.06665
1660.82671,0.06209
1659.33693,0.07362
1657.84714,0.06910
1656.35735,0.07815
1654.86756,0.07504
1653.37777,0.07253
1651.88798,0.06578
1650.39819,0.07319
1648.90841,0.06669
1647.41862,0.07686
1645.92883,0.08028
1644.43904,0.08372
1642.94925,0.08196
1641.45946,0.08874
1639.96968,0.07754
1638.47989,0.08262
1636.99010,0.08928
1635.50031,0.08416
1634.01052,0.08660
1632.52073,0.09024
1631.03094,0.08828
1629.54116,0.08131
1628.05137,0.09354
1626.56158,0.08468
1625.07179,0.09037
1623.58200,0.10073
1622.09221,0.10202
1620.60243,0.09694
1619.11264,0.09943
1617.62285,0.09266
1616.13306,0.08978
1614.64327,0.08925
1613.15348,0.08138
1611.66370,0.08032
1610.17391,0.09903
1608.68412,0.09239
1607.19433,0.08482
1605.70454,0.09644
1604.21475,0.09830
1602.72496,0.10019
1601.23518,0.10006
1599.74539,0.09358
1598.25560,0.09002
1596.76581,0.09287
1595.27602,0.09807
1593.78623,0.07813
1592.29645,0.07331
1590.80666,0.08071
1589.31687,0.08504
1587.82708,0.08378
1586.33729,0.08893
1584.84750,0.09237
1583.35771,0.08827
1581.86793,0.08110
1580.37814,0.08054
1578.88835,0.06471
1577.39856,0.06362
1575.90877,0.06119
1574.41898,0.05666
1572.92920,0.05796
1571.43941,0.05580
1569.94962,0.05377
1568.45983,0.05175
1566.97004,0.04192
1565.48025,0.04683
1563.99047,0.03046
1562.50068,0.04587
1561.01089,0.04117
1559.52110,0.03862
1558.03131,0.02854
1556.54152,0.02643
1555.05173,0.02899
1553.56195,0.02673
1552.07216,0.02198
1550.58237,0.01125
1549.09258,0.01894
1547.60279,0.02355
1546.11300,0.01890
1544.62322,0.02123
1543.13343,0.01430
1541.64364,0.00352
1540.15385,0.01126
1538.66406,0.01901
1537.17427,0.01547
1535.68448,0.02182
1534.19470,0.01038
1532.70491,0.02472
1531.21512,0.01836
1529.72533,0.02326
1528.23554,0.02257
1526.74575,0.02771
1525.25597,0.03036
1523.76618,0.02974
1522.27639,0.03379
1520.78660,0.03206
1519.29681,0.03383
1517.80702,0.03854
1516.31724,0.04307
1514.82745,0.04782
1513.33766,0.04253
1511.84787,0.03726
1510.35808,0.05273
1508.86829,0.05235
1507.37850,0.04406
1505.88872,0.05031
1504.39893,0.05194
1502.90914,0.04217
1501.41935,0.06437
1499.92956,0.06936
1498.43977,0.05269
1496.94999,0.06547
1495.46020,0.08215
1493.97041,0.09402
1492.48062,0.11075
1490.99083,0.11802
1489.50104,0.13228
1488.01125,0.14095
1486.52147,0.14964
1485.03168,0.16997
1483.54189,0.18394
1482.05210,0.21517
1480.56231,0.22628
1479.07252,0.23606
1477.58274,0.23909
1476.09295,0.25454
1474.60316,0.25858
1473.11337,0.25432
1471.62358,0.27429
1470.13379,0.29235
1468.64401,0.31063
1467.15422,0.33125
1465.66443,0.34647
1464.17464,0.36172
1462.68485,0.36615
1461.19506,0.41127
1459.70527,0.44034
1458.21549,0.50235
1456.72570,0.56690
1455.23591,0.60921
1453.74612,0.66800
1452.25633,0.70435
1450.76654,0.72427
1449.27676,0.73647
1447.78697,0.72139
1446.29718,0.69413
1444.80739,0.67958
1443.31760,0.66506
1441.82781,0.64252
1440.33802,0.55747
1438.84824,0.53421
1437.35845,0.50748
1435.86866,0.52261
1434.37887,0.51568
1432.88908,0.55351
1431.39929,0.60337
1429.90951,0.69255
1428.41972,0.77421
1426.92993,0.82705
1425.44014,0.87003
1423.95035,0.88660
1422.46056,0.90320
1420.97078,0.94122
1419.48099,0.95951
1417.99120,0.94743
1416.50141,0.92608
1415.01162,0.88751
1413.52183,0.84685
1412.03204,0.80833
1410.54226,0.76268
1409.05247,0.73718
1407.56268,0.68383
1406.07289,0.59642
1404.58310,0.55929
1403.09331,0.52218
1401.60353,0.47105
1400.11374,0.40891
1398.62395,0.36596
1397.13416,0.30988
1395.64437,0.26078
1394.15458,0.20029
1392.66479,0.20081
1391.17501,0.17657
1389.68522,0.14675
1388.19543,0.11946
1386.70564,0.10856
1385.21585,0.09768
1383.72606,0.06272
1382.23628,0.04947
1380.74649,0.02269
1379.25670,0.03350
1377.76691,0.02109
1376.27712,0.01917
1374.78733,0.00352
1373.29755,0.01662
1371.80776,0.01250
1370.31797,0.01229
1368.82818,0.01703
1367.33839,0.02180
1365.84860,0.02320
1364.35881,0.02908
1362.86903,0.02085
1361.37924,0.05854
1359.88945,0.06198
1358.39966,0.09913
1356.90987,0.11210
1355.42008,0.16750
1353.93030,0.23958
1352.44051,0.27411
1350.95072,0.30867
1349.46093,0.36165
1347.97114,0.42628
1346.48135,0.51067
1344.99156,0.57379
1343.50178,0.61990
1342.01199,0.67668
1340.52220,0.73948
1339.03241,0.81683
1337.54262,0.84018
1336.05283,0.84342
1334.56305,0.84669
1333.07326,0.89703
1331.58347,0.91544
1330.09368,0.92884
1328.60389,0.91652
1327.11410,0.88698
1325.62432,0.85186
1324.13453,0.81908
1322.64474,0.77974
1321.15495,0.75069
1319.66516,0.73551
1318.17537,0.72035
1316.68558,0.64277
1315.19580,0.60259
1313.70601,0.54461
1312.21622,0.53313
1310.72643,0.48702
1309.23664,0.47597
1307.74685,0.43571
1306.25707,0.41523
1304.76728,0.39690
1303.27749,0.37859
1301.78770,0.30880
1300.29791,0.25607
1298.80812,0.22758
1297.31834,0.19407
1295.82855,0.17240
1294.33876,0.14339
1292.84897,0.11267
1291.35918,0.11082
1289.86939,0.10338
1288.37960,0.09596
1286.88982,0.08121
1285.40003,0.07519
1283.91024,0.08624
1282.42045,0.06943
1280.93066,0.06156
1279.44087,0.05351
1277.95109,0.04858
1276.46130,0.02993
1274.97151,0.03328
1273.48172,0.03666
1271.99193,0.04809
1270.50214,0.02644
1269.01235,0.02186
1267.52257,0.02310
1266.03278,0.02224
1264.54299,0.02198
1263.05320,0.02833
1261.56341,0.02193
1260.07362,0.01555
1258.58384,0.01500
1257.09405,0.01196
1255.60426,0.01785
1254.11447,0.01641
1252.62468,0.01266
1251.13489,0.00352
1249.64511,0.01214
1248.15532,0.01186
1246.66553,0.00852
1245.17574,0.00520
1243.68595,0.01637
1242.19616,0.01652
1240.70637,0.02270
1239.21659,0.01826
1237.72680,0.01326
1236.23701,0.02784
1234.74722,0.00352
1233.25743,0.00745
1231.76764,0.01141
1230.27786,0.02304
1228.78807,0.01300
1227.29828,0.01829
1225.80849,0.01082
1224.31870,0.00821
1222.82891,0.01125
1221.33912,0.02070
1219.84934,0.02523
1218.35955,0.02979
1216.86976,0.04919
1215.37997,0.07209
1213.89018,0.06191
1212.40039,0.08099
1210.91061,0.08441
1209.42082,0.08146
1207.93103,0.07767
1206.44124,0.07390
1204.95145,0.07083
1203.46166,0.07244
1201.97188,0.08568
1200.48209,0.07281
1198.99230,0.06655
1197.50251,0.06689
1196.01272,0.03744
1194.52293,0.03396
1193.03314,0.03050
1191.54336,0.02998
1190.05357,0.02483
1188.56378,0.02241
1187.07399,0.02079
1185.58420,0.01184
1184.09441,0.01724
1182.60463,0.01037
1181.11484,0.00352
1179.62505,0.00580
1178.13526,0.00577
1176.64547,0.00984
1175.15568,0.00851
1173.66589,0.00352
1172.17611,0.01122
1170.68632,0.00820
1169.19653,0.00520
1167.70674,0.02032
1166.21695,0.02696
1164.72716,0.02606
1163.23738,0.02712
1161.74759,0.03383
1160.25780,0.05663
1158.76801,0.05554
1157.27822,0.05447
1155.78843,0.07134
1154.29865,0.07933
1152.80886,0.08734
1151.31907,0.10002
1149.82928,0.10478
1148.33949,0.10628
1146.84970,0.11516
1145.35991,0.12407
1143.87013,0.13396
1142.38034,0.15008
1140.89055,0.15208
1139.40076,0.15489
1137.91097,0.15520
1136.42118,0.18071
1134.93140,0.18455
1133.44161,0.18842
1131.95182,0.19948
1130.46203,0.21578
1128.97224,0.22824
1127.48245,0.23724
1125.99266,0.22361
1124.50288,0.22936
1123.01309,0.22246
1121.52330,0.21558
1120.03351,0.22025
1118.54372,0.23558
1117.05393,0.23391
1115.56415,0.22141
1114.07436,0.23721
1112.58457,0.22893
1111.09478,0.22066
1109.60499,0.23247
1108.11520,0.21970
1106.62542,0.23659
1105.13563,0.21962
1103.64584,0.21486
1102.15605,0.21478
1100.66626,0.20901
1099.17647,0.20327
1097.68668,0.21139
1096.19690,0.19088
1094.70711,0.18317
1093.21732,0.19214
1091.72753,0.19281
1090.23774,0.18576
1088.74795,0.17873
1087.25817,0.19205
1085.76838,0.17752
1084.27859,0.18566
1082.78880,0.19809
1081.29901,0.20261
1079.80922,0.22089
1078.31943,0.22313
1076.82965,0.22540
1075.33986,0.23524
1073.85007,0.22302
1072.36028,0.25131
1070.87049,0.26335
1069.38070,0.28993
1067.89092,0.30473
1066.40113,0.31955
1064.91134,0.40353
1063.42155,0.46913
1061.93176,0.58665
1060.44197,0.68251
1058.95219,0.79969
1057.46240,0.84718
1055.97261,0.89470
1054.48282,1.00905
1052.99303,1.08276
1051.50324,1.09628
1050.01345,1.11465
1048.52367,1.08078
1047.03388,1.06280
1045.54409,1.04485
1044.05430,1.00775
1042.56451,0.90233
1041.07472,0.83837
1039.58494,0.74228
1038.09515,0.66888
1036.60536,0.63064
1035.11557,0.59243
1033.62578,0.54989
1032.13599,0.47058
1030.64620,0.38355
1029.15642,0.32965
1027.66663,0.30850
1026.17684,0.28738
1024.68705,0.24924
1023.19726,0.21131
1021.70747,0.18735
1020.21769,0.15684
1018.72790,0.14164
1017.23811,0.13751
1015.74832,0.13340
1014.25853,0.12040
1012.76874,0.10666
1011.27896,0.10533
1009.78917,0.08660
1008.29938,0.07041
1006.80959,0.06557
1005.31980,0.06075
1003.83001,0.05025
1002.34022,0.03648
1000.85044,0.04403
999.36065,0.05858
997.87086,0.05786
996.38107,0.05716
994.89128,0.08359
993.40149,0.08603
991.91171,0.10380
990.42192,0.13379
988.93213,0.16148
987.44234,0.16363
985.95255,0.16581
984.46276,0.15891
982.97297,0.14952
981.48319,0.12834
979.99340,0.09188
978.50361,0.08924
977.01382,0.08663
975.52403,0.06303
974.03424,0.06753
972.54446,0.04029
971.05467,0.03555
969.56488,0.00352
968.07509,0.00647
966.58530,0.00945
965.09551,0.01090
963.60573,0.00288
962.11594,0.00904
960.62615,0.00360
959.13636,0.00854
957.64657,0.01351
956.15678,0.01047
954.66699,0.02217
953.17721,0.01705
951.68742,0.02996
950.19763,0.02778
948.70784,0.02564
947.21805,0.03978
945.72826,0.04891
944.23848,0.07278
942.74869,0.09319
941.25890,0.12272
939.76911,0.12091
938.27932,0.11913
936.78953,0.15358
935.29974,0.16404
933.80996,0.16658
932.32017,0.18232
930.83038,0.18763
929.34059,0.19295
927.85080,0.20973
926.36101,0.23505
924.87123,0.27337
923.38144,0.31229
921.89165,0.34156
920.40186,0.37085
918.91207,0.48400
917.42228,0.59563
915.93250,0.73285
914.44271,0.95044
912.95292,1.05411
911.46313,1.15780
909.97334,1.37372
908.48355,1.56663
906.99376,1.74523
905.50398,1.89791
904.01419,1.94634
902.52440,1.99480
901.03461,2.00000
899.54482,1.93029
898.05503,1.81627
896.56525,1.63760
895.07546,1.50987
893.58567,1.38217
892.09588,1.10850
890.60609,0.86157
889.11630,0.65184
887.62651,0.50681
886.13673,0.44081
884.64694,0.37482
883.15715,0.27498
881.66736,0.20614
880.17757,0.15882
878.68778,0.12963
877.19800,0.10046
875.70821,0.07490
874.21842,0.05594
872.72863,0.04050
871.23884,0.03553
869.74905,0.02769
868.25927,0.01986
866.76948,0.02136
865.27969,0.02385
863.78990,0.04592
862.30011,0.05155
860.81032,0.05779
859.32053,0.06405
857.83075,0.08312
856.34096,0.10357
854.85117,0.12346
853.36138,0.14085
851.87159,0.14830
850.38180,0.15577
848.89202,0.19338
847.40223,0.20738
845.91244,0.21909
844.42265,0.22327
842.93286,0.22747
841.44307,0.23848
839.95329,0.28552
838.46350,0.29929
836.97371,0.30184
835.48392,0.30597
833.99413,0.31013
832.50434,0.31140
831.01455,0.28733
829.52477,0.27646
828.03498,0.26115
826.54519,0.24645
825.05540,0.23177
823.56561,0.19156
822.07582,0.18545
820.58604,0.15632
819.09625,0.15055
817.60646,0.14480
816.11667,0.13627
814.62688,0.15371
813.13709,0.15471
811.64730,0.17859
810.15752,0.17925
808.66773,0.17994
807.17794,0.19014
805.68815,0.19224
804.19836,0.18641
802.70857,0.17607
801.21879,0.16574
799.72900,0.16328
798.23921,0.14420
796.74942,0.14314
795.25963,0.15673
793.76984,0.17034
792.28006,0.18311
790.79027,0.16879
789.30048,0.18567
787.81069,0.24614
786.32090,0.25386
784.83111,0.26162
783.34132,0.27975
781.85154,0.34322
780.36175,0.39626
778.87196,0.41467
777.38217,0.43309
775.89238,0.43973
774.40259,0.44969
772.91281,0.43701
771.42302,0.43268
769.93323,0.42838
768.44344,0.37705
766.95365,0.31045
765.46386,0.25936
763.97407,0.20268
762.48429,0.18978
760.99450,0.17691
759.50471,0.16348
758.01492,0.13033
756.52513,0.11792
755.03534,0.11385
753.54556,0.10982
752.05577,0.09515
750.56598,0.07896
749.07619,0.05563
747.58640,0.05450
746.09661,0.05339
744.60683,0.03749
743.11704,0.03866
741.62725,0.01215
740.13746,0.01830
738.64767,0.02448
737.15788,0.02632
735.66809,0.00824
734.17831,0.00819
732.68852,0.00585
731.19873,0.00352
729.70894,0.00717
728.21915,0.01316
726.72936,0.02150
725.23958,0.01863
723.74979,0.01724
722.26000,0.01587
720.77021,0.01036
719.28042,0.00352
717.79063,0.01986
716.30084,0.01822
714.81106,0.01660
713.32127,0.02120
711.83148,0.03222
710.34169,0.03745
708.85190,0.03447
707.36211,0.03152
705.87233,0.03566
704.38254,0.03305
702.89275,0.04304
701.40296,0.04619
699.91317,0.04936
698.42338,0.06137
696.93360,0.08559
695.44381,0.09532
693.95402,0.09782
692.46423,0.10033
690.97444,0.12466
689.48465,0.13448
687.99486,0.16718
686.50508,0.17686
685.01529,0.18656
683.52550,0.20907
682.03571,0.21999
680.54592,0.23576
679.05613,0.25166
677.56635,0.26759
676.07656,0.27182
674.58677,0.26388
673.09698,0.23389
671.60719,0.21408
670.11740,0.19431
668.62761,0.18569
667.13783,0.15773
665.64804,0.14422
664.15825,0.13073
662.66846,0.11581
661.17867,0.08582
659.68888,0.06824
658.19910,0.05776
656.70931,0.04730
655.21952,0.04896
653.72973,0.03613
652.23994,0.04984
650.75015,0.05216
649.26037,0.05450
647.77058,0.05609
646.28079,0.05229
644.79100,0.04173
643.30121,0.03274
641.81142,0.02378
640.32163,0.04814
638.83185,0.05549
637.34206,0.03130
635.85227,0.01740
634.36248,0.00352
632.87269,0.00948
631.38290,0.01121
629.89312,0.01257
628.40333,0.01666
626.91354,0.02078
625.42375,0.01156
623.93396,0.02561
622.44417,0.02912
620.95438,0.03266
619.46460,0.04697
617.97481,0.04852
616.48502,0.07197
614.99523,0.07658
613.50544,0.08120
612.01565,0.11170
610.52587,0.14552
609.03608,0.17606
607.54629,0.19114
606.05650,0.20625
604.56671,0.27075
603.07692,0.32560
601.58714,0.35249
600.09735,0.37941
598.60756,0.41361
597.11777,0.43970
595.62798,0.44142
594.13819,0.44665
592.64840,0.45190
591.15862,0.38360
589.66883,0.31512
588.17904,0.28637
586.68925,0.25115
585.19946,0.21596
583.70967,0.16656
582.21989,0.12570
580.73010,0.11033
579.24031,0.09498
577.75052,0.07433
576.26073,0.05719
574.77094,0.03756
573.28115,0.04332
571.79137,0.04910
570.30158,0.05510
568.81179,0.05125
567.32200,0.06068
565.83221,0.07014
564.34242,0.09909
562.85264,0.11973
561.36285,0.13284
559.87306,0.14579
558.38327,0.15876
556.89348,0.16207
555.40369,0.20606
553.91391,0.20148
552.42412,0.19693
550.93433,0.20227
549.44454,0.21383
547.95475,0.22019
546.46496,0.22396
544.97517,0.22776
543.48539,0.25026
541.99560,0.28208
540.50581,0.30531
539.01602,0.32856
537.52623,0.36491
536.03644,0.42025
534.54666,0.40591
533.05687,0.42142
531.56708,0.43695
530.07729,0.49356
528.58750,0.55096
527.09771,0.58253
525.60792,0.61413
524.11814,0.65302
522.62835,0.70219
521.13856,0.76688
519.64877,0.79432
518.15898,0.82178
516.66919,0.83251
515.17941,0.83921
513.68962,0.84902
512.19983,0.85886
510.71004,0.85169
509.22025,0.78277
507.73046,0.73633
506.24068,0.66126
504.75089,0.58622
503.26110,0.48622
501.77131,0.38760
500.28152,0.34555
498.79173,0.30352
497.30194,0.24544
495.81216,0.17577
494.32237,0.15278
492.83258,0.12982
491.34279,0.11541
489.85300,0.07894
488.36321,0.06380
486.87343,0.06175
485.38364,0.05973
483.89385,0.08164
482.40406,0.08673
480.91427,0.10666
479.42448,0.12661
477.93469,0.16741
476.44491,0.19815
474.95512,0.20288
473.46533,0.20763
471.97554,0.20456
470.48575,0.20385
468.99596,0.22677
467.50618,0.21739
466.01639,0.20803
464.52660,0.15416
463.03681,0.14330
461.54702,0.11871
460.05723,0.09415
458.56745,0.06148
457.07766,0.04607
455.58787,0.05082
454.09808,0.05559
452.60829,0.04548
451.11850,0.01467
449.62871,0.01254
448.13893,0.01044
446.64914,0.00352
445.15935,0.00446
443.66956,0.02944
442.17977,0.02811
440.68998,0.02679
439.20020,0.02590
437.71041,0.02483
436.22062,0.02233
434.73083,0.01986
433.24104,0.02757
431.75125,0.03396
430.26146,0.03253
428.77168,0.03112
427.28189,0.04493
425.79210,0.04386
424.30231,0.03033
422.81252,0.01681
421.32273,0.01756
419.83295,0.03420
418.34316,0.03422
416.85337,0.03426
415.36358,0.01574
413.87379,0.02667
412.38400,0.03250
410.89422,0.03835
409.40443,0.03270
407.91464,0.02805
406.42485,0.03019
404.93506,0.02471
403.44527,0.01926
401.95548,0.03445
400.46570,0.02895
398.97591,0.03741
397.48612,0.04590
395.99633,0.02691
394.50654,0.01356
393.01675,0.01089
391.52697,0.00824
390.03718,0.01501
388.54739,0.02897
387.05760,0.01624
385.56781,0.00352
384.07802,0.01383
382.58824,0.03500
381.09845,0.03122
379.60866,0.02746
378.11887,0.03147
376.62908,0.03686
375.13929,0.03143
373.64950,0.02602
372.15972,0.04058
370.66993,0.02942
369.18014,0.02360
367.69035,0.01781
366.20056,0.03419
364.71077,0.03938
363.22099,0.04904
361.73120,0.05872
360.24141,0.08334
358.75162,0.10256
357.26183,0.10409
355.77204,0.10564
354.28225,0.09685
352.79247,0.09371
351.30268,0.07055
349.81289,0.04741
348.32310,0.07803
346.83331,0.07401
345.34352,0.07099
343.85374,0.06798
342.36395,0.06055
340.87416,0.02817
339.38437,0.03957
337.89458,0.05099
336.40479,0.02991
334.91501,0.03712
333.42522,0.03661
331.93543,0.03613
330.44564,0.00352
328.95585,0.01456
327.46606,0.02368
325.97627,0.03283
324.48649,0.03484
322.99670,0.03687
321.50691,0.03215
320.01712,0.02745
318.52733,0.06847
317.03754,0.03632
315.54776,0.03702
314.05797,0.03775
312.56818,0.05292
311.07839,0.07063
309.58860,0.06630
308.09881,0.06198
306.60902,0.04821
305.11924,0.01703
303.62945,0.01114
302.13966,0.00352
300.64987,0.00961
299.16008,0.00352
