1778.52000,0.01356
1777.03021,0.00604
1775.54042,0.01173
1774.05063,0.01169
1772.56085,0.00592
1771.07106,0.00617
1769.58127,0.01484
1768.09148,0.00721
1766.60169,0.00969
1765.11190,0.02083
1763.62212,0.01904
1762.13233,0.02351
1760.64254,0.01648
1759.15275,0.02460
1757.66296,0.01810
1756.17317,0.01378
1754.68339,0.01573
1753.19360,0.01458
1751.70381,0.00721
1750.21402,0.02119
1748.72423,0.01672
1747.23444,0.01947
1745.74465,0.02176
1744.25487,0.01304
1742.76508,0.02870
1741.27529,0.01943
1739.78550,0.02122
1738.29571,0.01631
1736.80592,0.03368
1735.31614,0.01916
1733.82635,0.01162
1732.33656,0.01778
1730.84677,0.01364
1729.35698,0.01913
1727.86719,0.00640
1726.37740,0.01098
1724.88762,0.01174
1723.39783,0.01540
1721.90804,0.00469
1720.41825,0.00936
1718.92846,0.01597
1717.43867,0.00821
1715.94889,0.00767
1714.45910,0.00955
1712.96931,0.01458
1711.47952,0.00380
1709.98973,0.00431
1708.49994,0.00629
1707.01016,0.00313
1705.52037,0.00000
1704.03058,0.00842
1702.54079,0.00174
1701.05100,0.01285
1699.56121,0.01270
1698.07142,0.01041
1696.58164,0.00479
1695.09185,0.01119
1693.60206,0.01089
1692.11227,0.00966
1690.62248,0.00725
1689.13269,0.00559
1687.64291,0.01323
1686.15312,0.00721
1684.66333,0.01493
1683.17354,0.01236
1681.68375,0.02468
1680.19396,0.01903
1678.70417,0.02565
1677.21439,0.02365
1675.72460,0.03439
1674.23481,0.03507
1672.74502,0.03266
1671.25523,0.04371
1669.76544,0.03727
1668.27566,0.04236
1666.78587,0.05564
1665.29608,0.04279
1663.80629,0.06068
1662.31650,0.06107
1660.82671,0.06293
1659.33693,0.05881
1657.84714,0.05735
1656.35735,0.05424
1654.86756,0.05235
1653.37777,0.06536
1651.88798,0.06040
1650.39819,0.06602
1648.90841,0.06831
1647.41862,0.05910
1645.92883,0.06659
1644.43904,0.07410
1642.94925,0.07024
1641.45946,0.08032
1639.96968,0.08635
1638.47989,0.08760
1636.99010,0.07663
1635.50031,0.07577
1634.01052,0.06269
1632.52073,0.07531
1631.03094,0.05748
1629.54116,0.07615
1628.05137,0.07493
1626.56158,0.06605
1625.07179,0.08454
1623.58200,0.09035
1622.09221,0.08226
1620.60243,0.08043
1619.11264,0.08558
1617.62285,0.08116
1616.13306,0.07125
1614.64327,0.07287
1613.15348,0.07932
1611.66370,0.07428
1610.17391,0.07789
1608.68412,0.07769
1607.19433,0.08327
1605.70454,0.07808
1604.21475,0.07975
1602.72496,0.08145
1601.23518,0.08088
1599.74539,0.07915
1598.25560,0.06783
1596.76581,0.07166
1595.27602,0.07455
1593.78623,0.08346
1592.29645,0.06889
1590.80666,0.06657
1589.31687,0.06092
1587.82708,0.07016
1586.33729,0.07560
1584.84750,0.06977
1583.35771,0.06829
1581.86793,0.07907
1580.37814,0.06564
1578.88835,0.06184
1577.39856,0.06669
1575.90877,0.05909
1574.41898,0.05487
1572.92920,0.04780
1571.43941,0.04699
1569.94962,0.04452
1568.45983,0.04207
1566.97004,0.02622
1565.48025,0.03174
1563.99047,0.02720
1562.50068,0.02917
1561.01089,0.01797
1559.52110,0.01614
1558.03131,0.02634
1556.54152,0.02169
1555.05173,0.02065
1553.56195,0.02228
1552.07216,0.01674
1550.58237,0.01794
1549.09258,0.00572
1547.60279,0.00600
1546.11300,0.00727
1544.62322,0.01240
1543.13343,0.01924
1541.64364,0.01266
1540.15385,0.01126
1538.66406,0.00988
1537.17427,0.00721
1535.68448,0.00973
1534.19470,0.01731
1532.70491,0.01100
1531.21512,0.01095
1529.72533,0.01020
1528.23554,0.01356
1526.74575,0.02942
1525.25597,0.02394
1523.76618,0.02905
1522.27639,0.02506
1520.78660,0.03165
1519.29681,0.03443
1517.80702,0.04059
1516.31724,0.03526
1514.82745,0.05610
1513.33766,0.04889
1511.84787,0.04171
1510.35808,0.05063
1508.86829,0.04901
1507.37850,0.04310
1505.88872,0.03649
1504.39893,0.02726
1502.90914,0.06101
1501.41935,0.06167
1499.92956,0.06308
1498.43977,0.08322
1496.94999,0.07987
1495.46020,0.06815
1493.97041,0.07876
1492.48062,0.08100
1490.99083,0.08207
1489.50104,0.10619
1488.01125,0.10982
1486.52147,0.11348
1485.03168,0.12279
1483.54189,0.14149
1482.05210,0.15470
1480.56231,0.18136
1479.07252,0.18189
1477.58274,0.19373
1476.09295,0.21062
1474.60316,0.20163
1473.11337,0.20849
1471.62358,0.21850
1470.13379,0.22493
1468.64401,0.23115
1467.15422,0.24507
1465.66443,0.25145
1464.17464,0.25786
1462.68485,0.28888
1461.19506,0.32953
1459.70527,0.37500
1458.21549,0.41881
1456.72570,0.48928
1455.23591,0.54778
1453.74612,0.59166
1452.25633,0.61877
1450.76654,0.65191
1449.27676,0.64355
1447.78697,0.63954
1446.29718,0.61396
1444.80739,0.59763
1443.31760,0.58133
1441.82781,0.56182
1440.33802,0.49962
1438.84824,0.50247
1437.35845,0.46718
1435.86866,0.46528
1434.37887,0.48403
1432.88908,0.52561
1431.39929,0.54033
1429.90951,0.58723
1428.41972,0.66655
1426.92993,0.73197
1425.44014,0.80653
1423.95035,0.82449
1422.46056,0.84247
1420.97078,0.91159
1419.48099,0.88811
1417.99120,0.90496
1416.50141,0.89617
1415.01162,0.83628
1413.52183,0.81290
1412.03204,0.75114
1410.54226,0.69061
1409.05247,0.64762
1407.56268,0.59217
1406.07289,0.55162
1404.58310,0.52166
1403.09331,0.49172
1401.60353,0.43973
1400.11374,0.40599
1398.62395,0.35261
1397.13416,0.31076
1395.64437,0.27518
1394.15458,0.22763
1392.66479,0.18753
1391.17501,0.15274
1389.68522,0.13789
1388.19543,0.11466
1386.70564,0.10406
1385.21585,0.09347
1383.72606,0.07008
1382.23628,0.05198
1380.74649,0.04231
1379.25670,0.03074
1377.76691,0.02520
1376.27712,0.02063
1374.78733,0.00721
1373.29755,0.02837
1371.80776,0.01116
1370.31797,0.01749
1368.82818,0.01329
1367.33839,0.00911
1365.84860,0.02391
1364.35881,0.04041
1362.86903,0.01686
1361.37924,0.04373
1359.88945,0.07110
1358.39966,0.08889
1356.90987,0.12639
1355.42008,0.17734
1353.93030,0.24056
1352.44051,0.27020
1350.95072,0.29987
1349.46093,0.34157
1347.97114,0.40080
1346.48135,0.49412
1344.99156,0.55916
1343.50178,0.63142
1342.01199,0.67875
1340.52220,0.74002
1339.03241,0.81450
1337.54262,0.81991
1336.05283,0.84298
1334.56305,0.86607
1333.07326,0.88906
1331.58347,0.91712
1330.09368,0.90513
1328.60389,0.88092
1327.11410,0.88097
1325.62432,0.84890
1324.13453,0.81541
1322.64474,0.78266
1321.15495,0.75449
1319.66516,0.74062
1318.17537,0.72678
1316.68558,0.66725
1315.19580,0.60846
1313.70601,0.58281
1312.21622,0.51952
1310.72643,0.48048
1309.23664,0.46665
1307.74685,0.41710
1306.25707,0.39325
1304.76728,0.37974
1303.27749,0.36625
1301.78770,0.32208
1300.29791,0.27024
1298.80812,0.22467
1297.31834,0.18896
1295.82855,0.14200
1294.33876,0.14377
1292.84897,0.10045
1291.35918,0.10227
1289.86939,0.10315
1288.37960,0.10406
1286.88982,0.09035
1285.40003,0.07858
1283.91024,0.05916
1282.42045,0.05632
1280.93066,0.05278
1279.44087,0.04951
1277.95109,0.04962
1276.46130,0.04399
1274.97151,0.04199
1273.48172,0.04001
1271.99193,0.03254
1270.50214,0.04236
1269.01235,0.03853
1267.52257,0.03809
1266.03278,0.02567
1264.54299,0.01183
1263.05320,0.01169
1261.56341,0.01182
1260.07362,0.01197
1258.58384,0.01167
1257.09405,0.01235
1255.60426,0.02457
1254.11447,0.01306
1252.62468,0.01908
1251.13489,0.01602
1249.64511,0.00721
1248.15532,0.01769
1246.66553,0.02110
1245.17574,0.02455
1243.68595,0.02669
1242.19616,0.02382
1240.70637,0.01257
1239.21659,0.01383
1237.72680,0.01439
1236.23701,0.02361
1234.74722,0.02302
1233.25743,0.02557
1231.76764,0.02814
1230.27786,0.03121
1228.78807,0.02520
1227.29828,0.03600
1225.80849,0.02907
1224.31870,0.00896
1222.82891,0.01168
1221.33912,0.00721
1219.84934,0.02024
1218.35955,0.03330
1216.86976,0.03234
1215.37997,0.05227
1213.89018,0.04920
1212.40039,0.06607
1210.91061,0.06904
1209.42082,0.06028
1207.93103,0.06462
1206.44124,0.06898
1204.95145,0.07541
1203.46166,0.06746
1201.97188,0.06385
1200.48209,0.05067
1198.99230,0.06079
1197.50251,0.07789
1196.01272,0.05183
1194.52293,0.04186
1193.03314,0.03192
1191.54336,0.01528
1190.05357,0.02002
1188.56378,0.01639
1187.07399,0.02814
1185.58420,0.03151
1184.09441,0.01499
1182.60463,0.01109
1181.11484,0.00721
1179.62505,0.03315
1178.13526,0.01759
1176.64547,0.01478
1175.15568,0.02566
1173.66589,0.01329
1172.17611,0.01751
1170.68632,0.01743
1169.19653,0.01737
1167.70674,0.01829
1166.21695,0.01924
1164.72716,0.03437
1163.23738,0.03897
1161.74759,0.03807
1160.25780,0.05831
1158.76801,0.06489
1157.27822,0.07150
1155.78843,0.08485
1154.29865,0.08575
1152.80886,0.10058
1151.31907,0.09961
1149.82928,0.10873
1148.33949,0.12292
1146.84970,0.12910
1145.35991,0.13529
1143.87013,0.12844
1142.38034,0.15112
1140.89055,0.16734
1139.40076,0.17759
1137.91097,0.19483
1136.42118,0.20440
1134.93140,0.20357
1133.44161,0.20275
1131.95182,0.22200
1130.46203,0.24391
1128.97224,0.24088
1127.48245,0.26836
1125.99266,0.23899
1124.50288,0.24348
1123.01309,0.24727
1121.52330,0.25108
1120.03351,0.24388
1118.54372,0.24630
1117.05393,0.24635
1115.56415,0.25577
1114.07436,0.25131
1112.58457,0.24662
1111.09478,0.24196
1109.60499,0.24885
1108.11520,0.23967
1106.62542,0.22717
1105.13563,0.23772
1103.64584,0.24373
1102.15605,0.22890
1100.66626,0.23016
1099.17647,0.23145
1097.68668,0.21884
1096.19690,0.21634
1094.70711,0.19346
1093.21732,0.21836
1091.72753,0.18953
1090.23774,0.17944
1088.74795,0.16937
1087.25817,0.18429
1085.76838,0.16827
1084.27859,0.18971
1082.78880,0.18501
1081.29901,0.16763
1079.80922,0.16130
1078.31943,0.17312
1076.82965,0.18495
1075.33986,0.19598
1073.85007,0.17511
1072.36028,0.18642
1070.87049,0.18383
1069.38070,0.21318
1067.89092,0.23272
1066.40113,0.25228
1064.91134,0.30234
1063.42155,0.36898
1061.93176,0.45891
1060.44197,0.50880
1058.95219,0.58895
1057.46240,0.63456
1055.97261,0.68020
1054.48282,0.79161
1052.99303,0.86153
1051.50324,0.88613
1050.01345,0.85148
1048.52367,0.84517
1047.03388,0.84488
1045.54409,0.84461
1044.05430,0.80862
1042.56451,0.75225
1041.07472,0.69639
1039.58494,0.66359
1038.09515,0.59001
1036.60536,0.55246
1035.11557,0.51493
1033.62578,0.46158
1032.13599,0.42985
1030.64620,0.36504
1029.15642,0.30936
1027.66663,0.28094
1026.17684,0.25255
1024.68705,0.21734
1023.19726,0.20015
1021.70747,0.16811
1020.21769,0.14473
1018.72790,0.12329
1017.23811,0.11927
1015.74832,0.11528
1014.25853,0.09919
1012.76874,0.09297
1011.27896,0.09180
1009.78917,0.09042
1008.29938,0.06603
1006.80959,0.06061
1005.31980,0.05523
1003.83001,0.02083
1002.34022,0.02508
1000.85044,0.03680
999.36065,0.03342
997.87086,0.04099
996.38107,0.04858
994.89128,0.05511
993.40149,0.06359
991.91171,0.07185
990.42192,0.08205
988.93213,0.09204
987.44234,0.09905
985.95255,0.10608
984.46276,0.10582
982.97297,0.10558
981.48319,0.07657
979.99340,0.07206
978.50361,0.06962
977.01382,0.06719
975.52403,0.05124
974.03424,0.03243
972.54446,0.03163
971.05467,0.01599
969.56488,0.00948
968.07509,0.01020
966.58530,0.01094
965.09551,0.01890
963.60573,0.00721
962.11594,0.00797
960.62615,0.02674
959.13636,0.02814
957.64657,0.02956
956.15678,0.02441
954.66699,0.04664
953.17721,0.05953
951.68742,0.04197
950.19763,0.04867
948.70784,0.05540
947.21805,0.07870
945.72826,0.08211
944.23848,0.09154
942.74869,0.13843
941.25890,0.13808
939.76911,0.15106
938.27932,0.16407
936.78953,0.16450
935.29974,0.18631
933.80996,0.19351
932.32017,0.19881
930.83038,0.20558
929.34059,0.21237
927.85080,0.23046
926.36101,0.25265
924.87123,0.29958
923.38144,0.34990
921.89165,0.36196
920.40186,0.37405
918.91207,0.47099
917.42228,0.60274
915.93250,0.75251
914.44271,0.93853
912.95292,1.04708
911.46313,1.15565
909.97334,1.38110
908.48355,1.59793
906.99376,1.79103
905.50398,1.89826
904.01419,1.94912
902.52440,2.00000
901.03461,1.96836
899.54482,1.93099
898.05503,1.83006
896.56525,1.68980
895.07546,1.56576
893.58567,1.44174
892.09588,1.19981
890.60609,0.94495
889.11630,0.69491
887.62651,0.50488
886.13673,0.44636
884.64694,0.38787
883.15715,0.25238
881.66736,0.18530
880.17757,0.13312
878.68778,0.11623
877.19800,0.09937
875.70821,0.07941
874.21842,0.05948
872.72863,0.04149
871.23884,0.03623
869.74905,0.03041
868.25927,0.02460
866.76948,0.03670
865.27969,0.02291
863.78990,0.00721
862.30011,0.02387
860.81032,0.03527
859.32053,0.04670
857.83075,0.06247
856.34096,0.07418
854.85117,0.07464
853.36138,0.10199
851.87159,0.09914
850.38180,0.09631
848.89202,0.11702
847.40223,0.12215
845.91244,0.14507
844.42265,0.14833
842.93286,0.15162
841.44307,0.18204
839.95329,0.19185
838.46350,0.19449
836.97371,0.19547
835.48392,0.18988
833.99413,0.18430
832.50434,0.20215
831.01455,0.18427
829.52477,0.19473
828.03498,0.16969
826.54519,0.15884
825.05540,0.14801
823.56561,0.13865
822.07582,0.10627
820.58604,0.09287
819.09625,0.09546
817.60646,0.09806
816.11667,0.08570
814.62688,0.09135
813.13709,0.10158
811.64730,0.08737
810.15752,0.09573
808.66773,0.10412
807.17794,0.11276
805.68815,0.11736
804.19836,0.10950
802.70857,0.11450
801.21879,0.11952
799.72900,0.10118
798.23921,0.08957
796.74942,0.08399
795.25963,0.09139
793.76984,0.09881
792.28006,0.09881
790.79027,0.10916
789.30048,0.12889
787.81069,0.13857
786.32090,0.15750
784.83111,0.17646
783.34132,0.20637
781.85154,0.23125
780.36175,0.28231
778.87196,0.28961
777.38217,0.29693
775.89238,0.30416
774.40259,0.32484
772.91281,0.29684
771.42302,0.28578
769.93323,0.27474
768.44344,0.25041
766.95365,0.22226
765.46386,0.18406
763.97407,0.16412
762.48429,0.14096
760.99450,0.11782
759.50471,0.11331
758.01492,0.09082
756.52513,0.09475
755.03534,0.08767
753.54556,0.08061
752.05577,0.07117
750.56598,0.05816
749.07619,0.03773
747.58640,0.04312
746.09661,0.04854
744.60683,0.02290
743.11704,0.02896
741.62725,0.00721
740.13746,0.00985
738.64767,0.01252
737.15788,0.01676
735.66809,0.01719
734.17831,0.01620
732.68852,0.01848
731.19873,0.02078
729.70894,0.00691
728.21915,0.00749
726.72936,0.01207
725.23958,0.00947
723.74979,0.01410
722.26000,0.01874
720.77021,0.00806
719.28042,0.01588
717.79063,0.00524
716.30084,0.00651
714.81106,0.00780
713.32127,0.01044
711.83148,0.01118
710.34169,0.02131
708.85190,0.02161
707.36211,0.02195
705.87233,0.02326
704.38254,0.03012
702.89275,0.04228
701.40296,0.04931
699.91317,0.05635
698.42338,0.05827
696.93360,0.06644
695.44381,0.08784
693.95402,0.10242
692.46423,0.11702
690.97444,0.11545
689.48465,0.13670
687.99486,0.16302
686.50508,0.17639
685.01529,0.18980
683.52550,0.20562
682.03571,0.23011
680.54592,0.26182
679.05613,0.25768
677.56635,0.25356
676.07656,0.24503
674.58677,0.26100
673.09698,0.24027
671.60719,0.22317
670.11740,0.20610
668.62761,0.17633
667.13783,0.16578
665.64804,0.15105
664.15825,0.13635
662.66846,0.10619
661.17867,0.07030
659.68888,0.06131
658.19910,0.04742
656.70931,0.03356
655.21952,0.03783
653.72973,0.03397
652.23994,0.02462
650.75015,0.02692
649.26037,0.02925
647.77058,0.02596
646.28079,0.04382
644.79100,0.03122
643.30121,0.02896
641.81142,0.02673
640.32163,0.02836
638.83185,0.02090
637.34206,0.01850
635.85227,0.01408
634.36248,0.00968
632.87269,0.02060
631.38290,0.01353
629.89312,0.00721
628.40333,0.00749
626.91354,0.00779
625.42375,0.01327
623.93396,0.00558
622.44417,0.01159
620.95438,0.01762
619.46460,0.02991
617.97481,0.05063
616.48502,0.06993
614.99523,0.07258
613.50544,0.07525
612.01565,0.11453
610.52587,0.14233
609.03608,0.18430
607.54629,0.20206
606.05650,0.21985
604.56671,0.26357
603.07692,0.30827
601.58714,0.33957
600.09735,0.37088
598.60756,0.42094
597.11777,0.42975
595.62798,0.42898
594.13819,0.41624
592.64840,0.40352
591.15862,0.35916
589.66883,0.32249
588.17904,0.24746
586.68925,0.23580
585.19946,0.22416
583.70967,0.16407
582.21989,0.13664
580.73010,0.11380
579.24031,0.09097
577.75052,0.06985
576.26073,0.07635
574.77094,0.03584
573.28115,0.04047
571.79137,0.04512
570.30158,0.03899
568.81179,0.04657
567.32200,0.05548
565.83221,0.06443
564.34242,0.08863
562.85264,0.10734
561.36285,0.12631
559.87306,0.13222
558.38327,0.13816
556.89348,0.12793
555.40369,0.14267
553.91391,0.14185
552.42412,0.14104
550.93433,0.16618
549.44454,0.16038
547.95475,0.17644
546.46496,0.18041
544.97517,0.18440
543.48539,0.22405
541.99560,0.21046
540.50581,0.24151
539.01602,0.27259
537.52623,0.30706
536.03644,0.36314
534.54666,0.38157
533.05687,0.39919
531.56708,0.41683
530.07729,0.47421
528.58750,0.56568
527.09771,0.58987
525.60792,0.61408
524.11814,0.68187
522.62835,0.72521
521.13856,0.75921
519.64877,0.80655
518.15898,0.85392
516.66919,0.86688
515.17941,0.85466
513.68962,0.86287
512.19983,0.87110
510.71004,0.83208
509.22025,0.81156
507.73046,0.75484
506.24068,0.69825
504.75089,0.64169
503.26110,0.50442
501.77131,0.38636
500.28152,0.34007
498.79173,0.29380
497.30194,0.21420
495.81216,0.17830
494.32237,0.15334
492.83258,0.12840
491.34279,0.08993
489.85300,0.09083
488.36321,0.07208
486.87343,0.07735
485.38364,0.08264
483.89385,0.06732
482.40406,0.06811
480.91427,0.07767
479.42448,0.08725
477.93469,0.11498
476.44491,0.13169
474.95512,0.12911
473.46533,0.12655
471.97554,0.16037
470.48575,0.14623
468.99596,0.15586
467.50618,0.15027
466.01639,0.14472
464.52660,0.11962
463.03681,0.08592
461.54702,0.07515
460.05723,0.06441
458.56745,0.04229
457.07766,0.01948
455.58787,0.02704
454.09808,0.03463
452.60829,0.02772
451.11850,0.02228
449.62871,0.01734
448.13893,0.01242
446.64914,0.00849
445.15935,0.00721
443.66956,0.01437
442.17977,0.01711
440.68998,0.01987
439.20020,0.00862
437.71041,0.02571
436.22062,0.02242
434.73083,0.01916
433.24104,0.02720
431.75125,0.02783
430.26146,0.03255
428.77168,0.03731
427.28189,0.03344
425.79210,0.01808
424.30231,0.02315
422.81252,0.02823
421.32273,0.01222
419.83295,0.01448
418.34316,0.01471
416.85337,0.01497
415.36358,0.03337
413.87379,0.02156
412.38400,0.01697
410.89422,0.01241
409.40443,0.02490
407.91464,0.04534
406.42485,0.04157
404.93506,0.02438
403.44527,0.00721
401.95548,0.01705
400.46570,0.03940
398.97591,0.03405
397.48612,0.02872
395.99633,0.03122
394.50654,0.03254
393.01675,0.02872
391.52697,0.02493
390.03718,0.03544
388.54739,0.03325
387.05760,0.02545
385.56781,0.01767
384.07802,0.00860
382.58824,0.01620
381.09845,0.02370
379.60866,0.03122
378.11887,0.03481
376.62908,0.04370
375.13929,0.03078
373.64950,0.01788
372.15972,0.03188
370.66993,0.01615
369.18014,0.01167
367.69035,0.00721
366.20056,0.02270
364.71077,0.03462
363.22099,0.02280
361.73120,0.01100
360.24141,0.03306
358.75162,0.03331
357.26183,0.02939
355.77204,0.02549
354.28225,0.03348
352.79247,0.03455
351.30268,0.04427
349.81289,0.05402
348.32310,0.04100
346.83331,0.03232
345.34352,0.02594
343.85374,0.01959
342.36395,0.02226
340.87416,0.01751
339.38437,0.02286
337.89458,0.02824
336.40479,0.03364
334.91501,0.01675
333.42522,0.01704
331.93543,0.01735
330.44564,0.02981
328.95585,0.02021
327.46606,0.01987
325.97627,0.01956
324.48649,0.05050
322.99670,0.05099
321.50691,0.05306
320.01712,0.05516
318.52733,0.06196
317.03754,0.09469
315.54776,0.09230
314.05797,0.08993
312.56818,0.07427
311.07839,0.08334
309.58860,0.07193
308.09881,0.06053
306.60902,0.08455
305.11924,0.04933
303.62945,0.03837
302.13966,0.02743
300.64987,0.00721
299.16008,0.00721
