1778.52000,0.00000
1777.03021,0.00886
1775.54042,0.00613
1774.05063,0.00518
1772.56085,0.00667
1771.07106,0.00599
1769.58127,0.00817
1768.09148,0.00864
1766.60169,0.00583
1765.11190,0.01489
1763.62212,0.01871
1762.13233,0.02846
1760.64254,0.01678
1759.15275,0.02264
1757.66296,0.01713
1756.17317,0.01976
1754.68339,0.02350
1753.19360,0.02114
1751.70381,0.01967
1750.21402,0.01407
1748.72423,0.01965
1747.23444,0.02088
1745.74465,0.02804
1744.25487,0.02078
1742.76508,0.02930
1741.27529,0.03107
1739.78550,0.02080
1738.29571,0.02546
1736.80592,0.02861
1735.31614,0.02017
1733.82635,0.01877
1732.33656,0.01848
1730.84677,0.02348
1729.35698,0.01733
1727.86719,0.01186
1726.37740,0.02605
1724.88762,0.01813
1723.39783,0.01507
1721.90804,0.01750
1720.41825,0.01535
1718.92846,0.01345
1717.43867,0.01420
1715.94889,0.01673
1714.45910,0.01775
1712.96931,0.01616
1711.47952,0.01613
1709.98973,0.00605
1708.49994,0.01221
1707.01016,0.00918
1705.52037,0.00618
1704.03058,0.00583
1702.54079,0.02041
1701.05100,0.01156
1699.56121,0.01764
1698.07142,0.02155
1696.58164,0.01957
1695.09185,0.01499
1693.60206,0.02686
1692.11227,0.01553
1690.62248,0.02109
1689.13269,0.01836
1687.64291,0.03010
1686.15312,0.02040
1684.66333,0.03220
1683.17354,0.03087
1681.68375,0.03439
1680.19396,0.03508
1678.70417,0.04171
1677.21439,0.05428
1675.72460,0.04476
1674.23481,0.05365
1672.74502,0.04702
1671.25523,0.05004
1669.76544,0.06317
1668.27566,0.06932
1666.78587,0.06365
1665.29608,0.06963
1663.80629,0.07431
1662.31650,0.07857
1660.82671,0.08374
1659.33693,0.09507
1657.84714,0.08517
1656.35735,0.07989
1654.86756,0.08779
1653.37777,0.07402
1651.88798,0.08919
1650.39819,0.08883
1648.90841,0.08937
1647.41862,0.09234
1645.92883,0.08439
1644.43904,0.07646
1642.94925,0.07994
1641.45946,0.10031
1639.96968,0.10231
1638.47989,0.09382
1636.99010,0.08119
1635.50031,0.07472
1634.01052,0.07616
1632.52073,0.08419
1631.03094,0.08130
1629.54116,0.07842
1628.05137,0.08040
1626.56158,0.08721
1625.07179,0.09997
1623.58200,0.10332
1622.09221,0.09816
1620.60243,0.08996
1619.11264,0.09996
1617.62285,0.09378
1616.13306,0.08784
1614.64327,0.07381
1613.15348,0.10231
1611.66370,0.08746
1610.17391,0.09761
1608.68412,0.08346
1607.19433,0.09628
1605.70454,0.07956
1604.21475,0.08542
1602.72496,0.09130
1601.23518,0.08495
1599.74539,0.08212
1598.25560,0.08238
1596.76581,0.07960
1595.27602,0.07837
1593.78623,0.07170
1592.29645,0.08279
1590.80666,0.08207
1589.31687,0.08357
1587.82708,0.08838
1586.33729,0.07986
1584.84750,0.07486
1583.35771,0.08303
1581.86793,0.07742
1580.37814,0.07468
1578.88835,0.07219
1577.39856,0.07979
1575.90877,0.06377
1574.41898,0.05127
1572.92920,0.05063
1571.43941,0.05548
1569.94962,0.04842
1568.45983,0.04139
1566.97004,0.04347
1565.48025,0.03746
1563.99047,0.04354
1562.50068,0.04810
1561.01089,0.03757
1559.52110,0.02400
1558.03131,0.02994
1556.54152,0.02693
1555.05173,0.03402
1553.56195,0.01485
1552.07216,0.03820
1550.58237,0.02828
1549.09258,0.02013
1547.60279,0.00456
1546.11300,0.00829
1544.62322,0.01226
1543.13343,0.02196
1541.64364,0.01700
1540.15385,0.01140
1538.66406,0.00583
1537.17427,0.02089
1535.68448,0.01472
1534.19470,0.01822
1532.70491,0.01451
1531.21512,0.00644
1529.72533,0.01767
1528.23554,0.01338
1526.74575,0.02094
1525.25597,0.02611
1523.76618,0.01619
1522.27639,0.02097
1520.78660,0.02600
1519.29681,0.03302
1517.80702,0.02955
1516.31724,0.03574
1514.82745,0.03495
1513.33766,0.03768
1511.84787,0.04044
1510.35808,0.04454
1508.86829,0.04231
1507.37850,0.03703
1505.88872,0.03595
1504.39893,0.03379
1502.90914,0.03888
1501.41935,0.05802
1499.92956,0.05462
1498.43977,0.06898
1496.94999,0.05731
1495.46020,0.05704
1493.97041,0.08003
1492.48062,0.08770
1490.99083,0.08291
1489.50104,0.09698
1488.01125,0.10220
1486.52147,0.10745
1485.03168,0.12422
1483.54189,0.14255
1482.05210,0.16332
1480.56231,0.18323
1479.07252,0.18148
1477.58274,0.21458
1476.09295,0.21682
1474.60316,0.21186
1473.11337,0.22882
1471.62358,0.24034
1470.13379,0.24727
1468.64401,0.23758
1467.15422,0.26100
1465.66443,0.26866
1464.17464,0.27635
1462.68485,0.28538
1461.19506,0.30867
1459.70527,0.38872
1458.21549,0.44032
1456.72570,0.52502
1455.23591,0.56593
1453.74612,0.61343
1452.25633,0.65877
1450.76654,0.63623
1449.27676,0.64854
1447.78697,0.65277
1446.29718,0.63380
1444.80739,0.62494
1443.31760,0.61610
1441.82781,0.54638
1440.33802,0.51196
1438.84824,0.49640
1437.35845,0.49576
1435.86866,0.46929
1434.37887,0.49104
1432.88908,0.50537
1431.39929,0.51950
1429.90951,0.59521
1428.41972,0.67686
1426.92993,0.74517
1425.44014,0.80913
1423.95035,0.83806
1422.46056,0.86701
1420.97078,0.89095
1419.48099,0.90396
1417.99120,0.88611
1416.50141,0.88931
1415.01162,0.86865
1413.52183,0.82042
1412.03204,0.73673
1410.54226,0.68964
1409.05247,0.64806
1407.56268,0.60649
1406.07289,0.56759
1404.58310,0.53998
1403.09331,0.51240
1401.60353,0.44991
1400.11374,0.38437
1398.62395,0.34251
1397.13416,0.30221
1395.64437,0.24573
1394.15458,0.21117
1392.66479,0.17905
1391.17501,0.15790
1389.68522,0.11422
1388.19543,0.09531
1386.70564,0.08618
1385.21585,0.07707
1383.72606,0.06875
1382.23628,0.03658
1380.74649,0.03115
1379.25670,0.02334
1377.76691,0.01402
1376.27712,0.01043
1374.78733,0.00488
1373.29755,0.00702
1371.80776,0.01510
1370.31797,0.01357
1368.82818,0.01261
1367.33839,0.01168
1365.84860,0.00583
1364.35881,0.02502
1362.86903,0.02737
1361.37924,0.04004
1359.88945,0.07967
1358.39966,0.10137
1356.90987,0.13075
1355.42008,0.16389
1353.93030,0.22837
1352.44051,0.25640
1350.95072,0.28446
1349.46093,0.32624
1347.97114,0.38468
1346.48135,0.46637
1344.99156,0.54918
1343.50178,0.65085
1342.01199,0.65836
1340.52220,0.72875
1339.03241,0.79566
1337.54262,0.81835
1336.05283,0.84315
1334.56305,0.86796
1333.07326,0.90474
1331.58347,0.91417
1330.09368,0.88155
1328.60389,0.90176
1327.11410,0.87314
1325.62432,0.82022
1324.13453,0.79537
1322.64474,0.76923
1321.15495,0.74881
1319.66516,0.71516
1318.17537,0.68154
1316.68558,0.64936
1315.19580,0.59618
1313.70601,0.58902
1312.21622,0.53216
1310.72643,0.49614
1309.23664,0.43911
1307.74685,0.41299
1306.25707,0.37791
1304.76728,0.36707
1303.27749,0.35624
1301.78770,0.31554
1300.29791,0.27027
1298.80812,0.19939
1297.31834,0.16708
1295.82855,0.15167
1294.33876,0.12862
1292.84897,0.09814
1291.35918,0.09638
1289.86939,0.09902
1288.37960,0.10169
1286.88982,0.08117
1285.40003,0.06877
1283.91024,0.05771
1282.42045,0.05259
1280.93066,0.03786
1279.44087,0.03651
1277.95109,0.03475
1276.46130,0.02622
1274.97151,0.02867
1273.48172,0.03114
1271.99193,0.02203
1270.50214,0.04361
1269.01235,0.03586
1267.52257,0.02681
1266.03278,0.01648
1264.54299,0.01012
1263.05320,0.01122
1261.56341,0.01279
1260.07362,0.01439
1258.58384,0.00790
1257.09405,0.01896
1255.60426,0.01186
1254.11447,0.01202
1252.62468,0.01198
1251.13489,0.00758
1249.64511,0.00890
1248.15532,0.00916
1246.66553,0.01327
1245.17574,0.01740
1243.68595,0.02101
1242.19616,0.01851
1240.70637,0.00289
1239.21659,0.00578
1237.72680,0.01066
1236.23701,0.02784
1234.74722,0.03036
1233.25743,0.02589
1231.76764,0.02145
1230.27786,0.03851
1228.78807,0.04222
1227.29828,0.03522
1225.80849,0.03066
1224.31870,0.00860
1222.82891,0.00583
1221.33912,0.02359
1219.84934,0.02242
1218.35955,0.02128
1216.86976,0.03910
1215.37997,0.03615
1213.89018,0.06979
1212.40039,0.06601
1210.91061,0.06049
1209.42082,0.08501
1207.93103,0.07724
1206.44124,0.06950
1204.95145,0.05904
1203.46166,0.05671
1201.97188,0.06032
1200.48209,0.03921
1198.99230,0.05798
1197.50251,0.06429
1196.01272,0.04872
1194.52293,0.03547
1193.03314,0.02225
1191.54336,0.02296
1190.05357,0.01187
1188.56378,0.00583
1187.07399,0.01591
1185.58420,0.01243
1184.09441,0.01882
1182.60463,0.01769
1181.11484,0.01658
1179.62505,0.01100
1178.13526,0.01421
1176.64547,0.02095
1175.15568,0.00536
1173.66589,0.01675
1172.17611,0.00538
1170.68632,0.00927
1169.19653,0.01318
1167.70674,0.00583
1166.21695,0.01001
1164.72716,0.02012
1163.23738,0.02324
1161.74759,0.03669
1160.25780,0.03789
1158.76801,0.05346
1157.27822,0.06906
1155.78843,0.07625
1154.29865,0.07864
1152.80886,0.08784
1151.31907,0.08985
1149.82928,0.09976
1148.33949,0.12328
1146.84970,0.11046
1145.35991,0.09766
1143.87013,0.13286
1142.38034,0.12975
1140.89055,0.14703
1139.40076,0.16347
1137.91097,0.17204
1136.42118,0.19049
1134.93140,0.19396
1133.44161,0.19745
1131.95182,0.20919
1130.46203,0.21963
1128.97224,0.26055
1127.48245,0.23358
1125.99266,0.23139
1124.50288,0.22441
1123.01309,0.22511
1121.52330,0.22584
1120.03351,0.23799
1118.54372,0.24424
1117.05393,0.25118
1115.56415,0.24499
1114.07436,0.23949
1112.58457,0.24025
1111.09478,0.24104
1109.60499,0.24306
1108.11520,0.24094
1106.62542,0.22920
1105.13563,0.20238
1103.64584,0.21347
1102.15605,0.23489
1100.66626,0.22807
1099.17647,0.22127
1097.68668,0.19741
1096.19690,0.20446
1094.70711,0.21242
1093.21732,0.18732
1091.72753,0.17626
1090.23774,0.17738
1088.74795,0.17853
1087.25817,0.17631
1085.76838,0.18594
1084.27859,0.19581
1082.78880,0.17088
1081.29901,0.17204
1079.80922,0.15526
1078.31943,0.17060
1076.82965,0.18596
1075.33986,0.17253
1073.85007,0.18389
1072.36028,0.17533
1070.87049,0.18170
1069.38070,0.21372
1067.89092,0.23295
1066.40113,0.25220
1064.91134,0.32438
1063.42155,0.37796
1061.93176,0.47516
1060.44197,0.54040
1058.95219,0.61180
1057.46240,0.65956
1055.97261,0.70735
1054.48282,0.78889
1052.99303,0.87353
1051.50324,0.92490
1050.01345,0.88538
1048.52367,0.89320
1047.03388,0.89031
1045.54409,0.88744
1044.05430,0.83948
1042.56451,0.77883
1041.07472,0.72040
1039.58494,0.65914
1038.09515,0.58936
1036.60536,0.55937
1035.11557,0.52940
1033.62578,0.47021
1032.13599,0.41017
1030.64620,0.36570
1029.15642,0.31622
1027.66663,0.29316
1026.17684,0.27013
1024.68705,0.23058
1023.19726,0.19040
1021.70747,0.17390
1020.21769,0.15391
1018.72790,0.12760
1017.23811,0.12892
1015.74832,0.13026
1014.25853,0.13118
1012.76874,0.11132
1011.27896,0.11032
1009.78917,0.10935
1008.29938,0.08430
1006.80959,0.06968
1005.31980,0.05509
1003.83001,0.03033
1002.34022,0.02795
1000.85044,0.03062
999.36065,0.04580
997.87086,0.04896
996.38107,0.05215
994.89128,0.06083
993.40149,0.06319
991.91171,0.07214
990.42192,0.07871
988.93213,0.09932
987.44234,0.10845
985.95255,0.11761
984.46276,0.10850
982.97297,0.10905
981.48319,0.09517
979.99340,0.08350
978.50361,0.07219
977.01382,0.06090
975.52403,0.06135
974.03424,0.04168
972.54446,0.03714
971.05467,0.02540
969.56488,0.01981
968.07509,0.01984
966.58530,0.01989
965.09551,0.00583
963.60573,0.01694
962.11594,0.02830
960.62615,0.03442
959.13636,0.03300
957.64657,0.03161
956.15678,0.03561
954.66699,0.04862
953.17721,0.06012
951.68742,0.05148
950.19763,0.06007
948.70784,0.06868
947.21805,0.06889
945.72826,0.08664
944.23848,0.11011
942.74869,0.12265
941.25890,0.14463
939.76911,0.15700
938.27932,0.16940
936.78953,0.18751
935.29974,0.17498
933.80996,0.19226
932.32017,0.20716
930.83038,0.20226
929.34059,0.19739
927.85080,0.23580
926.36101,0.24619
924.87123,0.30086
923.38144,0.32752
921.89165,0.36372
920.40186,0.39995
918.91207,0.48451
917.42228,0.59954
915.93250,0.74701
914.44271,0.92124
912.95292,1.03743
911.46313,1.15365
909.97334,1.35270
908.48355,1.60325
906.99376,1.74714
905.50398,1.86916
904.01419,1.93457
902.52440,2.00000
901.03461,1.99197
899.54482,1.93291
898.05503,1.82657
896.56525,1.66614
895.07546,1.56062
893.58567,1.45511
892.09588,1.22444
890.60609,0.94998
889.11630,0.70599
887.62651,0.50278
886.13673,0.43124
884.64694,0.35972
883.15715,0.26698
881.66736,0.18171
880.17757,0.12100
878.68778,0.10533
877.19800,0.08968
875.70821,0.08140
874.21842,0.05233
872.72863,0.03993
871.23884,0.02361
869.74905,0.02791
868.25927,0.03223
866.76948,0.02562
865.27969,0.02452
863.78990,0.01905
862.30011,0.03552
860.81032,0.04423
859.32053,0.05297
857.83075,0.06907
856.34096,0.07950
854.85117,0.06958
853.36138,0.08115
851.87159,0.09483
850.38180,0.10853
848.89202,0.10309
847.40223,0.12198
845.91244,0.15426
844.42265,0.16839
842.93286,0.18254
841.44307,0.17043
839.95329,0.18988
838.46350,0.20082
836.97371,0.21747
835.48392,0.20808
833.99413,0.19872
832.50434,0.21851
831.01455,0.20372
829.52477,0.19552
828.03498,0.17618
826.54519,0.16803
825.05540,0.15990
823.56561,0.12902
822.07582,0.12642
820.58604,0.10851
819.09625,0.09960
817.60646,0.09072
816.11667,0.10355
814.62688,0.09647
813.13709,0.09204
811.64730,0.08632
810.15752,0.09563
808.66773,0.10496
807.17794,0.10107
805.68815,0.11757
804.19836,0.09927
802.70857,0.10563
801.21879,0.11202
799.72900,0.11613
798.23921,0.09639
796.74942,0.09069
795.25963,0.08951
793.76984,0.08835
792.28006,0.10550
790.79027,0.10735
789.30048,0.12740
787.81069,0.14792
786.32090,0.16199
784.83111,0.17609
783.34132,0.19164
781.85154,0.23372
780.36175,0.28392
778.87196,0.29571
777.38217,0.30752
775.89238,0.29997
774.40259,0.32683
772.91281,0.31034
771.42302,0.30516
769.93323,0.30001
768.44344,0.28031
766.95365,0.23018
765.46386,0.20046
763.97407,0.17031
762.48429,0.15520
760.99450,0.14011
759.50471,0.11859
758.01492,0.10606
756.52513,0.07560
755.03534,0.07726
753.54556,0.07894
752.05577,0.06827
750.56598,0.06682
749.07619,0.04086
747.58640,0.04011
746.09661,0.03939
744.60683,0.02862
743.11704,0.02598
741.62725,0.00583
740.13746,0.00841
738.64767,0.01102
737.15788,0.00784
735.66809,0.01695
734.17831,0.01623
732.68852,0.01137
731.19873,0.00653
729.70894,0.02056
728.21915,0.01205
726.72936,0.01736
725.23958,0.00583
723.74979,0.00756
722.26000,0.00931
720.77021,0.01317
719.28042,0.02756
717.79063,0.00912
716.30084,0.00681
714.81106,0.00452
713.32127,0.00302
711.83148,0.01024
710.34169,0.01880
708.85190,0.02256
707.36211,0.02635
705.87233,0.04221
704.38254,0.03378
702.89275,0.04136
701.40296,0.05007
699.91317,0.05880
698.42338,0.05068
696.93360,0.07041
695.44381,0.09170
693.95402,0.10260
692.46423,0.11353
690.97444,0.10510
689.48465,0.14422
687.99486,0.16913
686.50508,0.18311
685.01529,0.19712
683.52550,0.20261
682.03571,0.23528
680.54592,0.25089
679.05613,0.25360
677.56635,0.25634
676.07656,0.25976
674.58677,0.25860
673.09698,0.22767
671.60719,0.22229
670.11740,0.21693
668.62761,0.17271
667.13783,0.14823
665.64804,0.14086
664.15825,0.13352
662.66846,0.11108
661.17867,0.08692
659.68888,0.07088
658.19910,0.05695
656.70931,0.04305
655.21952,0.04746
653.72973,0.03634
652.23994,0.05394
650.75015,0.05065
649.26037,0.04737
647.77058,0.04687
646.28079,0.05098
644.79100,0.04614
643.30121,0.03891
641.81142,0.03171
640.32163,0.03592
638.83185,0.03315
637.34206,0.03806
635.85227,0.03315
634.36248,0.02825
632.87269,0.02098
631.38290,0.00583
629.89312,0.02027
628.40333,0.01917
626.91354,0.01810
625.42375,0.02385
623.93396,0.01844
622.44417,0.02533
620.95438,0.03224
619.46460,0.06130
617.97481,0.07746
616.48502,0.07611
614.99523,0.08312
613.50544,0.09015
612.01565,0.11101
610.52587,0.13868
609.03608,0.19134
607.54629,0.20252
606.05650,0.21373
604.56671,0.23930
603.07692,0.31375
601.58714,0.34507
600.09735,0.37641
598.60756,0.41698
597.11777,0.42712
595.62798,0.41232
594.13819,0.41517
592.64840,0.41804
591.15862,0.38447
589.66883,0.32573
588.17904,0.27249
586.68925,0.24217
585.19946,0.21187
583.70967,0.17579
582.21989,0.14104
580.73010,0.11848
579.24031,0.09594
577.75052,0.07858
576.26073,0.08599
574.77094,0.06867
573.28115,0.05806
571.79137,0.04747
570.30158,0.06396
568.81179,0.05725
567.32200,0.06853
565.83221,0.07984
564.34242,0.09379
562.85264,0.11588
561.36285,0.12485
559.87306,0.14775
558.38327,0.17067
556.89348,0.15189
555.40369,0.15613
553.91391,0.15941
552.42412,0.16272
550.93433,0.17601
549.44454,0.18780
547.95475,0.21582
546.46496,0.21835
544.97517,0.22089
543.48539,0.21788
541.99560,0.23724
540.50581,0.25169
539.01602,0.26616
537.52623,0.30311
536.03644,0.36331
534.54666,0.39746
533.05687,0.41827
531.56708,0.43911
530.07729,0.47027
528.58750,0.56103
527.09771,0.58260
525.60792,0.60419
524.11814,0.67290
522.62835,0.70133
521.13856,0.79834
519.64877,0.81401
518.15898,0.82969
516.66919,0.84179
515.17941,0.82236
513.68962,0.83549
512.19983,0.84865
510.71004,0.82995
509.22025,0.75389
507.73046,0.72122
506.24068,0.67116
504.75089,0.62113
503.26110,0.49938
501.77131,0.37327
500.28152,0.33251
498.79173,0.29177
497.30194,0.23956
495.81216,0.18693
494.32237,0.15623
492.83258,0.12556
491.34279,0.11484
489.85300,0.10262
488.36321,0.08844
486.87343,0.07758
485.38364,0.06674
483.89385,0.09601
482.40406,0.09048
480.91427,0.10195
479.42448,0.11344
477.93469,0.11762
476.44491,0.15643
474.95512,0.16131
473.46533,0.16622
471.97554,0.16786
470.48575,0.14740
468.99596,0.16070
467.50618,0.16165
466.01639,0.16263
464.52660,0.13022
463.03681,0.11470
461.54702,0.10589
460.05723,0.09710
458.56745,0.07311
457.07766,0.05221
455.58787,0.05927
454.09808,0.06635
452.60829,0.04859
451.11850,0.03743
449.62871,0.03253
448.13893,0.02766
446.64914,0.00583
445.15935,0.02494
443.66956,0.03115
442.17977,0.04198
440.68998,0.05283
439.20020,0.04312
437.71041,0.05490
436.22062,0.05498
434.73083,0.05509
433.24104,0.03146
431.75125,0.02997
430.26146,0.03814
428.77168,0.04634
427.28189,0.03310
425.79210,0.04704
424.30231,0.04053
422.81252,0.03404
421.32273,0.03688
419.83295,0.04062
418.34316,0.04844
416.85337,0.05629
415.36358,0.04805
413.87379,0.02561
412.38400,0.02169
410.89422,0.01780
409.40443,0.04209
407.91464,0.05807
406.42485,0.03399
404.93506,0.01990
403.44527,0.00583
401.95548,0.00575
400.46570,0.02343
398.97591,0.03117
397.48612,0.03893
395.99633,0.04310
394.50654,0.03394
393.01675,0.03323
391.52697,0.03254
390.03718,0.02695
388.54739,0.00583
387.05760,0.00763
385.56781,0.00946
384.07802,0.00977
382.58824,0.00617
381.09845,0.01146
379.60866,0.01677
378.11887,0.00733
376.62908,0.01236
375.13929,0.01676
373.64950,0.02119
372.15972,0.02717
370.66993,0.02004
369.18014,0.01292
367.69035,0.00583
366.20056,0.01475
364.71077,0.04604
363.22099,0.03310
361.73120,0.02018
360.24141,0.02263
358.75162,0.04722
357.26183,0.04259
355.77204,0.03798
354.28225,0.03286
352.79247,0.04462
351.30268,0.04940
349.81289,0.05420
348.32310,0.04741
346.83331,0.02400
345.34352,0.01551
343.85374,0.00705
342.36395,0.01745
340.87416,0.01582
339.38437,0.01728
337.89458,0.01877
336.40479,0.04832
334.91501,0.02007
333.42522,0.01681
331.93543,0.01358
330.44564,0.01540
328.95585,0.00083
327.46606,0.00774
325.97627,0.01468
324.48649,0.01397
322.99670,0.04045
321.50691,0.03640
320.01712,0.03237
318.52733,0.05038
317.03754,0.05965
315.54776,0.06019
314.05797,0.06075
312.56818,0.10032
311.07839,0.08384
309.58860,0.08305
308.09881,0.08228
306.60902,0.05382
305.11924,0.04291
303.62945,0.02436
302.13966,0.00583
300.64987,0.01535
299.16008,0.00583
