1778.52000,0.00579
1777.03021,0.00534
1775.54042,0.00445
1774.05063,0.00614
1772.56085,0.00250
1771.07106,0.00751
1769.58127,0.00578
1768.09148,0.00570
1766.60169,0.01125
1765.11190,0.00843
1763.62212,0.00166
1762.13233,0.00355
1760.64254,0.00476
1759.15275,0.01090
1757.66296,0.00400
1756.17317,0.00622
1754.68339,0.00963
1753.19360,0.00000
1751.70381,0.00322
1750.21402,0.00437
1748.72423,0.01511
1747.23444,0.01327
1745.74465,0.00517
1744.25487,0.00828
1742.76508,0.01514
1741.27529,0.00851
1739.78550,0.00400
1738.29571,0.00989
1736.80592,0.01488
1735.31614,0.00706
1733.82635,0.00258
1732.33656,0.00955
1730.84677,0.00069
1729.35698,0.01528
1727.86719,0.00565
1726.37740,0.01143
1724.88762,0.00512
1723.39783,0.01141
1721.90804,0.01331
1720.41825,0.01779
1718.92846,0.01227
1717.43867,0.00910
1715.94889,0.00666
1714.45910,0.00937
1712.96931,0.01071
1711.47952,0.01930
1709.98973,0.01299
1708.49994,0.01533
1707.01016,0.00965
1705.52037,0.00400
1704.03058,0.01138
1702.54079,0.01157
1701.05100,0.02460
1699.56121,0.02296
1698.07142,0.01389
1696.58164,0.01067
1695.09185,0.01867
1693.60206,0.01713
1692.11227,0.02028
1690.62248,0.01692
1689.13269,0.01849
1687.64291,0.02661
1686.15312,0.03335
1684.66333,0.03569
1683.17354,0.02406
1681.68375,0.02481
1680.19396,0.03259
1678.70417,0.03036
1677.21439,0.04307
1675.72460,0.04136
1674.23481,0.03454
1672.74502,0.03987
1671.25523,0.04615
1669.76544,0.05549
1668.27566,0.05926
1666.78587,0.05862
1665.29608,0.07200
1663.80629,0.06558
1662.31650,0.07061
1660.82671,0.07311
1659.33693,0.08891
1657.84714,0.07303
1656.35735,0.07723
1654.86756,0.06629
1653.37777,0.07986
1651.88798,0.07433
1650.39819,0.08422
1648.90841,0.09320
1647.41862,0.06863
1645.92883,0.06810
1644.43904,0.06759
1642.94925,0.07876
1641.45946,0.09323
1639.96968,0.08626
1638.47989,0.08888
1636.99010,0.07637
1635.50031,0.08603
1634.01052,0.07450
1632.52073,0.08445
1631.03094,0.08043
1629.54116,0.07480
1628.05137,0.07735
1626.56158,0.08809
1625.07179,0.09443
1623.58200,0.09030
1622.09221,0.08455
1620.60243,0.09912
1619.11264,0.10066
1617.62285,0.08053
1616.13306,0.08678
1614.64327,0.08932
1613.15348,0.08652
1611.66370,0.08491
1610.17391,0.09988
1608.68412,0.09109
1607.19433,0.08886
1605.70454,0.09178
1604.21475,0.08597
1602.72496,0.08020
1601.23518,0.07712
1599.74539,0.09320
1598.25560,0.08295
1596.76581,0.09557
1595.27602,0.08746
1593.78623,0.07938
1592.29645,0.06993
1590.80666,0.07402
1589.31687,0.06881
1587.82708,0.06759
1586.33729,0.06546
1584.84750,0.08830
1583.35771,0.07363
1581.86793,0.06387
1580.37814,0.07443
1578.88835,0.06659
1577.39856,0.06554
1575.90877,0.06101
1574.41898,0.05092
1572.92920,0.03711
1571.43941,0.05061
1569.94962,0.03977
1568.45983,0.02895
1566.97004,0.03063
1565.48025,0.04330
1563.99047,0.02567
1562.50068,0.02929
1561.01089,0.02594
1559.52110,0.02448
1558.03131,0.02700
1556.54152,0.02372
1555.05173,0.01464
1553.56195,0.02330
1552.07216,0.02196
1550.58237,0.01155
1549.09258,0.00909
1547.60279,0.00805
1546.11300,0.01077
1544.62322,0.01375
1543.13343,0.00182
1541.64364,0.00633
1540.15385,0.00515
1538.66406,0.00400
1537.17427,0.01837
1535.68448,0.00944
1534.19470,0.00894
1532.70491,0.00869
1531.21512,0.00473
1529.72533,0.00990
1528.23554,0.01975
1526.74575,0.02263
1525.25597,0.03229
1523.76618,0.03056
1522.27639,0.03257
1520.78660,0.03485
1519.29681,0.03692
1517.80702,0.05044
1516.31724,0.03716
1514.82745,0.05446
1513.33766,0.04718
1511.84787,0.03992
1510.35808,0.03631
1508.86829,0.03481
1507.37850,0.04943
1505.88872,0.04752
1504.39893,0.05356
1502.90914,0.06825
1501.41935,0.08133
1499.92956,0.07952
1498.43977,0.09265
1496.94999,0.06710
1495.46020,0.08821
1493.97041,0.10211
1492.48062,0.10624
1490.99083,0.11203
1489.50104,0.14233
1488.01125,0.14398
1486.52147,0.14564
1485.03168,0.17228
1483.54189,0.22226
1482.05210,0.22004
1480.56231,0.25771
1479.07252,0.25646
1477.58274,0.26294
1476.09295,0.26104
1474.60316,0.27386
1473.11337,0.29533
1471.62358,0.29957
1470.13379,0.30384
1468.64401,0.30532
1467.15422,0.32782
1465.66443,0.33519
1464.17464,0.34258
1462.68485,0.37938
1461.19506,0.42599
1459.70527,0.47986
1458.21549,0.53305
1456.72570,0.60818
1455.23591,0.67937
1453.74612,0.72890
1452.25633,0.73579
1450.76654,0.75319
1449.27676,0.79067
1447.78697,0.75752
1446.29718,0.73489
1444.80739,0.71415
1443.31760,0.69343
1441.82781,0.63730
1440.33802,0.61873
1438.84824,0.59132
1437.35845,0.56394
1435.86866,0.54684
1434.37887,0.56940
1432.88908,0.59269
1431.39929,0.63466
1429.90951,0.69763
1428.41972,0.79561
1426.92993,0.86679
1425.44014,0.91562
1423.95035,0.94651
1422.46056,0.97743
1420.97078,1.00884
1419.48099,1.00437
1417.99120,0.98942
1416.50141,1.01414
1415.01162,0.97220
1413.52183,0.91419
1412.03204,0.81610
1410.54226,0.77237
1409.05247,0.72236
1407.56268,0.69756
1406.07289,0.62568
1404.58310,0.59114
1403.09331,0.55662
1401.60353,0.50650
1400.11374,0.46153
1398.62395,0.39607
1397.13416,0.33856
1395.64437,0.28225
1394.15458,0.23458
1392.66479,0.20722
1391.17501,0.17756
1389.68522,0.14395
1388.19543,0.13159
1386.70564,0.11004
1385.21585,0.08852
1383.72606,0.07996
1382.23628,0.04625
1380.74649,0.04147
1379.25670,0.04394
1377.76691,0.03151
1376.27712,0.02821
1374.78733,0.01769
1373.29755,0.01467
1371.80776,0.00257
1370.31797,0.01196
1368.82818,0.00797
1367.33839,0.00400
1365.84860,0.03425
1364.35881,0.03585
1362.86903,0.04890
1361.37924,0.06547
1359.88945,0.08883
1358.39966,0.11454
1356.90987,0.16056
1355.42008,0.19308
1353.93030,0.24872
1352.44051,0.28140
1350.95072,0.31411
1349.46093,0.37262
1347.97114,0.44443
1346.48135,0.52793
1344.99156,0.60422
1343.50178,0.68124
1342.01199,0.73590
1340.52220,0.78918
1339.03241,0.84342
1337.54262,0.85735
1336.05283,0.89054
1334.56305,0.92375
1333.07326,0.93495
1331.58347,0.92682
1330.09368,0.92851
1328.60389,0.92649
1327.11410,0.90467
1325.62432,0.86820
1324.13453,0.84596
1322.64474,0.83425
1321.15495,0.80134
1319.66516,0.76834
1318.17537,0.73536
1316.68558,0.70556
1315.19580,0.64616
1313.70601,0.60195
1312.21622,0.56919
1310.72643,0.51383
1309.23664,0.46735
1307.74685,0.44562
1306.25707,0.42601
1304.76728,0.41855
1303.27749,0.41111
1301.78770,0.33795
1300.29791,0.29792
1298.80812,0.27446
1297.31834,0.20463
1295.82855,0.16631
1294.33876,0.13313
1292.84897,0.13076
1291.35918,0.12865
1289.86939,0.11933
1288.37960,0.11004
1286.88982,0.09727
1285.40003,0.07567
1283.91024,0.08510
1282.42045,0.06821
1280.93066,0.05320
1279.44087,0.03986
1277.95109,0.05359
1276.46130,0.04682
1274.97151,0.04182
1273.48172,0.03685
1271.99193,0.03971
1270.50214,0.03910
1269.01235,0.02942
1267.52257,0.02980
1266.03278,0.02460
1264.54299,0.02502
1263.05320,0.03619
1261.56341,0.03887
1260.07362,0.04158
1258.58384,0.01178
1257.09405,0.01628
1255.60426,0.02291
1254.11447,0.01697
1252.62468,0.01362
1251.13489,0.00400
1249.64511,0.01319
1248.15532,0.01658
1246.66553,0.01475
1245.17574,0.01294
1243.68595,0.02154
1242.19616,0.02852
1240.70637,0.01408
1239.21659,0.01458
1237.72680,0.01791
1236.23701,0.02825
1234.74722,0.02090
1233.25743,0.03036
1231.76764,0.03985
1230.27786,0.02324
1228.78807,0.03814
1227.29828,0.03954
1225.80849,0.03373
1224.31870,0.01605
1222.82891,0.00400
1221.33912,0.01615
1219.84934,0.02449
1218.35955,0.03284
1216.86976,0.04367
1215.37997,0.05359
1213.89018,0.06120
1212.40039,0.08307
1210.91061,0.08396
1209.42082,0.07929
1207.93103,0.08315
1206.44124,0.08704
1204.95145,0.08757
1203.46166,0.07950
1201.97188,0.07984
1200.48209,0.07788
1198.99230,0.08200
1197.50251,0.05700
1196.01272,0.05581
1194.52293,0.04660
1193.03314,0.03741
1191.54336,0.04819
1190.05357,0.01725
1188.56378,0.01851
1187.07399,0.01560
1185.58420,0.01714
1184.09441,0.02570
1182.60463,0.01890
1181.11484,0.01212
1179.62505,0.01399
1178.13526,0.02102
1176.64547,0.01408
1175.15568,0.01976
1173.66589,0.00634
1172.17611,0.01626
1170.68632,0.01012
1169.19653,0.00400
1167.70674,0.01871
1166.21695,0.02598
1164.72716,0.05450
1163.23738,0.04783
1161.74759,0.04585
1160.25780,0.06675
1158.76801,0.07181
1157.27822,0.07690
1155.78843,0.08970
1154.29865,0.10813
1152.80886,0.10280
1151.31907,0.12803
1149.82928,0.13301
1148.33949,0.13195
1146.84970,0.13674
1145.35991,0.14155
1143.87013,0.13286
1142.38034,0.19346
1140.89055,0.17992
1139.40076,0.20069
1137.91097,0.20656
1136.42118,0.21944
1134.93140,0.22746
1133.44161,0.23550
1131.95182,0.23633
1130.46203,0.25374
1128.97224,0.28401
1127.48245,0.28095
1125.99266,0.25740
1124.50288,0.25742
1123.01309,0.25455
1121.52330,0.25171
1120.03351,0.26533
1118.54372,0.26055
1117.05393,0.27469
1115.56415,0.26786
1114.07436,0.25849
1112.58457,0.26174
1111.09478,0.26501
1109.60499,0.25711
1108.11520,0.26906
1106.62542,0.25678
1105.13563,0.27158
1103.64584,0.25981
1102.15605,0.25180
1100.66626,0.25058
1099.17647,0.24938
1097.68668,0.24214
1096.19690,0.24636
1094.70711,0.24873
1093.21732,0.21988
1091.72753,0.21577
1090.23774,0.21285
1088.74795,0.20996
1087.25817,0.21711
1085.76838,0.19678
1084.27859,0.21074
1082.78880,0.22963
1081.29901,0.22056
1079.80922,0.24183
1078.31943,0.24586
1076.82965,0.24992
1075.33986,0.24211
1073.85007,0.22081
1072.36028,0.22844
1070.87049,0.24985
1069.38070,0.30183
1067.89092,0.32924
1066.40113,0.35667
1064.91134,0.41828
1063.42155,0.49624
1061.93176,0.60547
1060.44197,0.69164
1058.95219,0.77293
1057.46240,0.83397
1055.97261,0.89503
1054.48282,1.01440
1052.99303,1.07901
1051.50324,1.06179
1050.01345,1.04367
1048.52367,1.05285
1047.03388,1.04492
1045.54409,1.03702
1044.05430,0.97702
1042.56451,0.88580
1041.07472,0.80743
1039.58494,0.76313
1038.09515,0.67852
1036.60536,0.64849
1035.11557,0.61848
1033.62578,0.52741
1032.13599,0.45851
1030.64620,0.38614
1029.15642,0.32709
1027.66663,0.29336
1026.17684,0.25965
1024.68705,0.25942
1023.19726,0.22938
1021.70747,0.19236
1020.21769,0.16586
1018.72790,0.14452
1017.23811,0.14686
1015.74832,0.14923
1014.25853,0.13682
1012.76874,0.11930
1011.27896,0.10507
1009.78917,0.08480
1008.29938,0.07855
1006.80959,0.05973
1005.31980,0.04093
1003.83001,0.03265
1002.34022,0.03815
1000.85044,0.05557
999.36065,0.05109
997.87086,0.05877
996.38107,0.06646
994.89128,0.08211
993.40149,0.08892
991.91171,0.09739
990.42192,0.12291
988.93213,0.13725
987.44234,0.14766
985.95255,0.15809
984.46276,0.16365
982.97297,0.14195
981.48319,0.13916
979.99340,0.10842
978.50361,0.09938
977.01382,0.09037
975.52403,0.06367
974.03424,0.04514
972.54446,0.03434
971.05467,0.03499
969.56488,0.01141
968.07509,0.00989
966.58530,0.00839
965.09551,0.00400
963.60573,0.00400
962.11594,0.01201
960.62615,0.00652
959.13636,0.01283
957.64657,0.01916
956.15678,0.02540
954.66699,0.01861
953.17721,0.03002
951.68742,0.02981
950.19763,0.03650
948.70784,0.04321
947.21805,0.05635
945.72826,0.07675
944.23848,0.08832
942.74869,0.11879
941.25890,0.11501
939.76911,0.13073
938.27932,0.14647
936.78953,0.14510
935.29974,0.17243
933.80996,0.17297
932.32017,0.18939
930.83038,0.19301
929.34059,0.19665
927.85080,0.23017
926.36101,0.25158
924.87123,0.28234
923.38144,0.34391
921.89165,0.37531
920.40186,0.40673
918.91207,0.47886
917.42228,0.63332
915.93250,0.78035
914.44271,1.01041
912.95292,1.11156
911.46313,1.21272
909.97334,1.47783
908.48355,1.66509
906.99376,1.85609
905.50398,1.95759
904.01419,1.97878
902.52440,2.00000
901.03461,1.99711
899.54482,1.95390
898.05503,1.81349
896.56525,1.66564
895.07546,1.55267
893.58567,1.43972
892.09588,1.14388
890.60609,0.93130
889.11630,0.69940
887.62651,0.51229
886.13673,0.43537
884.64694,0.35848
883.15715,0.26354
881.66736,0.19568
880.17757,0.15069
878.68778,0.13603
877.19800,0.12140
875.70821,0.08255
874.21842,0.06400
872.72863,0.04035
871.23884,0.02815
869.74905,0.03357
868.25927,0.03902
866.76948,0.04089
865.27969,0.01899
863.78990,0.03605
862.30011,0.04521
860.81032,0.05323
859.32053,0.06128
857.83075,0.09150
856.34096,0.10495
854.85117,0.10071
853.36138,0.13194
851.87159,0.14698
850.38180,0.16205
848.89202,0.18751
847.40223,0.19668
845.91244,0.21777
844.42265,0.22512
842.93286,0.23250
841.44307,0.25809
839.95329,0.28090
838.46350,0.29698
836.97371,0.30469
835.48392,0.30134
833.99413,0.29802
832.50434,0.31116
831.01455,0.29448
829.52477,0.27457
828.03498,0.24884
826.54519,0.23526
825.05540,0.22171
823.56561,0.21681
822.07582,0.19025
820.58604,0.18097
819.09625,0.17031
817.60646,0.15968
816.11667,0.13765
814.62688,0.13103
813.13709,0.15218
811.64730,0.14887
810.15752,0.15853
808.66773,0.16821
807.17794,0.18153
805.68815,0.18671
804.19836,0.17606
802.70857,0.17815
801.21879,0.18026
799.72900,0.17597
798.23921,0.15003
796.74942,0.16142
795.25963,0.15407
793.76984,0.14674
792.28006,0.15657
790.79027,0.17831
789.30048,0.19705
787.81069,0.23470
786.32090,0.25629
784.83111,0.27790
783.34132,0.30420
781.85154,0.34824
780.36175,0.37715
778.87196,0.38988
777.38217,0.40264
775.89238,0.46216
774.40259,0.45293
772.91281,0.44093
771.42302,0.41728
769.93323,0.39367
768.44344,0.37847
766.95365,0.32925
765.46386,0.26794
763.97407,0.23229
762.48429,0.21334
760.99450,0.19442
759.50471,0.16980
758.01492,0.14475
756.52513,0.11435
755.03534,0.11628
753.54556,0.11823
752.05577,0.09630
750.56598,0.07556
749.07619,0.05951
747.58640,0.04826
746.09661,0.03704
744.60683,0.03506
743.11704,0.03146
741.62725,0.02975
740.13746,0.02423
738.64767,0.01872
737.15788,0.01965
735.66809,0.01315
734.17831,0.02112
732.68852,0.01711
731.19873,0.01313
729.70894,0.02234
728.21915,0.02528
726.72936,0.00400
725.23958,0.01726
723.74979,0.01714
722.26000,0.01704
720.77021,0.01569
719.28042,0.01040
717.79063,0.01212
716.30084,0.01084
714.81106,0.00958
713.32127,0.00228
711.83148,0.00037
710.34169,0.02581
708.85190,0.02119
707.36211,0.01659
705.87233,0.02717
704.38254,0.03661
702.89275,0.04211
701.40296,0.03971
699.91317,0.03733
698.42338,0.05154
696.93360,0.08045
695.44381,0.09797
693.95402,0.10431
692.46423,0.11068
690.97444,0.13573
689.48465,0.12489
687.99486,0.16375
686.50508,0.17837
685.01529,0.19303
683.52550,0.22892
682.03571,0.26018
680.54592,0.26861
679.05613,0.26493
677.56635,0.26129
676.07656,0.25720
674.58677,0.28088
673.09698,0.24303
671.60719,0.22187
670.11740,0.20074
668.62761,0.18301
667.13783,0.16741
665.64804,0.15253
664.15825,0.13767
662.66846,0.11631
661.17867,0.08029
659.68888,0.05291
658.19910,0.05180
656.70931,0.05070
655.21952,0.03366
653.72973,0.03973
652.23994,0.03462
650.75015,0.04412
649.26037,0.05364
647.77058,0.03485
646.28079,0.02728
644.79100,0.02556
643.30121,0.01617
641.81142,0.00681
640.32163,0.02140
638.83185,0.01060
637.34206,0.01171
635.85227,0.00888
634.36248,0.00608
632.87269,0.00400
631.38290,0.00872
629.89312,0.01043
628.40333,0.00646
626.91354,0.00251
625.42375,0.01059
623.93396,0.00867
622.44417,0.01657
620.95438,0.02449
619.46460,0.02824
617.97481,0.06419
616.48502,0.07452
614.99523,0.08114
613.50544,0.08778
612.01565,0.11497
610.52587,0.15360
609.03608,0.18247
607.54629,0.19912
606.05650,0.21579
604.56671,0.26175
603.07692,0.32826
601.58714,0.36366
600.09735,0.39908
598.60756,0.41250
597.11777,0.44739
595.62798,0.44663
594.13819,0.43132
592.64840,0.41603
591.15862,0.38200
589.66883,0.34309
588.17904,0.27087
586.68925,0.24507
585.19946,0.21930
583.70967,0.16813
582.21989,0.12282
580.73010,0.10656
579.24031,0.09032
577.75052,0.06584
576.26073,0.04674
574.77094,0.04095
573.28115,0.04078
571.79137,0.04064
570.30158,0.05941
568.81179,0.06258
567.32200,0.07277
565.83221,0.08299
564.34242,0.11934
562.85264,0.12634
561.36285,0.14922
559.87306,0.16419
558.38327,0.17919
556.89348,0.16740
555.40369,0.17709
553.91391,0.18516
552.42412,0.19326
550.93433,0.20582
549.44454,0.22632
547.95475,0.22867
546.46496,0.23372
544.97517,0.23879
543.48539,0.25590
541.99560,0.27792
540.50581,0.28948
539.01602,0.30106
537.52623,0.35930
536.03644,0.40311
534.54666,0.45371
533.05687,0.46737
531.56708,0.48105
530.07729,0.52542
528.58750,0.58847
527.09771,0.62928
525.60792,0.67011
524.11814,0.69709
522.62835,0.78541
521.13856,0.79262
519.64877,0.81676
518.15898,0.84092
516.66919,0.88854
515.17941,0.88652
513.68962,0.89781
512.19983,0.90913
510.71004,0.89366
509.22025,0.86096
507.73046,0.76858
506.24068,0.71576
504.75089,0.66296
503.26110,0.53615
501.77131,0.41800
500.28152,0.36993
498.79173,0.32189
497.30194,0.25207
495.81216,0.19907
494.32237,0.18421
492.83258,0.16938
491.34279,0.13417
489.85300,0.09129
488.36321,0.09903
486.87343,0.09035
485.38364,0.08170
483.89385,0.11260
482.40406,0.11041
480.91427,0.12643
479.42448,0.14248
477.93469,0.15179
476.44491,0.20752
474.95512,0.20988
473.46533,0.21227
471.97554,0.23193
470.48575,0.21758
468.99596,0.21514
467.50618,0.20806
466.01639,0.20101
464.52660,0.17533
463.03681,0.15223
461.54702,0.13056
460.05723,0.10891
458.56745,0.07447
457.07766,0.07082
455.58787,0.05846
454.09808,0.04612
452.60829,0.03882
451.11850,0.04483
449.62871,0.02440
448.13893,0.00400
446.64914,0.01504
445.15935,0.03031
443.66956,0.02858
442.17977,0.03235
440.68998,0.03614
439.20020,0.04847
437.71041,0.03961
436.22062,0.04453
434.73083,0.04947
433.24104,0.03601
431.75125,0.05639
430.26146,0.05534
428.77168,0.05432
427.28189,0.04889
425.79210,0.06727
424.30231,0.04964
422.81252,0.03205
421.32273,0.01692
419.83295,0.05008
418.34316,0.05716
416.85337,0.06425
415.36358,0.04036
413.87379,0.02442
412.38400,0.02996
410.89422,0.03552
409.40443,0.04624
407.91464,0.05511
406.42485,0.02763
404.93506,0.01580
403.44527,0.00400
401.95548,0.02570
400.46570,0.02993
398.97591,0.03571
397.48612,0.04151
395.99633,0.05094
394.50654,0.03312
393.01675,0.03060
391.52697,0.02810
390.03718,0.01129
388.54739,0.02068
387.05760,0.01482
385.56781,0.00899
384.07802,0.00400
382.58824,0.00484
381.09845,0.01328
379.60866,0.02175
378.11887,0.02943
376.62908,0.03107
375.13929,0.01804
373.64950,0.00503
372.15972,0.03169
370.66993,0.01198
369.18014,0.02068
367.69035,0.02941
366.20056,0.02674
364.71077,0.05767
363.22099,0.04584
361.73120,0.03403
360.24141,0.02772
358.75162,0.06598
357.26183,0.05541
355.77204,0.04486
354.28225,0.07316
352.79247,0.07747
351.30268,0.05965
349.81289,0.04186
348.32310,0.07305
346.83331,0.04971
345.34352,0.04458
343.85374,0.03947
342.36395,0.04535
340.87416,0.03050
339.38437,0.03584
337.89458,0.04121
336.40479,0.05277
334.91501,0.04222
333.42522,0.03203
331.93543,0.02187
330.44564,0.00416
328.95585,0.00582
327.46606,0.00973
325.97627,0.01365
324.48649,0.02694
322.99670,0.04328
321.50691,0.03703
320.01712,0.03080
318.52733,0.06610
317.03754,0.09163
315.54776,0.08011
314.05797,0.06862
312.56818,0.06321
311.07839,0.07415
309.58860,0.06832
308.09881,0.06252
306.60902,0.06840
305.11924,0.06125
303.62945,0.04165
302.13966,0.02207
300.64987,0.00400
299.16008,0.00400
