1778.52000,0.01076
1777.03021,0.00877
1775.54042,0.00815
1774.05063,0.01113
1772.56085,0.00698
1771.07106,0.00218
1769.58127,0.01753
1768.09148,0.00227
1766.60169,0.00403
1765.11190,0.00940
1763.62212,0.00740
1762.13233,0.00387
1760.64254,0.00998
1759.15275,0.01052
1757.66296,0.01287
1756.17317,0.00116
1754.68339,0.00625
1753.19360,0.01136
1751.70381,0.01269
1750.21402,0.00823
1748.72423,0.00783
1747.23444,0.01281
1745.74465,0.01402
1744.25487,0.01860
1742.76508,0.00957
1741.27529,0.00683
1739.78550,0.00679
1738.29571,0.00387
1736.80592,0.01318
1735.31614,0.01134
1733.82635,0.00661
1732.33656,0.01130
1730.84677,0.00796
1729.35698,0.00331
1727.86719,0.00494
1726.37740,0.00861
1724.88762,0.00313
1723.39783,0.00640
1721.90804,0.00634
1720.41825,0.00027
1718.92846,0.00286
1717.43867,0.00347
1715.94889,0.00768
1714.45910,0.00722
1712.96931,0.00387
1711.47952,0.00315
1709.98973,0.00000
1708.49994,0.00336
1707.01016,0.00417
1705.52037,0.00500
1704.03058,0.00306
1702.54079,0.01278
1701.05100,0.00284
1699.56121,0.00723
1698.07142,0.00584
1696.58164,0.00671
1695.09185,0.01185
1693.60206,0.01679
1692.11227,0.00387
1690.62248,0.01388
1689.13269,0.02638
1687.64291,0.01811
1686.15312,0.01322
1684.66333,0.02333
1683.17354,0.02989
1681.68375,0.02842
1680.19396,0.02988
1678.70417,0.03607
1677.21439,0.02260
1675.72460,0.04069
1674.23481,0.03397
1672.74502,0.03198
1671.25523,0.03829
1669.76544,0.05178
1668.27566,0.05343
1666.78587,0.06362
1665.29608,0.07494
1663.80629,0.06706
1662.31650,0.06658
1660.82671,0.06456
1659.33693,0.07553
1657.84714,0.08295
1656.35735,0.07519
1654.86756,0.07819
1653.37777,0.07607
1651.88798,0.08560
1650.39819,0.08263
1648.90841,0.08662
1647.41862,0.07789
1645.92883,0.08304
1644.43904,0.08822
1642.94925,0.09074
1641.45946,0.08636
1639.96968,0.08669
1638.47989,0.08705
1636.99010,0.08631
1635.50031,0.07442
1634.01052,0.07195
1632.52073,0.07263
1631.03094,0.07825
1629.54116,0.09530
1628.05137,0.09002
1626.56158,0.09169
1625.07179,0.09830
1623.58200,0.08616
1622.09221,0.09931
1620.60243,0.10063
1619.11264,0.09504
1617.62285,0.09686
1616.13306,0.10027
1614.64327,0.09431
1613.15348,0.08278
1611.66370,0.08291
1610.17391,0.09267
1608.68412,0.08301
1607.19433,0.09573
1605.70454,0.09596
1604.21475,0.09005
1602.72496,0.08418
1601.23518,0.08783
1599.74539,0.06311
1598.25560,0.09722
1596.76581,0.09490
1595.27602,0.09172
1593.78623,0.08498
1592.29645,0.06977
1590.80666,0.07583
1589.31687,0.07610
1587.82708,0.07774
1586.33729,0.07067
1584.84750,0.09002
1583.35771,0.06870
1581.86793,0.06886
1580.37814,0.08583
1578.88835,0.09163
1577.39856,0.07309
1575.90877,0.06016
1574.41898,0.04457
1572.92920,0.04578
1571.43941,0.04791
1569.94962,0.04234
1568.45983,0.03680
1566.97004,0.04280
1565.48025,0.04190
1563.99047,0.03744
1562.50068,0.03099
1561.01089,0.01629
1559.52110,0.03337
1558.03131,0.02386
1556.54152,0.01550
1555.05173,0.02147
1553.56195,0.02188
1552.07216,0.02499
1550.58237,0.01449
1549.09258,0.01050
1547.60279,0.00586
1546.11300,0.01645
1544.62322,0.00985
1543.13343,0.01154
1541.64364,0.00387
1540.15385,0.00672
1538.66406,0.00959
1537.17427,0.01930
1535.68448,0.01495
1534.19470,0.01689
1532.70491,0.00387
1531.21512,0.01563
1529.72533,0.01870
1528.23554,0.01777
1526.74575,0.03430
1525.25597,0.03408
1523.76618,0.04261
1522.27639,0.02970
1520.78660,0.04119
1519.29681,0.04219
1517.80702,0.05015
1516.31724,0.04717
1514.82745,0.05339
1513.33766,0.04678
1511.84787,0.04019
1510.35808,0.03932
1508.86829,0.06129
1507.37850,0.04594
1505.88872,0.05342
1504.39893,0.04796
1502.90914,0.06734
1501.41935,0.08607
1499.92956,0.08583
1498.43977,0.08851
1496.94999,0.07311
1495.46020,0.07897
1493.97041,0.08285
1492.48062,0.09167
1490.99083,0.11683
1489.50104,0.13800
1488.01125,0.14544
1486.52147,0.15290
1485.03168,0.16095
1483.54189,0.21553
1482.05210,0.23078
1480.56231,0.22749
1479.07252,0.25688
1477.58274,0.26348
1476.09295,0.26922
1474.60316,0.25597
1473.11337,0.27606
1471.62358,0.29394
1470.13379,0.29239
1468.64401,0.30853
1467.15422,0.30949
1465.66443,0.32177
1464.17464,0.33407
1462.68485,0.37357
1461.19506,0.39900
1459.70527,0.47633
1458.21549,0.53512
1456.72570,0.59953
1455.23591,0.63803
1453.74612,0.69891
1452.25633,0.70481
1450.76654,0.74808
1449.27676,0.75917
1447.78697,0.73630
1446.29718,0.70249
1444.80739,0.67531
1443.31760,0.64815
1441.82781,0.64282
1440.33802,0.60195
1438.84824,0.57028
1437.35845,0.53014
1435.86866,0.51171
1434.37887,0.54720
1432.88908,0.55185
1431.39929,0.59722
1429.90951,0.67929
1428.41972,0.76697
1426.92993,0.83209
1425.44014,0.88628
1423.95035,0.91076
1422.46056,0.93525
1420.97078,0.99354
1419.48099,0.96554
1417.99120,0.96418
1416.50141,0.97178
1415.01162,0.92127
1413.52183,0.87570
1412.03204,0.79819
1410.54226,0.75647
1409.05247,0.68459
1407.56268,0.66551
1406.07289,0.61425
1404.58310,0.58124
1403.09331,0.54826
1401.60353,0.48187
1400.11374,0.41729
1398.62395,0.37264
1397.13416,0.32086
1395.64437,0.27335
1394.15458,0.22318
1392.66479,0.20188
1391.17501,0.16115
1389.68522,0.14594
1388.19543,0.12494
1386.70564,0.10530
1385.21585,0.08569
1383.72606,0.07169
1382.23628,0.03916
1380.74649,0.04489
1379.25670,0.03320
1377.76691,0.02958
1376.27712,0.01929
1374.78733,0.00387
1373.29755,0.01363
1371.80776,0.02229
1370.31797,0.00862
1368.82818,0.00850
1367.33839,0.00840
1365.84860,0.03058
1364.35881,0.02237
1362.86903,0.04638
1361.37924,0.04515
1359.88945,0.08263
1358.39966,0.11029
1356.90987,0.14067
1355.42008,0.19901
1353.93030,0.24911
1352.44051,0.28314
1350.95072,0.31718
1349.46093,0.36937
1347.97114,0.47121
1346.48135,0.54223
1344.99156,0.61483
1343.50178,0.69686
1342.01199,0.73686
1340.52220,0.80149
1339.03241,0.86234
1337.54262,0.88319
1336.05283,0.90854
1334.56305,0.93391
1333.07326,0.95416
1331.58347,0.97601
1330.09368,0.95763
1328.60389,0.97080
1327.11410,0.92138
1325.62432,0.90330
1324.13453,0.88077
1322.64474,0.83925
1321.15495,0.81297
1319.66516,0.79811
1318.17537,0.78328
1316.68558,0.71905
1315.19580,0.66626
1313.70601,0.60275
1312.21622,0.57438
1310.72643,0.52121
1309.23664,0.46851
1307.74685,0.45116
1306.25707,0.44055
1304.76728,0.42203
1303.27749,0.40352
1301.78770,0.35989
1300.29791,0.29549
1298.80812,0.26353
1297.31834,0.22444
1295.82855,0.17957
1294.33876,0.15417
1292.84897,0.13259
1291.35918,0.12759
1289.86939,0.11948
1288.37960,0.11140
1286.88982,0.10155
1285.40003,0.08681
1283.91024,0.07052
1282.42045,0.06053
1280.93066,0.05905
1279.44087,0.04418
1277.95109,0.06354
1276.46130,0.05923
1274.97151,0.05126
1273.48172,0.04331
1271.99193,0.04734
1270.50214,0.03552
1269.01235,0.03983
1267.52257,0.03365
1266.03278,0.02437
1264.54299,0.02271
1263.05320,0.02399
1261.56341,0.01802
1260.07362,0.01208
1258.58384,0.01007
1257.09405,0.01122
1255.60426,0.03073
1254.11447,0.01113
1252.62468,0.00967
1251.13489,0.00354
1249.64511,0.00458
1248.15532,0.01035
1246.66553,0.02274
1245.17574,0.03515
1243.68595,0.00387
1242.19616,0.01728
1240.70637,0.01528
1239.21659,0.00884
1237.72680,0.02791
1236.23701,0.02889
1234.74722,0.03996
1233.25743,0.03104
1231.76764,0.02215
1230.27786,0.02390
1228.78807,0.02836
1227.29828,0.00869
1225.80849,0.01410
1224.31870,0.00387
1222.82891,0.00907
1221.33912,0.01250
1219.84934,0.01987
1218.35955,0.02727
1216.86976,0.04128
1215.37997,0.04347
1213.89018,0.06402
1212.40039,0.07677
1210.91061,0.07724
1209.42082,0.07818
1207.93103,0.07334
1206.44124,0.06852
1204.95145,0.08318
1203.46166,0.07483
1201.97188,0.06941
1200.48209,0.07475
1198.99230,0.07542
1197.50251,0.04547
1196.01272,0.03904
1194.52293,0.03408
1193.03314,0.02914
1191.54336,0.02255
1190.05357,0.02091
1188.56378,0.02599
1187.07399,0.02261
1185.58420,0.01858
1184.09441,0.01099
1182.60463,0.01170
1181.11484,0.01244
1179.62505,0.01790
1178.13526,0.01019
1176.64547,0.01748
1175.15568,0.01250
1173.66589,0.00307
1172.17611,0.00537
1170.68632,0.00446
1169.19653,0.00356
1167.70674,0.00985
1166.21695,0.00387
1164.72716,0.03618
1163.23738,0.04883
1161.74759,0.05077
1160.25780,0.04804
1158.76801,0.05026
1157.27822,0.05250
1155.78843,0.06840
1154.29865,0.09193
1152.80886,0.09648
1151.31907,0.10955
1149.82928,0.11371
1148.33949,0.11766
1146.84970,0.11817
1145.35991,0.11870
1143.87013,0.12921
1142.38034,0.16188
1140.89055,0.18205
1139.40076,0.19666
1137.91097,0.18960
1136.42118,0.20314
1134.93140,0.22017
1133.44161,0.23722
1131.95182,0.22333
1130.46203,0.23473
1128.97224,0.25219
1127.48245,0.25581
1125.99266,0.23844
1124.50288,0.23406
1123.01309,0.23329
1121.52330,0.23253
1120.03351,0.23605
1118.54372,0.25503
1117.05393,0.23780
1115.56415,0.24989
1114.07436,0.26022
1112.58457,0.25268
1111.09478,0.24517
1109.60499,0.24148
1108.11520,0.25146
1106.62542,0.24156
1105.13563,0.23951
1103.64584,0.26968
1102.15605,0.23951
1100.66626,0.23384
1099.17647,0.22820
1097.68668,0.22135
1096.19690,0.21766
1094.70711,0.22227
1093.21732,0.22913
1091.72753,0.21500
1090.23774,0.20906
1088.74795,0.20314
1087.25817,0.20564
1085.76838,0.21888
1084.27859,0.20220
1082.78880,0.20722
1081.29901,0.21540
1079.80922,0.22718
1078.31943,0.23966
1076.82965,0.25216
1075.33986,0.23159
1073.85007,0.21999
1072.36028,0.23882
1070.87049,0.28452
1069.38070,0.29624
1067.89092,0.33382
1066.40113,0.37143
1064.91134,0.44919
1063.42155,0.52944
1061.93176,0.59898
1060.44197,0.69962
1058.95219,0.80588
1057.46240,0.84777
1055.97261,0.88968
1054.48282,1.00675
1052.99303,1.12518
1051.50324,1.06609
1050.01345,1.02112
1048.52367,1.05935
1047.03388,1.03980
1045.54409,1.02028
1044.05430,0.97541
1042.56451,0.88449
1041.07472,0.83184
1039.58494,0.73695
1038.09515,0.66601
1036.60536,0.62964
1035.11557,0.59329
1033.62578,0.53517
1032.13599,0.46992
1030.64620,0.39955
1029.15642,0.34217
1027.66663,0.31400
1026.17684,0.28585
1024.68705,0.24509
1023.19726,0.22247
1021.70747,0.18780
1020.21769,0.15964
1018.72790,0.16213
1017.23811,0.16007
1015.74832,0.15803
1014.25853,0.12392
1012.76874,0.13166
1011.27896,0.11214
1009.78917,0.07811
1008.29938,0.07563
1006.80959,0.06211
1005.31980,0.04861
1003.83001,0.04778
1002.34022,0.05814
1000.85044,0.04662
999.36065,0.05480
997.87086,0.05897
996.38107,0.06318
994.89128,0.08127
993.40149,0.09737
991.91171,0.10209
990.42192,0.11623
988.93213,0.15879
987.44234,0.17041
985.95255,0.18205
984.46276,0.16677
982.97297,0.15665
981.48319,0.14411
979.99340,0.10028
978.50361,0.08711
977.01382,0.07396
975.52403,0.06420
974.03424,0.04506
972.54446,0.02908
971.05467,0.03191
969.56488,0.00748
968.07509,0.00566
966.58530,0.00387
965.09551,0.01071
963.60573,0.00483
962.11594,0.01641
960.62615,0.00298
959.13636,0.00915
957.64657,0.01535
956.15678,0.02124
954.66699,0.01686
953.17721,0.02280
951.68742,0.04016
950.19763,0.04581
948.70784,0.05149
947.21805,0.06132
945.72826,0.06514
944.23848,0.09336
942.74869,0.09969
941.25890,0.12662
939.76911,0.13255
938.27932,0.13851
936.78953,0.15723
935.29974,0.16391
933.80996,0.18783
932.32017,0.17890
930.83038,0.18721
929.34059,0.19555
927.85080,0.22448
926.36101,0.25165
924.87123,0.27549
923.38144,0.32843
921.89165,0.36942
920.40186,0.41044
918.91207,0.52158
917.42228,0.64907
915.93250,0.78822
914.44271,1.00631
912.95292,1.12672
911.46313,1.24715
909.97334,1.44721
908.48355,1.66765
906.99376,1.82907
905.50398,1.98023
904.01419,1.99011
902.52440,2.00000
901.03461,1.97168
899.54482,1.92752
898.05503,1.82211
896.56525,1.66797
895.07546,1.54640
893.58567,1.42485
892.09588,1.14356
890.60609,0.90814
889.11630,0.69867
887.62651,0.50175
886.13673,0.42919
884.64694,0.35664
883.15715,0.25281
881.66736,0.20245
880.17757,0.14004
878.68778,0.13110
877.19800,0.12218
875.70821,0.07594
874.21842,0.04762
872.72863,0.03653
871.23884,0.02928
869.74905,0.02350
868.25927,0.01774
866.76948,0.03225
865.27969,0.01525
863.78990,0.03137
862.30011,0.04595
860.81032,0.04993
859.32053,0.05393
857.83075,0.08916
856.34096,0.09735
854.85117,0.11764
853.36138,0.11224
851.87159,0.13168
850.38180,0.15115
848.89202,0.17020
847.40223,0.19195
845.91244,0.19651
844.42265,0.20870
842.93286,0.22091
841.44307,0.22555
839.95329,0.24675
838.46350,0.27022
836.97371,0.28051
835.48392,0.28368
833.99413,0.28687
832.50434,0.27980
831.01455,0.27834
829.52477,0.26998
828.03498,0.23928
826.54519,0.22795
825.05540,0.21664
823.56561,0.19115
822.07582,0.15899
820.58604,0.16843
819.09625,0.15968
817.60646,0.15095
816.11667,0.13901
814.62688,0.13782
813.13709,0.12928
811.64730,0.14983
810.15752,0.15553
808.66773,0.16126
807.17794,0.17696
805.68815,0.16854
804.19836,0.15635
802.70857,0.15960
801.21879,0.16288
799.72900,0.16797
798.23921,0.15006
796.74942,0.14402
795.25963,0.14360
793.76984,0.14320
792.28006,0.14975
790.79027,0.17601
789.30048,0.17144
787.81069,0.21496
786.32090,0.23279
784.83111,0.25065
783.34132,0.29023
781.85154,0.33810
780.36175,0.35826
778.87196,0.38270
777.38217,0.40717
775.89238,0.43345
774.40259,0.44902
772.91281,0.42078
771.42302,0.40621
769.93323,0.39167
768.44344,0.35256
766.95365,0.31123
765.46386,0.26858
763.97407,0.21568
762.48429,0.19645
760.99450,0.17724
759.50471,0.15840
758.01492,0.13130
756.52513,0.12145
755.03534,0.10905
753.54556,0.09668
752.05577,0.09875
750.56598,0.07155
749.07619,0.04371
747.58640,0.04462
746.09661,0.04556
744.60683,0.03524
743.11704,0.02896
741.62725,0.00794
740.13746,0.01133
738.64767,0.01474
737.15788,0.01012
735.66809,0.01157
734.17831,0.00387
732.68852,0.00609
731.19873,0.00833
729.70894,0.00345
728.21915,0.00932
726.72936,0.00806
725.23958,0.00458
723.74979,0.01010
722.26000,0.01565
720.77021,0.02658
719.28042,0.00802
717.79063,0.01118
716.30084,0.00642
714.81106,0.00169
713.32127,0.01775
711.83148,0.01170
710.34169,0.03251
708.85190,0.02439
707.36211,0.01629
705.87233,0.03315
704.38254,0.03595
702.89275,0.05822
701.40296,0.05223
699.91317,0.04627
698.42338,0.05497
696.93360,0.08428
695.44381,0.08521
693.95402,0.09656
692.46423,0.10793
690.97444,0.12570
689.48465,0.14127
687.99486,0.16803
686.50508,0.17749
685.01529,0.18698
683.52550,0.22813
682.03571,0.25946
680.54592,0.26734
679.05613,0.26239
677.56635,0.25746
676.07656,0.26586
674.58677,0.26803
673.09698,0.24272
671.60719,0.22749
670.11740,0.21228
668.62761,0.18570
667.13783,0.16831
665.64804,0.16168
664.15825,0.15507
662.66846,0.11204
661.17867,0.08200
659.68888,0.06630
658.19910,0.05744
656.70931,0.04860
655.21952,0.04572
653.72973,0.04443
652.23994,0.05389
650.75015,0.04727
649.26037,0.04069
647.77058,0.04195
646.28079,0.05039
644.79100,0.03515
643.30121,0.03492
641.81142,0.03472
640.32163,0.02962
638.83185,0.03170
637.34206,0.03425
635.85227,0.01905
634.36248,0.00387
632.87269,0.02145
631.38290,0.01693
629.89312,0.01600
628.40333,0.02337
626.91354,0.03077
625.42375,0.01672
623.93396,0.02327
622.44417,0.01934
620.95438,0.01543
619.46460,0.06520
617.97481,0.07051
616.48502,0.07047
614.99523,0.07896
613.50544,0.08747
612.01565,0.12284
610.52587,0.16024
609.03608,0.18313
607.54629,0.20012
606.05650,0.21714
604.56671,0.26560
603.07692,0.33309
601.58714,0.36862
600.09735,0.40418
598.60756,0.44961
597.11777,0.45257
595.62798,0.44349
594.13819,0.44024
592.64840,0.43701
591.15862,0.40654
589.66883,0.33784
588.17904,0.27991
586.68925,0.25040
585.19946,0.22091
583.70967,0.18899
582.21989,0.14032
580.73010,0.12097
579.24031,0.10164
577.75052,0.07809
576.26073,0.07827
574.77094,0.04739
573.28115,0.05879
571.79137,0.07022
570.30158,0.07027
568.81179,0.08957
567.32200,0.09582
565.83221,0.10209
564.34242,0.12616
562.85264,0.13527
561.36285,0.17684
559.87306,0.17482
558.38327,0.17283
556.89348,0.17980
555.40369,0.18121
553.91391,0.19562
552.42412,0.21005
550.93433,0.22472
549.44454,0.24367
547.95475,0.23470
546.46496,0.23402
544.97517,0.23336
543.48539,0.26023
541.99560,0.28266
540.50581,0.29974
539.01602,0.31685
537.52623,0.36573
536.03644,0.41129
534.54666,0.45239
533.05687,0.47474
531.56708,0.49711
530.07729,0.54142
528.58750,0.59336
527.09771,0.62173
525.60792,0.65013
524.11814,0.68984
522.62835,0.73785
521.13856,0.78856
519.64877,0.81527
518.15898,0.84200
516.66919,0.87713
515.17941,0.89463
513.68962,0.89639
512.19983,0.89817
510.71004,0.89584
509.22025,0.83272
507.73046,0.78214
506.24068,0.70318
504.75089,0.62425
503.26110,0.50376
501.77131,0.41594
500.28152,0.36794
498.79173,0.31996
497.30194,0.26553
495.81216,0.20352
494.32237,0.16937
492.83258,0.13525
491.34279,0.09902
489.85300,0.09323
488.36321,0.09082
486.87343,0.08295
485.38364,0.07511
483.89385,0.09871
482.40406,0.10154
480.91427,0.11792
479.42448,0.13433
477.93469,0.15042
476.44491,0.18175
474.95512,0.18973
473.46533,0.19773
471.97554,0.20945
470.48575,0.21114
468.99596,0.20211
467.50618,0.19389
466.01639,0.18570
464.52660,0.14566
463.03681,0.13405
461.54702,0.11844
460.05723,0.10285
458.56745,0.05956
457.07766,0.03530
455.58787,0.03588
454.09808,0.03649
452.60829,0.02192
451.11850,0.02638
449.62871,0.01644
448.13893,0.00652
446.64914,0.01240
445.15935,0.01248
443.66956,0.00387
442.17977,0.00884
440.68998,0.01383
439.20020,0.02734
437.71041,0.03954
436.22062,0.04371
434.73083,0.04790
433.24104,0.01389
431.75125,0.04563
430.26146,0.04811
428.77168,0.05061
427.28189,0.03436
425.79210,0.05256
424.30231,0.05044
422.81252,0.04835
421.32273,0.03376
419.83295,0.02702
418.34316,0.03047
416.85337,0.03395
415.36358,0.02684
413.87379,0.00387
412.38400,0.01104
410.89422,0.01824
409.40443,0.05129
407.91464,0.04210
406.42485,0.01952
404.93506,0.01273
403.44527,0.00596
401.95548,0.01610
400.46570,0.03051
398.97591,0.02706
397.48612,0.02363
395.99633,0.02962
394.50654,0.03720
393.01675,0.02713
391.52697,0.01710
390.03718,0.03034
388.54739,0.00715
387.05760,0.01681
385.56781,0.02648
384.07802,0.00387
382.58824,0.00760
381.09845,0.01280
379.60866,0.01803
378.11887,0.01087
376.62908,0.00821
375.13929,0.00412
373.64950,0.00006
372.15972,0.00798
370.66993,0.00855
369.18014,0.00636
367.69035,0.00420
366.20056,0.00479
364.71077,0.01077
363.22099,0.01252
361.73120,0.01430
360.24141,0.02997
358.75162,0.02979
357.26183,0.04584
355.77204,0.06192
354.28225,0.05890
352.79247,0.06709
351.30268,0.06445
349.81289,0.06184
348.32310,0.04998
346.83331,0.03568
345.34352,0.02386
343.85374,0.01207
342.36395,0.04279
340.87416,0.03060
339.38437,0.04627
337.89458,0.06197
336.40479,0.04695
334.91501,0.04112
333.42522,0.03173
331.93543,0.02237
330.44564,0.00387
328.95585,0.02922
327.46606,0.01714
325.97627,0.00508
324.48649,0.04438
322.99670,0.05575
321.50691,0.05228
320.01712,0.04883
318.52733,0.07615
317.03754,0.07599
315.54776,0.07228
314.05797,0.06860
312.56818,0.09512
311.07839,0.07270
309.58860,0.06462
308.09881,0.05656
306.60902,0.08362
305.11924,0.05325
303.62945,0.03755
302.13966,0.02187
300.64987,0.00387
299.16008,0.00387
