1778.52000,0.01179
1777.03021,0.00948
1775.54042,0.00701
1774.05063,0.00379
1772.56085,0.00599
1771.07106,0.01303
1769.58127,0.00949
1768.09148,0.00155
1766.60169,0.00423
1765.11190,0.01253
1763.62212,0.00909
1762.13233,0.01319
1760.64254,0.01597
1759.15275,0.00991
1757.66296,0.00521
1756.17317,0.00864
1754.68339,0.01017
1753.19360,0.00516
1751.70381,0.00481
1750.21402,0.01142
1748.72423,0.01863
1747.23444,0.01604
1745.74465,0.02022
1744.25487,0.00783
1742.76508,0.01707
1741.27529,0.01226
1739.78550,0.00458
1738.29571,0.00521
1736.80592,0.01498
1735.31614,0.01513
1733.82635,0.01106
1732.33656,0.00701
1730.84677,0.01186
1729.35698,0.00729
1727.86719,0.01083
1726.37740,0.00091
1724.88762,0.00739
1723.39783,0.01044
1721.90804,0.00791
1720.41825,0.01216
1718.92846,0.01083
1717.43867,0.00665
1715.94889,0.00865
1714.45910,0.00779
1712.96931,0.00521
1711.47952,0.01032
1709.98973,0.00696
1708.49994,0.00498
1707.01016,0.00563
1705.52037,0.00630
1704.03058,0.01114
1702.54079,0.00000
1701.05100,0.00288
1699.56121,0.00578
1698.07142,0.00658
1696.58164,0.01126
1695.09185,0.00884
1693.60206,0.00663
1692.11227,0.00521
1690.62248,0.00905
1689.13269,0.01080
1687.64291,0.01276
1686.15312,0.01551
1684.66333,0.01559
1683.17354,0.01454
1681.68375,0.02450
1680.19396,0.02986
1678.70417,0.02155
1677.21439,0.03197
1675.72460,0.03239
1674.23481,0.03514
1672.74502,0.02192
1671.25523,0.03919
1669.76544,0.03488
1668.27566,0.04448
1666.78587,0.05642
1665.29608,0.06144
1663.80629,0.06687
1662.31650,0.06519
1660.82671,0.07202
1659.33693,0.06673
1657.84714,0.06666
1656.35735,0.05525
1654.86756,0.05697
1653.37777,0.06411
1651.88798,0.07128
1650.39819,0.06536
1648.90841,0.07662
1647.41862,0.07210
1645.92883,0.07589
1644.43904,0.07971
1642.94925,0.08471
1641.45946,0.08028
1639.96968,0.08783
1638.47989,0.09097
1636.99010,0.08411
1635.50031,0.07554
1634.01052,0.07355
1632.52073,0.07409
1631.03094,0.08294
1629.54116,0.07640
1628.05137,0.07585
1626.56158,0.08324
1625.07179,0.10491
1623.58200,0.08593
1622.09221,0.08780
1620.60243,0.09296
1619.11264,0.09449
1617.62285,0.08621
1616.13306,0.08470
1614.64327,0.07974
1613.15348,0.08407
1611.66370,0.08938
1610.17391,0.08777
1608.68412,0.08079
1607.19433,0.07885
1605.70454,0.07346
1604.21475,0.07803
1602.72496,0.08261
1601.23518,0.08328
1599.74539,0.07914
1598.25560,0.07117
1596.76581,0.09157
1595.27602,0.08616
1593.78623,0.08482
1592.29645,0.07348
1590.80666,0.07816
1589.31687,0.07072
1587.82708,0.07064
1586.33729,0.07713
1584.84750,0.06899
1583.35771,0.07766
1581.86793,0.07362
1580.37814,0.07442
1578.88835,0.06870
1577.39856,0.05682
1575.90877,0.06619
1574.41898,0.04511
1572.92920,0.04970
1571.43941,0.02963
1569.94962,0.03340
1568.45983,0.03719
1566.97004,0.04130
1565.48025,0.03213
1563.99047,0.03629
1562.50068,0.02350
1561.01089,0.03272
1559.52110,0.02268
1558.03131,0.02230
1556.54152,0.01019
1555.05173,0.01237
1553.56195,0.01245
1552.07216,0.02201
1550.58237,0.01230
1549.09258,0.00263
1547.60279,0.00659
1546.11300,0.01251
1544.62322,0.00862
1543.13343,0.01073
1541.64364,0.00554
1540.15385,0.00725
1538.66406,0.00899
1537.17427,0.02145
1535.68448,0.02314
1534.19470,0.01618
1532.70491,0.01367
1531.21512,0.00521
1529.72533,0.01660
1528.23554,0.01914
1526.74575,0.02479
1525.25597,0.02546
1523.76618,0.03366
1522.27639,0.02415
1520.78660,0.02123
1519.29681,0.03799
1517.80702,0.05343
1516.31724,0.04536
1514.82745,0.05622
1513.33766,0.04792
1511.84787,0.03964
1510.35808,0.05385
1508.86829,0.05015
1507.37850,0.03259
1505.88872,0.04012
1504.39893,0.04594
1502.90914,0.05796
1501.41935,0.06035
1499.92956,0.08553
1498.43977,0.08489
1496.94999,0.06789
1495.46020,0.08176
1493.97041,0.08659
1492.48062,0.11150
1490.99083,0.10327
1489.50104,0.13016
1488.01125,0.14049
1486.52147,0.15084
1485.03168,0.16970
1483.54189,0.18839
1482.05210,0.20711
1480.56231,0.22488
1479.07252,0.22822
1477.58274,0.24624
1476.09295,0.25368
1474.60316,0.24166
1473.11337,0.25513
1471.62358,0.25704
1470.13379,0.25956
1468.64401,0.26442
1467.15422,0.28666
1465.66443,0.30670
1464.17464,0.32676
1462.68485,0.34849
1461.19506,0.38162
1459.70527,0.44081
1458.21549,0.51332
1456.72570,0.57082
1455.23591,0.64821
1453.74612,0.65813
1452.25633,0.68118
1450.76654,0.70985
1449.27676,0.73662
1447.78697,0.72196
1446.29718,0.67723
1444.80739,0.66994
1443.31760,0.66268
1441.82781,0.62285
1440.33802,0.58343
1438.84824,0.54230
1437.35845,0.52935
1435.86866,0.51430
1434.37887,0.54266
1432.88908,0.57759
1431.39929,0.59848
1429.90951,0.69402
1428.41972,0.74850
1426.92993,0.81767
1425.44014,0.86912
1423.95035,0.90208
1422.46056,0.93507
1420.97078,0.96769
1419.48099,0.97739
1417.99120,0.94856
1416.50141,0.93151
1415.01162,0.91217
1413.52183,0.83250
1412.03204,0.77464
1410.54226,0.73108
1409.05247,0.66170
1407.56268,0.64094
1406.07289,0.58510
1404.58310,0.56352
1403.09331,0.54196
1401.60353,0.48370
1400.11374,0.41851
1398.62395,0.36627
1397.13416,0.31155
1395.64437,0.26938
1394.15458,0.22435
1392.66479,0.18185
1391.17501,0.17408
1389.68522,0.14223
1388.19543,0.12274
1386.70564,0.10386
1385.21585,0.08500
1383.72606,0.07176
1382.23628,0.04119
1380.74649,0.03205
1379.25670,0.02524
1377.76691,0.02212
1376.27712,0.01594
1374.78733,0.01634
1373.29755,0.02120
1371.80776,0.00546
1370.31797,0.00786
1368.82818,0.00652
1367.33839,0.00521
1365.84860,0.01801
1364.35881,0.04144
1362.86903,0.04966
1361.37924,0.06215
1359.88945,0.09047
1358.39966,0.10995
1356.90987,0.13890
1355.42008,0.19140
1353.93030,0.23255
1352.44051,0.27140
1350.95072,0.31028
1349.46093,0.36905
1347.97114,0.43594
1346.48135,0.52425
1344.99156,0.59736
1343.50178,0.70404
1342.01199,0.71221
1340.52220,0.78173
1339.03241,0.80943
1337.54262,0.83850
1336.05283,0.85101
1334.56305,0.86355
1333.07326,0.90676
1331.58347,0.89390
1330.09368,0.90323
1328.60389,0.91008
1327.11410,0.86392
1325.62432,0.82280
1324.13453,0.81796
1322.64474,0.77940
1321.15495,0.74164
1319.66516,0.72896
1318.17537,0.71631
1316.68558,0.64603
1315.19580,0.59698
1313.70601,0.57380
1312.21622,0.53020
1310.72643,0.47795
1309.23664,0.44365
1307.74685,0.42500
1306.25707,0.40252
1304.76728,0.38709
1303.27749,0.37170
1301.78770,0.30898
1300.29791,0.27271
1298.80812,0.22721
1297.31834,0.18250
1295.82855,0.17889
1294.33876,0.13134
1292.84897,0.13722
1291.35918,0.11440
1289.86939,0.10510
1288.37960,0.09583
1286.88982,0.08870
1285.40003,0.06212
1283.91024,0.05638
1282.42045,0.04528
1280.93066,0.04422
1279.44087,0.04280
1277.95109,0.04912
1276.46130,0.04601
1274.97151,0.04120
1273.48172,0.03641
1271.99193,0.02759
1270.50214,0.03519
1269.01235,0.02680
1267.52257,0.01285
1266.03278,0.01184
1264.54299,0.01876
1263.05320,0.01241
1261.56341,0.01938
1260.07362,0.02637
1258.58384,0.02722
1257.09405,0.01594
1255.60426,0.00488
1254.11447,0.01641
1252.62468,0.01350
1251.13489,0.00521
1249.64511,0.01205
1248.15532,0.00907
1246.66553,0.01508
1245.17574,0.02112
1243.68595,0.00665
1242.19616,0.00989
1240.70637,0.00911
1239.21659,0.00431
1237.72680,0.02535
1236.23701,0.02038
1234.74722,0.02276
1233.25743,0.02035
1231.76764,0.01796
1230.27786,0.03179
1228.78807,0.03542
1227.29828,0.01903
1225.80849,0.02271
1224.31870,0.00521
1222.82891,0.01152
1221.33912,0.01592
1219.84934,0.02873
1218.35955,0.04156
1216.86976,0.03620
1215.37997,0.05304
1213.89018,0.05660
1212.40039,0.07406
1210.91061,0.06455
1209.42082,0.08534
1207.93103,0.07511
1206.44124,0.06491
1204.95145,0.07671
1203.46166,0.07715
1201.97188,0.06837
1200.48209,0.05884
1198.99230,0.06803
1197.50251,0.06665
1196.01272,0.02769
1194.52293,0.02442
1193.03314,0.02118
1191.54336,0.02549
1190.05357,0.02500
1188.56378,0.02086
1187.07399,0.02466
1185.58420,0.02501
1184.09441,0.01498
1182.60463,0.01528
1181.11484,0.01561
1179.62505,0.00815
1178.13526,0.01981
1176.64547,0.01606
1175.15568,0.01851
1173.66589,0.01173
1172.17611,0.01789
1170.68632,0.01154
1169.19653,0.00521
1167.70674,0.02912
1166.21695,0.01180
1164.72716,0.02207
1163.23738,0.05415
1161.74759,0.05059
1160.25780,0.05399
1158.76801,0.06387
1157.27822,0.07378
1155.78843,0.07648
1154.29865,0.09078
1152.80886,0.10838
1151.31907,0.12407
1149.82928,0.10797
1148.33949,0.13683
1146.84970,0.13649
1145.35991,0.13618
1143.87013,0.11574
1142.38034,0.14720
1140.89055,0.17830
1139.40076,0.17856
1137.91097,0.18503
1136.42118,0.21272
1134.93140,0.21249
1133.44161,0.21227
1131.95182,0.23059
1130.46203,0.24335
1128.97224,0.25960
1127.48245,0.24135
1125.99266,0.22044
1124.50288,0.22692
1123.01309,0.23266
1121.52330,0.23843
1120.03351,0.23554
1118.54372,0.24212
1117.05393,0.23562
1115.56415,0.24090
1114.07436,0.24408
1112.58457,0.24083
1111.09478,0.23761
1109.60499,0.23817
1108.11520,0.24781
1106.62542,0.21834
1105.13563,0.24423
1103.64584,0.24527
1102.15605,0.23283
1100.66626,0.23142
1099.17647,0.23002
1097.68668,0.20223
1096.19690,0.19048
1094.70711,0.21557
1093.21732,0.19731
1091.72753,0.18601
1090.23774,0.18129
1088.74795,0.17659
1087.25817,0.18754
1085.76838,0.17498
1084.27859,0.18733
1082.78880,0.17405
1081.29901,0.17391
1079.80922,0.20812
1078.31943,0.20706
1076.82965,0.20603
1075.33986,0.18998
1073.85007,0.18880
1072.36028,0.20308
1070.87049,0.24456
1069.38070,0.27682
1067.89092,0.29984
1066.40113,0.32289
1064.91134,0.37026
1063.42155,0.44599
1061.93176,0.53737
1060.44197,0.62106
1058.95219,0.69629
1057.46240,0.74831
1055.97261,0.80035
1054.48282,0.90921
1052.99303,0.95117
1051.50324,0.96366
1050.01345,0.92894
1048.52367,0.91410
1047.03388,0.90535
1045.54409,0.89663
1044.05430,0.84253
1042.56451,0.79326
1041.07472,0.76061
1039.58494,0.66184
1038.09515,0.59781
1036.60536,0.56590
1035.11557,0.53402
1033.62578,0.48239
1032.13599,0.41132
1030.64620,0.35782
1029.15642,0.30607
1027.66663,0.28443
1026.17684,0.26282
1024.68705,0.24817
1023.19726,0.19382
1021.70747,0.16804
1020.21769,0.14594
1018.72790,0.11481
1017.23811,0.12544
1015.74832,0.13610
1014.25853,0.10311
1012.76874,0.08846
1011.27896,0.09042
1009.78917,0.07891
1008.29938,0.05604
1006.80959,0.05277
1005.31980,0.04952
1003.83001,0.03367
1002.34022,0.04753
1000.85044,0.04387
999.36065,0.05142
997.87086,0.05601
996.38107,0.06062
994.89128,0.08328
993.40149,0.10809
991.91171,0.11634
990.42192,0.11459
988.93213,0.15817
987.44234,0.16640
985.95255,0.17465
984.46276,0.17029
982.97297,0.16596
981.48319,0.13524
979.99340,0.10107
978.50361,0.09401
977.01382,0.08698
975.52403,0.06580
974.03424,0.05718
972.54446,0.05938
971.05467,0.02863
969.56488,0.02509
968.07509,0.01772
966.58530,0.01038
965.09551,0.01289
963.60573,0.00521
962.11594,0.02014
960.62615,0.02353
959.13636,0.02616
957.64657,0.02883
956.15678,0.02168
954.66699,0.02477
953.17721,0.06414
951.68742,0.05244
950.19763,0.04674
948.70784,0.04106
947.21805,0.06452
945.72826,0.07933
944.23848,0.09243
942.74869,0.10170
941.25890,0.12757
939.76911,0.13168
938.27932,0.13581
936.78953,0.16330
935.29974,0.18020
933.80996,0.19096
932.32017,0.20136
930.83038,0.20022
929.34059,0.19910
927.85080,0.23637
926.36101,0.25323
924.87123,0.27763
923.38144,0.34448
921.89165,0.37597
920.40186,0.40748
918.91207,0.51682
917.42228,0.62542
915.93250,0.77164
914.44271,1.00832
912.95292,1.12142
911.46313,1.23454
909.97334,1.47380
908.48355,1.64887
906.99376,1.81490
905.50398,1.92273
904.01419,1.96135
902.52440,2.00000
901.03461,1.94400
899.54482,1.92851
898.05503,1.78906
896.56525,1.62554
895.07546,1.51496
893.58567,1.40441
892.09588,1.13124
890.60609,0.88124
889.11630,0.66307
887.62651,0.46517
886.13673,0.40093
884.64694,0.33670
883.15715,0.24242
881.66736,0.19021
880.17757,0.13820
878.68778,0.12489
877.19800,0.11159
875.70821,0.07702
874.21842,0.05057
872.72863,0.02915
871.23884,0.02955
869.74905,0.02496
868.25927,0.02039
866.76948,0.02163
865.27969,0.02174
863.78990,0.02862
862.30011,0.03148
860.81032,0.03860
859.32053,0.04575
857.83075,0.07066
856.34096,0.08345
854.85117,0.09510
853.36138,0.10851
851.87159,0.11154
850.38180,0.11459
848.89202,0.13347
847.40223,0.13811
845.91244,0.17633
844.42265,0.18690
842.93286,0.19750
841.44307,0.19086
839.95329,0.23033
838.46350,0.24976
836.97371,0.24937
835.48392,0.24967
833.99413,0.25000
832.50434,0.22306
831.01455,0.23703
829.52477,0.22461
828.03498,0.19119
826.54519,0.18026
825.05540,0.16936
823.56561,0.15491
822.07582,0.13181
820.58604,0.12512
819.09625,0.12135
817.60646,0.11760
816.11667,0.13625
814.62688,0.11423
813.13709,0.10940
811.64730,0.10883
810.15752,0.12218
808.66773,0.13554
807.17794,0.13389
805.68815,0.14172
804.19836,0.12565
802.70857,0.12321
801.21879,0.12079
799.72900,0.13102
798.23921,0.09770
796.74942,0.11647
795.25963,0.11752
793.76984,0.11859
792.28006,0.12336
790.79027,0.12352
789.30048,0.14780
787.81069,0.17404
786.32090,0.19336
784.83111,0.21270
783.34132,0.26331
781.85154,0.28405
780.36175,0.32449
778.87196,0.33631
777.38217,0.34816
775.89238,0.37228
774.40259,0.39488
772.91281,0.38048
771.42302,0.36235
769.93323,0.34423
768.44344,0.31313
766.95365,0.28090
765.46386,0.25428
763.97407,0.18912
762.48429,0.17450
760.99450,0.15991
759.50471,0.12317
758.01492,0.09706
756.52513,0.09854
755.03534,0.09359
753.54556,0.08867
752.05577,0.08695
750.56598,0.05517
749.07619,0.06044
747.58640,0.04944
746.09661,0.03846
744.60683,0.03031
743.11704,0.03220
741.62725,0.01561
740.13746,0.01437
738.64767,0.01316
737.15788,0.01052
735.66809,0.00521
734.17831,0.00937
732.68852,0.00671
731.19873,0.00408
729.70894,0.00923
728.21915,0.01864
726.72936,0.01439
725.23958,0.01614
723.74979,0.01474
722.26000,0.01336
720.77021,0.00805
719.28042,0.00990
717.79063,0.00521
716.30084,0.00642
714.81106,0.00764
713.32127,0.01266
711.83148,0.02656
710.34169,0.03316
708.85190,0.03487
707.36211,0.03661
705.87233,0.04483
704.38254,0.04497
702.89275,0.05324
701.40296,0.04832
699.91317,0.04342
698.42338,0.06160
696.93360,0.06437
695.44381,0.10650
693.95402,0.11115
692.46423,0.11583
690.97444,0.13489
689.48465,0.14974
687.99486,0.17965
686.50508,0.18972
685.01529,0.19982
683.52550,0.23327
682.03571,0.27138
680.54592,0.26130
679.05613,0.26890
677.56635,0.27651
676.07656,0.26612
674.58677,0.26579
673.09698,0.23288
671.60719,0.21852
670.11740,0.20418
668.62761,0.17501
667.13783,0.16901
665.64804,0.16313
664.15825,0.15727
662.66846,0.11644
661.17867,0.09203
659.68888,0.06840
658.19910,0.06342
656.70931,0.05845
655.21952,0.04088
653.72973,0.04628
652.23994,0.04842
650.75015,0.05156
649.26037,0.05471
647.77058,0.05693
646.28079,0.03430
644.79100,0.04659
643.30121,0.03963
641.81142,0.03269
640.32163,0.03252
638.83185,0.04953
637.34206,0.02570
635.85227,0.02753
634.36248,0.02939
632.87269,0.01796
631.38290,0.01890
629.89312,0.00521
628.40333,0.01046
626.91354,0.01574
625.42375,0.01034
623.93396,0.01518
622.44417,0.02496
620.95438,0.03477
619.46460,0.04065
617.97481,0.04636
616.48502,0.07465
614.99523,0.08658
613.50544,0.09853
612.01565,0.12497
610.52587,0.16358
609.03608,0.20395
607.54629,0.20385
606.05650,0.20378
604.56671,0.26292
603.07692,0.32209
601.58714,0.34726
600.09735,0.37244
598.60756,0.42763
597.11777,0.42674
595.62798,0.41430
594.13819,0.40381
592.64840,0.39335
591.15862,0.38715
589.66883,0.30462
588.17904,0.25528
586.68925,0.24154
585.19946,0.22783
583.70967,0.16776
582.21989,0.15110
580.73010,0.12252
579.24031,0.09395
577.75052,0.06927
576.26073,0.05232
574.77094,0.04658
573.28115,0.04241
571.79137,0.03827
570.30158,0.05960
568.81179,0.05492
567.32200,0.07051
565.83221,0.08613
564.34242,0.10003
562.85264,0.10201
561.36285,0.15221
559.87306,0.14720
558.38327,0.14221
556.89348,0.16491
555.40369,0.17241
553.91391,0.17029
552.42412,0.16819
550.93433,0.18675
549.44454,0.19819
547.95475,0.21121
546.46496,0.20593
544.97517,0.20067
543.48539,0.23169
541.99560,0.26254
540.50581,0.27510
539.01602,0.28768
537.52623,0.31610
536.03644,0.37173
534.54666,0.41620
533.05687,0.43765
531.56708,0.45912
530.07729,0.51080
528.58750,0.55286
527.09771,0.58356
525.60792,0.61429
524.11814,0.68169
522.62835,0.73040
521.13856,0.76409
519.64877,0.78576
518.15898,0.80745
516.66919,0.81712
515.17941,0.83394
513.68962,0.84992
512.19983,0.86593
510.71004,0.85679
509.22025,0.79215
507.73046,0.73293
506.24068,0.66149
504.75089,0.59007
503.26110,0.47577
501.77131,0.36999
500.28152,0.31985
498.79173,0.26974
497.30194,0.24000
495.81216,0.17808
494.32237,0.16863
492.83258,0.15921
491.34279,0.10295
489.85300,0.09338
488.36321,0.08712
486.87343,0.08010
485.38364,0.07311
483.89385,0.08080
482.40406,0.08890
480.91427,0.09866
479.42448,0.10845
477.93469,0.13147
476.44491,0.15509
474.95512,0.16158
473.46533,0.16808
471.97554,0.20045
470.48575,0.18098
468.99596,0.17194
467.50618,0.16968
466.01639,0.16744
464.52660,0.11528
463.03681,0.10480
461.54702,0.08836
460.05723,0.07195
458.56745,0.05749
457.07766,0.05770
455.58787,0.04435
454.09808,0.03102
452.60829,0.02264
451.11850,0.00521
449.62871,0.00451
448.13893,0.00384
446.64914,0.01375
445.15935,0.01327
443.66956,0.02246
442.17977,0.02945
440.68998,0.03647
439.20020,0.03455
437.71041,0.04171
436.22062,0.03945
434.73083,0.03721
433.24104,0.02266
431.75125,0.04072
430.26146,0.04067
428.77168,0.04065
427.28189,0.03719
425.79210,0.04184
424.30231,0.04460
422.81252,0.04737
421.32273,0.03108
419.83295,0.03545
418.34316,0.03946
416.85337,0.04349
415.36358,0.01592
413.87379,0.03080
412.38400,0.02709
410.89422,0.02341
409.40443,0.04742
407.91464,0.07242
406.42485,0.02051
404.93506,0.01740
403.44527,0.01432
401.95548,0.01127
400.46570,0.02810
398.97591,0.03251
397.48612,0.03695
395.99633,0.04460
394.50654,0.02354
393.01675,0.03123
391.52697,0.03895
390.03718,0.02471
388.54739,0.01146
387.05760,0.01424
385.56781,0.01704
384.07802,0.00521
382.58824,0.02046
381.09845,0.02801
379.60866,0.03559
378.11887,0.03702
376.62908,0.03076
375.13929,0.02260
373.64950,0.01446
372.15972,0.02776
370.66993,0.01118
369.18014,0.00819
367.69035,0.00521
366.20056,0.02396
364.71077,0.01669
363.22099,0.01649
361.73120,0.01631
360.24141,0.03477
358.75162,0.04495
357.26183,0.04880
355.77204,0.05267
354.28225,0.03863
352.79247,0.05663
351.30268,0.04688
349.81289,0.03716
348.32310,0.05889
346.83331,0.01355
345.34352,0.01142
343.85374,0.00931
342.36395,0.04117
340.87416,0.01462
339.38437,0.02994
337.89458,0.04529
336.40479,0.03077
334.91501,0.04539
333.42522,0.03517
331.93543,0.02496
330.44564,0.01015
328.95585,0.00790
327.46606,0.00655
325.97627,0.00521
324.48649,0.01747
322.99670,0.06310
321.50691,0.04127
320.01712,0.01947
318.52733,0.06672
317.03754,0.06753
315.54776,0.05196
314.05797,0.03643
312.56818,0.07355
311.07839,0.05016
309.58860,0.03855
308.09881,0.02697
306.60902,0.05474
305.11924,0.06326
303.62945,0.03488
302.13966,0.00652
300.64987,0.01974
299.16008,0.00521
