1778.52000,0.01703
1777.03021,0.01282
1775.54042,0.02786
1774.05063,0.01888
1772.56085,0.01089
1771.07106,0.01206
1769.58127,0.02094
1768.09148,0.01326
1766.60169,0.00897
1765.11190,0.01721
1763.62212,0.01657
1762.13233,0.01452
1760.64254,0.01297
1759.15275,0.00543
1757.66296,0.00898
1756.17317,0.00389
1754.68339,0.00965
1753.19360,0.00005
1751.70381,0.01090
1750.21402,0.00255
1748.72423,0.01610
1747.23444,0.00779
1745.74465,0.00480
1744.25487,0.01024
1742.76508,0.01451
1741.27529,0.01207
1739.78550,0.01350
1738.29571,0.00822
1736.80592,0.00922
1735.31614,0.00543
1733.82635,0.00799
1732.33656,0.00000
1730.84677,0.00646
1729.35698,0.00260
1727.86719,0.01151
1726.37740,0.01347
1724.88762,0.01449
1723.39783,0.00304
1721.90804,0.00983
1720.41825,0.00486
1718.92846,0.01434
1717.43867,0.01111
1715.94889,0.00838
1714.45910,0.00543
1712.96931,0.01601
1711.47952,0.00594
1709.98973,0.00840
1708.49994,0.00775
1707.01016,0.00581
1705.52037,0.00389
1704.03058,0.00188
1702.54079,0.00234
1701.05100,0.01139
1699.56121,0.01493
1698.07142,0.00864
1696.58164,0.00670
1695.09185,0.00743
1693.60206,0.02165
1692.11227,0.00608
1690.62248,0.00688
1689.13269,0.01564
1687.64291,0.00543
1686.15312,0.02584
1684.66333,0.01551
1683.17354,0.02876
1681.68375,0.02376
1680.19396,0.02118
1678.70417,0.02393
1677.21439,0.03174
1675.72460,0.05112
1674.23481,0.04336
1672.74502,0.03706
1671.25523,0.04569
1669.76544,0.04737
1668.27566,0.05605
1666.78587,0.06932
1665.29608,0.06314
1663.80629,0.07310
1662.31650,0.06384
1660.82671,0.08274
1659.33693,0.07786
1657.84714,0.07781
1656.35735,0.06168
1654.86756,0.06696
1653.37777,0.07636
1651.88798,0.07785
1650.39819,0.07841
1648.90841,0.08884
1647.41862,0.08559
1645.92883,0.08345
1644.43904,0.08133
1642.94925,0.08297
1641.45946,0.09087
1639.96968,0.09111
1638.47989,0.08609
1636.99010,0.08277
1635.50031,0.08933
1634.01052,0.07355
1632.52073,0.08521
1631.03094,0.07934
1629.54116,0.07566
1628.05137,0.09076
1626.56158,0.08761
1625.07179,0.09650
1623.58200,0.09892
1622.09221,0.09320
1620.60243,0.08750
1619.11264,0.10057
1617.62285,0.09612
1616.13306,0.07847
1614.64327,0.08441
1613.15348,0.08796
1611.66370,0.09226
1610.17391,0.08048
1608.68412,0.08819
1607.19433,0.08727
1605.70454,0.09912
1604.21475,0.09404
1602.72496,0.08899
1601.23518,0.07927
1599.74539,0.07222
1598.25560,0.07506
1596.76581,0.09089
1595.27602,0.07983
1593.78623,0.08802
1592.29645,0.08061
1590.80666,0.07779
1589.31687,0.07139
1587.82708,0.06766
1586.33729,0.06443
1584.84750,0.06436
1583.35771,0.06959
1581.86793,0.06355
1580.37814,0.07653
1578.88835,0.06501
1577.39856,0.04990
1575.90877,0.06511
1574.41898,0.05631
1572.92920,0.05257
1571.43941,0.05367
1569.94962,0.04494
1568.45983,0.03623
1566.97004,0.03019
1565.48025,0.03907
1563.99047,0.03500
1562.50068,0.02855
1561.01089,0.03896
1559.52110,0.02125
1558.03131,0.02882
1556.54152,0.01092
1555.05173,0.01734
1553.56195,0.01247
1552.07216,0.01244
1550.58237,0.00979
1549.09258,0.00764
1547.60279,0.01104
1546.11300,0.00678
1544.62322,0.00590
1543.13343,0.00746
1541.64364,0.00543
1540.15385,0.00708
1538.66406,0.00875
1537.17427,0.01693
1535.68448,0.01047
1534.19470,0.02039
1532.70491,0.01638
1531.21512,0.00543
1529.72533,0.00653
1528.23554,0.00885
1526.74575,0.01962
1525.25597,0.02656
1523.76618,0.03545
1522.27639,0.03138
1520.78660,0.03358
1519.29681,0.03124
1517.80702,0.03590
1516.31724,0.03818
1514.82745,0.05899
1513.33766,0.04665
1511.84787,0.03433
1510.35808,0.04440
1508.86829,0.04078
1507.37850,0.04536
1505.88872,0.04300
1504.39893,0.05316
1502.90914,0.05878
1501.41935,0.06562
1499.92956,0.09244
1498.43977,0.08299
1496.94999,0.07379
1495.46020,0.06486
1493.97041,0.08193
1492.48062,0.09276
1490.99083,0.11011
1489.50104,0.13734
1488.01125,0.13755
1486.52147,0.13778
1485.03168,0.16700
1483.54189,0.19721
1482.05210,0.22264
1480.56231,0.23270
1479.07252,0.24135
1477.58274,0.27142
1476.09295,0.27915
1474.60316,0.26791
1473.11337,0.29180
1471.62358,0.27724
1470.13379,0.29011
1468.64401,0.29628
1467.15422,0.32291
1465.66443,0.33321
1464.17464,0.34354
1462.68485,0.35894
1461.19506,0.42461
1459.70527,0.45977
1458.21549,0.53247
1456.72570,0.61167
1455.23591,0.67287
1453.74612,0.69900
1452.25633,0.74125
1450.76654,0.75612
1449.27676,0.77126
1447.78697,0.75492
1446.29718,0.72899
1444.80739,0.70585
1443.31760,0.68273
1441.82781,0.62561
1440.33802,0.60074
1438.84824,0.58094
1437.35845,0.56357
1435.86866,0.53252
1434.37887,0.56135
1432.88908,0.59070
1431.39929,0.62247
1429.90951,0.67301
1428.41972,0.79042
1426.92993,0.86049
1425.44014,0.90198
1423.95035,0.92557
1422.46056,0.94919
1420.97078,1.00301
1419.48099,0.99530
1417.99120,0.97487
1416.50141,0.99222
1415.01162,0.94491
1413.52183,0.89065
1412.03204,0.80709
1410.54226,0.75409
1409.05247,0.70351
1407.56268,0.67652
1406.07289,0.61517
1404.58310,0.58883
1403.09331,0.56251
1401.60353,0.47767
1400.11374,0.44575
1398.62395,0.39895
1397.13416,0.33991
1395.64437,0.29147
1394.15458,0.24979
1392.66479,0.21534
1391.17501,0.18236
1389.68522,0.15542
1388.19543,0.13451
1386.70564,0.11903
1385.21585,0.10358
1383.72606,0.07769
1382.23628,0.05664
1380.74649,0.05725
1379.25670,0.04153
1377.76691,0.02608
1376.27712,0.02435
1374.78733,0.02409
1373.29755,0.00967
1371.80776,0.01908
1370.31797,0.00543
1368.82818,0.01683
1367.33839,0.02826
1365.84860,0.03575
1364.35881,0.04133
1362.86903,0.05151
1361.37924,0.06604
1359.88945,0.10030
1358.39966,0.12065
1356.90987,0.14895
1355.42008,0.19075
1353.93030,0.23977
1352.44051,0.26971
1350.95072,0.29968
1349.46093,0.38123
1347.97114,0.44502
1346.48135,0.52807
1344.99156,0.62028
1343.50178,0.71179
1342.01199,0.75957
1340.52220,0.80280
1339.03241,0.84101
1337.54262,0.88526
1336.05283,0.89923
1334.56305,0.91323
1333.07326,0.92845
1331.58347,0.94875
1330.09368,0.94358
1328.60389,0.95215
1327.11410,0.91842
1325.62432,0.87943
1324.13453,0.84527
1322.64474,0.81714
1321.15495,0.79409
1319.66516,0.76769
1318.17537,0.74132
1316.68558,0.68444
1315.19580,0.63479
1313.70601,0.57339
1312.21622,0.56611
1310.72643,0.51558
1309.23664,0.47877
1307.74685,0.43910
1306.25707,0.43216
1304.76728,0.41213
1303.27749,0.39213
1301.78770,0.32660
1300.29791,0.29691
1298.80812,0.23502
1297.31834,0.20827
1295.82855,0.17240
1294.33876,0.13895
1292.84897,0.13896
1291.35918,0.13129
1289.86939,0.12413
1288.37960,0.11699
1286.88982,0.10675
1285.40003,0.09461
1283.91024,0.07359
1282.42045,0.05958
1280.93066,0.04871
1279.44087,0.05662
1277.95109,0.06047
1276.46130,0.06362
1274.97151,0.05682
1273.48172,0.05004
1271.99193,0.05566
1270.50214,0.04544
1269.01235,0.04006
1267.52257,0.03806
1266.03278,0.02046
1264.54299,0.03366
1263.05320,0.02837
1261.56341,0.02732
1260.07362,0.02628
1258.58384,0.02082
1257.09405,0.01972
1255.60426,0.01671
1254.11447,0.02551
1252.62468,0.02063
1251.13489,0.00543
1249.64511,0.00975
1248.15532,0.02370
1246.66553,0.02362
1245.17574,0.02355
1243.68595,0.01402
1242.19616,0.00908
1240.70637,0.02099
1239.21659,0.01321
1237.72680,0.01699
1236.23701,0.02681
1234.74722,0.03209
1233.25743,0.02970
1231.76764,0.02732
1230.27786,0.02378
1228.78807,0.03732
1227.29828,0.02829
1225.80849,0.03587
1224.31870,0.01607
1222.82891,0.00543
1221.33912,0.01556
1219.84934,0.02607
1218.35955,0.03661
1216.86976,0.05810
1215.37997,0.04765
1213.89018,0.07160
1212.40039,0.08115
1210.91061,0.08592
1209.42082,0.08926
1207.93103,0.08374
1206.44124,0.07824
1204.95145,0.07612
1203.46166,0.07764
1201.97188,0.06500
1200.48209,0.07354
1198.99230,0.08090
1197.50251,0.05487
1196.01272,0.05266
1194.52293,0.04747
1193.03314,0.04230
1191.54336,0.03271
1190.05357,0.03493
1188.56378,0.03164
1187.07399,0.02669
1185.58420,0.01839
1184.09441,0.02936
1182.60463,0.02448
1181.11484,0.01963
1179.62505,0.03211
1178.13526,0.02538
1176.64547,0.02156
1175.15568,0.00598
1173.66589,0.01086
1172.17611,0.00543
1170.68632,0.01009
1169.19653,0.01478
1167.70674,0.01685
1166.21695,0.02711
1164.72716,0.03451
1163.23738,0.03905
1161.74759,0.05276
1160.25780,0.04989
1158.76801,0.06472
1157.27822,0.07958
1155.78843,0.07174
1154.29865,0.09325
1152.80886,0.08811
1151.31907,0.09861
1149.82928,0.11130
1148.33949,0.13940
1146.84970,0.13868
1145.35991,0.13798
1143.87013,0.14499
1142.38034,0.16574
1140.89055,0.18338
1139.40076,0.18951
1137.91097,0.17618
1136.42118,0.21578
1134.93140,0.21488
1133.44161,0.21401
1131.95182,0.23998
1130.46203,0.26308
1128.97224,0.27706
1127.48245,0.25429
1125.99266,0.23058
1124.50288,0.24464
1123.01309,0.25055
1121.52330,0.25648
1120.03351,0.24080
1118.54372,0.25375
1117.05393,0.26048
1115.56415,0.25761
1114.07436,0.27401
1112.58457,0.27335
1111.09478,0.27272
1109.60499,0.25480
1108.11520,0.27562
1106.62542,0.24837
1105.13563,0.23870
1103.64584,0.26704
1102.15605,0.27040
1100.66626,0.25851
1099.17647,0.24665
1097.68668,0.24311
1096.19690,0.22493
1094.70711,0.23418
1093.21732,0.22398
1091.72753,0.22991
1090.23774,0.22637
1088.74795,0.22285
1087.25817,0.20962
1085.76838,0.23007
1084.27859,0.21352
1082.78880,0.22007
1081.29901,0.21968
1079.80922,0.22148
1078.31943,0.23375
1076.82965,0.24606
1075.33986,0.25153
1073.85007,0.22000
1072.36028,0.25726
1070.87049,0.29117
1069.38070,0.31020
1067.89092,0.33419
1066.40113,0.35820
1064.91134,0.43356
1063.42155,0.51496
1061.93176,0.58340
1060.44197,0.67615
1058.95219,0.76772
1057.46240,0.83466
1055.97261,0.90164
1054.48282,0.97572
1052.99303,1.09167
1051.50324,1.08767
1050.01345,1.05148
1048.52367,1.00785
1047.03388,1.00717
1045.54409,1.00651
1044.05430,0.95911
1042.56451,0.90260
1041.07472,0.82952
1039.58494,0.73507
1038.09515,0.65387
1036.60536,0.62570
1035.11557,0.59756
1033.62578,0.54023
1032.13599,0.43917
1030.64620,0.39031
1029.15642,0.32223
1027.66663,0.29757
1026.17684,0.27294
1024.68705,0.25014
1023.19726,0.21750
1021.70747,0.19907
1020.21769,0.16840
1018.72790,0.14209
1017.23811,0.14886
1015.74832,0.15565
1014.25853,0.13277
1012.76874,0.11232
1011.27896,0.11137
1009.78917,0.10708
1008.29938,0.07949
1006.80959,0.07115
1005.31980,0.06285
1003.83001,0.04999
1002.34022,0.04414
1000.85044,0.04456
999.36065,0.06279
997.87086,0.06915
996.38107,0.07553
994.89128,0.07700
993.40149,0.10327
991.91171,0.11754
990.42192,0.12173
988.93213,0.15504
987.44234,0.16228
985.95255,0.16955
984.46276,0.16831
982.97297,0.16637
981.48319,0.13296
979.99340,0.10246
978.50361,0.09518
977.01382,0.08793
975.52403,0.08082
974.03424,0.07254
972.54446,0.05947
971.05467,0.02887
969.56488,0.02762
968.07509,0.01655
966.58530,0.00550
965.09551,0.00918
963.60573,0.00543
962.11594,0.02675
960.62615,0.01804
959.13636,0.01969
957.64657,0.02136
956.15678,0.03196
954.66699,0.03031
953.17721,0.03519
951.68742,0.04970
950.19763,0.04681
948.70784,0.04394
947.21805,0.06453
945.72826,0.07578
944.23848,0.11782
942.74869,0.11877
941.25890,0.13177
939.76911,0.13445
938.27932,0.13716
936.78953,0.15383
935.29974,0.16332
933.80996,0.18437
932.32017,0.19655
930.83038,0.19541
929.34059,0.19430
927.85080,0.23756
926.36101,0.26090
924.87123,0.29003
923.38144,0.33793
921.89165,0.37589
920.40186,0.41386
918.91207,0.52074
917.42228,0.63751
915.93250,0.77257
914.44271,1.00430
912.95292,1.14085
911.46313,1.27743
909.97334,1.45465
908.48355,1.68480
906.99376,1.81303
905.50398,1.93864
904.01419,1.96931
902.52440,2.00000
901.03461,1.93743
899.54482,1.88883
898.05503,1.77029
896.56525,1.63374
895.07546,1.51500
893.58567,1.39629
892.09588,1.16028
890.60609,0.91683
889.11630,0.67846
887.62651,0.50720
886.13673,0.42828
884.64694,0.34938
883.15715,0.26594
881.66736,0.20488
880.17757,0.15611
878.68778,0.13814
877.19800,0.12019
875.70821,0.09192
874.21842,0.07426
872.72863,0.04051
871.23884,0.02699
869.74905,0.03260
868.25927,0.03824
866.76948,0.03680
865.27969,0.03107
863.78990,0.04194
862.30011,0.05477
860.81032,0.06954
859.32053,0.08433
857.83075,0.10228
856.34096,0.11832
854.85117,0.12381
853.36138,0.13101
851.87159,0.15338
850.38180,0.17577
848.89202,0.17174
847.40223,0.19802
845.91244,0.23299
844.42265,0.23709
842.93286,0.24120
841.44307,0.25484
839.95329,0.26971
838.46350,0.31033
836.97371,0.31177
835.48392,0.31157
833.99413,0.31138
832.50434,0.31314
831.01455,0.29185
829.52477,0.27202
828.03498,0.25029
826.54519,0.23388
825.05540,0.21749
823.56561,0.18862
822.07582,0.17228
820.58604,0.18312
819.09625,0.17104
817.60646,0.15897
816.11667,0.15956
814.62688,0.15319
813.13709,0.14853
811.64730,0.16193
810.15752,0.15888
808.66773,0.15586
807.17794,0.16644
805.68815,0.19123
804.19836,0.17470
802.70857,0.17129
801.21879,0.16790
799.72900,0.16034
798.23921,0.14462
796.74942,0.15465
795.25963,0.15256
793.76984,0.15050
792.28006,0.16276
790.79027,0.18803
789.30048,0.20612
787.81069,0.21485
786.32090,0.23659
784.83111,0.25835
783.34132,0.30009
781.85154,0.34594
780.36175,0.36657
778.87196,0.38891
777.38217,0.41128
775.89238,0.41803
774.40259,0.43371
772.91281,0.43162
771.42302,0.41694
769.93323,0.40227
768.44344,0.38751
766.95365,0.32998
765.46386,0.26863
763.97407,0.22292
762.48429,0.20381
760.99450,0.18473
759.50471,0.16025
758.01492,0.13797
756.52513,0.12845
755.03534,0.12124
753.54556,0.11405
752.05577,0.09859
750.56598,0.08267
749.07619,0.06342
747.58640,0.05981
746.09661,0.05623
744.60683,0.04185
743.11704,0.03039
741.62725,0.01774
740.13746,0.01678
738.64767,0.01584
737.15788,0.01048
735.66809,0.00707
734.17831,0.01738
732.68852,0.01726
731.19873,0.01716
729.70894,0.00543
728.21915,0.00994
726.72936,0.01832
725.23958,0.00869
723.74979,0.01147
722.26000,0.01427
720.77021,0.00880
719.28042,0.00840
717.79063,0.01644
716.30084,0.01092
714.81106,0.00543
713.32127,0.01193
711.83148,0.00619
710.34169,0.02692
708.85190,0.02868
707.36211,0.03047
705.87233,0.04478
704.38254,0.03508
702.89275,0.03381
701.40296,0.04122
699.91317,0.04865
698.42338,0.05659
696.93360,0.08187
695.44381,0.08144
693.95402,0.09619
692.46423,0.11095
690.97444,0.09641
689.48465,0.13551
687.99486,0.16838
686.50508,0.17507
685.01529,0.18179
683.52550,0.21449
682.03571,0.24361
680.54592,0.27203
679.05613,0.26297
677.56635,0.25394
676.07656,0.26031
674.58677,0.25734
673.09698,0.23611
671.60719,0.22284
670.11740,0.20960
668.62761,0.16417
667.13783,0.15770
665.64804,0.14922
664.15825,0.14076
662.66846,0.11658
661.17867,0.07150
659.68888,0.05530
658.19910,0.05283
656.70931,0.05038
655.21952,0.04867
653.72973,0.03641
652.23994,0.04101
650.75015,0.04719
649.26037,0.05340
647.77058,0.05734
646.28079,0.03054
644.79100,0.04319
643.30121,0.03338
641.81142,0.02360
640.32163,0.01852
638.83185,0.02718
637.34206,0.01807
635.85227,0.01644
634.36248,0.01483
632.87269,0.01228
631.38290,0.00543
629.89312,0.00918
628.40333,0.02233
626.91354,0.03551
625.42375,0.02274
623.93396,0.01361
622.44417,0.02373
620.95438,0.03387
619.46460,0.04356
617.97481,0.05255
616.48502,0.05820
614.99523,0.06724
613.50544,0.07631
612.01565,0.11521
610.52587,0.15221
609.03608,0.20582
607.54629,0.21438
606.05650,0.22296
604.56671,0.24154
603.07692,0.32747
601.58714,0.36642
600.09735,0.40539
598.60756,0.45460
597.11777,0.43772
595.62798,0.44563
594.13819,0.43469
592.64840,0.42377
591.15862,0.40603
589.66883,0.34262
588.17904,0.27251
586.68925,0.24678
585.19946,0.22108
583.70967,0.18374
582.21989,0.12911
580.73010,0.11502
579.24031,0.10095
577.75052,0.08847
576.26073,0.05197
574.77094,0.05541
573.28115,0.05514
571.79137,0.05489
570.30158,0.05936
568.81179,0.06770
567.32200,0.08075
565.83221,0.09383
564.34242,0.12291
562.85264,0.14121
561.36285,0.16577
559.87306,0.16608
558.38327,0.16641
556.89348,0.16749
555.40369,0.19600
553.91391,0.19244
552.42412,0.18890
550.93433,0.23503
549.44454,0.24248
547.95475,0.25452
546.46496,0.24350
544.97517,0.23251
543.48539,0.25183
541.99560,0.28176
540.50581,0.29945
539.01602,0.31716
537.52623,0.35485
536.03644,0.40868
534.54666,0.45411
533.05687,0.48250
531.56708,0.51091
530.07729,0.55666
528.58750,0.59642
527.09771,0.62983
525.60792,0.66327
524.11814,0.69925
522.62835,0.75810
521.13856,0.83092
519.64877,0.83488
518.15898,0.83886
516.66919,0.88602
515.17941,0.85988
513.68962,0.87319
512.19983,0.88653
510.71004,0.91479
509.22025,0.87096
507.73046,0.78555
506.24068,0.72637
504.75089,0.66722
503.26110,0.51937
501.77131,0.40136
500.28152,0.36368
498.79173,0.32602
497.30194,0.27180
495.81216,0.19644
494.32237,0.18049
492.83258,0.16456
491.34279,0.11668
489.85300,0.08350
488.36321,0.07245
486.87343,0.08271
485.38364,0.09299
483.89385,0.08081
482.40406,0.11458
480.91427,0.12025
479.42448,0.12593
477.93469,0.15833
476.44491,0.16984
474.95512,0.18281
473.46533,0.19581
471.97554,0.20979
470.48575,0.20143
468.99596,0.20873
467.50618,0.20259
466.01639,0.19647
464.52660,0.15648
463.03681,0.13478
461.54702,0.12056
460.05723,0.10636
458.56745,0.06719
457.07766,0.04390
455.58787,0.04288
454.09808,0.04188
452.60829,0.03333
451.11850,0.00918
449.62871,0.00729
448.13893,0.00543
446.64914,0.02284
445.15935,0.01502
443.66956,0.00771
442.17977,0.02507
440.68998,0.04245
439.20020,0.02054
437.71041,0.03376
436.22062,0.03655
434.73083,0.03936
433.24104,0.05506
431.75125,0.04626
430.26146,0.04253
428.77168,0.03882
427.28189,0.04692
425.79210,0.04062
424.30231,0.04179
422.81252,0.04299
421.32273,0.02570
419.83295,0.03657
418.34316,0.04048
416.85337,0.04442
415.36358,0.04237
413.87379,0.04179
412.38400,0.04208
410.89422,0.04239
409.40443,0.05198
407.91464,0.04692
406.42485,0.01569
404.93506,0.01188
403.44527,0.00810
401.95548,0.02785
400.46570,0.02935
398.97591,0.03436
397.48612,0.03940
395.99633,0.04049
394.50654,0.02646
393.01675,0.02351
391.52697,0.02059
390.03718,0.02621
388.54739,0.01480
387.05760,0.01494
385.56781,0.01512
384.07802,0.02565
382.58824,0.00543
381.09845,0.00690
379.60866,0.00840
378.11887,0.03420
376.62908,0.03262
375.13929,0.02926
373.64950,0.02593
372.15972,0.02995
370.66993,0.02654
369.18014,0.02654
367.69035,0.02657
366.20056,0.03335
364.71077,0.03150
363.22099,0.03148
361.73120,0.03148
360.24141,0.03066
358.75162,0.06209
357.26183,0.05687
355.77204,0.05168
354.28225,0.06611
352.79247,0.08296
351.30268,0.08421
349.81289,0.08549
348.32310,0.06756
346.83331,0.03185
345.34352,0.02791
343.85374,0.02399
342.36395,0.02202
340.87416,0.02705
339.38437,0.03606
337.89458,0.04510
336.40479,0.04275
334.91501,0.02310
333.42522,0.02128
331.93543,0.01947
330.44564,0.00543
328.95585,0.02183
327.46606,0.02107
325.97627,0.02032
324.48649,0.05243
322.99670,0.04104
321.50691,0.03677
320.01712,0.03252
318.52733,0.04693
317.03754,0.09430
315.54776,0.07570
314.05797,0.05713
312.56818,0.07476
311.07839,0.08183
309.58860,0.06429
308.09881,0.04677
306.60902,0.06281
305.11924,0.05027
303.62945,0.03306
302.13966,0.01588
300.64987,0.00543
299.16008,0.00543
