1778.52000,0.01507
1777.03021,0.00544
1775.54042,0.01534
1774.05063,0.01701
1772.56085,0.00946
1771.07106,0.01118
1769.58127,0.00592
1768.09148,0.00644
1766.60169,0.00598
1765.11190,0.01230
1763.62212,0.01089
1762.13233,0.01126
1760.64254,0.00615
1759.15275,0.00881
1757.66296,0.01300
1756.17317,0.00171
1754.68339,0.00170
1753.19360,0.00221
1751.70381,0.01024
1750.21402,0.01581
1748.72423,0.01214
1747.23444,0.01250
1745.74465,0.00888
1744.25487,0.00728
1742.76508,0.02122
1741.27529,0.01342
1739.78550,0.00615
1738.29571,0.01359
1736.80592,0.01255
1735.31614,0.01654
1733.82635,0.01930
1732.33656,0.01659
1730.84677,0.01089
1729.35698,0.01823
1727.86719,0.01384
1726.37740,0.01822
1724.88762,0.01437
1723.39783,0.01731
1721.90804,0.01726
1720.41825,0.01424
1718.92846,0.01599
1717.43867,0.01627
1715.94889,0.02083
1714.45910,0.00615
1712.96931,0.01246
1711.47952,0.01830
1709.98973,0.00966
1708.49994,0.01155
1707.01016,0.01046
1705.52037,0.00940
1704.03058,0.02311
1702.54079,0.03335
1701.05100,0.02285
1699.56121,0.02614
1698.07142,0.01744
1696.58164,0.02277
1695.09185,0.03438
1693.60206,0.02751
1692.11227,0.03591
1690.62248,0.03034
1689.13269,0.03379
1687.64291,0.03152
1686.15312,0.04152
1684.66333,0.02979
1683.17354,0.05160
1681.68375,0.04117
1680.19396,0.05777
1678.70417,0.04614
1677.21439,0.04678
1675.72460,0.06521
1674.23481,0.07065
1672.74502,0.06412
1671.25523,0.05911
1669.76544,0.07288
1668.27566,0.08968
1666.78587,0.08249
1665.29608,0.09359
1663.80629,0.09520
1662.31650,0.10159
1660.82671,0.10025
1659.33693,0.09293
1657.84714,0.09440
1656.35735,0.08938
1654.86756,0.09489
1653.37777,0.09892
1651.88798,0.10223
1650.39819,0.09106
1648.90841,0.10692
1647.41862,0.09505
1645.92883,0.08995
1644.43904,0.08488
1642.94925,0.08883
1641.45946,0.09806
1639.96968,0.10131
1638.47989,0.09558
1636.99010,0.09588
1635.50031,0.07645
1634.01052,0.07905
1632.52073,0.09393
1631.03094,0.09457
1629.54116,0.08124
1628.05137,0.09419
1626.56158,0.09516
1625.07179,0.10941
1623.58200,0.09967
1622.09221,0.10722
1620.60243,0.10403
1619.11264,0.11162
1617.62285,0.11424
1616.13306,0.09987
1614.64327,0.09803
1613.15348,0.10497
1611.66370,0.10819
1610.17391,0.09091
1608.68412,0.10893
1607.19433,0.08971
1605.70454,0.09977
1604.21475,0.09948
1602.72496,0.09921
1601.23518,0.09259
1599.74539,0.07824
1598.25560,0.10117
1596.76581,0.08487
1595.27602,0.08935
1593.78623,0.08735
1592.29645,0.07612
1590.80666,0.08718
1589.31687,0.07525
1587.82708,0.08485
1586.33729,0.07647
1584.84750,0.09112
1583.35771,0.08729
1581.86793,0.08274
1580.37814,0.07871
1578.88835,0.08595
1577.39856,0.07597
1575.90877,0.07501
1574.41898,0.06607
1572.92920,0.05466
1571.43941,0.05002
1569.94962,0.04816
1568.45983,0.04632
1566.97004,0.04026
1565.48025,0.04497
1563.99047,0.04821
1562.50068,0.05247
1561.01089,0.05226
1559.52110,0.04857
1558.03131,0.03414
1556.54152,0.03250
1555.05173,0.04714
1553.56195,0.02904
1552.07216,0.01746
1550.58237,0.02167
1549.09258,0.00889
1547.60279,0.01890
1546.11300,0.01817
1544.62322,0.01998
1543.13343,0.01955
1541.64364,0.00615
1540.15385,0.00674
1538.66406,0.00735
1537.17427,0.01826
1535.68448,0.01743
1534.19470,0.01563
1532.70491,0.01710
1531.21512,0.01285
1529.72533,0.01312
1528.23554,0.01817
1526.74575,0.02524
1525.25597,0.03134
1523.76618,0.02821
1522.27639,0.03235
1520.78660,0.03427
1519.29681,0.04772
1517.80702,0.05793
1516.31724,0.03792
1514.82745,0.04894
1513.33766,0.04460
1511.84787,0.04028
1510.35808,0.03462
1508.86829,0.04398
1507.37850,0.05762
1505.88872,0.05103
1504.39893,0.04671
1502.90914,0.04917
1501.41935,0.05666
1499.92956,0.07517
1498.43977,0.07645
1496.94999,0.05575
1495.46020,0.08234
1493.97041,0.07119
1492.48062,0.09607
1490.99083,0.09597
1489.50104,0.11141
1488.01125,0.11473
1486.52147,0.11808
1485.03168,0.13959
1483.54189,0.16712
1482.05210,0.17817
1480.56231,0.18375
1479.07252,0.19084
1477.58274,0.21322
1476.09295,0.22212
1474.60316,0.23329
1473.11337,0.23498
1471.62358,0.22595
1470.13379,0.24169
1468.64401,0.25596
1467.15422,0.27601
1465.66443,0.28795
1464.17464,0.29992
1462.68485,0.35655
1461.19506,0.39070
1459.70527,0.44213
1458.21549,0.45282
1456.72570,0.51430
1455.23591,0.58606
1453.74612,0.60157
1452.25633,0.62586
1450.76654,0.65092
1449.27676,0.66701
1447.78697,0.67137
1446.29718,0.65399
1444.80739,0.65026
1443.31760,0.64656
1441.82781,0.57424
1440.33802,0.54195
1438.84824,0.51119
1437.35845,0.50146
1435.86866,0.45524
1434.37887,0.45982
1432.88908,0.50543
1431.39929,0.54006
1429.90951,0.61873
1428.41972,0.70994
1426.92993,0.76065
1425.44014,0.79613
1423.95035,0.81338
1422.46056,0.83065
1420.97078,0.87220
1419.48099,0.87527
1417.99120,0.88261
1416.50141,0.88422
1415.01162,0.87461
1413.52183,0.80699
1412.03204,0.77017
1410.54226,0.69285
1409.05247,0.64356
1407.56268,0.64282
1406.07289,0.58783
1404.58310,0.55913
1403.09331,0.53045
1401.60353,0.46578
1400.11374,0.38063
1398.62395,0.34577
1397.13416,0.30268
1395.64437,0.25812
1394.15458,0.21408
1392.66479,0.17907
1391.17501,0.15483
1389.68522,0.12412
1388.19543,0.11744
1386.70564,0.10578
1385.21585,0.09415
1383.72606,0.09079
1382.23628,0.06320
1380.74649,0.04039
1379.25670,0.04161
1377.76691,0.01734
1376.27712,0.00586
1374.78733,0.00615
1373.29755,0.01908
1371.80776,0.01127
1370.31797,0.01525
1368.82818,0.01624
1367.33839,0.01727
1365.84860,0.02406
1364.35881,0.03289
1362.86903,0.04924
1361.37924,0.04785
1359.88945,0.09576
1358.39966,0.10643
1356.90987,0.14089
1355.42008,0.16461
1353.93030,0.21562
1352.44051,0.24902
1350.95072,0.28244
1349.46093,0.33603
1347.97114,0.42815
1346.48135,0.46402
1344.99156,0.56494
1343.50178,0.62412
1342.01199,0.65932
1340.52220,0.70029
1339.03241,0.77830
1337.54262,0.80706
1336.05283,0.82022
1334.56305,0.83341
1333.07326,0.87825
1331.58347,0.90061
1330.09368,0.89524
1328.60389,0.88539
1327.11410,0.88381
1325.62432,0.85525
1324.13453,0.83022
1322.64474,0.79245
1321.15495,0.75646
1319.66516,0.72850
1318.17537,0.70056
1316.68558,0.64463
1315.19580,0.59898
1313.70601,0.53711
1312.21622,0.51026
1310.72643,0.44593
1309.23664,0.42039
1307.74685,0.42638
1306.25707,0.37963
1304.76728,0.36529
1303.27749,0.35097
1301.78770,0.29754
1300.29791,0.25288
1298.80812,0.19750
1297.31834,0.17915
1295.82855,0.14082
1294.33876,0.13503
1292.84897,0.11625
1291.35918,0.10151
1289.86939,0.09528
1288.37960,0.08909
1286.88982,0.06591
1285.40003,0.06776
1283.91024,0.06489
1282.42045,0.06379
1280.93066,0.04721
1279.44087,0.04216
1277.95109,0.05589
1276.46130,0.04688
1274.97151,0.05216
1273.48172,0.05746
1271.99193,0.03977
1270.50214,0.01911
1269.01235,0.03699
1267.52257,0.01713
1266.03278,0.00729
1264.54299,0.02499
1263.05320,0.01870
1261.56341,0.01519
1260.07362,0.01171
1258.58384,0.01275
1257.09405,0.01381
1255.60426,0.01840
1254.11447,0.00776
1252.62468,0.00615
1251.13489,0.01404
1249.64511,0.01845
1248.15532,0.02739
1246.66553,0.02360
1245.17574,0.01983
1243.68595,0.02459
1242.19616,0.01362
1240.70637,0.01693
1239.21659,0.01101
1237.72680,0.02186
1236.23701,0.03850
1234.74722,0.02115
1233.25743,0.02208
1231.76764,0.02303
1230.27786,0.03051
1228.78807,0.02751
1227.29828,0.03353
1225.80849,0.01458
1224.31870,0.00615
1222.82891,0.01943
1221.33912,0.01574
1219.84934,0.02620
1218.35955,0.03669
1216.86976,0.04982
1215.37997,0.05848
1213.89018,0.07967
1212.40039,0.07212
1210.91061,0.07335
1209.42082,0.08760
1207.93103,0.08000
1206.44124,0.07242
1204.95145,0.05849
1203.46166,0.06334
1201.97188,0.04396
1200.48209,0.06011
1198.99230,0.05428
1197.50251,0.04873
1196.01272,0.04419
1194.52293,0.03981
1193.03314,0.03545
1191.54336,0.02299
1190.05357,0.01806
1188.56378,0.01615
1187.07399,0.02101
1185.58420,0.00615
1184.09441,0.02472
1182.60463,0.01981
1181.11484,0.01493
1179.62505,0.01857
1178.13526,0.02424
1176.64547,0.01668
1175.15568,0.01640
1173.66589,0.02789
1172.17611,0.00615
1170.68632,0.01570
1169.19653,0.02528
1167.70674,0.02251
1166.21695,0.02326
1164.72716,0.02704
1163.23738,0.04234
1161.74759,0.05217
1160.25780,0.06077
1158.76801,0.06339
1157.27822,0.06604
1155.78843,0.08521
1154.29865,0.08566
1152.80886,0.09338
1151.31907,0.12063
1149.82928,0.09164
1148.33949,0.11319
1146.84970,0.11963
1145.35991,0.12610
1143.87013,0.13721
1142.38034,0.16061
1140.89055,0.15477
1139.40076,0.16421
1137.91097,0.17067
1136.42118,0.19442
1134.93140,0.21031
1133.44161,0.22622
1131.95182,0.23078
1130.46203,0.23136
1128.97224,0.24873
1127.48245,0.26061
1125.99266,0.24576
1124.50288,0.24144
1123.01309,0.23451
1121.52330,0.22761
1120.03351,0.23737
1118.54372,0.24815
1117.05393,0.23269
1115.56415,0.24527
1114.07436,0.27513
1112.58457,0.26450
1111.09478,0.25389
1109.60499,0.24756
1108.11520,0.25325
1106.62542,0.24472
1105.13563,0.24696
1103.64584,0.25924
1102.15605,0.23327
1100.66626,0.22821
1099.17647,0.22317
1097.68668,0.21078
1096.19690,0.21167
1094.70711,0.20833
1093.21732,0.22178
1091.72753,0.19648
1090.23774,0.18884
1088.74795,0.18122
1087.25817,0.17275
1085.76838,0.19031
1084.27859,0.16739
1082.78880,0.17425
1081.29901,0.16838
1079.80922,0.18454
1078.31943,0.18497
1076.82965,0.18542
1075.33986,0.18815
1073.85007,0.15789
1072.36028,0.19318
1070.87049,0.21624
1069.38070,0.24308
1067.89092,0.25555
1066.40113,0.26806
1064.91134,0.31447
1063.42155,0.37416
1061.93176,0.45164
1060.44197,0.55314
1058.95219,0.63442
1057.46240,0.67132
1055.97261,0.70826
1054.48282,0.81636
1052.99303,0.86772
1051.50324,0.89185
1050.01345,0.87223
1048.52367,0.86089
1047.03388,0.85970
1045.54409,0.85854
1044.05430,0.80901
1042.56451,0.79776
1041.07472,0.72977
1039.58494,0.69957
1038.09515,0.61763
1036.60536,0.58385
1035.11557,0.55009
1033.62578,0.50798
1032.13599,0.43639
1030.64620,0.35781
1029.15642,0.32103
1027.66663,0.28715
1026.17684,0.25329
1024.68705,0.24333
1023.19726,0.21915
1021.70747,0.19449
1020.21769,0.15635
1018.72790,0.14625
1017.23811,0.14767
1015.74832,0.14912
1014.25853,0.11908
1012.76874,0.11332
1011.27896,0.11634
1009.78917,0.11088
1008.29938,0.07444
1006.80959,0.07140
1005.31980,0.06839
1003.83001,0.05128
1002.34022,0.03594
1000.85044,0.03863
999.36065,0.03509
997.87086,0.03583
996.38107,0.03659
994.89128,0.06288
993.40149,0.05319
991.91171,0.05828
990.42192,0.07889
988.93213,0.09653
987.44234,0.10632
985.95255,0.11613
984.46276,0.11783
982.97297,0.09430
981.48319,0.08480
979.99340,0.05282
978.50361,0.05275
977.01382,0.05270
975.52403,0.05555
974.03424,0.03842
972.54446,0.01956
971.05467,0.01773
969.56488,0.01043
968.07509,0.00828
966.58530,0.00615
965.09551,0.01992
963.60573,0.03347
962.11594,0.03530
960.62615,0.03214
959.13636,0.03176
957.64657,0.03140
956.15678,0.03557
954.66699,0.05002
953.17721,0.03523
951.68742,0.05648
950.19763,0.06312
948.70784,0.06978
947.21805,0.08710
945.72826,0.08744
944.23848,0.12556
942.74869,0.12995
941.25890,0.12511
939.76911,0.13942
938.27932,0.15376
936.78953,0.16275
935.29974,0.17301
933.80996,0.20605
932.32017,0.21611
930.83038,0.22206
929.34059,0.22805
927.85080,0.23643
926.36101,0.26809
924.87123,0.29302
923.38144,0.34474
921.89165,0.37973
920.40186,0.41474
918.91207,0.50505
917.42228,0.58712
915.93250,0.72550
914.44271,0.95742
912.95292,1.07058
911.46313,1.18377
909.97334,1.39351
908.48355,1.60103
906.99376,1.77356
905.50398,1.90660
904.01419,1.94000
902.52440,1.97343
901.03461,2.00000
899.54482,1.95857
898.05503,1.91392
896.56525,1.70223
895.07546,1.60085
893.58567,1.49950
892.09588,1.20711
890.60609,0.92924
889.11630,0.68291
887.62651,0.51363
886.13673,0.45716
884.64694,0.40072
883.15715,0.29779
881.66736,0.21264
880.17757,0.16002
878.68778,0.14932
877.19800,0.13864
875.70821,0.09310
874.21842,0.04583
872.72863,0.03860
871.23884,0.04315
869.74905,0.03185
868.25927,0.02056
866.76948,0.02369
865.27969,0.01058
863.78990,0.02500
862.30011,0.04420
860.81032,0.05530
859.32053,0.06642
857.83075,0.05893
856.34096,0.09073
854.85117,0.09055
853.36138,0.09739
851.87159,0.10113
850.38180,0.10489
848.89202,0.11856
847.40223,0.12074
845.91244,0.14446
844.42265,0.15107
842.93286,0.15771
841.44307,0.17275
839.95329,0.18181
838.46350,0.20565
836.97371,0.20825
835.48392,0.21601
833.99413,0.22379
832.50434,0.22347
831.01455,0.21017
829.52477,0.16938
828.03498,0.15337
826.54519,0.14489
825.05540,0.13644
823.56561,0.14276
822.07582,0.12135
820.58604,0.10572
819.09625,0.09936
817.60646,0.09303
816.11667,0.09823
814.62688,0.07294
813.13709,0.10144
811.64730,0.10621
810.15752,0.11575
808.66773,0.12532
807.17794,0.10815
805.68815,0.11502
804.19836,0.12141
802.70857,0.11645
801.21879,0.11151
799.72900,0.09946
798.23921,0.08994
796.74942,0.10146
795.25963,0.09536
793.76984,0.08929
792.28006,0.10488
790.79027,0.11424
789.30048,0.11562
787.81069,0.16254
786.32090,0.17510
784.83111,0.18768
783.34132,0.20892
781.85154,0.22442
780.36175,0.26446
778.87196,0.28727
777.38217,0.31010
775.89238,0.32546
774.40259,0.32208
772.91281,0.30022
771.42302,0.30464
769.93323,0.30909
768.44344,0.29680
766.95365,0.28154
765.46386,0.21953
763.97407,0.18906
762.48429,0.16062
760.99450,0.13220
759.50471,0.12981
758.01492,0.11720
756.52513,0.09010
755.03534,0.08241
753.54556,0.07474
752.05577,0.08848
750.56598,0.05598
749.07619,0.05527
747.58640,0.05245
746.09661,0.04966
744.60683,0.04701
743.11704,0.04239
741.62725,0.03104
740.13746,0.02684
738.64767,0.02267
737.15788,0.02390
735.66809,0.02165
734.17831,0.01267
732.68852,0.02335
731.19873,0.03406
729.70894,0.00615
728.21915,0.01315
726.72936,0.02668
725.23958,0.01547
723.74979,0.01942
722.26000,0.02339
720.77021,0.01701
719.28042,0.00615
717.79063,0.02652
716.30084,0.02592
714.81106,0.02534
713.32127,0.02753
711.83148,0.02224
710.34169,0.03499
708.85190,0.03826
707.36211,0.04155
705.87233,0.03911
704.38254,0.04995
702.89275,0.04906
701.40296,0.04295
699.91317,0.03686
698.42338,0.06505
696.93360,0.08152
695.44381,0.10026
693.95402,0.11214
692.46423,0.12406
690.97444,0.14987
689.48465,0.14820
687.99486,0.18757
686.50508,0.18920
685.01529,0.19085
683.52550,0.22479
682.03571,0.25000
680.54592,0.23872
679.05613,0.25298
677.56635,0.26726
676.07656,0.28331
674.58677,0.27138
673.09698,0.26247
671.60719,0.23959
670.11740,0.21672
668.62761,0.18588
667.13783,0.15831
665.64804,0.14828
664.15825,0.13827
662.66846,0.10452
661.17867,0.09156
659.68888,0.08437
658.19910,0.07358
656.70931,0.06281
655.21952,0.05870
653.72973,0.04586
652.23994,0.04579
650.75015,0.04638
649.26037,0.04699
647.77058,0.05125
646.28079,0.05578
644.79100,0.04883
643.30121,0.03879
641.81142,0.02876
640.32163,0.02614
638.83185,0.05080
637.34206,0.02172
635.85227,0.01517
634.36248,0.00865
632.87269,0.00615
631.38290,0.02031
629.89312,0.03174
628.40333,0.02757
626.91354,0.02342
625.42375,0.02743
623.93396,0.03271
622.44417,0.03488
620.95438,0.03709
619.46460,0.03619
617.97481,0.05031
616.48502,0.06197
614.99523,0.07590
613.50544,0.08985
612.01565,0.10532
610.52587,0.15784
609.03608,0.16411
607.54629,0.18103
606.05650,0.19798
604.56671,0.25185
603.07692,0.29523
601.58714,0.32438
600.09735,0.35355
598.60756,0.37200
597.11777,0.39222
595.62798,0.39221
594.13819,0.38784
592.64840,0.38350
591.15862,0.37481
589.66883,0.32713
588.17904,0.25146
586.68925,0.23158
585.19946,0.21173
583.70967,0.17590
582.21989,0.11559
580.73010,0.10119
579.24031,0.08681
577.75052,0.08084
576.26073,0.06563
574.77094,0.05296
573.28115,0.04255
571.79137,0.03217
570.30158,0.04258
568.81179,0.03250
567.32200,0.04382
565.83221,0.05517
564.34242,0.06943
562.85264,0.06019
561.36285,0.10425
559.87306,0.10145
558.38327,0.09866
556.89348,0.12429
555.40369,0.12218
553.91391,0.13485
552.42412,0.14755
550.93433,0.15326
549.44454,0.15275
547.95475,0.16327
546.46496,0.15555
544.97517,0.14786
543.48539,0.16045
541.99560,0.20132
540.50581,0.23509
539.01602,0.26889
537.52623,0.29358
536.03644,0.33105
534.54666,0.34203
533.05687,0.36530
531.56708,0.38859
530.07729,0.43566
528.58750,0.52276
527.09771,0.54137
525.60792,0.56001
524.11814,0.62418
522.62835,0.64686
521.13856,0.70033
519.64877,0.74107
518.15898,0.78183
516.66919,0.79310
515.17941,0.80065
513.68962,0.80022
512.19983,0.79981
510.71004,0.80368
509.22025,0.72555
507.73046,0.69971
506.24068,0.64525
504.75089,0.59082
503.26110,0.46177
501.77131,0.33198
500.28152,0.29050
498.79173,0.24905
497.30194,0.20662
495.81216,0.15972
494.32237,0.14472
492.83258,0.12975
491.34279,0.09367
489.85300,0.06937
488.36321,0.06960
486.87343,0.05873
485.38364,0.04788
483.89385,0.05343
482.40406,0.08702
480.91427,0.07750
479.42448,0.06800
477.93469,0.08165
476.44491,0.11259
474.95512,0.12354
473.46533,0.13452
471.97554,0.13026
470.48575,0.14379
468.99596,0.16885
467.50618,0.16292
466.01639,0.15701
464.52660,0.10236
463.03681,0.08499
461.54702,0.08154
460.05723,0.07810
458.56745,0.03205
457.07766,0.01153
455.58787,0.01492
454.09808,0.01834
452.60829,0.00615
451.11850,0.01277
449.62871,0.00904
448.13893,0.00534
446.64914,0.01379
445.15935,0.00851
443.66956,0.01800
442.17977,0.02102
440.68998,0.02407
439.20020,0.02138
437.71041,0.02122
436.22062,0.03034
434.73083,0.03949
433.24104,0.02339
431.75125,0.02083
430.26146,0.02805
428.77168,0.03529
427.28189,0.03430
425.79210,0.03008
424.30231,0.02464
422.81252,0.01922
421.32273,0.03133
419.83295,0.02421
418.34316,0.01574
416.85337,0.00729
415.36358,0.00724
413.87379,0.03623
412.38400,0.02623
410.89422,0.01626
409.40443,0.05782
407.91464,0.05840
406.42485,0.01498
404.93506,0.02211
403.44527,0.02926
401.95548,0.03118
400.46570,0.04914
398.97591,0.03610
397.48612,0.02309
395.99633,0.04062
394.50654,0.02816
393.01675,0.02398
391.52697,0.01982
390.03718,0.02794
388.54739,0.01682
387.05760,0.01147
385.56781,0.00615
384.07802,0.01426
382.58824,0.02366
381.09845,0.03370
379.60866,0.04377
378.11887,0.04473
376.62908,0.04497
375.13929,0.02247
373.64950,0.00000
372.15972,0.01089
370.66993,0.04580
369.18014,0.03648
367.69035,0.02718
366.20056,0.05734
364.71077,0.03350
363.22099,0.03820
361.73120,0.04292
360.24141,0.05768
358.75162,0.07620
357.26183,0.07074
355.77204,0.06531
354.28225,0.03989
352.79247,0.06302
351.30268,0.06141
349.81289,0.05982
348.32310,0.07501
346.83331,0.05672
345.34352,0.06471
343.85374,0.07273
342.36395,0.10427
340.87416,0.06832
339.38437,0.07478
337.89458,0.08127
336.40479,0.04414
334.91501,0.02429
333.42522,0.01922
331.93543,0.01417
330.44564,0.00615
328.95585,0.03114
327.46606,0.04315
325.97627,0.05519
324.48649,0.05975
322.99670,0.08584
321.50691,0.06506
320.01712,0.04431
318.52733,0.07472
317.03754,0.08415
315.54776,0.07935
314.05797,0.07458
312.56818,0.07308
311.07839,0.07285
309.58860,0.06752
308.09881,0.06222
306.60902,0.05531
305.11924,0.04593
303.62945,0.03507
302.13966,0.02424
300.64987,0.00993
299.16008,0.00615
