1778.52000,0.02061
1777.03021,0.01394
1775.54042,0.01921
1774.05063,0.02004
1772.56085,0.01727
1771.07106,0.02091
1769.58127,0.01776
1768.09148,0.01506
1766.60169,0.01473
1765.11190,0.01677
1763.62212,0.01372
1762.13233,0.01410
1760.64254,0.00535
1759.15275,0.02174
1757.66296,0.02262
1756.17317,0.01075
1754.68339,0.00848
1753.19360,0.01624
1751.70381,0.00998
1750.21402,0.00353
1748.72423,0.01285
1747.23444,0.02305
1745.74465,0.02412
1744.25487,0.01011
1742.76508,0.00995
1741.27529,0.00535
1739.78550,0.00937
1738.29571,0.01555
1736.80592,0.02004
1735.31614,0.01392
1733.82635,0.01655
1732.33656,0.00877
1730.84677,0.01315
1729.35698,0.01777
1727.86719,0.01603
1726.37740,0.01111
1724.88762,0.00580
1723.39783,0.00434
1721.90804,0.01483
1720.41825,0.01703
1718.92846,0.00735
1717.43867,0.00535
1715.94889,0.01316
1714.45910,0.02333
1712.96931,0.01650
1711.47952,0.01545
1709.98973,0.01633
1708.49994,0.01042
1707.01016,0.01018
1705.52037,0.00997
1704.03058,0.00839
1702.54079,0.00322
1701.05100,0.01319
1699.56121,0.01850
1698.07142,0.01574
1696.58164,0.00535
1695.09185,0.01551
1693.60206,0.02143
1692.11227,0.02355
1690.62248,0.01867
1689.13269,0.01509
1687.64291,0.02111
1686.15312,0.01630
1684.66333,0.01727
1683.17354,0.01591
1681.68375,0.02203
1680.19396,0.03073
1678.70417,0.03306
1677.21439,0.03117
1675.72460,0.04143
1674.23481,0.02425
1672.74502,0.03775
1671.25523,0.04447
1669.76544,0.05546
1668.27566,0.06499
1666.78587,0.06284
1665.29608,0.06092
1663.80629,0.06073
1662.31650,0.06823
1660.82671,0.07341
1659.33693,0.07330
1657.84714,0.07384
1656.35735,0.06718
1654.86756,0.07692
1653.37777,0.08201
1651.88798,0.07755
1650.39819,0.07225
1648.90841,0.07933
1647.41862,0.08537
1645.92883,0.08355
1644.43904,0.08176
1642.94925,0.08532
1641.45946,0.08549
1639.96968,0.07717
1638.47989,0.08463
1636.99010,0.09701
1635.50031,0.08366
1634.01052,0.07586
1632.52073,0.08746
1631.03094,0.08993
1629.54116,0.08902
1628.05137,0.08644
1626.56158,0.09238
1625.07179,0.08772
1623.58200,0.09222
1622.09221,0.09016
1620.60243,0.08897
1619.11264,0.10014
1617.62285,0.09326
1616.13306,0.09405
1614.64327,0.09275
1613.15348,0.09168
1611.66370,0.08659
1610.17391,0.08173
1608.68412,0.09053
1607.19433,0.09062
1605.70454,0.09414
1604.21475,0.09183
1602.72496,0.08955
1601.23518,0.09016
1599.74539,0.09186
1598.25560,0.08784
1596.76581,0.09746
1595.27602,0.09285
1593.78623,0.08976
1592.29645,0.08562
1590.80666,0.07491
1589.31687,0.07848
1587.82708,0.06803
1586.33729,0.07761
1584.84750,0.07594
1583.35771,0.06812
1581.86793,0.07245
1580.37814,0.07298
1578.88835,0.06225
1577.39856,0.06239
1575.90877,0.06342
1574.41898,0.06319
1572.92920,0.04872
1571.43941,0.04705
1569.94962,0.04700
1568.45983,0.04698
1566.97004,0.04283
1565.48025,0.04636
1563.99047,0.03311
1562.50068,0.03073
1561.01089,0.03540
1559.52110,0.04052
1558.03131,0.02183
1556.54152,0.02359
1555.05173,0.02453
1553.56195,0.01719
1552.07216,0.00456
1550.58237,0.00450
1549.09258,0.00000
1547.60279,0.01566
1546.11300,0.01133
1544.62322,0.02171
1543.13343,0.00254
1541.64364,0.00847
1540.15385,0.01177
1538.66406,0.01509
1537.17427,0.00535
1535.68448,0.00724
1534.19470,0.01128
1532.70491,0.00535
1531.21512,0.01201
1529.72533,0.01402
1528.23554,0.01371
1526.74575,0.03131
1525.25597,0.02168
1523.76618,0.02485
1522.27639,0.03443
1520.78660,0.03382
1519.29681,0.04728
1517.80702,0.04160
1516.31724,0.04085
1514.82745,0.04693
1513.33766,0.04559
1511.84787,0.04427
1510.35808,0.05489
1508.86829,0.04766
1507.37850,0.04599
1505.88872,0.04647
1504.39893,0.05761
1502.90914,0.05665
1501.41935,0.06699
1499.92956,0.07310
1498.43977,0.05221
1496.94999,0.06539
1495.46020,0.08222
1493.97041,0.10630
1492.48062,0.09295
1490.99083,0.09793
1489.50104,0.12443
1488.01125,0.13435
1486.52147,0.14430
1485.03168,0.16427
1483.54189,0.18554
1482.05210,0.19918
1480.56231,0.21369
1479.07252,0.22184
1477.58274,0.23343
1476.09295,0.24333
1474.60316,0.23750
1473.11337,0.23724
1471.62358,0.23615
1470.13379,0.27190
1468.64401,0.29086
1467.15422,0.31645
1465.66443,0.32684
1464.17464,0.33725
1462.68485,0.35461
1461.19506,0.39498
1459.70527,0.41004
1458.21549,0.48642
1456.72570,0.53942
1455.23591,0.61649
1453.74612,0.62868
1452.25633,0.68621
1450.76654,0.71185
1449.27676,0.73773
1447.78697,0.69403
1446.29718,0.67078
1444.80739,0.66310
1443.31760,0.65545
1441.82781,0.62483
1440.33802,0.57657
1438.84824,0.52492
1437.35845,0.47884
1435.86866,0.51046
1434.37887,0.51445
1432.88908,0.53846
1431.39929,0.60123
1429.90951,0.66190
1428.41972,0.74175
1426.92993,0.79544
1425.44014,0.85363
1423.95035,0.88194
1422.46056,0.91027
1420.97078,0.92958
1419.48099,0.93444
1417.99120,0.95359
1416.50141,0.94104
1415.01162,0.87446
1413.52183,0.83558
1412.03204,0.77756
1410.54226,0.75447
1409.05247,0.73055
1407.56268,0.66750
1406.07289,0.58851
1404.58310,0.55615
1403.09331,0.52382
1401.60353,0.45639
1400.11374,0.41836
1398.62395,0.36354
1397.13416,0.31172
1395.64437,0.25695
1394.15458,0.21369
1392.66479,0.19366
1391.17501,0.16876
1389.68522,0.12962
1388.19543,0.10541
1386.70564,0.09409
1385.21585,0.08280
1383.72606,0.06653
1382.23628,0.04220
1380.74649,0.02790
1379.25670,0.01809
1377.76691,0.01766
1376.27712,0.00535
1374.78733,0.02175
1373.29755,0.01158
1371.80776,0.00654
1370.31797,0.00917
1368.82818,0.01182
1367.33839,0.01450
1365.84860,0.01784
1364.35881,0.02972
1362.86903,0.02801
1361.37924,0.05143
1359.88945,0.08232
1358.39966,0.09430
1356.90987,0.12120
1355.42008,0.16111
1353.93030,0.22785
1352.44051,0.26674
1350.95072,0.30566
1349.46093,0.37120
1347.97114,0.43294
1346.48135,0.50726
1344.99156,0.59352
1343.50178,0.66172
1342.01199,0.66396
1340.52220,0.74625
1339.03241,0.80302
1337.54262,0.82491
1336.05283,0.85055
1334.56305,0.87622
1333.07326,0.91159
1331.58347,0.91868
1330.09368,0.93282
1328.60389,0.91485
1327.11410,0.90669
1325.62432,0.86790
1324.13453,0.83063
1322.64474,0.78465
1321.15495,0.76637
1319.66516,0.74524
1318.17537,0.72413
1316.68558,0.66038
1315.19580,0.58898
1313.70601,0.54677
1312.21622,0.52268
1310.72643,0.50073
1309.23664,0.48435
1307.74685,0.43968
1306.25707,0.39674
1304.76728,0.38713
1303.27749,0.37755
1301.78770,0.33468
1300.29791,0.26629
1298.80812,0.22113
1297.31834,0.19983
1295.82855,0.17643
1294.33876,0.15070
1292.84897,0.12203
1291.35918,0.10508
1289.86939,0.09763
1288.37960,0.09020
1286.88982,0.08717
1285.40003,0.08202
1283.91024,0.07860
1282.42045,0.06606
1280.93066,0.04524
1279.44087,0.07574
1277.95109,0.06305
1276.46130,0.03400
1274.97151,0.03765
1273.48172,0.04132
1271.99193,0.04193
1270.50214,0.03341
1269.01235,0.02278
1267.52257,0.02793
1266.03278,0.00927
1264.54299,0.02064
1263.05320,0.01990
1261.56341,0.02015
1260.07362,0.02042
1258.58384,0.01379
1257.09405,0.02060
1255.60426,0.03318
1254.11447,0.02578
1252.62468,0.02308
1251.13489,0.01573
1249.64511,0.01053
1248.15532,0.00535
1246.66553,0.01061
1245.17574,0.01589
1243.68595,0.01471
1242.19616,0.01674
1240.70637,0.02540
1239.21659,0.02003
1237.72680,0.02426
1236.23701,0.02895
1234.74722,0.00535
1233.25743,0.01461
1231.76764,0.02389
1230.27786,0.02096
1228.78807,0.01891
1227.29828,0.02476
1225.80849,0.02339
1224.31870,0.01864
1222.82891,0.02137
1221.33912,0.02625
1219.84934,0.03211
1218.35955,0.03799
1216.86976,0.05273
1215.37997,0.04515
1213.89018,0.06164
1212.40039,0.06751
1210.91061,0.08427
1209.42082,0.07082
1207.93103,0.06826
1206.44124,0.06571
1204.95145,0.05958
1203.46166,0.08262
1201.97188,0.07462
1200.48209,0.06983
1198.99230,0.06869
1197.50251,0.05267
1196.01272,0.05477
1194.52293,0.04933
1193.03314,0.04392
1191.54336,0.02374
1190.05357,0.02998
1188.56378,0.02240
1187.07399,0.02081
1185.58420,0.02372
1184.09441,0.02494
1182.60463,0.01715
1181.11484,0.00938
1179.62505,0.00557
1178.13526,0.01625
1176.64547,0.01547
1175.15568,0.00535
1173.66589,0.01267
1172.17611,0.01151
1170.68632,0.01058
1169.19653,0.00967
1167.70674,0.01879
1166.21695,0.03433
1164.72716,0.03818
1163.23738,0.03269
1161.74759,0.03914
1160.25780,0.04519
1158.76801,0.05329
1157.27822,0.06141
1155.78843,0.06604
1154.29865,0.08751
1152.80886,0.10433
1151.31907,0.11648
1149.82928,0.10376
1148.33949,0.12533
1146.84970,0.13532
1145.35991,0.14534
1143.87013,0.13335
1142.38034,0.13969
1140.89055,0.14223
1139.40076,0.14947
1137.91097,0.17057
1136.42118,0.18275
1134.93140,0.19262
1133.44161,0.20251
1131.95182,0.19753
1130.46203,0.21832
1128.97224,0.23084
1127.48245,0.24594
1125.99266,0.23190
1124.50288,0.22938
1123.01309,0.23316
1121.52330,0.23697
1120.03351,0.23899
1118.54372,0.22784
1117.05393,0.24353
1115.56415,0.23562
1114.07436,0.23518
1112.58457,0.23137
1111.09478,0.22757
1109.60499,0.23977
1108.11520,0.23708
1106.62542,0.24954
1105.13563,0.22839
1103.64584,0.21897
1102.15605,0.23192
1100.66626,0.21596
1099.17647,0.20001
1097.68668,0.19473
1096.19690,0.19735
1094.70711,0.20170
1093.21732,0.20990
1091.72753,0.17705
1090.23774,0.17509
1088.74795,0.17315
1087.25817,0.17762
1085.76838,0.17423
1084.27859,0.17641
1082.78880,0.19627
1081.29901,0.19892
1079.80922,0.22054
1078.31943,0.21111
1076.82965,0.20170
1075.33986,0.19125
1073.85007,0.19040
1072.36028,0.21554
1070.87049,0.24177
1069.38070,0.26633
1067.89092,0.27888
1066.40113,0.29145
1064.91134,0.34396
1063.42155,0.43438
1061.93176,0.52163
1060.44197,0.62890
1058.95219,0.72280
1057.46240,0.77074
1055.97261,0.81871
1054.48282,0.91843
1052.99303,0.97709
1051.50324,0.99789
1050.01345,1.02126
1048.52367,0.98869
1047.03388,0.95561
1045.54409,0.92255
1044.05430,0.90750
1042.56451,0.83522
1041.07472,0.76871
1039.58494,0.70818
1038.09515,0.59639
1036.60536,0.57369
1035.11557,0.55101
1033.62578,0.48760
1032.13599,0.41081
1030.64620,0.34830
1029.15642,0.29944
1027.66663,0.28285
1026.17684,0.26628
1024.68705,0.23281
1023.19726,0.19916
1021.70747,0.15722
1020.21769,0.14426
1018.72790,0.13197
1017.23811,0.12735
1015.74832,0.12277
1014.25853,0.11267
1012.76874,0.08834
1011.27896,0.08893
1009.78917,0.06954
1008.29938,0.06145
1006.80959,0.05541
1005.31980,0.04940
1003.83001,0.02117
1002.34022,0.02361
1000.85044,0.04161
999.36065,0.03516
997.87086,0.05002
996.38107,0.06490
994.89128,0.08364
993.40149,0.09367
991.91171,0.10309
990.42192,0.11956
988.93213,0.17054
987.44234,0.17013
985.95255,0.16975
984.46276,0.15439
982.97297,0.14055
981.48319,0.13502
979.99340,0.09462
978.50361,0.08564
977.01382,0.07668
975.52403,0.07317
974.03424,0.04691
972.54446,0.02876
971.05467,0.01638
969.56488,0.00574
968.07509,0.00569
966.58530,0.00567
965.09551,0.01753
963.60573,0.00685
962.11594,0.02045
960.62615,0.00535
959.13636,0.00998
957.64657,0.01463
956.15678,0.00845
954.66699,0.01933
953.17721,0.02938
951.68742,0.02540
950.19763,0.03039
948.70784,0.03540
947.21805,0.05278
945.72826,0.06316
944.23848,0.08144
942.74869,0.09527
941.25890,0.10977
939.76911,0.11450
938.27932,0.11926
936.78953,0.14255
935.29974,0.17056
933.80996,0.18092
932.32017,0.16597
930.83038,0.17617
929.34059,0.18639
927.85080,0.22771
926.36101,0.22521
924.87123,0.28084
923.38144,0.32308
921.89165,0.35514
920.40186,0.38721
918.91207,0.47976
917.42228,0.61064
915.93250,0.77645
914.44271,0.93611
912.95292,1.05111
911.46313,1.16612
909.97334,1.34778
908.48355,1.54244
906.99376,1.77225
905.50398,1.88055
904.01419,1.93971
902.52440,1.99890
901.03461,2.00000
899.54482,1.90322
898.05503,1.81221
896.56525,1.62694
895.07546,1.50746
893.58567,1.38800
892.09588,1.11469
890.60609,0.86587
889.11630,0.64198
887.62651,0.50432
886.13673,0.44138
884.64694,0.37847
883.15715,0.26472
881.66736,0.18930
880.17757,0.14243
878.68778,0.12516
877.19800,0.10792
875.70821,0.05793
874.21842,0.05053
872.72863,0.04336
871.23884,0.04218
869.74905,0.03219
868.25927,0.02223
866.76948,0.01048
865.27969,0.00535
863.78990,0.03513
862.30011,0.04684
860.81032,0.05730
859.32053,0.06779
857.83075,0.07425
856.34096,0.08245
854.85117,0.10577
853.36138,0.12636
851.87159,0.13069
850.38180,0.13504
848.89202,0.16038
847.40223,0.16574
845.91244,0.16835
844.42265,0.17525
842.93286,0.18217
841.44307,0.20337
839.95329,0.23503
838.46350,0.26203
836.97371,0.27798
835.48392,0.26938
833.99413,0.26080
832.50434,0.27321
831.01455,0.26777
829.52477,0.24085
828.03498,0.21736
826.54519,0.21221
825.05540,0.20707
823.56561,0.17046
822.07582,0.14664
820.58604,0.12370
819.09625,0.11867
817.60646,0.11365
816.11667,0.11398
814.62688,0.12434
813.13709,0.13175
811.64730,0.13534
810.15752,0.13917
808.66773,0.14303
807.17794,0.14734
805.68815,0.15763
804.19836,0.15581
802.70857,0.15477
801.21879,0.15374
799.72900,0.14561
798.23921,0.12772
796.74942,0.13603
795.25963,0.13393
793.76984,0.13186
792.28006,0.14300
790.79027,0.16907
789.30048,0.17325
787.81069,0.19319
786.32090,0.20529
784.83111,0.21741
783.34132,0.23402
781.85154,0.29918
780.36175,0.33564
778.87196,0.35935
777.38217,0.38308
775.89238,0.40748
774.40259,0.40721
772.91281,0.40037
771.42302,0.39546
769.93323,0.39059
768.44344,0.34444
766.95365,0.28683
765.46386,0.25414
763.97407,0.18763
762.48429,0.17617
760.99450,0.16473
759.50471,0.13554
758.01492,0.11255
756.52513,0.10236
755.03534,0.10294
753.54556,0.10354
752.05577,0.09001
750.56598,0.07821
749.07619,0.05217
747.58640,0.05340
746.09661,0.05466
744.60683,0.03657
743.11704,0.02978
741.62725,0.02983
740.13746,0.02778
738.64767,0.02575
737.15788,0.02310
735.66809,0.01729
734.17831,0.01448
732.68852,0.01212
731.19873,0.00979
729.70894,0.00535
728.21915,0.01628
726.72936,0.01638
725.23958,0.02863
723.74979,0.03048
722.26000,0.03236
720.77021,0.01595
719.28042,0.01064
717.79063,0.00535
716.30084,0.01381
714.81106,0.02230
713.32127,0.03018
711.83148,0.03722
710.34169,0.03897
708.85190,0.03479
707.36211,0.03063
705.87233,0.03586
704.38254,0.04792
702.89275,0.04532
701.40296,0.04754
699.91317,0.04977
698.42338,0.07619
696.93360,0.07987
695.44381,0.09782
693.95402,0.10101
692.46423,0.10422
690.97444,0.12608
689.48465,0.13583
687.99486,0.17498
686.50508,0.18531
685.01529,0.19566
683.52550,0.21871
682.03571,0.22368
680.54592,0.24486
679.05613,0.24541
677.56635,0.24599
676.07656,0.24830
674.58677,0.25084
673.09698,0.23383
671.60719,0.22035
670.11740,0.20690
668.62761,0.17463
667.13783,0.15708
665.64804,0.14061
664.15825,0.12417
662.66846,0.10945
661.17867,0.08923
659.68888,0.06562
658.19910,0.06162
656.70931,0.05764
655.21952,0.04581
653.72973,0.03337
652.23994,0.05245
650.75015,0.05698
649.26037,0.06153
647.77058,0.06749
646.28079,0.04324
644.79100,0.03818
643.30121,0.03496
641.81142,0.03175
640.32163,0.04124
638.83185,0.05287
637.34206,0.03495
635.85227,0.02014
634.36248,0.00535
632.87269,0.00477
631.38290,0.01535
629.89312,0.02575
628.40333,0.02415
626.91354,0.02258
625.42375,0.02134
623.93396,0.02673
622.44417,0.02693
620.95438,0.02715
619.46460,0.04815
617.97481,0.05789
616.48502,0.08681
614.99523,0.08713
613.50544,0.08747
612.01565,0.12179
610.52587,0.12590
609.03608,0.16772
607.54629,0.19487
606.05650,0.22204
604.56671,0.26350
603.07692,0.31648
601.58714,0.34490
600.09735,0.37334
598.60756,0.41596
597.11777,0.41561
595.62798,0.43040
594.13819,0.42701
592.64840,0.42365
591.15862,0.39637
589.66883,0.32037
588.17904,0.27909
586.68925,0.25667
585.19946,0.23427
583.70967,0.17561
582.21989,0.13400
580.73010,0.13125
579.24031,0.12853
577.75052,0.09104
576.26073,0.08145
574.77094,0.06422
573.28115,0.05830
571.79137,0.05240
570.30158,0.04781
568.81179,0.06920
567.32200,0.07764
565.83221,0.08610
564.34242,0.12438
562.85264,0.13310
561.36285,0.15291
559.87306,0.15264
558.38327,0.15238
556.89348,0.16759
555.40369,0.18749
553.91391,0.18497
552.42412,0.18248
550.93433,0.20522
549.44454,0.21480
547.95475,0.22121
546.46496,0.21955
544.97517,0.21792
543.48539,0.24888
541.99560,0.27262
540.50581,0.28671
539.01602,0.30082
537.52623,0.34656
536.03644,0.39424
534.54666,0.41959
533.05687,0.42933
531.56708,0.43909
530.07729,0.48772
528.58750,0.53552
527.09771,0.56781
525.60792,0.60012
524.11814,0.65842
522.62835,0.70845
521.13856,0.79596
519.64877,0.80793
518.15898,0.81993
516.66919,0.83706
515.17941,0.85528
513.68962,0.85884
512.19983,0.86243
510.71004,0.84007
509.22025,0.78836
507.73046,0.73327
506.24068,0.67459
504.75089,0.61593
503.26110,0.48408
501.77131,0.39950
500.28152,0.34347
498.79173,0.28746
497.30194,0.24872
495.81216,0.16871
494.32237,0.15013
492.83258,0.13157
491.34279,0.11059
489.85300,0.06239
488.36321,0.07892
486.87343,0.06450
485.38364,0.05011
483.89385,0.08182
482.40406,0.09099
480.91427,0.09998
479.42448,0.10899
477.93469,0.12931
476.44491,0.17008
474.95512,0.17512
473.46533,0.18018
471.97554,0.19335
470.48575,0.20527
468.99596,0.19998
467.50618,0.17747
466.01639,0.15499
464.52660,0.13167
463.03681,0.11307
461.54702,0.10321
460.05723,0.09338
458.56745,0.05080
457.07766,0.04272
455.58787,0.04264
454.09808,0.04259
452.60829,0.03054
451.11850,0.01362
449.62871,0.01236
448.13893,0.01113
446.64914,0.01493
445.15935,0.00874
443.66956,0.00535
442.17977,0.01863
440.68998,0.03193
439.20020,0.02175
437.71041,0.03989
436.22062,0.02709
434.73083,0.01431
433.24104,0.00762
431.75125,0.03437
430.26146,0.03582
428.77168,0.03730
427.28189,0.05454
425.79210,0.04606
424.30231,0.04229
422.81252,0.03854
421.32273,0.00629
419.83295,0.04601
418.34316,0.03445
416.85337,0.02292
415.36358,0.03398
413.87379,0.04208
412.38400,0.04105
410.89422,0.04005
409.40443,0.04886
407.91464,0.05152
406.42485,0.03292
404.93506,0.02319
403.44527,0.01347
401.95548,0.03475
400.46570,0.04179
398.97591,0.03140
397.48612,0.02103
395.99633,0.04560
394.50654,0.02486
393.01675,0.02936
391.52697,0.03388
390.03718,0.03386
388.54739,0.01555
387.05760,0.01044
385.56781,0.00535
384.07802,0.01409
382.58824,0.01414
381.09845,0.01442
379.60866,0.01472
378.11887,0.00590
376.62908,0.01221
375.13929,0.00865
373.64950,0.00512
372.15972,0.01725
370.66993,0.01962
369.18014,0.01537
367.69035,0.01114
366.20056,0.00535
364.71077,0.01292
363.22099,0.01776
361.73120,0.02262
360.24141,0.04687
358.75162,0.06774
357.26183,0.06798
355.77204,0.06826
354.28225,0.07707
352.79247,0.06611
351.30268,0.06187
349.81289,0.05767
348.32310,0.03358
346.83331,0.04635
345.34352,0.05094
343.85374,0.05555
342.36395,0.03880
340.87416,0.03038
339.38437,0.03060
337.89458,0.03084
336.40479,0.02461
334.91501,0.04204
333.42522,0.02724
331.93543,0.01247
330.44564,0.01358
328.95585,0.00535
327.46606,0.01955
325.97627,0.03378
324.48649,0.07101
322.99670,0.04783
321.50691,0.04883
320.01712,0.04985
318.52733,0.07143
317.03754,0.07005
315.54776,0.06104
314.05797,0.05204
312.56818,0.07841
311.07839,0.11607
309.58860,0.10503
308.09881,0.09400
306.60902,0.05874
305.11924,0.05138
303.62945,0.02904
302.13966,0.00673
300.64987,0.01518
299.16008,0.00535
