1778.52000,0.03699
1777.03021,0.01794
1775.54042,0.02204
1774.05063,0.01977
1772.56085,0.02330
1771.07106,0.02504
1769.58127,0.02223
1768.09148,0.00849
1766.60169,0.02034
1765.11190,0.02430
1763.62212,0.01977
1762.13233,0.01830
1760.64254,0.01320
1759.15275,0.01725
1757.66296,0.00490
1756.17317,0.01296
1754.68339,0.01283
1753.19360,0.00085
1751.70381,0.00502
1750.21402,0.00527
1748.72423,0.01740
1747.23444,0.00583
1745.74465,0.00675
1744.25487,0.01074
1742.76508,0.00836
1741.27529,0.00418
1739.78550,0.00490
1738.29571,0.01544
1736.80592,0.01230
1735.31614,0.00797
1733.82635,0.01006
1732.33656,0.00121
1730.84677,0.00000
1729.35698,0.01038
1727.86719,0.00525
1726.37740,0.01263
1724.88762,0.00999
1723.39783,0.00707
1721.90804,0.01453
1720.41825,0.00952
1718.92846,0.01307
1717.43867,0.00933
1715.94889,0.00348
1714.45910,0.00464
1712.96931,0.00490
1711.47952,0.01449
1709.98973,0.01101
1708.49994,0.00421
1707.01016,0.00610
1705.52037,0.00802
1704.03058,0.01560
1702.54079,0.00950
1701.05100,0.01256
1699.56121,0.00529
1698.07142,0.01844
1696.58164,0.01427
1695.09185,0.01650
1693.60206,0.00994
1692.11227,0.00706
1690.62248,0.01576
1689.13269,0.02357
1687.64291,0.01558
1686.15312,0.02558
1684.66333,0.02403
1683.17354,0.02585
1681.68375,0.04322
1680.19396,0.03230
1678.70417,0.04607
1677.21439,0.03642
1675.72460,0.04293
1674.23481,0.04702
1672.74502,0.03532
1671.25523,0.04007
1669.76544,0.06280
1668.27566,0.06578
1666.78587,0.07091
1665.29608,0.06754
1663.80629,0.07119
1662.31650,0.07091
1660.82671,0.08679
1659.33693,0.05947
1657.84714,0.08361
1656.35735,0.07308
1654.86756,0.07719
1653.37777,0.08496
1651.88798,0.07451
1650.39819,0.07990
1648.90841,0.07131
1647.41862,0.07432
1645.92883,0.07430
1644.43904,0.07431
1642.94925,0.08408
1641.45946,0.08779
1639.96968,0.07570
1638.47989,0.10045
1636.99010,0.08628
1635.50031,0.06208
1634.01052,0.06926
1632.52073,0.06702
1631.03094,0.06147
1629.54116,0.06415
1628.05137,0.07568
1626.56158,0.07963
1625.07179,0.08330
1623.58200,0.07968
1622.09221,0.08462
1620.60243,0.09018
1619.11264,0.10612
1617.62285,0.09043
1616.13306,0.07841
1614.64327,0.07524
1613.15348,0.08428
1611.66370,0.09090
1610.17391,0.09054
1608.68412,0.08473
1607.19433,0.07925
1605.70454,0.08414
1604.21475,0.09378
1602.72496,0.10343
1601.23518,0.07035
1599.74539,0.08538
1598.25560,0.09252
1596.76581,0.08721
1595.27602,0.07492
1593.78623,0.07361
1592.29645,0.08054
1590.80666,0.07228
1589.31687,0.07044
1587.82708,0.06374
1586.33729,0.08112
1584.84750,0.06321
1583.35771,0.08033
1581.86793,0.08195
1580.37814,0.06534
1578.88835,0.07644
1577.39856,0.06444
1575.90877,0.06098
1574.41898,0.05207
1572.92920,0.04531
1571.43941,0.04832
1569.94962,0.05470
1568.45983,0.06110
1566.97004,0.03983
1565.48025,0.04841
1563.99047,0.05214
1562.50068,0.02912
1561.01089,0.03746
1559.52110,0.04309
1558.03131,0.02440
1556.54152,0.02673
1555.05173,0.03518
1553.56195,0.03299
1552.07216,0.01957
1550.58237,0.01773
1549.09258,0.01045
1547.60279,0.01231
1546.11300,0.01481
1544.62322,0.01855
1543.13343,0.02079
1541.64364,0.00602
1540.15385,0.00876
1538.66406,0.01153
1537.17427,0.01600
1535.68448,0.01593
1534.19470,0.02440
1532.70491,0.00490
1531.21512,0.02400
1529.72533,0.02518
1528.23554,0.02302
1526.74575,0.03581
1525.25597,0.03401
1523.76618,0.03467
1522.27639,0.04357
1520.78660,0.04488
1519.29681,0.04531
1517.80702,0.03845
1516.31724,0.04958
1514.82745,0.05282
1513.33766,0.05029
1511.84787,0.04780
1510.35808,0.05202
1508.86829,0.05505
1507.37850,0.05445
1505.88872,0.05691
1504.39893,0.06032
1502.90914,0.06983
1501.41935,0.08485
1499.92956,0.09319
1498.43977,0.08056
1496.94999,0.07039
1495.46020,0.08429
1493.97041,0.08542
1492.48062,0.09450
1490.99083,0.09629
1489.50104,0.10206
1488.01125,0.10740
1486.52147,0.11277
1485.03168,0.13809
1483.54189,0.17774
1482.05210,0.17268
1480.56231,0.17708
1479.07252,0.19976
1477.58274,0.22246
1476.09295,0.21110
1474.60316,0.22198
1473.11337,0.22406
1471.62358,0.22769
1470.13379,0.23986
1468.64401,0.22953
1467.15422,0.25666
1465.66443,0.27149
1464.17464,0.28635
1462.68485,0.29316
1461.19506,0.35995
1459.70527,0.41277
1458.21549,0.46317
1456.72570,0.52760
1455.23591,0.57592
1453.74612,0.64466
1452.25633,0.65134
1450.76654,0.67843
1449.27676,0.67693
1447.78697,0.66116
1446.29718,0.64176
1444.80739,0.62846
1443.31760,0.61520
1441.82781,0.58339
1440.33802,0.53638
1438.84824,0.55545
1437.35845,0.49114
1435.86866,0.49687
1434.37887,0.49470
1432.88908,0.51538
1431.39929,0.55861
1429.90951,0.61738
1428.41972,0.71087
1426.92993,0.77334
1425.44014,0.80145
1423.95035,0.84205
1422.46056,0.88269
1420.97078,0.90904
1419.48099,0.92171
1417.99120,0.91251
1416.50141,0.89297
1415.01162,0.84911
1413.52183,0.77728
1412.03204,0.72404
1410.54226,0.68755
1409.05247,0.65201
1407.56268,0.65179
1406.07289,0.56578
1404.58310,0.53913
1403.09331,0.51251
1401.60353,0.46338
1400.11374,0.39816
1398.62395,0.36187
1397.13416,0.33382
1395.64437,0.26836
1394.15458,0.21388
1392.66479,0.19595
1391.17501,0.18047
1389.68522,0.13641
1388.19543,0.09968
1386.70564,0.09584
1385.21585,0.09203
1383.72606,0.06054
1382.23628,0.04247
1380.74649,0.02686
1379.25670,0.02740
1377.76691,0.01457
1376.27712,0.00999
1374.78733,0.01486
1373.29755,0.02219
1371.80776,0.00490
1370.31797,0.01082
1368.82818,0.02453
1367.33839,0.03826
1365.84860,0.02600
1364.35881,0.03719
1362.86903,0.04871
1361.37924,0.07152
1359.88945,0.09161
1358.39966,0.11173
1356.90987,0.13491
1355.42008,0.17394
1353.93030,0.23400
1352.44051,0.27156
1350.95072,0.30914
1349.46093,0.36926
1347.97114,0.44129
1346.48135,0.52094
1344.99156,0.59423
1343.50178,0.66084
1342.01199,0.69978
1340.52220,0.77892
1339.03241,0.78870
1337.54262,0.84293
1336.05283,0.86462
1334.56305,0.88633
1333.07326,0.89803
1331.58347,0.92162
1330.09368,0.88436
1328.60389,0.88213
1327.11410,0.84492
1325.62432,0.84699
1324.13453,0.82079
1322.64474,0.77361
1321.15495,0.74076
1319.66516,0.72558
1318.17537,0.71043
1316.68558,0.66669
1315.19580,0.61111
1313.70601,0.55555
1312.21622,0.53684
1310.72643,0.46215
1309.23664,0.43619
1307.74685,0.42729
1306.25707,0.40472
1304.76728,0.38598
1303.27749,0.36726
1301.78770,0.30854
1300.29791,0.28181
1298.80812,0.22558
1297.31834,0.18641
1295.82855,0.15914
1294.33876,0.14102
1292.84897,0.13601
1291.35918,0.12190
1289.86939,0.10614
1288.37960,0.09040
1286.88982,0.09157
1285.40003,0.08242
1283.91024,0.05199
1282.42045,0.05659
1280.93066,0.04964
1279.44087,0.04972
1277.95109,0.04343
1276.46130,0.04873
1274.97151,0.05314
1273.48172,0.05757
1271.99193,0.04407
1270.50214,0.03364
1269.01235,0.03723
1267.52257,0.01102
1266.03278,0.03140
1264.54299,0.01863
1263.05320,0.02749
1261.56341,0.02649
1260.07362,0.02551
1258.58384,0.02531
1257.09405,0.02392
1255.60426,0.01555
1254.11447,0.03125
1252.62468,0.01502
1251.13489,0.00490
1249.64511,0.01772
1248.15532,0.02722
1246.66553,0.01970
1245.17574,0.01221
1243.68595,0.01752
1242.19616,0.01799
1240.70637,0.01908
1239.21659,0.02660
1237.72680,0.03292
1236.23701,0.03439
1234.74722,0.02006
1233.25743,0.01763
1231.76764,0.01522
1230.27786,0.02683
1228.78807,0.01412
1227.29828,0.01117
1225.80849,0.00490
1224.31870,0.01144
1222.82891,0.01040
1221.33912,0.01273
1219.84934,0.02375
1218.35955,0.03480
1216.86976,0.04268
1215.37997,0.05698
1213.89018,0.05821
1212.40039,0.06555
1210.91061,0.07992
1209.42082,0.07300
1207.93103,0.06276
1206.44124,0.05255
1204.95145,0.07036
1203.46166,0.06415
1201.97188,0.05248
1200.48209,0.06914
1198.99230,0.07792
1197.50251,0.05963
1196.01272,0.05080
1194.52293,0.03986
1193.03314,0.02895
1191.54336,0.02354
1190.05357,0.03276
1188.56378,0.01614
1187.07399,0.01658
1185.58420,0.02222
1184.09441,0.02698
1182.60463,0.01593
1181.11484,0.00490
1179.62505,0.02802
1178.13526,0.01130
1176.64547,0.02564
1175.15568,0.01384
1173.66589,0.00967
1172.17611,0.00917
1170.68632,0.00702
1169.19653,0.00490
1167.70674,0.01905
1166.21695,0.02379
1164.72716,0.02795
1163.23738,0.03883
1161.74759,0.03938
1160.25780,0.04513
1158.76801,0.05578
1157.27822,0.06644
1155.78843,0.07531
1154.29865,0.07598
1152.80886,0.08946
1151.31907,0.09383
1149.82928,0.11619
1148.33949,0.11026
1146.84970,0.11866
1145.35991,0.12708
1143.87013,0.13705
1142.38034,0.17018
1140.89055,0.17107
1139.40076,0.19176
1137.91097,0.18874
1136.42118,0.20126
1134.93140,0.20864
1133.44161,0.21604
1131.95182,0.21311
1130.46203,0.24034
1128.97224,0.23868
1127.48245,0.25256
1125.99266,0.24730
1124.50288,0.24693
1123.01309,0.25160
1121.52330,0.25630
1120.03351,0.25600
1118.54372,0.26151
1117.05393,0.24847
1115.56415,0.25737
1114.07436,0.25626
1112.58457,0.26292
1111.09478,0.26961
1109.60499,0.23722
1108.11520,0.25477
1106.62542,0.24372
1105.13563,0.24945
1103.64584,0.25458
1102.15605,0.26644
1100.66626,0.26447
1099.17647,0.26253
1097.68668,0.22850
1096.19690,0.22250
1094.70711,0.21378
1093.21732,0.22273
1091.72753,0.19854
1090.23774,0.20861
1088.74795,0.21870
1087.25817,0.19154
1085.76838,0.18692
1084.27859,0.16497
1082.78880,0.16710
1081.29901,0.17168
1079.80922,0.17598
1078.31943,0.19005
1076.82965,0.20414
1075.33986,0.19299
1073.85007,0.18065
1072.36028,0.19785
1070.87049,0.21356
1069.38070,0.25972
1067.89092,0.27015
1066.40113,0.28060
1064.91134,0.32440
1063.42155,0.39318
1061.93176,0.47721
1060.44197,0.55456
1058.95219,0.62493
1057.46240,0.67235
1055.97261,0.71980
1054.48282,0.81611
1052.99303,0.84215
1051.50324,0.85025
1050.01345,0.85930
1048.52367,0.82119
1047.03388,0.83043
1045.54409,0.83969
1044.05430,0.81778
1042.56451,0.75664
1041.07472,0.72474
1039.58494,0.64964
1038.09515,0.57914
1036.60536,0.55796
1035.11557,0.53680
1033.62578,0.46028
1032.13599,0.41878
1030.64620,0.36544
1029.15642,0.31121
1027.66663,0.29184
1026.17684,0.27251
1024.68705,0.23447
1023.19726,0.19890
1021.70747,0.16640
1020.21769,0.15339
1018.72790,0.13463
1017.23811,0.13492
1015.74832,0.13522
1014.25853,0.10375
1012.76874,0.08722
1011.27896,0.10327
1009.78917,0.09591
1008.29938,0.08006
1006.80959,0.07138
1005.31980,0.06272
1003.83001,0.03324
1002.34022,0.02114
1000.85044,0.02305
999.36065,0.02743
997.87086,0.03350
996.38107,0.03960
994.89128,0.04130
993.40149,0.05247
991.91171,0.06975
990.42192,0.07639
988.93213,0.08489
987.44234,0.10361
985.95255,0.12235
984.46276,0.10018
982.97297,0.09995
981.48319,0.07722
979.99340,0.06030
978.50361,0.04447
977.01382,0.02866
975.52403,0.01941
974.03424,0.02754
972.54446,0.01348
971.05467,0.01709
969.56488,0.00490
968.07509,0.00559
966.58530,0.00630
965.09551,0.00430
963.60573,0.00485
962.11594,0.00968
960.62615,0.01332
959.13636,0.01941
957.64657,0.02553
956.15678,0.01342
954.66699,0.03237
953.17721,0.04526
951.68742,0.03869
950.19763,0.04463
948.70784,0.05059
947.21805,0.05566
945.72826,0.05649
944.23848,0.09691
942.74869,0.10571
941.25890,0.12427
939.76911,0.13615
938.27932,0.14806
936.78953,0.16212
935.29974,0.17834
933.80996,0.17115
932.32017,0.19776
930.83038,0.20842
929.34059,0.21911
927.85080,0.23666
926.36101,0.25363
924.87123,0.27458
923.38144,0.32782
921.89165,0.37499
920.40186,0.42219
918.91207,0.47428
917.42228,0.60187
915.93250,0.77270
914.44271,1.00169
912.95292,1.12828
911.46313,1.25490
909.97334,1.40209
908.48355,1.63939
906.99376,1.75680
905.50398,1.91989
904.01419,1.93920
902.52440,1.95853
901.03461,1.96434
899.54482,2.00000
898.05503,1.86586
896.56525,1.71318
895.07546,1.59659
893.58567,1.48002
892.09588,1.20932
890.60609,0.94535
889.11630,0.68870
887.62651,0.50542
886.13673,0.42519
884.64694,0.34499
883.15715,0.24274
881.66736,0.18829
880.17757,0.14696
878.68778,0.12041
877.19800,0.09389
875.70821,0.06907
874.21842,0.05735
872.72863,0.02192
871.23884,0.00873
869.74905,0.01139
868.25927,0.01408
866.76948,0.01131
865.27969,0.01008
863.78990,0.00858
862.30011,0.00832
860.81032,0.02360
859.32053,0.03891
857.83075,0.05758
856.34096,0.07416
854.85117,0.06549
853.36138,0.06446
851.87159,0.07608
850.38180,0.08773
848.89202,0.08068
847.40223,0.12965
845.91244,0.13057
844.42265,0.14216
842.93286,0.15377
841.44307,0.13223
839.95329,0.16733
838.46350,0.18114
836.97371,0.18129
835.48392,0.18100
833.99413,0.18073
832.50434,0.18886
831.01455,0.18362
829.52477,0.15284
828.03498,0.14886
826.54519,0.14309
825.05540,0.13734
823.56561,0.11152
822.07582,0.11282
820.58604,0.09800
819.09625,0.09067
817.60646,0.08337
816.11667,0.09693
814.62688,0.05817
813.13709,0.07696
811.64730,0.07629
810.15752,0.08356
808.66773,0.09085
807.17794,0.08539
805.68815,0.08421
804.19836,0.08792
802.70857,0.08146
801.21879,0.07502
799.72900,0.10437
798.23921,0.07927
796.74942,0.06971
795.25963,0.07387
793.76984,0.07805
792.28006,0.09444
790.79027,0.09015
789.30048,0.09714
787.81069,0.13520
786.32090,0.14925
784.83111,0.16331
783.34132,0.20175
781.85154,0.22530
780.36175,0.24552
778.87196,0.25725
777.38217,0.26900
775.89238,0.29782
774.40259,0.33092
772.91281,0.30288
771.42302,0.29251
769.93323,0.28216
768.44344,0.27488
766.95365,0.22897
765.46386,0.21474
763.97407,0.18045
762.48429,0.15835
760.99450,0.13628
759.50471,0.12184
758.01492,0.09860
756.52513,0.08451
755.03534,0.08110
753.54556,0.07771
752.05577,0.07343
750.56598,0.05213
749.07619,0.03451
747.58640,0.03366
746.09661,0.03282
744.60683,0.03384
743.11704,0.02849
741.62725,0.00490
740.13746,0.00852
738.64767,0.01217
737.15788,0.03471
735.66809,0.01070
734.17831,0.01777
732.68852,0.01131
731.19873,0.00488
729.70894,0.00865
728.21915,0.00969
726.72936,0.00742
725.23958,0.02018
723.74979,0.01988
722.26000,0.01961
720.77021,0.01479
719.28042,0.02218
717.79063,0.02015
716.30084,0.01206
714.81106,0.00399
713.32127,0.00543
711.83148,0.02059
710.34169,0.03395
708.85190,0.04094
707.36211,0.04795
705.87233,0.04404
704.38254,0.05749
702.89275,0.06001
701.40296,0.05312
699.91317,0.04626
698.42338,0.06346
696.93360,0.09651
695.44381,0.10402
693.95402,0.11049
692.46423,0.11698
690.97444,0.12487
689.48465,0.15378
687.99486,0.16232
686.50508,0.18108
685.01529,0.19987
683.52550,0.22461
682.03571,0.25516
680.54592,0.26565
679.05613,0.26810
677.56635,0.27057
676.07656,0.24491
674.58677,0.27558
673.09698,0.23171
671.60719,0.22530
670.11740,0.21891
668.62761,0.18851
667.13783,0.17121
665.64804,0.15683
664.15825,0.14247
662.66846,0.10881
661.17867,0.07974
659.68888,0.08204
658.19910,0.06322
656.70931,0.04441
655.21952,0.04040
653.72973,0.04888
652.23994,0.05069
650.75015,0.04872
649.26037,0.04678
647.77058,0.05018
646.28079,0.05087
644.79100,0.04307
643.30121,0.04106
641.81142,0.03909
640.32163,0.02435
638.83185,0.02729
637.34206,0.01686
635.85227,0.01513
634.36248,0.01343
632.87269,0.00490
631.38290,0.02457
629.89312,0.01840
628.40333,0.02427
626.91354,0.03017
625.42375,0.00824
623.93396,0.01860
622.44417,0.01635
620.95438,0.01412
619.46460,0.04677
617.97481,0.06514
616.48502,0.06527
614.99523,0.07622
613.50544,0.08720
612.01565,0.11967
610.52587,0.14698
609.03608,0.17370
607.54629,0.18554
606.05650,0.19740
604.56671,0.25220
603.07692,0.31220
601.58714,0.34254
600.09735,0.37291
598.60756,0.41076
597.11777,0.40360
595.62798,0.40741
594.13819,0.40683
592.64840,0.40628
591.15862,0.34990
589.66883,0.31728
588.17904,0.25121
586.68925,0.23174
585.19946,0.21228
583.70967,0.16576
582.21989,0.12900
580.73010,0.10125
579.24031,0.07352
577.75052,0.08705
576.26073,0.05131
574.77094,0.04693
573.28115,0.04304
571.79137,0.03916
570.30158,0.05403
568.81179,0.03454
567.32200,0.04291
565.83221,0.05131
564.34242,0.08149
562.85264,0.11687
561.36285,0.10297
559.87306,0.11375
558.38327,0.12455
556.89348,0.13507
555.40369,0.14105
553.91391,0.14279
552.42412,0.14455
550.93433,0.16795
549.44454,0.16794
547.95475,0.18621
546.46496,0.17635
544.97517,0.16652
543.48539,0.19613
541.99560,0.21845
540.50581,0.23517
539.01602,0.25191
537.52623,0.28435
536.03644,0.32959
534.54666,0.37730
533.05687,0.38896
531.56708,0.40065
530.07729,0.48007
528.58750,0.52848
527.09771,0.56976
525.60792,0.61106
524.11814,0.67233
522.62835,0.74366
521.13856,0.78092
519.64877,0.79630
518.15898,0.81170
516.66919,0.82348
515.17941,0.87180
513.68962,0.87707
512.19983,0.88237
510.71004,0.84707
509.22025,0.78166
507.73046,0.71840
506.24068,0.64984
504.75089,0.58131
503.26110,0.48221
501.77131,0.36610
500.28152,0.33765
498.79173,0.30924
497.30194,0.21419
495.81216,0.17913
494.32237,0.15428
492.83258,0.12946
491.34279,0.10298
489.85300,0.09358
488.36321,0.05772
486.87343,0.06297
485.38364,0.06825
483.89385,0.05985
482.40406,0.08283
480.91427,0.09061
479.42448,0.09841
477.93469,0.11963
476.44491,0.11714
474.95512,0.13171
473.46533,0.14631
471.97554,0.14267
470.48575,0.15397
468.99596,0.13272
467.50618,0.13250
466.01639,0.13231
464.52660,0.10718
463.03681,0.09272
461.54702,0.07647
460.05723,0.06024
458.56745,0.04433
457.07766,0.02906
455.58787,0.02493
454.09808,0.02081
452.60829,0.02509
451.11850,0.00870
449.62871,0.00679
448.13893,0.00490
446.64914,0.00748
445.15935,0.00461
443.66956,0.03372
442.17977,0.03622
440.68998,0.03874
439.20020,0.02592
437.71041,0.02408
436.22062,0.02379
434.73083,0.02352
433.24104,0.01901
431.75125,0.01879
430.26146,0.02407
428.77168,0.02937
427.28189,0.04353
425.79210,0.04705
424.30231,0.03828
422.81252,0.02952
421.32273,0.03525
419.83295,0.04465
418.34316,0.04054
416.85337,0.03645
415.36358,0.02979
413.87379,0.00490
412.38400,0.01553
410.89422,0.02618
409.40443,0.04097
407.91464,0.05000
406.42485,0.01797
404.93506,0.01563
403.44527,0.01332
401.95548,0.00114
400.46570,0.03302
398.97591,0.03525
397.48612,0.03751
395.99633,0.05607
394.50654,0.05518
393.01675,0.04366
391.52697,0.03216
390.03718,0.02069
388.54739,0.02607
387.05760,0.03253
385.56781,0.03902
384.07802,0.00490
382.58824,0.01607
381.09845,0.02818
379.60866,0.04032
378.11887,0.02021
376.62908,0.02478
375.13929,0.01736
373.64950,0.00996
372.15972,0.02312
370.66993,0.02231
369.18014,0.02346
367.69035,0.02463
366.20056,0.02841
364.71077,0.02613
363.22099,0.01550
361.73120,0.00490
360.24141,0.02756
358.75162,0.03198
357.26183,0.04053
355.77204,0.04910
354.28225,0.04934
352.79247,0.04289
351.30268,0.05063
349.81289,0.05839
348.32310,0.02980
346.83331,0.02193
345.34352,0.02307
343.85374,0.02423
342.36395,0.02678
340.87416,0.03879
339.38437,0.04657
337.89458,0.05436
336.40479,0.03905
334.91501,0.03990
333.42522,0.03712
331.93543,0.03436
330.44564,0.01215
328.95585,0.02100
327.46606,0.01542
325.97627,0.00987
324.48649,0.03158
322.99670,0.06092
321.50691,0.05041
320.01712,0.03993
318.52733,0.07908
317.03754,0.08417
315.54776,0.08776
314.05797,0.09138
312.56818,0.05697
311.07839,0.08894
309.58860,0.09278
308.09881,0.09664
306.60902,0.07968
305.11924,0.07583
303.62945,0.04035
302.13966,0.00490
300.64987,0.05130
299.16008,0.00490
