1778.52000,0.01635
1777.03021,0.01843
1775.54042,0.01335
1774.05063,0.02143
1772.56085,0.01435
1771.07106,0.01590
1769.58127,0.01687
1768.09148,0.00863
1766.60169,0.01703
1765.11190,0.01151
1763.62212,0.01667
1762.13233,0.01510
1760.64254,0.01128
1759.15275,0.01345
1757.66296,0.00661
1756.17317,0.00000
1754.68339,0.00777
1753.19360,0.00818
1751.70381,0.00431
1750.21402,0.00334
1748.72423,0.01039
1747.23444,0.00638
1745.74465,0.00712
1744.25487,0.00747
1742.76508,0.00888
1741.27529,0.00353
1739.78550,0.00704
1738.29571,0.00605
1736.80592,0.00857
1735.31614,0.00661
1733.82635,0.01473
1732.33656,0.00400
1730.84677,0.00540
1729.35698,0.00826
1727.86719,0.00724
1726.37740,0.00728
1724.88762,0.00918
1723.39783,0.02075
1721.90804,0.01142
1720.41825,0.01135
1718.92846,0.01253
1717.43867,0.01230
1715.94889,0.01230
1714.45910,0.01170
1712.96931,0.01093
1711.47952,0.01367
1709.98973,0.01110
1708.49994,0.01306
1707.01016,0.00982
1705.52037,0.00661
1704.03058,0.01615
1702.54079,0.01669
1701.05100,0.01685
1699.56121,0.02318
1698.07142,0.01969
1696.58164,0.02710
1695.09185,0.01545
1693.60206,0.02475
1692.11227,0.01583
1690.62248,0.02025
1689.13269,0.02204
1687.64291,0.02036
1686.15312,0.02732
1684.66333,0.02774
1683.17354,0.02060
1681.68375,0.02824
1680.19396,0.03079
1678.70417,0.03213
1677.21439,0.03267
1675.72460,0.04472
1674.23481,0.03444
1672.74502,0.03813
1671.25523,0.04615
1669.76544,0.04743
1668.27566,0.05263
1666.78587,0.06524
1665.29608,0.06741
1663.80629,0.06468
1662.31650,0.06628
1660.82671,0.07571
1659.33693,0.08228
1657.84714,0.07124
1656.35735,0.07151
1654.86756,0.05990
1653.37777,0.08277
1651.88798,0.07286
1650.39819,0.09106
1648.90841,0.08468
1647.41862,0.07504
1645.92883,0.07578
1644.43904,0.07655
1642.94925,0.08175
1641.45946,0.08123
1639.96968,0.08627
1638.47989,0.08498
1636.99010,0.06259
1635.50031,0.08186
1634.01052,0.06711
1632.52073,0.07678
1631.03094,0.06885
1629.54116,0.07611
1628.05137,0.08360
1626.56158,0.07369
1625.07179,0.09107
1623.58200,0.09002
1622.09221,0.08448
1620.60243,0.08738
1619.11264,0.09543
1617.62285,0.08279
1616.13306,0.08719
1614.64327,0.06865
1613.15348,0.08172
1611.66370,0.09132
1610.17391,0.09233
1608.68412,0.07697
1607.19433,0.09239
1605.70454,0.08896
1604.21475,0.08741
1602.72496,0.08588
1601.23518,0.07391
1599.74539,0.06464
1598.25560,0.07958
1596.76581,0.09456
1595.27602,0.08740
1593.78623,0.08930
1592.29645,0.08425
1590.80666,0.08393
1589.31687,0.07052
1587.82708,0.07374
1586.33729,0.06940
1584.84750,0.07637
1583.35771,0.06777
1581.86793,0.07642
1580.37814,0.06828
1578.88835,0.07021
1577.39856,0.07073
1575.90877,0.05774
1574.41898,0.06036
1572.92920,0.05173
1571.43941,0.05214
1569.94962,0.04724
1568.45983,0.04237
1566.97004,0.04963
1565.48025,0.03557
1563.99047,0.02524
1562.50068,0.03749
1561.01089,0.02802
1559.52110,0.02657
1558.03131,0.03069
1556.54152,0.02499
1555.05173,0.02525
1553.56195,0.03190
1552.07216,0.02484
1550.58237,0.01985
1549.09258,0.01550
1547.60279,0.00953
1546.11300,0.01486
1544.62322,0.00956
1543.13343,0.01699
1541.64364,0.00661
1540.15385,0.00718
1538.66406,0.00777
1537.17427,0.01240
1535.68448,0.01131
1534.19470,0.02030
1532.70491,0.01926
1531.21512,0.02624
1529.72533,0.01520
1528.23554,0.02716
1526.74575,0.02273
1525.25597,0.04478
1523.76618,0.04799
1522.27639,0.03768
1520.78660,0.02966
1519.29681,0.04791
1517.80702,0.04875
1516.31724,0.05434
1514.82745,0.05831
1513.33766,0.05492
1511.84787,0.05155
1510.35808,0.05169
1508.86829,0.06109
1507.37850,0.04898
1505.88872,0.04612
1504.39893,0.05272
1502.90914,0.06754
1501.41935,0.07829
1499.92956,0.08927
1498.43977,0.09104
1496.94999,0.07089
1495.46020,0.08133
1493.97041,0.08625
1492.48062,0.10370
1490.99083,0.09719
1489.50104,0.13541
1488.01125,0.14114
1486.52147,0.14690
1485.03168,0.15915
1483.54189,0.19930
1482.05210,0.22985
1480.56231,0.23601
1479.07252,0.24794
1477.58274,0.26749
1476.09295,0.25814
1474.60316,0.26912
1473.11337,0.26904
1471.62358,0.28971
1470.13379,0.29194
1468.64401,0.31245
1467.15422,0.31370
1465.66443,0.32032
1464.17464,0.32695
1462.68485,0.36786
1461.19506,0.40981
1459.70527,0.45221
1458.21549,0.51738
1456.72570,0.60002
1455.23591,0.64740
1453.74612,0.67697
1452.25633,0.70246
1450.76654,0.71526
1449.27676,0.72255
1447.78697,0.72125
1446.29718,0.67096
1444.80739,0.65719
1443.31760,0.64345
1441.82781,0.62256
1440.33802,0.57934
1438.84824,0.53984
1437.35845,0.52332
1435.86866,0.50888
1434.37887,0.53179
1432.88908,0.56170
1431.39929,0.60434
1429.90951,0.65419
1428.41972,0.71206
1426.92993,0.80031
1425.44014,0.85556
1423.95035,0.88602
1422.46056,0.91650
1420.97078,0.93820
1419.48099,0.94227
1417.99120,0.91357
1416.50141,0.92897
1415.01162,0.86299
1413.52183,0.83476
1412.03204,0.75201
1410.54226,0.68528
1409.05247,0.64072
1407.56268,0.63392
1406.07289,0.57587
1404.58310,0.54820
1403.09331,0.52055
1401.60353,0.45950
1400.11374,0.41406
1398.62395,0.36967
1397.13416,0.32285
1395.64437,0.27112
1394.15458,0.24444
1392.66479,0.18764
1391.17501,0.16142
1389.68522,0.13993
1388.19543,0.12893
1386.70564,0.10986
1385.21585,0.09081
1383.72606,0.07004
1382.23628,0.05401
1380.74649,0.04764
1379.25670,0.04233
1377.76691,0.02986
1376.27712,0.01946
1374.78733,0.01955
1373.29755,0.02069
1371.80776,0.01836
1370.31797,0.01934
1368.82818,0.01296
1367.33839,0.00661
1365.84860,0.03107
1364.35881,0.04162
1362.86903,0.04685
1361.37924,0.05519
1359.88945,0.09452
1358.39966,0.11131
1356.90987,0.14556
1355.42008,0.18926
1353.93030,0.22992
1352.44051,0.25983
1350.95072,0.28976
1349.46093,0.35818
1347.97114,0.43153
1346.48135,0.49856
1344.99156,0.57996
1343.50178,0.65442
1342.01199,0.66655
1340.52220,0.74618
1339.03241,0.79282
1337.54262,0.82800
1336.05283,0.84372
1334.56305,0.85946
1333.07326,0.86108
1331.58347,0.86785
1330.09368,0.84962
1328.60389,0.88782
1327.11410,0.83621
1325.62432,0.77397
1324.13453,0.78209
1322.64474,0.75086
1321.15495,0.73913
1319.66516,0.71646
1318.17537,0.69381
1316.68558,0.64484
1315.19580,0.59855
1313.70601,0.54696
1312.21622,0.53005
1310.72643,0.48999
1309.23664,0.45549
1307.74685,0.42594
1306.25707,0.41036
1304.76728,0.38711
1303.27749,0.36388
1301.78770,0.31884
1300.29791,0.28735
1298.80812,0.24503
1297.31834,0.19309
1295.82855,0.15429
1294.33876,0.14649
1292.84897,0.11841
1291.35918,0.11742
1289.86939,0.11502
1288.37960,0.11265
1286.88982,0.09554
1285.40003,0.08480
1283.91024,0.07409
1282.42045,0.06423
1280.93066,0.06177
1279.44087,0.04477
1277.95109,0.06062
1276.46130,0.05823
1274.97151,0.06069
1273.48172,0.06317
1271.99193,0.04015
1270.50214,0.03581
1269.01235,0.04646
1267.52257,0.03315
1266.03278,0.04405
1264.54299,0.02976
1263.05320,0.02534
1261.56341,0.02453
1260.07362,0.02374
1258.58384,0.01693
1257.09405,0.01506
1255.60426,0.01958
1254.11447,0.01591
1252.62468,0.02294
1251.13489,0.00661
1249.64511,0.01207
1248.15532,0.02924
1246.66553,0.02255
1245.17574,0.01588
1243.68595,0.03333
1242.19616,0.02661
1240.70637,0.00965
1239.21659,0.01303
1237.72680,0.02975
1236.23701,0.01615
1234.74722,0.03806
1233.25743,0.03353
1231.76764,0.02902
1230.27786,0.04095
1228.78807,0.03178
1227.29828,0.02529
1225.80849,0.02766
1224.31870,0.02491
1222.82891,0.00661
1221.33912,0.02194
1219.84934,0.02941
1218.35955,0.03690
1216.86976,0.04595
1215.37997,0.06240
1213.89018,0.08524
1212.40039,0.08985
1210.91061,0.09654
1209.42082,0.08623
1207.93103,0.08312
1206.44124,0.08003
1204.95145,0.08189
1203.46166,0.07681
1201.97188,0.07482
1200.48209,0.06876
1198.99230,0.07645
1197.50251,0.07803
1196.01272,0.06547
1194.52293,0.05633
1193.03314,0.04720
1191.54336,0.02631
1190.05357,0.01796
1188.56378,0.02193
1187.07399,0.01731
1185.58420,0.02482
1184.09441,0.01759
1182.60463,0.01735
1181.11484,0.01713
1179.62505,0.02679
1178.13526,0.01576
1176.64547,0.02033
1175.15568,0.01980
1173.66589,0.01787
1172.17611,0.00631
1170.68632,0.01059
1169.19653,0.01489
1167.70674,0.00661
1166.21695,0.03258
1164.72716,0.03971
1163.23738,0.04584
1161.74759,0.05610
1160.25780,0.05489
1158.76801,0.06099
1157.27822,0.06712
1155.78843,0.06578
1154.29865,0.09769
1152.80886,0.09497
1151.31907,0.11257
1149.82928,0.12712
1148.33949,0.11401
1146.84970,0.11599
1145.35991,0.11801
1143.87013,0.13716
1142.38034,0.14486
1140.89055,0.18150
1139.40076,0.17530
1137.91097,0.17262
1136.42118,0.18759
1134.93140,0.18915
1133.44161,0.19074
1131.95182,0.22014
1130.46203,0.22988
1128.97224,0.26097
1127.48245,0.25168
1125.99266,0.22725
1124.50288,0.22416
1123.01309,0.23125
1121.52330,0.23837
1120.03351,0.22817
1118.54372,0.21719
1117.05393,0.22263
1115.56415,0.22995
1114.07436,0.23831
1112.58457,0.23767
1111.09478,0.23706
1109.60499,0.23729
1108.11520,0.22976
1106.62542,0.21096
1105.13563,0.22398
1103.64584,0.24687
1102.15605,0.22959
1100.66626,0.22853
1099.17647,0.22750
1097.68668,0.21931
1096.19690,0.20684
1094.70711,0.19521
1093.21732,0.20063
1091.72753,0.20054
1090.23774,0.19576
1088.74795,0.19100
1087.25817,0.19528
1085.76838,0.19098
1084.27859,0.19511
1082.78880,0.20336
1081.29901,0.19585
1079.80922,0.20190
1078.31943,0.20705
1076.82965,0.21222
1075.33986,0.19209
1073.85007,0.19455
1072.36028,0.22532
1070.87049,0.23705
1069.38070,0.27731
1067.89092,0.30314
1066.40113,0.32899
1064.91134,0.39783
1063.42155,0.46648
1061.93176,0.54706
1060.44197,0.64570
1058.95219,0.72940
1057.46240,0.78032
1055.97261,0.83125
1054.48282,0.92446
1052.99303,1.02179
1051.50324,0.99528
1050.01345,0.95669
1048.52367,0.95279
1047.03388,0.94686
1045.54409,0.94095
1044.05430,0.89221
1042.56451,0.83919
1041.07472,0.75563
1039.58494,0.69855
1038.09515,0.62899
1036.60536,0.59031
1035.11557,0.55166
1033.62578,0.48217
1032.13599,0.41229
1030.64620,0.36069
1029.15642,0.30583
1027.66663,0.28197
1026.17684,0.25812
1024.68705,0.23964
1023.19726,0.21317
1021.70747,0.17177
1020.21769,0.14474
1018.72790,0.13558
1017.23811,0.13474
1015.74832,0.13394
1014.25853,0.11623
1012.76874,0.10040
1011.27896,0.11720
1009.78917,0.09731
1008.29938,0.05920
1006.80959,0.04685
1005.31980,0.03452
1003.83001,0.03380
1002.34022,0.05218
1000.85044,0.05561
999.36065,0.05517
997.87086,0.06521
996.38107,0.07528
994.89128,0.08640
993.40149,0.10656
991.91171,0.10686
990.42192,0.12871
988.93213,0.15162
987.44234,0.15937
985.95255,0.16714
984.46276,0.17802
982.97297,0.15159
981.48319,0.14345
979.99340,0.11051
978.50361,0.09831
977.01382,0.08613
975.52403,0.08792
974.03424,0.04852
972.54446,0.05426
971.05467,0.03500
969.56488,0.02110
968.07509,0.01389
966.58530,0.00670
965.09551,0.00661
963.60573,0.02161
962.11594,0.02576
960.62615,0.02584
959.13636,0.03824
957.64657,0.05067
956.15678,0.04467
954.66699,0.05100
953.17721,0.04320
951.68742,0.05449
950.19763,0.05248
948.70784,0.05050
947.21805,0.06002
945.72826,0.09520
944.23848,0.11379
942.74869,0.13262
941.25890,0.13957
939.76911,0.14419
938.27932,0.14883
936.78953,0.17965
935.29974,0.16804
933.80996,0.18639
932.32017,0.19841
930.83038,0.20410
929.34059,0.20981
927.85080,0.23974
926.36101,0.25247
924.87123,0.29066
923.38144,0.33625
921.89165,0.37141
920.40186,0.40659
918.91207,0.47912
917.42228,0.63432
915.93250,0.78421
914.44271,0.99134
912.95292,1.11042
911.46313,1.22952
909.97334,1.45313
908.48355,1.65564
906.99376,1.83008
905.50398,1.95677
904.01419,1.97837
902.52440,2.00000
901.03461,1.97233
899.54482,1.92931
898.05503,1.79567
896.56525,1.65754
895.07546,1.53081
893.58567,1.40411
892.09588,1.15675
890.60609,0.90736
889.11630,0.68158
887.62651,0.49417
886.13673,0.43075
884.64694,0.36736
883.15715,0.27539
881.66736,0.21481
880.17757,0.18010
878.68778,0.15915
877.19800,0.13823
875.70821,0.12000
874.21842,0.08374
872.72863,0.06494
871.23884,0.06052
869.74905,0.05612
868.25927,0.05175
866.76948,0.06012
865.27969,0.05108
863.78990,0.05129
862.30011,0.06383
860.81032,0.07670
859.32053,0.08960
857.83075,0.11472
856.34096,0.13064
854.85117,0.12505
853.36138,0.13487
851.87159,0.15065
850.38180,0.16646
848.89202,0.17143
847.40223,0.20431
845.91244,0.22081
844.42265,0.23087
842.93286,0.24096
841.44307,0.25486
839.95329,0.27146
838.46350,0.29669
836.97371,0.30226
835.48392,0.30395
833.99413,0.30568
832.50434,0.30188
831.01455,0.27392
829.52477,0.25910
828.03498,0.25210
826.54519,0.24041
825.05540,0.22874
823.56561,0.19597
822.07582,0.18742
820.58604,0.16886
819.09625,0.16477
817.60646,0.16071
816.11667,0.15205
814.62688,0.15839
813.13709,0.14876
811.64730,0.15474
810.15752,0.16054
808.66773,0.16637
807.17794,0.18801
805.68815,0.18239
804.19836,0.17660
802.70857,0.17052
801.21879,0.16447
799.72900,0.16203
798.23921,0.14177
796.74942,0.14430
795.25963,0.14778
793.76984,0.15128
792.28006,0.15511
790.79027,0.17230
789.30048,0.18131
787.81069,0.21372
786.32090,0.23221
784.83111,0.25073
783.34132,0.28957
781.85154,0.30875
780.36175,0.36630
778.87196,0.38378
777.38217,0.40129
775.89238,0.40272
774.40259,0.42674
772.91281,0.43540
771.42302,0.40850
769.93323,0.38163
768.44344,0.36329
766.95365,0.31975
765.46386,0.26454
763.97407,0.20485
762.48429,0.19574
760.99450,0.18665
759.50471,0.17317
758.01492,0.13470
756.52513,0.10773
755.03534,0.10397
753.54556,0.10023
752.05577,0.09569
750.56598,0.08544
749.07619,0.07069
747.58640,0.06684
746.09661,0.06302
744.60683,0.05019
743.11704,0.03370
741.62725,0.02297
740.13746,0.02314
738.64767,0.02333
737.15788,0.02642
735.66809,0.01805
734.17831,0.00888
732.68852,0.00773
731.19873,0.00661
729.70894,0.01525
728.21915,0.02003
726.72936,0.00821
725.23958,0.01476
723.74979,0.02276
722.26000,0.03078
720.77021,0.02325
719.28042,0.01082
717.79063,0.01768
716.30084,0.01873
714.81106,0.01980
713.32127,0.00562
711.83148,0.01703
710.34169,0.03892
708.85190,0.03449
707.36211,0.03007
705.87233,0.04363
704.38254,0.03937
702.89275,0.05851
701.40296,0.04968
699.91317,0.04088
698.42338,0.04882
696.93360,0.06744
695.44381,0.08424
693.95402,0.09379
692.46423,0.10336
690.97444,0.11182
689.48465,0.14267
687.99486,0.14708
686.50508,0.16700
685.01529,0.18694
683.52550,0.19738
682.03571,0.24864
680.54592,0.27184
679.05613,0.24840
677.56635,0.22499
676.07656,0.24293
674.58677,0.24059
673.09698,0.23314
671.60719,0.21075
670.11740,0.18838
668.62761,0.16317
667.13783,0.15869
665.64804,0.14306
664.15825,0.12746
662.66846,0.11526
661.17867,0.08894
659.68888,0.06161
658.19910,0.04969
656.70931,0.03780
655.21952,0.03823
653.72973,0.04320
652.23994,0.03794
650.75015,0.04849
649.26037,0.05907
647.77058,0.04609
646.28079,0.04215
644.79100,0.01876
643.30121,0.01877
641.81142,0.01881
640.32163,0.02810
638.83185,0.03187
637.34206,0.04818
635.85227,0.03047
634.36248,0.01279
632.87269,0.00661
631.38290,0.01517
629.89312,0.01021
628.40333,0.01031
626.91354,0.01043
625.42375,0.01355
623.93396,0.01628
622.44417,0.02396
620.95438,0.03166
619.46460,0.04718
617.97481,0.06375
616.48502,0.07747
614.99523,0.08722
613.50544,0.09699
612.01565,0.12083
610.52587,0.15536
609.03608,0.21145
607.54629,0.21158
606.05650,0.21173
604.56671,0.25128
603.07692,0.33987
601.58714,0.37054
600.09735,0.40124
598.60756,0.46304
597.11777,0.43586
595.62798,0.42654
594.13819,0.42032
592.64840,0.41412
591.15862,0.38458
589.66883,0.34131
588.17904,0.29315
586.68925,0.26398
585.19946,0.23484
583.70967,0.18367
582.21989,0.11715
580.73010,0.10848
579.24031,0.09984
577.75052,0.08405
576.26073,0.06971
574.77094,0.06401
573.28115,0.05946
571.79137,0.05494
570.30158,0.06880
568.81179,0.08227
567.32200,0.08766
565.83221,0.09308
564.34242,0.11565
562.85264,0.15259
561.36285,0.16823
559.87306,0.17129
558.38327,0.17436
556.89348,0.18864
555.40369,0.18777
553.91391,0.19943
552.42412,0.21111
550.93433,0.24395
549.44454,0.23025
547.95475,0.24344
546.46496,0.23954
544.97517,0.23566
543.48539,0.25446
541.99560,0.26283
540.50581,0.28762
539.01602,0.31245
537.52623,0.35288
536.03644,0.40092
534.54666,0.44509
533.05687,0.43987
531.56708,0.43466
530.07729,0.50885
528.58750,0.57732
527.09771,0.60233
525.60792,0.62737
524.11814,0.65633
522.62835,0.69393
521.13856,0.75760
519.64877,0.78612
518.15898,0.81466
516.66919,0.81257
515.17941,0.82466
513.68962,0.83738
512.19983,0.85013
510.71004,0.84506
509.22025,0.79100
507.73046,0.74230
506.24068,0.68470
504.75089,0.62712
503.26110,0.48006
501.77131,0.37034
500.28152,0.33909
498.79173,0.30786
497.30194,0.22938
495.81216,0.17841
494.32237,0.16397
492.83258,0.14955
491.34279,0.09394
489.85300,0.09946
488.36321,0.08717
486.87343,0.08382
485.38364,0.08049
483.89385,0.07360
482.40406,0.12887
480.91427,0.13362
479.42448,0.13839
477.93469,0.16912
476.44491,0.15805
474.95512,0.17642
473.46533,0.19482
471.97554,0.18936
470.48575,0.19806
468.99596,0.20003
467.50618,0.19402
466.01639,0.18803
464.52660,0.14926
463.03681,0.12241
461.54702,0.10737
460.05723,0.09235
458.56745,0.05552
457.07766,0.04948
455.58787,0.04612
454.09808,0.04279
452.60829,0.04625
451.11850,0.02595
449.62871,0.02074
448.13893,0.01556
446.64914,0.00661
445.15935,0.00732
443.66956,0.03389
442.17977,0.03382
440.68998,0.03379
439.20020,0.04525
437.71041,0.04403
436.22062,0.03802
434.73083,0.03202
433.24104,0.04051
431.75125,0.04410
430.26146,0.05223
428.77168,0.06038
427.28189,0.05133
425.79210,0.04887
424.30231,0.04643
422.81252,0.04401
421.32273,0.02686
419.83295,0.04295
418.34316,0.04850
416.85337,0.05408
415.36358,0.04153
413.87379,0.05033
412.38400,0.04603
410.89422,0.04176
409.40443,0.05658
407.91464,0.04293
406.42485,0.02806
404.93506,0.01732
403.44527,0.00661
401.95548,0.01814
400.46570,0.03523
398.97591,0.04526
397.48612,0.05533
395.99633,0.05341
394.50654,0.02938
393.01675,0.02536
391.52697,0.02137
390.03718,0.01935
388.54739,0.02823
387.05760,0.01980
385.56781,0.01139
384.07802,0.02232
382.58824,0.01708
381.09845,0.01770
379.60866,0.01835
378.11887,0.02138
376.62908,0.02588
375.13929,0.02096
373.64950,0.01606
372.15972,0.01714
370.66993,0.01763
369.18014,0.01473
367.69035,0.01186
366.20056,0.03014
364.71077,0.00661
363.22099,0.01538
361.73120,0.02417
360.24141,0.03904
358.75162,0.05107
357.26183,0.04753
355.77204,0.04401
354.28225,0.04339
352.79247,0.06802
351.30268,0.07309
349.81289,0.07818
348.32310,0.06289
346.83331,0.04332
345.34352,0.04541
343.85374,0.04752
342.36395,0.04607
340.87416,0.02639
339.38437,0.03093
337.89458,0.03550
336.40479,0.05424
334.91501,0.02871
333.42522,0.03304
331.93543,0.03740
330.44564,0.00661
328.95585,0.02655
327.46606,0.02837
325.97627,0.03021
324.48649,0.03945
322.99670,0.03765
321.50691,0.04324
320.01712,0.04886
318.52733,0.04795
317.03754,0.06449
315.54776,0.06700
314.05797,0.06954
312.56818,0.04514
311.07839,0.06485
309.58860,0.05567
308.09881,0.04652
306.60902,0.03882
305.11924,0.04099
303.62945,0.02494
302.13966,0.00890
300.64987,0.01441
299.16008,0.00661
