1778.52000,0.01626
1777.03021,0.00530
1775.54042,0.02073
1774.05063,0.00301
1772.56085,0.01404
1771.07106,0.01295
1769.58127,0.00508
1768.09148,0.01293
1766.60169,0.01369
1765.11190,0.01951
1763.62212,0.00967
1762.13233,0.01406
1760.64254,0.00485
1759.15275,0.00722
1757.66296,0.01761
1756.17317,0.00789
1754.68339,0.00678
1753.19360,0.00806
1751.70381,0.00582
1750.21402,0.01751
1748.72423,0.01058
1747.23444,0.01137
1745.74465,0.02166
1744.25487,0.01657
1742.76508,0.01152
1741.27529,0.01418
1739.78550,0.01125
1738.29571,0.01988
1736.80592,0.00485
1735.31614,0.01737
1733.82635,0.01956
1732.33656,0.00400
1730.84677,0.00623
1729.35698,0.00848
1727.86719,0.00425
1726.37740,0.02136
1724.88762,0.01421
1723.39783,0.00857
1721.90804,0.01154
1720.41825,0.01454
1718.92846,0.01104
1717.43867,0.01468
1715.94889,0.01360
1714.45910,0.00485
1712.96931,0.00602
1711.47952,0.01318
1709.98973,0.00586
1708.49994,0.00448
1707.01016,0.00624
1705.52037,0.00802
1704.03058,0.00850
1702.54079,0.00485
1701.05100,0.01004
1699.56121,0.01170
1698.07142,0.01043
1696.58164,0.01747
1695.09185,0.02572
1693.60206,0.02659
1692.11227,0.02630
1690.62248,0.02011
1689.13269,0.02017
1687.64291,0.04068
1686.15312,0.04494
1684.66333,0.03589
1683.17354,0.03575
1681.68375,0.03741
1680.19396,0.04265
1678.70417,0.04051
1677.21439,0.03306
1675.72460,0.05555
1674.23481,0.05023
1672.74502,0.05263
1671.25523,0.05091
1669.76544,0.05484
1668.27566,0.07153
1666.78587,0.06485
1665.29608,0.08899
1663.80629,0.08681
1662.31650,0.09086
1660.82671,0.08961
1659.33693,0.09253
1657.84714,0.08778
1656.35735,0.08364
1654.86756,0.09463
1653.37777,0.08788
1651.88798,0.08322
1650.39819,0.10583
1648.90841,0.09353
1647.41862,0.08480
1645.92883,0.07936
1644.43904,0.07394
1642.94925,0.09519
1641.45946,0.10374
1639.96968,0.10787
1638.47989,0.11735
1636.99010,0.10613
1635.50031,0.09080
1634.01052,0.08673
1632.52073,0.08595
1631.03094,0.08401
1629.54116,0.08980
1628.05137,0.08879
1626.56158,0.10351
1625.07179,0.11706
1623.58200,0.12028
1622.09221,0.10605
1620.60243,0.12205
1619.11264,0.11409
1617.62285,0.11918
1616.13306,0.10032
1614.64327,0.11109
1613.15348,0.10855
1611.66370,0.10782
1610.17391,0.10327
1608.68412,0.10762
1607.19433,0.10371
1605.70454,0.10692
1604.21475,0.10469
1602.72496,0.10248
1601.23518,0.10784
1599.74539,0.08865
1598.25560,0.08667
1596.76581,0.10217
1595.27602,0.09135
1593.78623,0.09802
1592.29645,0.09939
1590.80666,0.09634
1589.31687,0.09124
1587.82708,0.08291
1586.33729,0.08231
1584.84750,0.08528
1583.35771,0.09627
1581.86793,0.07530
1580.37814,0.09552
1578.88835,0.09593
1577.39856,0.08244
1575.90877,0.07490
1574.41898,0.06472
1572.92920,0.06967
1571.43941,0.04680
1569.94962,0.05017
1568.45983,0.05356
1566.97004,0.04380
1565.48025,0.03347
1563.99047,0.04005
1562.50068,0.03510
1561.01089,0.05120
1559.52110,0.04423
1558.03131,0.02929
1556.54152,0.03125
1555.05173,0.03353
1553.56195,0.03939
1552.07216,0.03224
1550.58237,0.00824
1549.09258,0.00826
1547.60279,0.00000
1546.11300,0.01013
1544.62322,0.00074
1543.13343,0.00383
1541.64364,0.00399
1540.15385,0.00816
1538.66406,0.01237
1537.17427,0.00904
1535.68448,0.00485
1534.19470,0.02446
1532.70491,0.02159
1531.21512,0.01252
1529.72533,0.01502
1528.23554,0.01163
1526.74575,0.03906
1525.25597,0.03927
1523.76618,0.02707
1522.27639,0.04480
1520.78660,0.04212
1519.29681,0.03177
1517.80702,0.06320
1516.31724,0.05053
1514.82745,0.05565
1513.33766,0.05769
1511.84787,0.05975
1510.35808,0.04007
1508.86829,0.03730
1507.37850,0.03455
1505.88872,0.02531
1504.39893,0.03327
1502.90914,0.05310
1501.41935,0.05459
1499.92956,0.08513
1498.43977,0.07957
1496.94999,0.07344
1495.46020,0.08006
1493.97041,0.08908
1492.48062,0.07888
1490.99083,0.09536
1489.50104,0.10623
1488.01125,0.11179
1486.52147,0.11739
1485.03168,0.14225
1483.54189,0.17424
1482.05210,0.19590
1480.56231,0.20958
1479.07252,0.23010
1477.58274,0.23258
1476.09295,0.25967
1474.60316,0.23318
1473.11337,0.25173
1471.62358,0.26023
1470.13379,0.25840
1468.64401,0.26991
1467.15422,0.30899
1465.66443,0.31477
1464.17464,0.32059
1462.68485,0.35026
1461.19506,0.38677
1459.70527,0.45026
1458.21549,0.51643
1456.72570,0.59299
1455.23591,0.66217
1453.74612,0.71153
1452.25633,0.75056
1450.76654,0.74786
1449.27676,0.76680
1447.78697,0.75527
1446.29718,0.73014
1444.80739,0.70519
1443.31760,0.68025
1441.82781,0.61286
1440.33802,0.58871
1438.84824,0.56045
1437.35845,0.52777
1435.86866,0.49245
1434.37887,0.52230
1432.88908,0.55810
1431.39929,0.58622
1429.90951,0.69283
1428.41972,0.77993
1426.92993,0.85224
1425.44014,0.89794
1423.95035,0.93136
1422.46056,0.96481
1420.97078,1.02687
1419.48099,1.04304
1417.99120,1.00802
1416.50141,1.04142
1415.01162,0.99342
1413.52183,0.94011
1412.03204,0.88920
1410.54226,0.78471
1409.05247,0.73770
1407.56268,0.69219
1406.07289,0.62627
1404.58310,0.60406
1403.09331,0.58186
1401.60353,0.51395
1400.11374,0.40845
1398.62395,0.37464
1397.13416,0.34351
1395.64437,0.28458
1394.15458,0.22508
1392.66479,0.20143
1391.17501,0.15057
1389.68522,0.13408
1388.19543,0.10014
1386.70564,0.09406
1385.21585,0.08801
1383.72606,0.07606
1382.23628,0.04311
1380.74649,0.04128
1379.25670,0.03680
1377.76691,0.03176
1376.27712,0.02319
1374.78733,0.01761
1373.29755,0.01827
1371.80776,0.02132
1370.31797,0.00485
1368.82818,0.00537
1367.33839,0.00570
1365.84860,0.01182
1364.35881,0.04461
1362.86903,0.04456
1361.37924,0.06466
1359.88945,0.10878
1358.39966,0.12627
1356.90987,0.18169
1355.42008,0.21196
1353.93030,0.26832
1352.44051,0.30442
1350.95072,0.34054
1349.46093,0.39490
1347.97114,0.47119
1346.48135,0.55817
1344.99156,0.64310
1343.50178,0.74493
1342.01199,0.78787
1340.52220,0.87613
1339.03241,0.91852
1337.54262,0.95116
1336.05283,0.96666
1334.56305,0.98217
1333.07326,1.02348
1331.58347,1.03549
1330.09368,1.04457
1328.60389,1.04153
1327.11410,0.98255
1325.62432,0.94729
1324.13453,0.95351
1322.64474,0.91622
1321.15495,0.85793
1319.66516,0.83994
1318.17537,0.82198
1316.68558,0.76021
1315.19580,0.69403
1313.70601,0.65659
1312.21622,0.61829
1310.72643,0.55811
1309.23664,0.48788
1307.74685,0.46002
1306.25707,0.44106
1304.76728,0.43072
1303.27749,0.42041
1301.78770,0.38139
1300.29791,0.29947
1298.80812,0.26080
1297.31834,0.21475
1295.82855,0.18946
1294.33876,0.14820
1292.84897,0.12858
1291.35918,0.11728
1289.86939,0.12036
1288.37960,0.12347
1286.88982,0.13741
1285.40003,0.09156
1283.91024,0.08097
1282.42045,0.08670
1280.93066,0.07231
1279.44087,0.05646
1277.95109,0.07115
1276.46130,0.06068
1274.97151,0.05987
1273.48172,0.05908
1271.99193,0.05935
1270.50214,0.05609
1269.01235,0.05108
1267.52257,0.04935
1266.03278,0.04794
1264.54299,0.03323
1263.05320,0.05231
1261.56341,0.04387
1260.07362,0.03545
1258.58384,0.00485
1257.09405,0.02931
1255.60426,0.03484
1254.11447,0.02086
1252.62468,0.02229
1251.13489,0.01398
1249.64511,0.02820
1248.15532,0.03504
1246.66553,0.03065
1245.17574,0.02629
1243.68595,0.02610
1242.19616,0.03096
1240.70637,0.01305
1239.21659,0.01294
1237.72680,0.03357
1236.23701,0.03883
1234.74722,0.02516
1233.25743,0.01730
1231.76764,0.00946
1230.27786,0.02666
1228.78807,0.00895
1227.29828,0.02827
1225.80849,0.02009
1224.31870,0.00837
1222.82891,0.00793
1221.33912,0.00485
1219.84934,0.02043
1218.35955,0.03603
1216.86976,0.05343
1215.37997,0.05073
1213.89018,0.05900
1212.40039,0.08565
1210.91061,0.05815
1209.42082,0.07863
1207.93103,0.07946
1206.44124,0.08030
1204.95145,0.06237
1203.46166,0.06311
1201.97188,0.05767
1200.48209,0.04899
1198.99230,0.05780
1197.50251,0.05747
1196.01272,0.05449
1194.52293,0.04250
1193.03314,0.03054
1191.54336,0.01461
1190.05357,0.03127
1188.56378,0.01509
1187.07399,0.00485
1185.58420,0.03815
1184.09441,0.02084
1182.60463,0.01392
1181.11484,0.00703
1179.62505,0.02503
1178.13526,0.01492
1176.64547,0.00721
1175.15568,0.02736
1173.66589,0.01466
1172.17611,0.02035
1170.68632,0.01259
1169.19653,0.00485
1167.70674,0.00574
1166.21695,0.00843
1164.72716,0.01204
1163.23738,0.04764
1161.74759,0.05248
1160.25780,0.06504
1158.76801,0.06578
1157.27822,0.06655
1155.78843,0.07741
1154.29865,0.06401
1152.80886,0.08735
1151.31907,0.08822
1149.82928,0.11250
1148.33949,0.12289
1146.84970,0.12694
1145.35991,0.13101
1143.87013,0.14236
1142.38034,0.14781
1140.89055,0.17224
1139.40076,0.18101
1137.91097,0.20371
1136.42118,0.19238
1134.93140,0.19944
1133.44161,0.20653
1131.95182,0.21541
1130.46203,0.23676
1128.97224,0.23622
1127.48245,0.26738
1125.99266,0.25860
1124.50288,0.24392
1123.01309,0.23341
1121.52330,0.22292
1120.03351,0.26073
1118.54372,0.26480
1117.05393,0.24106
1115.56415,0.26828
1114.07436,0.25644
1112.58457,0.25987
1111.09478,0.26333
1109.60499,0.25275
1108.11520,0.28187
1106.62542,0.26748
1105.13563,0.27119
1103.64584,0.25952
1102.15605,0.24165
1100.66626,0.22959
1099.17647,0.21755
1097.68668,0.23973
1096.19690,0.23382
1094.70711,0.22851
1093.21732,0.22146
1091.72753,0.20969
1090.23774,0.20550
1088.74795,0.20133
1087.25817,0.16565
1085.76838,0.18685
1084.27859,0.20156
1082.78880,0.21689
1081.29901,0.21269
1079.80922,0.19372
1078.31943,0.20690
1076.82965,0.22011
1075.33986,0.21986
1073.85007,0.20158
1072.36028,0.20997
1070.87049,0.22106
1069.38070,0.26088
1067.89092,0.28120
1066.40113,0.30153
1064.91134,0.36720
1063.42155,0.45095
1061.93176,0.52347
1060.44197,0.60935
1058.95219,0.71094
1057.46240,0.76326
1055.97261,0.81560
1054.48282,0.90986
1052.99303,1.04176
1051.50324,1.02355
1050.01345,0.93875
1048.52367,0.95849
1047.03388,0.94584
1045.54409,0.93320
1044.05430,0.91631
1042.56451,0.82955
1041.07472,0.75318
1039.58494,0.72659
1038.09515,0.63546
1036.60536,0.61987
1035.11557,0.60431
1033.62578,0.52658
1032.13599,0.46694
1030.64620,0.38779
1029.15642,0.29800
1027.66663,0.27426
1026.17684,0.25055
1024.68705,0.24345
1023.19726,0.23637
1021.70747,0.19349
1020.21769,0.16159
1018.72790,0.17413
1017.23811,0.16167
1015.74832,0.14924
1014.25853,0.13017
1012.76874,0.12623
1011.27896,0.12113
1009.78917,0.11546
1008.29938,0.09204
1006.80959,0.07902
1005.31980,0.06602
1003.83001,0.03942
1002.34022,0.04395
1000.85044,0.03813
999.36065,0.04003
997.87086,0.05514
996.38107,0.07027
994.89128,0.07314
993.40149,0.10090
991.91171,0.10293
990.42192,0.08988
988.93213,0.12868
987.44234,0.13685
985.95255,0.14505
984.46276,0.15342
982.97297,0.14050
981.48319,0.12434
979.99340,0.08748
978.50361,0.08233
977.01382,0.07720
975.52403,0.05700
974.03424,0.04481
972.54446,0.02407
971.05467,0.03473
969.56488,0.00485
968.07509,0.00958
966.58530,0.01433
965.09551,0.00622
963.60573,0.01443
962.11594,0.03864
960.62615,0.01610
959.13636,0.00957
957.64657,0.00307
956.15678,0.01671
954.66699,0.02416
953.17721,0.04110
951.68742,0.05156
950.19763,0.05715
948.70784,0.06277
947.21805,0.04873
945.72826,0.08771
944.23848,0.09237
942.74869,0.11008
941.25890,0.13670
939.76911,0.14587
938.27932,0.15507
936.78953,0.14860
935.29974,0.17028
933.80996,0.18252
932.32017,0.18856
930.83038,0.19744
929.34059,0.20634
927.85080,0.24414
926.36101,0.28462
924.87123,0.32425
923.38144,0.39617
921.89165,0.43747
920.40186,0.47880
918.91207,0.59166
917.42228,0.73564
915.93250,0.84737
914.44271,1.04321
912.95292,1.16269
911.46313,1.28219
909.97334,1.45827
908.48355,1.66961
906.99376,1.82176
905.50398,1.91678
904.01419,1.95838
902.52440,2.00000
901.03461,1.99531
899.54482,1.92165
898.05503,1.83172
896.56525,1.65477
895.07546,1.55350
893.58567,1.45225
892.09588,1.14567
890.60609,0.89390
889.11630,0.66614
887.62651,0.48519
886.13673,0.41678
884.64694,0.34840
883.15715,0.25547
881.66736,0.16463
880.17757,0.12949
878.68778,0.12561
877.19800,0.12176
875.70821,0.08610
874.21842,0.05698
872.72863,0.03173
871.23884,0.04234
869.74905,0.03076
868.25927,0.01921
866.76948,0.01183
865.27969,0.02550
863.78990,0.01935
862.30011,0.04609
860.81032,0.05317
859.32053,0.06027
857.83075,0.07199
856.34096,0.07426
854.85117,0.09165
853.36138,0.11766
851.87159,0.11541
850.38180,0.11318
848.89202,0.14370
847.40223,0.15263
845.91244,0.19179
844.42265,0.19189
842.93286,0.19201
841.44307,0.19511
839.95329,0.21275
838.46350,0.22450
836.97371,0.24219
835.48392,0.23902
833.99413,0.23589
832.50434,0.23855
831.01455,0.23354
829.52477,0.22233
828.03498,0.19842
826.54519,0.19037
825.05540,0.18235
823.56561,0.15792
822.07582,0.13085
820.58604,0.12038
819.09625,0.11720
817.60646,0.11404
816.11667,0.10986
814.62688,0.10512
813.13709,0.10130
811.64730,0.12326
810.15752,0.11741
808.66773,0.11158
807.17794,0.13954
805.68815,0.13317
804.19836,0.13511
802.70857,0.12835
801.21879,0.12161
799.72900,0.11031
798.23921,0.09933
796.74942,0.08807
795.25963,0.09061
793.76984,0.09318
792.28006,0.10480
790.79027,0.13658
789.30048,0.13996
787.81069,0.17416
786.32090,0.19920
784.83111,0.22427
783.34132,0.24344
781.85154,0.26826
780.36175,0.30229
778.87196,0.32435
777.38217,0.34643
775.89238,0.37994
774.40259,0.36402
772.91281,0.37774
771.42302,0.35329
769.93323,0.32886
768.44344,0.31541
766.95365,0.25668
765.46386,0.21930
763.97407,0.20266
762.48429,0.18413
760.99450,0.16562
759.50471,0.12508
758.01492,0.12069
756.52513,0.10270
755.03534,0.09480
753.54556,0.08693
752.05577,0.08115
750.56598,0.08133
749.07619,0.04688
747.58640,0.04666
746.09661,0.04646
744.60683,0.04110
743.11704,0.02186
741.62725,0.02159
740.13746,0.02652
738.64767,0.03148
737.15788,0.01766
735.66809,0.02134
734.17831,0.01112
732.68852,0.01115
731.19873,0.01120
729.70894,0.00875
728.21915,0.00485
726.72936,0.00780
725.23958,0.03593
723.74979,0.02530
722.26000,0.01470
720.77021,0.02810
719.28042,0.01518
717.79063,0.00287
716.30084,0.00925
714.81106,0.01565
713.32127,0.01689
711.83148,0.02526
710.34169,0.02537
708.85190,0.02506
707.36211,0.02478
705.87233,0.02940
704.38254,0.04056
702.89275,0.05471
701.40296,0.04683
699.91317,0.03896
698.42338,0.05200
696.93360,0.09645
695.44381,0.10095
693.95402,0.10267
692.46423,0.10440
690.97444,0.12556
689.48465,0.13549
687.99486,0.17328
686.50508,0.18356
685.01529,0.19386
683.52550,0.18701
682.03571,0.25362
680.54592,0.26014
679.05613,0.25085
677.56635,0.24158
676.07656,0.25706
674.58677,0.25776
673.09698,0.23895
671.60719,0.23466
670.11740,0.23041
668.62761,0.17968
667.13783,0.15238
665.64804,0.15471
664.15825,0.15706
662.66846,0.13191
661.17867,0.09670
659.68888,0.09084
658.19910,0.07287
656.70931,0.05491
655.21952,0.02929
653.72973,0.04721
652.23994,0.05006
650.75015,0.05501
649.26037,0.05998
647.77058,0.05579
646.28079,0.03594
644.79100,0.03595
643.30121,0.02548
641.81142,0.01503
640.32163,0.01985
638.83185,0.04365
637.34206,0.03460
635.85227,0.02470
634.36248,0.01481
632.87269,0.01413
631.38290,0.01437
629.89312,0.00485
628.40333,0.01864
626.91354,0.03245
625.42375,0.02333
623.93396,0.02164
622.44417,0.02531
620.95438,0.02900
619.46460,0.01910
617.97481,0.06725
616.48502,0.07605
614.99523,0.08517
613.50544,0.09432
612.01565,0.11207
610.52587,0.15118
609.03608,0.18083
607.54629,0.18385
606.05650,0.18690
604.56671,0.24920
603.07692,0.30412
601.58714,0.34574
600.09735,0.38738
598.60756,0.41928
597.11777,0.40115
595.62798,0.40615
594.13819,0.40022
592.64840,0.39432
591.15862,0.39258
589.66883,0.36215
588.17904,0.28199
586.68925,0.25249
585.19946,0.22302
583.70967,0.17995
582.21989,0.15557
580.73010,0.13298
579.24031,0.11042
577.75052,0.10801
576.26073,0.10623
574.77094,0.06420
573.28115,0.06365
571.79137,0.06312
570.30158,0.05107
568.81179,0.08228
567.32200,0.08508
565.83221,0.08791
564.34242,0.10616
562.85264,0.14161
561.36285,0.16672
559.87306,0.17883
558.38327,0.19096
556.89348,0.18358
555.40369,0.18717
553.91391,0.19035
552.42412,0.19355
550.93433,0.21350
549.44454,0.24118
547.95475,0.23897
546.46496,0.24686
544.97517,0.25478
543.48539,0.24347
541.99560,0.26535
540.50581,0.29436
539.01602,0.32339
537.52623,0.35245
536.03644,0.41204
534.54666,0.41598
533.05687,0.44911
531.56708,0.48227
530.07729,0.52448
528.58750,0.57886
527.09771,0.62304
525.60792,0.66725
524.11814,0.70453
522.62835,0.70245
521.13856,0.78449
519.64877,0.82895
518.15898,0.87343
516.66919,0.88655
515.17941,0.83307
513.68962,0.84328
512.19983,0.85352
510.71004,0.84334
509.22025,0.80151
507.73046,0.74075
506.24068,0.69216
504.75089,0.64359
503.26110,0.49615
501.77131,0.40173
500.28152,0.35472
498.79173,0.30773
497.30194,0.24951
495.81216,0.19695
494.32237,0.17446
492.83258,0.15200
491.34279,0.12172
489.85300,0.10626
488.36321,0.06507
486.87343,0.08402
485.38364,0.10299
483.89385,0.08674
482.40406,0.11909
480.91427,0.10704
479.42448,0.09502
477.93469,0.11973
476.44491,0.14152
474.95512,0.15059
473.46533,0.15969
471.97554,0.16734
470.48575,0.17678
468.99596,0.19928
467.50618,0.19708
466.01639,0.19490
464.52660,0.12834
463.03681,0.09438
461.54702,0.08251
460.05723,0.07066
458.56745,0.06076
457.07766,0.02068
455.58787,0.02860
454.09808,0.03654
452.60829,0.01844
451.11850,0.03532
449.62871,0.02201
448.13893,0.00873
446.64914,0.00732
445.15935,0.02399
443.66956,0.03211
442.17977,0.03107
440.68998,0.03005
439.20020,0.01603
437.71041,0.05030
436.22062,0.04314
434.73083,0.03600
433.24104,0.03777
431.75125,0.00848
430.26146,0.01533
428.77168,0.02221
427.28189,0.02527
425.79210,0.03782
424.30231,0.03900
422.81252,0.04021
421.32273,0.02826
419.83295,0.03292
418.34316,0.03612
416.85337,0.03935
415.36358,0.04527
413.87379,0.05861
412.38400,0.04963
410.89422,0.04067
409.40443,0.02862
407.91464,0.06190
406.42485,0.05553
404.93506,0.04312
403.44527,0.03073
401.95548,0.00607
400.46570,0.01762
398.97591,0.02964
397.48612,0.04168
395.99633,0.04471
394.50654,0.03237
393.01675,0.02509
391.52697,0.01784
390.03718,0.01596
388.54739,0.00819
387.05760,0.00651
385.56781,0.00485
384.07802,0.00789
382.58824,0.00324
381.09845,0.00655
379.60866,0.00989
378.11887,0.03280
376.62908,0.00865
375.13929,0.00791
373.64950,0.00720
372.15972,0.02547
370.66993,0.02511
369.18014,0.01596
367.69035,0.00684
366.20056,0.04420
364.71077,0.05819
363.22099,0.04689
361.73120,0.03562
360.24141,0.03606
358.75162,0.03683
357.26183,0.03910
355.77204,0.04140
354.28225,0.06326
352.79247,0.05880
351.30268,0.06013
349.81289,0.06149
348.32310,0.04082
346.83331,0.03882
345.34352,0.03433
343.85374,0.02987
342.36395,0.06289
340.87416,0.04559
339.38437,0.02950
337.89458,0.01344
336.40479,0.02316
334.91501,0.01278
333.42522,0.01662
331.93543,0.02050
330.44564,0.00485
328.95585,0.02139
327.46606,0.02418
325.97627,0.02700
324.48649,0.03028
322.99670,0.05402
321.50691,0.04996
320.01712,0.04591
318.52733,0.06677
317.03754,0.10156
315.54776,0.09537
314.05797,0.08921
312.56818,0.09684
311.07839,0.08939
309.58860,0.08596
308.09881,0.08256
306.60902,0.06571
305.11924,0.04800
303.62945,0.04215
302.13966,0.03633
300.64987,0.00566
299.16008,0.00485
