1778.52000,0.01680
1777.03021,0.01865
1775.54042,0.01864
1774.05063,0.01274
1772.56085,0.01493
1771.07106,0.01337
1769.58127,0.01400
1768.09148,0.00981
1766.60169,0.01639
1765.11190,0.01628
1763.62212,0.01619
1762.13233,0.01156
1760.64254,0.00427
1759.15275,0.01124
1757.66296,0.00749
1756.17317,0.00000
1754.68339,0.00920
1753.19360,0.00525
1751.70381,0.01476
1750.21402,0.00576
1748.72423,0.00107
1747.23444,0.01765
1745.74465,0.01140
1744.25487,0.01136
1742.76508,0.00651
1741.27529,0.01324
1739.78550,0.00951
1738.29571,0.01655
1736.80592,0.00427
1735.31614,0.00550
1733.82635,0.00742
1732.33656,0.00613
1730.84677,0.01240
1729.35698,0.00901
1727.86719,0.00995
1726.37740,0.00392
1724.88762,0.00357
1723.39783,0.01237
1721.90804,0.01287
1720.41825,0.00237
1718.92846,0.01824
1717.43867,0.00429
1715.94889,0.00784
1714.45910,0.01572
1712.96931,0.00427
1711.47952,0.01198
1709.98973,0.01111
1708.49994,0.01564
1707.01016,0.01120
1705.52037,0.00678
1704.03058,0.01649
1702.54079,0.01547
1701.05100,0.00803
1699.56121,0.01620
1698.07142,0.01580
1696.58164,0.01596
1695.09185,0.01668
1693.60206,0.01742
1692.11227,0.01953
1690.62248,0.01656
1689.13269,0.01362
1687.64291,0.02951
1686.15312,0.02742
1684.66333,0.03798
1683.17354,0.03325
1681.68375,0.04091
1680.19396,0.03461
1678.70417,0.05898
1677.21439,0.03500
1675.72460,0.05430
1674.23481,0.06342
1672.74502,0.06478
1671.25523,0.05379
1669.76544,0.06406
1668.27566,0.07838
1666.78587,0.07392
1665.29608,0.07002
1663.80629,0.08441
1662.31650,0.07841
1660.82671,0.08990
1659.33693,0.09711
1657.84714,0.07855
1656.35735,0.07748
1654.86756,0.07187
1653.37777,0.08832
1651.88798,0.07200
1650.39819,0.08984
1648.90841,0.08620
1647.41862,0.08474
1645.92883,0.08102
1644.43904,0.07732
1642.94925,0.08050
1641.45946,0.08828
1639.96968,0.08425
1638.47989,0.07729
1636.99010,0.07277
1635.50031,0.07554
1634.01052,0.06569
1632.52073,0.07711
1631.03094,0.06919
1629.54116,0.06990
1628.05137,0.06714
1626.56158,0.09316
1625.07179,0.09207
1623.58200,0.09368
1622.09221,0.08645
1620.60243,0.08569
1619.11264,0.08550
1617.62285,0.09688
1616.13306,0.08545
1614.64327,0.08318
1613.15348,0.07421
1611.66370,0.08193
1610.17391,0.09478
1608.68412,0.09073
1607.19433,0.08454
1605.70454,0.07946
1604.21475,0.08287
1602.72496,0.08630
1601.23518,0.08371
1599.74539,0.07926
1598.25560,0.07967
1596.76581,0.06613
1595.27602,0.08138
1593.78623,0.07756
1592.29645,0.07592
1590.80666,0.07108
1589.31687,0.06331
1587.82708,0.07599
1586.33729,0.07740
1584.84750,0.07749
1583.35771,0.07439
1581.86793,0.07614
1580.37814,0.08303
1578.88835,0.06897
1577.39856,0.06328
1575.90877,0.06002
1574.41898,0.07345
1572.92920,0.04955
1571.43941,0.05228
1569.94962,0.05181
1568.45983,0.05137
1566.97004,0.05632
1565.48025,0.03657
1563.99047,0.04937
1562.50068,0.04445
1561.01089,0.03902
1559.52110,0.03308
1558.03131,0.03871
1556.54152,0.02529
1555.05173,0.04414
1553.56195,0.02298
1552.07216,0.01984
1550.58237,0.01969
1549.09258,0.01714
1547.60279,0.01407
1546.11300,0.00539
1544.62322,0.00614
1543.13343,0.00476
1541.64364,0.00637
1540.15385,0.00530
1538.66406,0.00427
1537.17427,0.01653
1535.68448,0.01108
1534.19470,0.01855
1532.70491,0.01287
1531.21512,0.00427
1529.72533,0.01337
1528.23554,0.01093
1526.74575,0.02088
1525.25597,0.02871
1523.76618,0.01721
1522.27639,0.02697
1520.78660,0.03379
1519.29681,0.03392
1517.80702,0.04536
1516.31724,0.04393
1514.82745,0.04709
1513.33766,0.05162
1511.84787,0.05617
1510.35808,0.05994
1508.86829,0.05083
1507.37850,0.05088
1505.88872,0.04398
1504.39893,0.06155
1502.90914,0.05818
1501.41935,0.06425
1499.92956,0.08297
1498.43977,0.07940
1496.94999,0.05894
1495.46020,0.06913
1493.97041,0.07155
1492.48062,0.08421
1490.99083,0.10334
1489.50104,0.11525
1488.01125,0.12717
1486.52147,0.13912
1485.03168,0.14921
1483.54189,0.17304
1482.05210,0.17135
1480.56231,0.18394
1479.07252,0.21429
1477.58274,0.23014
1476.09295,0.21593
1474.60316,0.23103
1473.11337,0.23433
1471.62358,0.22986
1470.13379,0.23159
1468.64401,0.26641
1467.15422,0.28862
1465.66443,0.29902
1464.17464,0.30946
1462.68485,0.35243
1461.19506,0.38065
1459.70527,0.44383
1458.21549,0.48472
1456.72570,0.54929
1455.23591,0.61066
1453.74612,0.63121
1452.25633,0.63753
1450.76654,0.67990
1449.27676,0.69138
1447.78697,0.68138
1446.29718,0.65986
1444.80739,0.65246
1443.31760,0.64510
1441.82781,0.60833
1440.33802,0.58663
1438.84824,0.54587
1437.35845,0.51025
1435.86866,0.51335
1434.37887,0.50277
1432.88908,0.51828
1431.39929,0.57090
1429.90951,0.65176
1428.41972,0.75710
1426.92993,0.81490
1425.44014,0.87944
1423.95035,0.88462
1422.46056,0.88981
1420.97078,0.92191
1419.48099,0.91103
1417.99120,0.90824
1416.50141,0.89822
1415.01162,0.88903
1413.52183,0.83498
1412.03204,0.78956
1410.54226,0.71298
1409.05247,0.67836
1407.56268,0.64080
1406.07289,0.59843
1404.58310,0.57503
1403.09331,0.55165
1401.60353,0.45157
1400.11374,0.38565
1398.62395,0.35388
1397.13416,0.31219
1395.64437,0.26408
1394.15458,0.21438
1392.66479,0.18378
1391.17501,0.16745
1389.68522,0.11863
1388.19543,0.11310
1386.70564,0.09765
1385.21585,0.08222
1383.72606,0.06789
1382.23628,0.04983
1380.74649,0.02131
1379.25670,0.02721
1377.76691,0.02722
1376.27712,0.00764
1374.78733,0.00770
1373.29755,0.00967
1371.80776,0.01166
1370.31797,0.00427
1368.82818,0.00629
1367.33839,0.00834
1365.84860,0.02425
1364.35881,0.02191
1362.86903,0.03008
1361.37924,0.05896
1359.88945,0.09109
1358.39966,0.10605
1356.90987,0.13769
1355.42008,0.19516
1353.93030,0.23814
1352.44051,0.26636
1350.95072,0.29461
1349.46093,0.37905
1347.97114,0.42024
1346.48135,0.52838
1344.99156,0.61101
1343.50178,0.65335
1342.01199,0.67045
1340.52220,0.73757
1339.03241,0.77300
1337.54262,0.83855
1336.05283,0.84943
1334.56305,0.86035
1333.07326,0.89157
1331.58347,0.92873
1330.09368,0.90384
1328.60389,0.91364
1327.11410,0.88664
1325.62432,0.82500
1324.13453,0.78785
1322.64474,0.78619
1321.15495,0.73779
1319.66516,0.72475
1318.17537,0.71175
1316.68558,0.63735
1315.19580,0.57212
1313.70601,0.53379
1312.21622,0.51779
1310.72643,0.48326
1309.23664,0.42646
1307.74685,0.39548
1306.25707,0.38629
1304.76728,0.37108
1303.27749,0.35590
1301.78770,0.30889
1300.29791,0.24820
1298.80812,0.21522
1297.31834,0.19193
1295.82855,0.14502
1294.33876,0.12098
1292.84897,0.10744
1291.35918,0.09420
1289.86939,0.09482
1288.37960,0.09546
1286.88982,0.06751
1285.40003,0.04737
1283.91024,0.06488
1282.42045,0.05608
1280.93066,0.04597
1279.44087,0.04178
1277.95109,0.05052
1276.46130,0.03833
1274.97151,0.03032
1273.48172,0.02234
1271.99193,0.04515
1270.50214,0.03923
1269.01235,0.03522
1267.52257,0.01887
1266.03278,0.01867
1264.54299,0.01849
1263.05320,0.01618
1261.56341,0.01968
1260.07362,0.02320
1258.58384,0.02259
1257.09405,0.01608
1255.60426,0.03163
1254.11447,0.02732
1252.62468,0.01713
1251.13489,0.00427
1249.64511,0.00868
1248.15532,0.01391
1246.66553,0.01837
1245.17574,0.02285
1243.68595,0.01768
1242.19616,0.02624
1240.70637,0.01950
1239.21659,0.01145
1237.72680,0.03594
1236.23701,0.02659
1234.74722,0.02747
1233.25743,0.02704
1231.76764,0.02663
1230.27786,0.02813
1228.78807,0.01998
1227.29828,0.03200
1225.80849,0.00831
1224.31870,0.00749
1222.82891,0.00427
1221.33912,0.01023
1219.84934,0.02092
1218.35955,0.03163
1216.86976,0.05352
1215.37997,0.05179
1213.89018,0.06728
1212.40039,0.07070
1210.91061,0.05453
1209.42082,0.06176
1207.93103,0.06337
1206.44124,0.06501
1204.95145,0.05054
1203.46166,0.05438
1201.97188,0.05985
1200.48209,0.04223
1198.99230,0.05501
1197.50251,0.06351
1196.01272,0.03199
1194.52293,0.02562
1193.03314,0.01928
1191.54336,0.02922
1190.05357,0.02333
1188.56378,0.01128
1187.07399,0.02559
1185.58420,0.02569
1184.09441,0.02392
1182.60463,0.02474
1181.11484,0.02558
1179.62505,0.00427
1178.13526,0.01554
1176.64547,0.01178
1175.15568,0.01208
1173.66589,0.01456
1172.17611,0.01813
1170.68632,0.01501
1169.19653,0.01191
1167.70674,0.00427
1166.21695,0.02623
1164.72716,0.02887
1163.23738,0.04202
1161.74759,0.04712
1160.25780,0.04338
1158.76801,0.04639
1157.27822,0.04942
1155.78843,0.05919
1154.29865,0.05743
1152.80886,0.06322
1151.31907,0.09456
1149.82928,0.11169
1148.33949,0.08611
1146.84970,0.09428
1145.35991,0.10247
1143.87013,0.10733
1142.38034,0.14903
1140.89055,0.16791
1139.40076,0.15242
1137.91097,0.15442
1136.42118,0.18036
1134.93140,0.19477
1133.44161,0.20921
1131.95182,0.21641
1130.46203,0.23546
1128.97224,0.23465
1127.48245,0.20807
1125.99266,0.24547
1124.50288,0.22753
1123.01309,0.22709
1121.52330,0.22667
1120.03351,0.22681
1118.54372,0.22240
1117.05393,0.22716
1115.56415,0.23302
1114.07436,0.24669
1112.58457,0.23244
1111.09478,0.21822
1109.60499,0.23573
1108.11520,0.22289
1106.62542,0.21573
1105.13563,0.22364
1103.64584,0.22861
1102.15605,0.22743
1100.66626,0.22869
1099.17647,0.22998
1097.68668,0.18856
1096.19690,0.17700
1094.70711,0.21920
1093.21732,0.19882
1091.72753,0.18733
1090.23774,0.17814
1088.74795,0.16899
1087.25817,0.16482
1085.76838,0.16283
1084.27859,0.15146
1082.78880,0.15436
1081.29901,0.14653
1079.80922,0.16399
1078.31943,0.16830
1076.82965,0.17264
1075.33986,0.15523
1073.85007,0.16741
1072.36028,0.17908
1070.87049,0.20743
1069.38070,0.21914
1067.89092,0.24539
1066.40113,0.27167
1064.91134,0.28776
1063.42155,0.35143
1061.93176,0.41084
1060.44197,0.49149
1058.95219,0.57701
1057.46240,0.62399
1055.97261,0.67099
1054.48282,0.75014
1052.99303,0.77314
1051.50324,0.75800
1050.01345,0.76976
1048.52367,0.77966
1047.03388,0.75761
1045.54409,0.73558
1044.05430,0.74341
1042.56451,0.69751
1041.07472,0.65782
1039.58494,0.59800
1038.09515,0.54733
1036.60536,0.52774
1035.11557,0.50816
1033.62578,0.44790
1032.13599,0.38336
1030.64620,0.31481
1029.15642,0.29036
1027.66663,0.27239
1026.17684,0.25444
1024.68705,0.23167
1023.19726,0.20571
1021.70747,0.16042
1020.21769,0.13853
1018.72790,0.14570
1017.23811,0.14214
1015.74832,0.13860
1014.25853,0.10579
1012.76874,0.10150
1011.27896,0.11711
1009.78917,0.10292
1008.29938,0.08177
1006.80959,0.06870
1005.31980,0.05566
1003.83001,0.04183
1002.34022,0.03583
1000.85044,0.03414
999.36065,0.01824
997.87086,0.02628
996.38107,0.03434
994.89128,0.04727
993.40149,0.06237
991.91171,0.06271
990.42192,0.07921
988.93213,0.08659
987.44234,0.10138
985.95255,0.11620
984.46276,0.10752
982.97297,0.09511
981.48319,0.07628
979.99340,0.05478
978.50361,0.05615
977.01382,0.05754
975.52403,0.03342
974.03424,0.02815
972.54446,0.01994
971.05467,0.01309
969.56488,0.01837
968.07509,0.01131
966.58530,0.00427
965.09551,0.02245
963.60573,0.02964
962.11594,0.03175
960.62615,0.00888
959.13636,0.02300
957.64657,0.03714
956.15678,0.02698
954.66699,0.04318
953.17721,0.04973
951.68742,0.04583
950.19763,0.05028
948.70784,0.05475
947.21805,0.07000
945.72826,0.06968
944.23848,0.09734
942.74869,0.13443
941.25890,0.12505
939.76911,0.13088
938.27932,0.13674
936.78953,0.17446
935.29974,0.19071
933.80996,0.18414
932.32017,0.18055
930.83038,0.18491
929.34059,0.18930
927.85080,0.23066
926.36101,0.24195
924.87123,0.28846
923.38144,0.33474
921.89165,0.36383
920.40186,0.39295
918.91207,0.46725
917.42228,0.60391
915.93250,0.73845
914.44271,0.94424
912.95292,1.06270
911.46313,1.18119
909.97334,1.39107
908.48355,1.62544
906.99376,1.77490
905.50398,1.87145
904.01419,1.90259
902.52440,1.93375
901.03461,2.00000
899.54482,1.96066
898.05503,1.81600
896.56525,1.65229
895.07546,1.53979
893.58567,1.42732
892.09588,1.14973
890.60609,0.93452
889.11630,0.67068
887.62651,0.48266
886.13673,0.42473
884.64694,0.36682
883.15715,0.25707
881.66736,0.18846
880.17757,0.13251
878.68778,0.12603
877.19800,0.11957
875.70821,0.07122
874.21842,0.03659
872.72863,0.02027
871.23884,0.02197
869.74905,0.02383
868.25927,0.02572
866.76948,0.01352
865.27969,0.00511
863.78990,0.00989
862.30011,0.02598
860.81032,0.02839
859.32053,0.03082
857.83075,0.04968
856.34096,0.06990
854.85117,0.06730
853.36138,0.09187
851.87159,0.09523
850.38180,0.09861
848.89202,0.11654
847.40223,0.11782
845.91244,0.13848
844.42265,0.14841
842.93286,0.15837
841.44307,0.14954
839.95329,0.18051
838.46350,0.19779
836.97371,0.19468
835.48392,0.19414
833.99413,0.19363
832.50434,0.21155
831.01455,0.19402
829.52477,0.17678
828.03498,0.12974
826.54519,0.14198
825.05540,0.15424
823.56561,0.12125
822.07582,0.09929
820.58604,0.10209
819.09625,0.09510
817.60646,0.08814
816.11667,0.08052
814.62688,0.07535
813.13709,0.09601
811.64730,0.09760
810.15752,0.09412
808.66773,0.09066
807.17794,0.09206
805.68815,0.10692
804.19836,0.10300
802.70857,0.10246
801.21879,0.10194
799.72900,0.08465
798.23921,0.09399
796.74942,0.07245
795.25963,0.07620
793.76984,0.07996
792.28006,0.07946
790.79027,0.09994
789.30048,0.10459
787.81069,0.13936
786.32090,0.16072
784.83111,0.18210
783.34132,0.20673
781.85154,0.21795
780.36175,0.24559
778.87196,0.28467
777.38217,0.32378
775.89238,0.32031
774.40259,0.32466
772.91281,0.30459
771.42302,0.30885
769.93323,0.31314
768.44344,0.29072
766.95365,0.25623
765.46386,0.23063
763.97407,0.17495
762.48429,0.16015
760.99450,0.14537
759.50471,0.12524
758.01492,0.10272
756.52513,0.09661
755.03534,0.08986
753.54556,0.08313
752.05577,0.07092
750.56598,0.05389
749.07619,0.05032
747.58640,0.05511
746.09661,0.05992
744.60683,0.04165
743.11704,0.04597
741.62725,0.03957
740.13746,0.03105
738.64767,0.02254
737.15788,0.02132
735.66809,0.00427
734.17831,0.00457
732.68852,0.00889
731.19873,0.01324
729.70894,0.00793
728.21915,0.01233
726.72936,0.03045
725.23958,0.02630
723.74979,0.02176
722.26000,0.01725
720.77021,0.00914
719.28042,0.02765
717.79063,0.00427
716.30084,0.00869
714.81106,0.01313
713.32127,0.01075
711.83148,0.02479
710.34169,0.03562
708.85190,0.03519
707.36211,0.03478
705.87233,0.03575
704.38254,0.03727
702.89275,0.03882
701.40296,0.03878
699.91317,0.03876
698.42338,0.05382
696.93360,0.08611
695.44381,0.10605
693.95402,0.11473
692.46423,0.12344
690.97444,0.13378
689.48465,0.14495
687.99486,0.15722
686.50508,0.17516
685.01529,0.19313
683.52550,0.22858
682.03571,0.26326
680.54592,0.27672
679.05613,0.26831
677.56635,0.25993
676.07656,0.28637
674.58677,0.30289
673.09698,0.26058
671.60719,0.23912
670.11740,0.21769
668.62761,0.18405
667.13783,0.17167
665.64804,0.16576
664.15825,0.15988
662.66846,0.12123
661.17867,0.07858
659.68888,0.05342
658.19910,0.05140
656.70931,0.04940
655.21952,0.03398
653.72973,0.02048
652.23994,0.04112
650.75015,0.04621
649.26037,0.05131
647.77058,0.05833
646.28079,0.05247
644.79100,0.02862
643.30121,0.01703
641.81142,0.00547
640.32163,0.00693
638.83185,0.03450
637.34206,0.02365
635.85227,0.01552
634.36248,0.00741
632.87269,0.01793
631.38290,0.02929
629.89312,0.01890
628.40333,0.01888
626.91354,0.01888
625.42375,0.00427
623.93396,0.02639
622.44417,0.02381
620.95438,0.02125
619.46460,0.02974
617.97481,0.05464
616.48502,0.06882
614.99523,0.09149
613.50544,0.11418
612.01565,0.12494
610.52587,0.14271
609.03608,0.18603
607.54629,0.19968
606.05650,0.21336
604.56671,0.26347
603.07692,0.33511
601.58714,0.36001
600.09735,0.38494
598.60756,0.43945
597.11777,0.43997
595.62798,0.43218
594.13819,0.42926
592.64840,0.42635
591.15862,0.41864
589.66883,0.37682
588.17904,0.29793
586.68925,0.27605
585.19946,0.25419
583.70967,0.20064
582.21989,0.13475
580.73010,0.11458
579.24031,0.09442
577.75052,0.06086
576.26073,0.08348
574.77094,0.06367
573.28115,0.06646
571.79137,0.06927
570.30158,0.05867
568.81179,0.06556
567.32200,0.06751
565.83221,0.06948
564.34242,0.07402
562.85264,0.11353
561.36285,0.11758
559.87306,0.12274
558.38327,0.12792
556.89348,0.14844
555.40369,0.15098
553.91391,0.15476
552.42412,0.15856
550.93433,0.15714
549.44454,0.17268
547.95475,0.19791
546.46496,0.19361
544.97517,0.18934
543.48539,0.20201
541.99560,0.22090
540.50581,0.24881
539.01602,0.27674
537.52623,0.31962
536.03644,0.35956
534.54666,0.39469
533.05687,0.40767
531.56708,0.42068
530.07729,0.49538
528.58750,0.57119
527.09771,0.61611
525.60792,0.66106
524.11814,0.68911
522.62835,0.72174
521.13856,0.79068
519.64877,0.81463
518.15898,0.83860
516.66919,0.87322
515.17941,0.87265
513.68962,0.86794
512.19983,0.86326
510.71004,0.82433
509.22025,0.80640
507.73046,0.71888
506.24068,0.67331
504.75089,0.62776
503.26110,0.50242
501.77131,0.36905
500.28152,0.33271
498.79173,0.29640
497.30194,0.21443
495.81216,0.17521
494.32237,0.15953
492.83258,0.14387
491.34279,0.11574
489.85300,0.09677
488.36321,0.09557
486.87343,0.08646
485.38364,0.07737
483.89385,0.07382
482.40406,0.07621
480.91427,0.08802
479.42448,0.09986
477.93469,0.10473
476.44491,0.10533
474.95512,0.12007
473.46533,0.13483
471.97554,0.14732
470.48575,0.15151
468.99596,0.16084
467.50618,0.16118
466.01639,0.16154
464.52660,0.11208
463.03681,0.07528
461.54702,0.06779
460.05723,0.06033
458.56745,0.02279
457.07766,0.00919
455.58787,0.01685
454.09808,0.02453
452.60829,0.02417
451.11850,0.01766
449.62871,0.01158
448.13893,0.00552
446.64914,0.01654
445.15935,0.01228
443.66956,0.00857
442.17977,0.01658
440.68998,0.02462
439.20020,0.01803
437.71041,0.02034
436.22062,0.02549
434.73083,0.03066
433.24104,0.02148
431.75125,0.00427
430.26146,0.02885
428.77168,0.05345
427.28189,0.04260
425.79210,0.05194
424.30231,0.05081
422.81252,0.04971
421.32273,0.04031
419.83295,0.05350
418.34316,0.03984
416.85337,0.02621
415.36358,0.00427
413.87379,0.01307
412.38400,0.02364
410.89422,0.03424
409.40443,0.02833
407.91464,0.03051
406.42485,0.02465
404.93506,0.01559
403.44527,0.00656
401.95548,0.02173
400.46570,0.03667
398.97591,0.04477
397.48612,0.05289
395.99633,0.05312
394.50654,0.04557
393.01675,0.04007
391.52697,0.03458
390.03718,0.00427
388.54739,0.00929
387.05760,0.00640
385.56781,0.00354
384.07802,0.01561
382.58824,0.01186
381.09845,0.01794
379.60866,0.02404
378.11887,0.04804
376.62908,0.03740
375.13929,0.02234
373.64950,0.00731
372.15972,0.01501
370.66993,0.00661
369.18014,0.01666
367.69035,0.02674
366.20056,0.02394
364.71077,0.01686
363.22099,0.03050
361.73120,0.04416
360.24141,0.02936
358.75162,0.05920
357.26183,0.05641
355.77204,0.05364
354.28225,0.06044
352.79247,0.05544
351.30268,0.04656
349.81289,0.03771
348.32310,0.05428
346.83331,0.04481
345.34352,0.05000
343.85374,0.05522
342.36395,0.04018
340.87416,0.05794
339.38437,0.04590
337.89458,0.03389
336.40479,0.04366
334.91501,0.02283
333.42522,0.01545
331.93543,0.00810
330.44564,0.00427
328.95585,0.00442
327.46606,0.02421
325.97627,0.04403
324.48649,0.03888
322.99670,0.05955
321.50691,0.05055
320.01712,0.04157
318.52733,0.05882
317.03754,0.08389
315.54776,0.08318
314.05797,0.08250
312.56818,0.06437
311.07839,0.06535
309.58860,0.06353
308.09881,0.06174
306.60902,0.05338
305.11924,0.03833
303.62945,0.02196
302.13966,0.00562
300.64987,0.01407
299.16008,0.00427
