1778.52000,0.01870
1777.03021,0.02875
1775.54042,0.01697
1774.05063,0.01426
1772.56085,0.01445
1771.07106,0.01378
1769.58127,0.01291
1768.09148,0.01361
1766.60169,0.00307
1765.11190,0.02126
1763.62212,0.01320
1762.13233,0.01268
1760.64254,0.01283
1759.15275,0.00595
1757.66296,0.00925
1756.17317,0.00175
1754.68339,0.01327
1753.19360,0.01664
1751.70381,0.00723
1750.21402,0.01903
1748.72423,0.01497
1747.23444,0.01269
1745.74465,0.01707
1744.25487,0.01064
1742.76508,0.01021
1741.27529,0.00847
1739.78550,0.00985
1738.29571,0.00595
1736.80592,0.01187
1735.31614,0.01561
1733.82635,0.01274
1732.33656,0.01145
1730.84677,0.01084
1729.35698,0.00761
1727.86719,0.01278
1726.37740,0.00982
1724.88762,0.00754
1723.39783,0.01059
1721.90804,0.00261
1720.41825,0.01034
1718.92846,0.01015
1717.43867,0.00644
1715.94889,0.00917
1714.45910,0.00595
1712.96931,0.00848
1711.47952,0.00000
1709.98973,0.00908
1708.49994,0.00760
1707.01016,0.00657
1705.52037,0.00557
1704.03058,0.00681
1702.54079,0.01248
1701.05100,0.01685
1699.56121,0.00866
1698.07142,0.00867
1696.58164,0.01024
1695.09185,0.00742
1693.60206,0.00595
1692.11227,0.01244
1690.62248,0.01543
1689.13269,0.01181
1687.64291,0.02434
1686.15312,0.02474
1684.66333,0.02473
1683.17354,0.02585
1681.68375,0.03228
1680.19396,0.03367
1678.70417,0.03243
1677.21439,0.03165
1675.72460,0.04393
1674.23481,0.04254
1672.74502,0.04471
1671.25523,0.03829
1669.76544,0.05110
1668.27566,0.04804
1666.78587,0.06267
1665.29608,0.05105
1663.80629,0.07478
1662.31650,0.07557
1660.82671,0.07152
1659.33693,0.07457
1657.84714,0.07300
1656.35735,0.07389
1654.86756,0.06818
1653.37777,0.08148
1651.88798,0.07846
1650.39819,0.08187
1648.90841,0.07824
1647.41862,0.07508
1645.92883,0.07812
1644.43904,0.08119
1642.94925,0.08185
1641.45946,0.09600
1639.96968,0.08390
1638.47989,0.09148
1636.99010,0.07237
1635.50031,0.08021
1634.01052,0.07064
1632.52073,0.07390
1631.03094,0.09065
1629.54116,0.08557
1628.05137,0.09022
1626.56158,0.08364
1625.07179,0.10976
1623.58200,0.09307
1622.09221,0.10290
1620.60243,0.09906
1619.11264,0.09569
1617.62285,0.10272
1616.13306,0.09079
1614.64327,0.07999
1613.15348,0.09128
1611.66370,0.09201
1610.17391,0.07333
1608.68412,0.08514
1607.19433,0.09278
1605.70454,0.08918
1604.21475,0.08429
1602.72496,0.07942
1601.23518,0.09157
1599.74539,0.09226
1598.25560,0.08526
1596.76581,0.09306
1595.27602,0.08853
1593.78623,0.09264
1592.29645,0.07204
1590.80666,0.06979
1589.31687,0.08743
1587.82708,0.06006
1586.33729,0.07135
1584.84750,0.06676
1583.35771,0.07920
1581.86793,0.08858
1580.37814,0.08230
1578.88835,0.07914
1577.39856,0.05326
1575.90877,0.05544
1574.41898,0.05632
1572.92920,0.04332
1571.43941,0.04249
1569.94962,0.04433
1568.45983,0.04619
1566.97004,0.04278
1565.48025,0.03718
1563.99047,0.03337
1562.50068,0.03909
1561.01089,0.03952
1559.52110,0.03756
1558.03131,0.03583
1556.54152,0.02508
1555.05173,0.02628
1553.56195,0.02286
1552.07216,0.01682
1550.58237,0.02559
1549.09258,0.00967
1547.60279,0.00701
1546.11300,0.01607
1544.62322,0.01678
1543.13343,0.00315
1541.64364,0.00939
1540.15385,0.01345
1538.66406,0.01752
1537.17427,0.00595
1535.68448,0.01491
1534.19470,0.02853
1532.70491,0.02275
1531.21512,0.02471
1529.72533,0.00595
1528.23554,0.03108
1526.74575,0.04077
1525.25597,0.03945
1523.76618,0.02358
1522.27639,0.03113
1520.78660,0.03761
1519.29681,0.04853
1517.80702,0.05064
1516.31724,0.04460
1514.82745,0.05912
1513.33766,0.05523
1511.84787,0.05137
1510.35808,0.05470
1508.86829,0.05099
1507.37850,0.04201
1505.88872,0.04343
1504.39893,0.06010
1502.90914,0.05473
1501.41935,0.06174
1499.92956,0.07562
1498.43977,0.07826
1496.94999,0.06746
1495.46020,0.06949
1493.97041,0.08677
1492.48062,0.09370
1490.99083,0.09558
1489.50104,0.12553
1488.01125,0.12569
1486.52147,0.12587
1485.03168,0.14706
1483.54189,0.17930
1482.05210,0.16985
1480.56231,0.19817
1479.07252,0.19185
1477.58274,0.20631
1476.09295,0.19849
1474.60316,0.20572
1473.11337,0.21120
1471.62358,0.22266
1470.13379,0.21781
1468.64401,0.23573
1467.15422,0.26272
1465.66443,0.27516
1464.17464,0.28763
1462.68485,0.31315
1461.19506,0.36607
1459.70527,0.40885
1458.21549,0.44880
1456.72570,0.53380
1455.23591,0.57048
1453.74612,0.60409
1452.25633,0.62668
1450.76654,0.65593
1449.27676,0.65097
1447.78697,0.64957
1446.29718,0.63363
1444.80739,0.62720
1443.31760,0.62080
1441.82781,0.58042
1440.33802,0.53675
1438.84824,0.50172
1437.35845,0.48548
1435.86866,0.46418
1434.37887,0.48750
1432.88908,0.50688
1431.39929,0.55410
1429.90951,0.62629
1428.41972,0.73250
1426.92993,0.78597
1425.44014,0.84101
1423.95035,0.84541
1422.46056,0.84983
1420.97078,0.89545
1419.48099,0.88789
1417.99120,0.89845
1416.50141,0.90109
1415.01162,0.88697
1413.52183,0.81658
1412.03204,0.78397
1410.54226,0.73880
1409.05247,0.66870
1407.56268,0.64565
1406.07289,0.60121
1404.58310,0.57379
1403.09331,0.54640
1401.60353,0.48106
1400.11374,0.40426
1398.62395,0.38335
1397.13416,0.32470
1395.64437,0.26189
1394.15458,0.22735
1392.66479,0.18423
1391.17501,0.15593
1389.68522,0.14487
1388.19543,0.11750
1386.70564,0.10671
1385.21585,0.09595
1383.72606,0.09161
1382.23628,0.06058
1380.74649,0.04856
1379.25670,0.03326
1377.76691,0.02747
1376.27712,0.02171
1374.78733,0.01023
1373.29755,0.01113
1371.80776,0.02023
1370.31797,0.00706
1368.82818,0.00649
1367.33839,0.00595
1365.84860,0.01509
1364.35881,0.03000
1362.86903,0.04736
1361.37924,0.05878
1359.88945,0.09098
1358.39966,0.11217
1356.90987,0.15634
1355.42008,0.18861
1353.93030,0.24541
1352.44051,0.26459
1350.95072,0.28380
1349.46093,0.35767
1347.97114,0.42671
1346.48135,0.50240
1344.99156,0.58076
1343.50178,0.67284
1342.01199,0.68502
1340.52220,0.72260
1339.03241,0.81078
1337.54262,0.83914
1336.05283,0.85914
1334.56305,0.87916
1333.07326,0.91665
1331.58347,0.94732
1330.09368,0.95152
1328.60389,0.94426
1327.11410,0.92555
1325.62432,0.89119
1324.13453,0.87009
1322.64474,0.84129
1321.15495,0.81340
1319.66516,0.77891
1318.17537,0.74445
1316.68558,0.70029
1315.19580,0.62172
1313.70601,0.57231
1312.21622,0.54743
1310.72643,0.51198
1309.23664,0.45073
1307.74685,0.43807
1306.25707,0.40755
1304.76728,0.40111
1303.27749,0.39471
1301.78770,0.33754
1300.29791,0.26738
1298.80812,0.22947
1297.31834,0.19512
1295.82855,0.17956
1294.33876,0.14504
1292.84897,0.12600
1291.35918,0.12905
1289.86939,0.11933
1288.37960,0.10963
1286.88982,0.08406
1285.40003,0.07551
1283.91024,0.07339
1282.42045,0.06423
1280.93066,0.05730
1279.44087,0.05503
1277.95109,0.06758
1276.46130,0.04835
1274.97151,0.05090
1273.48172,0.05348
1271.99193,0.03698
1270.50214,0.04147
1269.01235,0.03231
1267.52257,0.01367
1266.03278,0.01979
1264.54299,0.02703
1263.05320,0.04975
1261.56341,0.04159
1260.07362,0.03345
1258.58384,0.02180
1257.09405,0.02829
1255.60426,0.02441
1254.11447,0.03006
1252.62468,0.00857
1251.13489,0.02434
1249.64511,0.02224
1248.15532,0.02415
1246.66553,0.02045
1245.17574,0.01677
1243.68595,0.01808
1242.19616,0.00595
1240.70637,0.01254
1239.21659,0.03417
1237.72680,0.03198
1236.23701,0.03864
1234.74722,0.04003
1233.25743,0.03747
1231.76764,0.03493
1230.27786,0.02822
1228.78807,0.03412
1227.29828,0.03320
1225.80849,0.01840
1224.31870,0.02393
1222.82891,0.02065
1221.33912,0.00790
1219.84934,0.01956
1218.35955,0.03124
1216.86976,0.03654
1215.37997,0.06703
1213.89018,0.07790
1212.40039,0.06252
1210.91061,0.08138
1209.42082,0.08017
1207.93103,0.07557
1206.44124,0.07100
1204.95145,0.06258
1203.46166,0.05816
1201.97188,0.05973
1200.48209,0.06176
1198.99230,0.04946
1197.50251,0.04668
1196.01272,0.04702
1194.52293,0.04175
1193.03314,0.03651
1191.54336,0.03449
1190.05357,0.02322
1188.56378,0.02302
1187.07399,0.02504
1185.58420,0.03239
1184.09441,0.01990
1182.60463,0.01460
1181.11484,0.00933
1179.62505,0.02053
1178.13526,0.01298
1176.64547,0.00657
1175.15568,0.01320
1173.66589,0.00595
1172.17611,0.01629
1170.68632,0.01296
1169.19653,0.00966
1167.70674,0.01897
1166.21695,0.02984
1164.72716,0.03920
1163.23738,0.05056
1161.74759,0.04363
1160.25780,0.06476
1158.76801,0.06593
1157.27822,0.06712
1155.78843,0.08015
1154.29865,0.09233
1152.80886,0.10364
1151.31907,0.10040
1149.82928,0.11552
1148.33949,0.11741
1146.84970,0.11579
1145.35991,0.11420
1143.87013,0.12389
1142.38034,0.16628
1140.89055,0.16255
1139.40076,0.17209
1137.91097,0.16996
1136.42118,0.19500
1134.93140,0.20351
1133.44161,0.21205
1131.95182,0.23275
1130.46203,0.24994
1128.97224,0.24839
1127.48245,0.22589
1125.99266,0.25287
1124.50288,0.26398
1123.01309,0.26109
1121.52330,0.25823
1120.03351,0.23298
1118.54372,0.24550
1117.05393,0.24172
1115.56415,0.24546
1114.07436,0.25210
1112.58457,0.25578
1111.09478,0.25949
1109.60499,0.24236
1108.11520,0.25240
1106.62542,0.25740
1105.13563,0.25689
1103.64584,0.23765
1102.15605,0.22814
1100.66626,0.22385
1099.17647,0.21958
1097.68668,0.20970
1096.19690,0.20802
1094.70711,0.22270
1093.21732,0.22769
1091.72753,0.18700
1090.23774,0.18508
1088.74795,0.18318
1087.25817,0.16884
1085.76838,0.17041
1084.27859,0.17422
1082.78880,0.18446
1081.29901,0.17948
1079.80922,0.19771
1078.31943,0.19731
1076.82965,0.19693
1075.33986,0.16490
1073.85007,0.16578
1072.36028,0.19694
1070.87049,0.21465
1069.38070,0.24232
1067.89092,0.25754
1066.40113,0.27279
1064.91134,0.29700
1063.42155,0.35568
1061.93176,0.43491
1060.44197,0.51947
1058.95219,0.61707
1057.46240,0.67530
1055.97261,0.73354
1054.48282,0.83166
1052.99303,0.90442
1051.50324,0.90235
1050.01345,0.87867
1048.52367,0.88151
1047.03388,0.87168
1045.54409,0.86187
1044.05430,0.82879
1042.56451,0.78051
1041.07472,0.72275
1039.58494,0.67496
1038.09515,0.60356
1036.60536,0.56917
1035.11557,0.53480
1033.62578,0.49770
1032.13599,0.43214
1030.64620,0.34077
1029.15642,0.32450
1027.66663,0.29886
1026.17684,0.27325
1024.68705,0.24379
1023.19726,0.20818
1021.70747,0.18805
1020.21769,0.14322
1018.72790,0.12578
1017.23811,0.13012
1015.74832,0.13448
1014.25853,0.09637
1012.76874,0.08985
1011.27896,0.09064
1009.78917,0.08682
1008.29938,0.06823
1006.80959,0.05816
1005.31980,0.04812
1003.83001,0.03689
1002.34022,0.02987
1000.85044,0.04121
999.36065,0.03998
997.87086,0.03602
996.38107,0.03208
994.89128,0.04396
993.40149,0.06491
991.91171,0.05409
990.42192,0.05875
988.93213,0.10140
987.44234,0.11185
985.95255,0.12232
984.46276,0.12332
982.97297,0.10581
981.48319,0.09339
979.99340,0.06289
978.50361,0.05869
977.01382,0.05451
975.52403,0.04705
974.03424,0.04712
972.54446,0.02292
971.05467,0.03032
969.56488,0.00595
968.07509,0.00726
966.58530,0.00859
965.09551,0.01270
963.60573,0.02656
962.11594,0.01637
960.62615,0.02122
959.13636,0.02090
957.64657,0.02061
956.15678,0.02752
954.66699,0.02539
953.17721,0.02617
951.68742,0.04772
950.19763,0.04965
948.70784,0.05160
947.21805,0.05909
945.72826,0.07632
944.23848,0.09578
942.74869,0.11991
941.25890,0.13258
939.76911,0.14251
938.27932,0.15246
936.78953,0.16697
935.29974,0.17510
933.80996,0.19186
932.32017,0.21151
930.83038,0.21629
929.34059,0.22109
927.85080,0.22470
926.36101,0.24865
924.87123,0.28609
923.38144,0.36285
921.89165,0.38168
920.40186,0.40053
918.91207,0.51976
917.42228,0.61560
915.93250,0.74150
914.44271,0.96213
912.95292,1.07803
911.46313,1.19395
909.97334,1.37536
908.48355,1.60315
906.99376,1.78107
905.50398,1.87556
904.01419,1.90815
902.52440,1.94076
901.03461,2.00000
899.54482,1.95859
898.05503,1.86443
896.56525,1.68132
895.07546,1.56702
893.58567,1.45273
892.09588,1.17851
890.60609,0.93148
889.11630,0.66548
887.62651,0.49488
886.13673,0.43624
884.64694,0.37762
883.15715,0.27907
881.66736,0.20704
880.17757,0.15335
878.68778,0.14893
877.19800,0.14452
875.70821,0.09223
874.21842,0.04637
872.72863,0.04072
871.23884,0.04568
869.74905,0.03764
868.25927,0.02963
866.76948,0.01701
865.27969,0.00595
863.78990,0.02145
862.30011,0.02570
860.81032,0.03584
859.32053,0.04599
857.83075,0.06247
856.34096,0.07897
854.85117,0.08666
853.36138,0.09194
851.87159,0.09747
850.38180,0.10303
848.89202,0.13046
847.40223,0.13076
845.91244,0.14368
844.42265,0.15264
842.93286,0.16163
841.44307,0.18013
839.95329,0.19380
838.46350,0.21059
836.97371,0.20841
835.48392,0.20681
833.99413,0.20523
832.50434,0.22366
831.01455,0.22445
829.52477,0.16830
828.03498,0.17708
826.54519,0.16436
825.05540,0.15167
823.56561,0.14618
822.07582,0.13585
820.58604,0.11120
819.09625,0.10699
817.60646,0.10281
816.11667,0.08595
814.62688,0.09584
813.13709,0.10221
811.64730,0.10972
810.15752,0.10952
808.66773,0.10934
807.17794,0.13149
805.68815,0.12628
804.19836,0.12750
802.70857,0.12246
801.21879,0.11744
799.72900,0.10062
798.23921,0.09421
796.74942,0.09247
795.25963,0.08511
793.76984,0.07778
792.28006,0.09884
790.79027,0.11485
789.30048,0.12846
787.81069,0.15268
786.32090,0.16865
784.83111,0.18465
783.34132,0.21888
781.85154,0.24696
780.36175,0.29294
778.87196,0.29435
777.38217,0.29578
775.89238,0.32373
774.40259,0.32411
772.91281,0.31700
771.42302,0.30860
769.93323,0.30022
768.44344,0.27552
766.95365,0.23120
765.46386,0.20545
763.97407,0.15941
762.48429,0.14099
760.99450,0.12260
759.50471,0.10754
758.01492,0.09096
756.52513,0.09317
755.03534,0.08558
753.54556,0.07801
752.05577,0.06551
750.56598,0.05611
749.07619,0.04321
747.58640,0.04347
746.09661,0.04375
744.60683,0.03357
743.11704,0.02032
741.62725,0.01747
740.13746,0.01774
738.64767,0.01803
737.15788,0.01614
735.66809,0.02266
734.17831,0.01750
732.68852,0.01999
731.19873,0.02250
729.70894,0.00682
728.21915,0.00595
726.72936,0.00568
725.23958,0.01010
723.74979,0.00793
722.26000,0.00577
720.77021,0.00431
719.28042,0.00973
717.79063,0.01738
716.30084,0.01601
714.81106,0.01466
713.32127,0.00936
711.83148,0.02925
710.34169,0.01937
708.85190,0.02893
707.36211,0.03852
705.87233,0.03091
704.38254,0.02863
702.89275,0.03432
701.40296,0.03440
699.91317,0.03450
698.42338,0.03916
696.93360,0.07342
695.44381,0.09468
693.95402,0.10747
692.46423,0.12028
690.97444,0.12837
689.48465,0.15083
687.99486,0.15852
686.50508,0.17408
685.01529,0.18966
683.52550,0.22060
682.03571,0.24716
680.54592,0.26204
679.05613,0.26358
677.56635,0.26515
676.07656,0.26354
674.58677,0.25843
673.09698,0.23567
671.60719,0.22796
670.11740,0.22026
668.62761,0.18500
667.13783,0.16013
665.64804,0.14997
664.15825,0.13983
662.66846,0.10091
661.17867,0.08453
659.68888,0.06354
658.19910,0.05283
656.70931,0.04215
655.21952,0.04861
653.72973,0.03191
652.23994,0.02980
650.75015,0.02750
649.26037,0.02522
647.77058,0.03996
646.28079,0.03685
644.79100,0.03133
643.30121,0.02297
641.81142,0.01463
640.32163,0.03104
638.83185,0.03091
637.34206,0.02242
635.85227,0.01473
634.36248,0.00706
632.87269,0.02051
631.38290,0.00595
629.89312,0.00674
628.40333,0.00623
626.91354,0.00574
625.42375,0.02383
623.93396,0.01941
622.44417,0.02562
620.95438,0.03185
619.46460,0.04606
617.97481,0.05742
616.48502,0.06129
614.99523,0.07711
613.50544,0.09296
612.01565,0.11899
610.52587,0.14327
609.03608,0.19672
607.54629,0.21046
606.05650,0.22421
604.56671,0.26007
603.07692,0.34210
601.58714,0.36995
600.09735,0.39783
598.60756,0.41546
597.11777,0.40441
595.62798,0.44307
594.13819,0.44112
592.64840,0.43920
591.15862,0.40595
589.66883,0.33541
588.17904,0.29382
586.68925,0.25877
585.19946,0.22374
583.70967,0.17671
582.21989,0.13521
580.73010,0.11229
579.24031,0.08939
577.75052,0.06916
576.26073,0.06132
574.77094,0.04578
573.28115,0.04892
571.79137,0.05208
570.30158,0.04522
568.81179,0.04501
567.32200,0.05575
565.83221,0.06651
564.34242,0.07697
562.85264,0.08899
561.36285,0.11208
559.87306,0.11599
558.38327,0.11992
556.89348,0.11063
555.40369,0.11659
553.91391,0.13815
552.42412,0.15972
550.93433,0.15825
549.44454,0.17933
547.95475,0.18453
546.46496,0.18678
544.97517,0.18905
543.48539,0.19542
541.99560,0.24135
540.50581,0.26808
539.01602,0.29485
537.52623,0.32914
536.03644,0.38001
534.54666,0.39890
533.05687,0.41935
531.56708,0.43983
530.07729,0.48396
528.58750,0.56851
527.09771,0.59845
525.60792,0.62841
524.11814,0.66468
522.62835,0.72858
521.13856,0.77241
519.64877,0.80368
518.15898,0.83497
516.66919,0.89035
515.17941,0.85480
513.68962,0.87005
512.19983,0.88532
510.71004,0.86529
509.22025,0.79428
507.73046,0.75686
506.24068,0.69694
504.75089,0.63705
503.26110,0.49991
501.77131,0.40474
500.28152,0.34193
498.79173,0.27916
497.30194,0.23351
495.81216,0.19319
494.32237,0.17155
492.83258,0.14993
491.34279,0.12669
489.85300,0.09794
488.36321,0.08777
486.87343,0.07132
485.38364,0.05491
483.89385,0.08565
482.40406,0.09191
480.91427,0.09775
479.42448,0.10361
477.93469,0.10818
476.44491,0.11299
474.95512,0.13836
473.46533,0.16375
471.97554,0.15141
470.48575,0.14991
468.99596,0.18288
467.50618,0.17061
466.01639,0.15837
464.52660,0.11966
463.03681,0.09642
461.54702,0.07973
460.05723,0.06305
458.56745,0.03614
457.07766,0.02912
455.58787,0.02786
454.09808,0.02663
452.60829,0.04684
451.11850,0.03638
449.62871,0.03434
448.13893,0.03232
446.64914,0.02215
445.15935,0.01952
443.66956,0.04009
442.17977,0.04413
440.68998,0.04819
439.20020,0.02755
437.71041,0.02460
436.22062,0.02200
434.73083,0.01942
433.24104,0.02007
431.75125,0.00595
430.26146,0.02803
428.77168,0.05013
427.28189,0.03031
425.79210,0.05025
424.30231,0.05057
422.81252,0.05091
421.32273,0.04973
419.83295,0.05012
418.34316,0.04490
416.85337,0.03971
415.36358,0.02472
413.87379,0.02034
412.38400,0.02847
410.89422,0.03662
409.40443,0.03740
407.91464,0.03665
406.42485,0.02512
404.93506,0.02718
403.44527,0.02927
401.95548,0.04584
400.46570,0.05758
398.97591,0.06350
397.48612,0.06944
395.99633,0.08014
394.50654,0.06571
393.01675,0.05395
391.52697,0.04221
390.03718,0.02630
388.54739,0.05042
387.05760,0.03681
385.56781,0.02323
384.07802,0.03042
382.58824,0.02947
381.09845,0.04478
379.60866,0.06010
378.11887,0.05569
376.62908,0.04954
375.13929,0.02773
373.64950,0.00595
372.15972,0.03372
370.66993,0.04120
369.18014,0.03617
367.69035,0.03116
366.20056,0.03091
364.71077,0.05079
363.22099,0.05854
361.73120,0.06632
360.24141,0.05602
358.75162,0.06804
357.26183,0.06497
355.77204,0.06191
354.28225,0.07842
352.79247,0.06339
351.30268,0.05257
349.81289,0.04177
348.32310,0.04822
346.83331,0.03571
345.34352,0.03536
343.85374,0.03504
342.36395,0.05042
340.87416,0.06891
339.38437,0.06171
337.89458,0.05453
336.40479,0.06426
334.91501,0.03141
333.42522,0.01867
331.93543,0.00595
330.44564,0.00538
328.95585,0.02956
327.46606,0.02826
325.97627,0.02699
324.48649,0.04819
322.99670,0.06809
321.50691,0.04960
320.01712,0.03113
318.52733,0.07098
317.03754,0.07287
315.54776,0.05746
314.05797,0.04207
312.56818,0.05927
311.07839,0.08907
309.58860,0.07442
308.09881,0.05979
306.60902,0.06472
305.11924,0.02706
303.62945,0.02067
302.13966,0.00709
300.64987,0.00595
299.16008,0.00595
