1778.52000,0.00616
1777.03021,0.00833
1775.54042,0.01665
1774.05063,0.02548
1772.56085,0.01351
1771.07106,0.02191
1769.58127,0.01586
1768.09148,0.01793
1766.60169,0.01415
1765.11190,0.02092
1763.62212,0.02159
1762.13233,0.02130
1760.64254,0.01859
1759.15275,0.02179
1757.66296,0.02574
1756.17317,0.02188
1754.68339,0.02367
1753.19360,0.02427
1751.70381,0.01459
1750.21402,0.02495
1748.72423,0.01867
1747.23444,0.01657
1745.74465,0.01818
1744.25487,0.02251
1742.76508,0.02980
1741.27529,0.02364
1739.78550,0.02755
1738.29571,0.02241
1736.80592,0.02098
1735.31614,0.02398
1733.82635,0.01475
1732.33656,0.00873
1730.84677,0.02308
1729.35698,0.02397
1727.86719,0.00847
1726.37740,0.01221
1724.88762,0.01770
1723.39783,0.01218
1721.90804,0.01821
1720.41825,0.02034
1718.92846,0.01514
1717.43867,0.02417
1715.94889,0.01363
1714.45910,0.01365
1712.96931,0.01247
1711.47952,0.01107
1709.98973,0.01581
1708.49994,0.01005
1707.01016,0.00578
1705.52037,0.00153
1704.03058,0.00000
1702.54079,0.00657
1701.05100,0.02149
1699.56121,0.00801
1698.07142,0.01391
1696.58164,0.01274
1695.09185,0.01869
1693.60206,0.02172
1692.11227,0.00616
1690.62248,0.02626
1689.13269,0.01355
1687.64291,0.01337
1686.15312,0.01908
1684.66333,0.02213
1683.17354,0.01736
1681.68375,0.03344
1680.19396,0.03239
1678.70417,0.03872
1677.21439,0.03062
1675.72460,0.04189
1674.23481,0.03433
1672.74502,0.04369
1671.25523,0.04156
1669.76544,0.04951
1668.27566,0.06580
1666.78587,0.05321
1665.29608,0.05510
1663.80629,0.05285
1662.31650,0.06263
1660.82671,0.05944
1659.33693,0.06290
1657.84714,0.07299
1656.35735,0.06620
1654.86756,0.06728
1653.37777,0.06544
1651.88798,0.06534
1650.39819,0.07237
1648.90841,0.07648
1647.41862,0.07376
1645.92883,0.06824
1644.43904,0.06275
1642.94925,0.06917
1641.45946,0.07291
1639.96968,0.07594
1638.47989,0.09713
1636.99010,0.08625
1635.50031,0.07563
1634.01052,0.06749
1632.52073,0.07578
1631.03094,0.06426
1629.54116,0.07040
1628.05137,0.06211
1626.56158,0.07516
1625.07179,0.09583
1623.58200,0.09839
1622.09221,0.09167
1620.60243,0.09893
1619.11264,0.09103
1617.62285,0.08340
1616.13306,0.08289
1614.64327,0.06894
1613.15348,0.07632
1611.66370,0.08471
1610.17391,0.08700
1608.68412,0.07241
1607.19433,0.08969
1605.70454,0.08715
1604.21475,0.08733
1602.72496,0.08753
1601.23518,0.08213
1599.74539,0.07772
1598.25560,0.09392
1596.76581,0.07658
1595.27602,0.08156
1593.78623,0.09538
1592.29645,0.07909
1590.80666,0.09297
1589.31687,0.08530
1587.82708,0.07202
1586.33729,0.07372
1584.84750,0.07176
1583.35771,0.07521
1581.86793,0.06620
1580.37814,0.07313
1578.88835,0.07078
1577.39856,0.07531
1575.90877,0.06149
1574.41898,0.06191
1572.92920,0.05794
1571.43941,0.05497
1569.94962,0.05288
1568.45983,0.05082
1566.97004,0.04523
1565.48025,0.02864
1563.99047,0.04074
1562.50068,0.04135
1561.01089,0.02335
1559.52110,0.02401
1558.03131,0.02665
1556.54152,0.02441
1555.05173,0.03200
1553.56195,0.02295
1552.07216,0.03059
1550.58237,0.02428
1549.09258,0.00771
1547.60279,0.00390
1546.11300,0.00281
1544.62322,0.00493
1543.13343,0.01223
1541.64364,0.00827
1540.15385,0.01022
1538.66406,0.01219
1537.17427,0.01566
1535.68448,0.00616
1534.19470,0.01340
1532.70491,0.01062
1531.21512,0.02991
1529.72533,0.01419
1528.23554,0.00658
1526.74575,0.02546
1525.25597,0.03284
1523.76618,0.03633
1522.27639,0.04915
1520.78660,0.04681
1519.29681,0.04718
1517.80702,0.03361
1516.31724,0.03869
1514.82745,0.04869
1513.33766,0.05272
1511.84787,0.05676
1510.35808,0.04993
1508.86829,0.04141
1507.37850,0.03830
1505.88872,0.04208
1504.39893,0.04294
1502.90914,0.05877
1501.41935,0.05919
1499.92956,0.10496
1498.43977,0.09660
1496.94999,0.07651
1495.46020,0.06575
1493.97041,0.07683
1492.48062,0.09087
1490.99083,0.09366
1489.50104,0.11657
1488.01125,0.11793
1486.52147,0.11933
1485.03168,0.13275
1483.54189,0.15600
1482.05210,0.18319
1480.56231,0.20012
1479.07252,0.18987
1477.58274,0.20758
1476.09295,0.22336
1474.60316,0.22372
1473.11337,0.22165
1471.62358,0.23309
1470.13379,0.23254
1468.64401,0.24892
1467.15422,0.25896
1465.66443,0.27907
1464.17464,0.29920
1462.68485,0.29240
1461.19506,0.34100
1459.70527,0.38007
1458.21549,0.44097
1456.72570,0.51464
1455.23591,0.58073
1453.74612,0.62676
1452.25633,0.65370
1450.76654,0.65052
1449.27676,0.65938
1447.78697,0.64596
1446.29718,0.64433
1444.80739,0.64101
1443.31760,0.63771
1441.82781,0.60699
1440.33802,0.54738
1438.84824,0.51989
1437.35845,0.45862
1435.86866,0.49832
1434.37887,0.49761
1432.88908,0.52045
1431.39929,0.54185
1429.90951,0.60958
1428.41972,0.69865
1426.92993,0.76275
1425.44014,0.82051
1423.95035,0.84986
1422.46056,0.87924
1420.97078,0.93633
1419.48099,0.89054
1417.99120,0.88495
1416.50141,0.90683
1415.01162,0.86479
1413.52183,0.81835
1412.03204,0.76753
1410.54226,0.67753
1409.05247,0.63632
1407.56268,0.60297
1406.07289,0.55812
1404.58310,0.54087
1403.09331,0.52364
1401.60353,0.45290
1400.11374,0.40790
1398.62395,0.36784
1397.13416,0.32412
1395.64437,0.25298
1394.15458,0.23063
1392.66479,0.18281
1391.17501,0.16737
1389.68522,0.14019
1388.19543,0.12357
1386.70564,0.11077
1385.21585,0.09799
1383.72606,0.07458
1382.23628,0.05095
1380.74649,0.04008
1379.25670,0.02434
1377.76691,0.02234
1376.27712,0.00616
1374.78733,0.01084
1373.29755,0.02951
1371.80776,0.01880
1370.31797,0.01105
1368.82818,0.00970
1367.33839,0.00837
1365.84860,0.02097
1364.35881,0.03555
1362.86903,0.05041
1361.37924,0.07361
1359.88945,0.07993
1358.39966,0.11593
1356.90987,0.14239
1355.42008,0.18162
1353.93030,0.22823
1352.44051,0.25831
1350.95072,0.28843
1349.46093,0.31820
1347.97114,0.41120
1346.48135,0.47606
1344.99156,0.52771
1343.50178,0.67372
1342.01199,0.69870
1340.52220,0.71465
1339.03241,0.76640
1337.54262,0.78533
1336.05283,0.82193
1334.56305,0.85856
1333.07326,0.84694
1331.58347,0.87283
1330.09368,0.86787
1328.60389,0.85706
1327.11410,0.83598
1325.62432,0.82154
1324.13453,0.77919
1322.64474,0.76896
1321.15495,0.72004
1319.66516,0.70361
1318.17537,0.68721
1316.68558,0.64376
1315.19580,0.56700
1313.70601,0.53119
1312.21622,0.52603
1310.72643,0.45499
1309.23664,0.43272
1307.74685,0.38231
1306.25707,0.38999
1304.76728,0.37662
1303.27749,0.36327
1301.78770,0.31736
1300.29791,0.26903
1298.80812,0.23027
1297.31834,0.20036
1295.82855,0.14058
1294.33876,0.11978
1292.84897,0.10391
1291.35918,0.10031
1289.86939,0.09858
1288.37960,0.09687
1286.88982,0.08550
1285.40003,0.06191
1283.91024,0.06284
1282.42045,0.06135
1280.93066,0.03832
1279.44087,0.04937
1277.95109,0.03717
1276.46130,0.03700
1274.97151,0.04212
1273.48172,0.04727
1271.99193,0.04202
1270.50214,0.05297
1269.01235,0.04165
1267.52257,0.02766
1266.03278,0.01957
1264.54299,0.03061
1263.05320,0.03556
1261.56341,0.02914
1260.07362,0.02274
1258.58384,0.01599
1257.09405,0.01564
1255.60426,0.01312
1254.11447,0.01600
1252.62468,0.01719
1251.13489,0.00616
1249.64511,0.00917
1248.15532,0.03180
1246.66553,0.02775
1245.17574,0.02373
1243.68595,0.03908
1242.19616,0.02751
1240.70637,0.00640
1239.21659,0.02428
1237.72680,0.01596
1236.23701,0.03487
1234.74722,0.04130
1233.25743,0.03514
1231.76764,0.02900
1230.27786,0.04212
1228.78807,0.03567
1227.29828,0.04149
1225.80849,0.03630
1224.31870,0.01669
1222.82891,0.00616
1221.33912,0.01134
1219.84934,0.02181
1218.35955,0.03231
1216.86976,0.03046
1215.37997,0.04382
1213.89018,0.06456
1212.40039,0.06596
1210.91061,0.07082
1209.42082,0.08281
1207.93103,0.07081
1206.44124,0.05884
1204.95145,0.06771
1203.46166,0.06215
1201.97188,0.05883
1200.48209,0.05356
1198.99230,0.05886
1197.50251,0.05952
1196.01272,0.04968
1194.52293,0.04794
1193.03314,0.04623
1191.54336,0.03376
1190.05357,0.02156
1188.56378,0.02040
1187.07399,0.02050
1185.58420,0.03606
1184.09441,0.02665
1182.60463,0.02449
1181.11484,0.02236
1179.62505,0.02478
1178.13526,0.01694
1176.64547,0.01794
1175.15568,0.01407
1173.66589,0.02933
1172.17611,0.02599
1170.68632,0.01606
1169.19653,0.00616
1167.70674,0.01813
1166.21695,0.02791
1164.72716,0.04605
1163.23738,0.05246
1161.74759,0.05276
1160.25780,0.05210
1158.76801,0.05650
1157.27822,0.06091
1155.78843,0.09978
1154.29865,0.08525
1152.80886,0.08129
1151.31907,0.09181
1149.82928,0.09524
1148.33949,0.10997
1146.84970,0.11504
1145.35991,0.12014
1143.87013,0.09942
1142.38034,0.13409
1140.89055,0.16144
1139.40076,0.17582
1137.91097,0.17528
1136.42118,0.18310
1134.93140,0.19204
1133.44161,0.20101
1131.95182,0.18317
1130.46203,0.23004
1128.97224,0.24238
1127.48245,0.24275
1125.99266,0.22182
1124.50288,0.21415
1123.01309,0.21875
1121.52330,0.22338
1120.03351,0.20940
1118.54372,0.23393
1117.05393,0.24058
1115.56415,0.24384
1114.07436,0.22114
1112.58457,0.21844
1111.09478,0.21576
1109.60499,0.23699
1108.11520,0.22958
1106.62542,0.20407
1105.13563,0.21655
1103.64584,0.21706
1102.15605,0.21391
1100.66626,0.21373
1099.17647,0.21357
1097.68668,0.18305
1096.19690,0.17363
1094.70711,0.18849
1093.21732,0.16197
1091.72753,0.18912
1090.23774,0.18225
1088.74795,0.17540
1087.25817,0.15289
1085.76838,0.15687
1084.27859,0.15303
1082.78880,0.15656
1081.29901,0.14763
1079.80922,0.15930
1078.31943,0.16119
1076.82965,0.16311
1075.33986,0.17485
1073.85007,0.15133
1072.36028,0.16606
1070.87049,0.15730
1069.38070,0.18310
1067.89092,0.20893
1066.40113,0.23478
1064.91134,0.29251
1063.42155,0.35786
1061.93176,0.38795
1060.44197,0.45384
1058.95219,0.54107
1057.46240,0.57136
1055.97261,0.60166
1054.48282,0.70881
1052.99303,0.79859
1051.50324,0.80631
1050.01345,0.78366
1048.52367,0.77109
1047.03388,0.77165
1045.54409,0.77223
1044.05430,0.71563
1042.56451,0.70119
1041.07472,0.63729
1039.58494,0.59472
1038.09515,0.52473
1036.60536,0.49667
1035.11557,0.46863
1033.62578,0.43719
1032.13599,0.38788
1030.64620,0.34252
1029.15642,0.27733
1027.66663,0.25358
1026.17684,0.22985
1024.68705,0.20934
1023.19726,0.17487
1021.70747,0.16053
1020.21769,0.14376
1018.72790,0.11966
1017.23811,0.11078
1015.74832,0.10192
1014.25853,0.10926
1012.76874,0.07472
1011.27896,0.07892
1009.78917,0.07653
1008.29938,0.04623
1006.80959,0.04927
1005.31980,0.05235
1003.83001,0.01648
1002.34022,0.02622
1000.85044,0.01343
999.36065,0.02518
997.87086,0.02665
996.38107,0.02815
994.89128,0.04977
993.40149,0.05475
991.91171,0.06612
990.42192,0.07923
988.93213,0.08183
987.44234,0.08581
985.95255,0.08980
984.46276,0.10669
982.97297,0.11306
981.48319,0.08295
979.99340,0.05751
978.50361,0.05367
977.01382,0.04984
975.52403,0.03894
974.03424,0.04129
972.54446,0.03264
971.05467,0.02744
969.56488,0.01320
968.07509,0.01173
966.58530,0.01028
965.09551,0.00616
963.60573,0.01160
962.11594,0.01731
960.62615,0.01472
959.13636,0.01986
957.64657,0.02503
956.15678,0.02668
954.66699,0.02908
953.17721,0.03444
951.68742,0.03738
950.19763,0.04488
948.70784,0.05240
947.21805,0.05957
945.72826,0.07437
944.23848,0.09066
942.74869,0.12829
941.25890,0.14365
939.76911,0.15181
938.27932,0.15998
936.78953,0.16243
935.29974,0.19577
933.80996,0.20806
932.32017,0.19955
930.83038,0.19842
929.34059,0.19731
927.85080,0.22587
926.36101,0.24392
924.87123,0.27939
923.38144,0.32934
921.89165,0.36461
920.40186,0.39991
918.91207,0.49869
917.42228,0.60632
915.93250,0.74362
914.44271,0.92946
912.95292,1.04083
911.46313,1.15223
909.97334,1.37465
908.48355,1.59611
906.99376,1.80241
905.50398,1.89945
904.01419,1.94971
902.52440,2.00000
901.03461,1.97092
899.54482,1.94163
898.05503,1.82659
896.56525,1.68292
895.07546,1.56548
893.58567,1.44807
892.09588,1.16039
890.60609,0.91194
889.11630,0.68900
887.62651,0.51631
886.13673,0.44569
884.64694,0.37510
883.15715,0.24659
881.66736,0.16098
880.17757,0.11925
878.68778,0.10585
877.19800,0.09247
875.70821,0.07655
874.21842,0.05378
872.72863,0.04525
871.23884,0.03185
869.74905,0.02521
868.25927,0.01859
866.76948,0.02339
865.27969,0.00616
863.78990,0.00767
862.30011,0.03737
860.81032,0.04309
859.32053,0.04884
857.83075,0.07102
856.34096,0.06309
854.85117,0.07430
853.36138,0.07647
851.87159,0.08944
850.38180,0.10243
848.89202,0.09119
847.40223,0.12653
845.91244,0.15209
844.42265,0.15967
842.93286,0.16727
841.44307,0.16644
839.95329,0.20925
838.46350,0.21313
836.97371,0.22315
835.48392,0.21421
833.99413,0.20530
832.50434,0.19775
831.01455,0.19489
829.52477,0.18445
828.03498,0.17796
826.54519,0.16929
825.05540,0.16064
823.56561,0.14074
822.07582,0.10911
820.58604,0.09587
819.09625,0.09234
817.60646,0.08884
816.11667,0.09381
814.62688,0.09366
813.13709,0.09084
811.64730,0.10593
810.15752,0.10340
808.66773,0.10089
807.17794,0.12586
805.68815,0.11286
804.19836,0.10577
802.70857,0.10998
801.21879,0.11421
799.72900,0.09446
798.23921,0.09776
796.74942,0.09593
795.25963,0.08850
793.76984,0.08109
792.28006,0.10139
790.79027,0.10579
789.30048,0.12345
787.81069,0.13794
786.32090,0.15075
784.83111,0.16357
783.34132,0.20485
781.85154,0.24443
780.36175,0.26076
778.87196,0.27466
777.38217,0.28859
775.89238,0.32239
774.40259,0.30402
772.91281,0.31091
771.42302,0.30448
769.93323,0.29806
768.44344,0.26019
766.95365,0.24047
765.46386,0.19775
763.97407,0.15700
762.48429,0.13883
760.99450,0.12068
759.50471,0.11137
758.01492,0.10013
756.52513,0.09185
755.03534,0.08862
753.54556,0.08541
752.05577,0.07671
750.56598,0.05089
749.07619,0.04640
747.58640,0.04562
746.09661,0.04486
744.60683,0.03776
743.11704,0.01671
741.62725,0.01406
740.13746,0.01095
738.64767,0.00786
737.15788,0.00896
735.66809,0.00616
734.17831,0.00732
732.68852,0.01109
731.19873,0.01487
729.70894,0.00680
728.21915,0.00659
726.72936,0.02037
725.23958,0.00575
723.74979,0.01521
722.26000,0.02470
720.77021,0.01019
719.28042,0.00576
717.79063,0.01703
716.30084,0.01178
714.81106,0.00656
713.32127,0.00320
711.83148,0.01055
710.34169,0.01252
708.85190,0.02763
707.36211,0.04277
705.87233,0.03771
704.38254,0.03660
702.89275,0.06271
701.40296,0.05442
699.91317,0.04615
698.42338,0.06743
696.93360,0.07967
695.44381,0.10222
693.95402,0.10961
692.46423,0.11702
690.97444,0.11661
689.48465,0.13583
687.99486,0.16611
686.50508,0.17986
685.01529,0.19364
683.52550,0.21467
682.03571,0.25484
680.54592,0.26759
679.05613,0.27178
677.56635,0.27601
676.07656,0.27462
674.58677,0.26786
673.09698,0.24912
671.60719,0.23249
670.11740,0.21588
668.62761,0.19305
667.13783,0.14941
665.64804,0.14194
664.15825,0.13449
662.66846,0.11200
661.17867,0.08610
659.68888,0.07028
658.19910,0.06207
656.70931,0.05389
655.21952,0.04622
653.72973,0.02681
652.23994,0.04099
650.75015,0.04381
649.26037,0.04665
647.77058,0.05184
646.28079,0.04677
644.79100,0.03608
643.30121,0.03951
641.81142,0.04296
640.32163,0.02769
638.83185,0.02886
637.34206,0.04132
635.85227,0.02723
634.36248,0.01316
632.87269,0.01271
631.38290,0.00616
629.89312,0.02624
628.40333,0.02859
626.91354,0.03095
625.42375,0.02220
623.93396,0.02106
622.44417,0.02632
620.95438,0.03160
619.46460,0.04817
617.97481,0.07776
616.48502,0.08605
614.99523,0.09511
613.50544,0.10418
612.01565,0.11181
610.52587,0.13392
609.03608,0.19232
607.54629,0.21019
606.05650,0.22809
604.56671,0.24172
603.07692,0.31663
601.58714,0.34379
600.09735,0.37097
598.60756,0.41704
597.11777,0.43594
595.62798,0.43452
594.13819,0.41634
592.64840,0.39819
591.15862,0.37651
589.66883,0.31834
588.17904,0.25971
586.68925,0.23884
585.19946,0.21799
583.70967,0.16654
582.21989,0.14402
580.73010,0.12447
579.24031,0.10494
577.75052,0.06142
576.26073,0.07012
574.77094,0.04723
573.28115,0.03772
571.79137,0.02824
570.30158,0.03042
568.81179,0.05590
567.32200,0.05886
565.83221,0.06184
564.34242,0.08715
562.85264,0.09998
561.36285,0.13097
559.87306,0.13798
558.38327,0.14500
556.89348,0.13882
555.40369,0.13928
553.91391,0.15091
552.42412,0.16257
550.93433,0.15452
549.44454,0.16341
547.95475,0.19976
546.46496,0.19191
544.97517,0.18408
543.48539,0.19992
541.99560,0.21211
540.50581,0.23205
539.01602,0.25200
537.52623,0.28607
536.03644,0.33487
534.54666,0.35502
533.05687,0.38610
531.56708,0.41721
530.07729,0.45189
528.58750,0.53633
527.09771,0.57081
525.60792,0.60532
524.11814,0.67808
522.62835,0.68543
521.13856,0.75946
519.64877,0.79590
518.15898,0.83237
516.66919,0.82904
515.17941,0.80099
513.68962,0.79416
512.19983,0.78735
510.71004,0.78633
509.22025,0.73583
507.73046,0.69932
506.24068,0.64630
504.75089,0.59331
503.26110,0.47626
501.77131,0.35385
500.28152,0.31415
498.79173,0.27448
497.30194,0.22883
495.81216,0.15675
494.32237,0.14643
492.83258,0.13614
491.34279,0.10063
489.85300,0.08083
488.36321,0.06644
486.87343,0.06519
485.38364,0.06396
483.89385,0.05993
482.40406,0.08191
480.91427,0.08614
479.42448,0.09040
477.93469,0.09039
476.44491,0.11834
474.95512,0.13590
473.46533,0.15349
471.97554,0.16264
470.48575,0.13286
468.99596,0.13864
467.50618,0.14811
466.01639,0.15761
464.52660,0.09950
463.03681,0.07523
461.54702,0.07341
460.05723,0.07161
458.56745,0.04251
457.07766,0.03255
455.58787,0.02763
454.09808,0.02274
452.60829,0.04544
451.11850,0.02725
449.62871,0.02047
448.13893,0.01371
446.64914,0.00809
445.15935,0.00616
443.66956,0.02901
442.17977,0.03314
440.68998,0.03729
439.20020,0.03007
437.71041,0.02238
436.22062,0.02269
434.73083,0.02301
433.24104,0.03353
431.75125,0.02178
430.26146,0.01985
428.77168,0.01795
427.28189,0.03935
425.79210,0.03724
424.30231,0.03541
422.81252,0.03360
421.32273,0.03525
419.83295,0.01242
418.34316,0.01938
416.85337,0.02637
415.36358,0.04208
413.87379,0.02252
412.38400,0.02640
410.89422,0.03030
409.40443,0.02748
407.91464,0.01929
406.42485,0.01089
404.93506,0.00851
403.44527,0.00616
401.95548,0.02132
400.46570,0.00980
398.97591,0.01717
397.48612,0.02456
395.99633,0.04742
394.50654,0.02595
393.01675,0.03378
391.52697,0.04164
390.03718,0.04180
388.54739,0.01675
387.05760,0.01206
385.56781,0.00740
384.07802,0.01342
382.58824,0.02118
381.09845,0.02161
379.60866,0.02207
378.11887,0.04117
376.62908,0.04217
375.13929,0.02738
373.64950,0.01262
372.15972,0.04015
370.66993,0.03243
369.18014,0.02301
367.69035,0.01361
366.20056,0.02344
364.71077,0.04653
363.22099,0.04158
361.73120,0.03666
360.24141,0.02747
358.75162,0.02517
357.26183,0.03208
355.77204,0.03902
354.28225,0.00616
352.79247,0.05510
351.30268,0.04954
349.81289,0.04401
348.32310,0.05407
346.83331,0.02371
345.34352,0.02646
343.85374,0.02924
342.36395,0.03914
340.87416,0.01697
339.38437,0.01406
337.89458,0.01117
336.40479,0.05692
334.91501,0.01841
333.42522,0.01986
331.93543,0.02133
330.44564,0.01058
328.95585,0.02631
327.46606,0.02969
325.97627,0.03310
324.48649,0.02734
322.99670,0.01720
321.50691,0.02876
320.01712,0.04035
318.52733,0.05380
317.03754,0.07757
315.54776,0.06975
314.05797,0.06195
312.56818,0.07820
311.07839,0.07094
309.58860,0.06555
308.09881,0.06018
306.60902,0.04196
305.11924,0.01912
303.62945,0.02069
302.13966,0.02227
300.64987,0.04483
299.16008,0.00616
