1778.52000,0.01716
1777.03021,0.01866
1775.54042,0.01679
1774.05063,0.01608
1772.56085,0.01040
1771.07106,0.01836
1769.58127,0.00433
1768.09148,0.01642
1766.60169,0.01220
1765.11190,0.01390
1763.62212,0.01721
1762.13233,0.01011
1760.64254,0.01301
1759.15275,0.00823
1757.66296,0.01050
1756.17317,0.01031
1754.68339,0.01104
1753.19360,-0.00000
1751.70381,0.01031
1750.21402,0.00885
1748.72423,0.00967
1747.23444,0.01983
1745.74465,0.01118
1744.25487,0.01548
1742.76508,0.01459
1741.27529,0.01372
1739.78550,0.01810
1738.29571,0.00685
1736.80592,0.01354
1735.31614,0.00823
1733.82635,0.00512
1732.33656,0.00952
1730.84677,0.01440
1729.35698,0.01227
1727.86719,0.00562
1726.37740,0.00944
1724.88762,0.01124
1723.39783,0.01283
1721.90804,0.02012
1720.41825,0.01609
1718.92846,0.01435
1717.43867,0.01582
1715.94889,0.00823
1714.45910,0.00980
1712.96931,0.01525
1711.47952,0.01710
1709.98973,0.01397
1708.49994,0.00702
1707.01016,0.00712
1705.52037,0.00725
1704.03058,0.01488
1702.54079,0.01165
1701.05100,0.01752
1699.56121,0.01139
1698.07142,0.01572
1696.58164,0.02053
1695.09185,0.01560
1693.60206,0.01456
1692.11227,0.01853
1690.62248,0.00823
1689.13269,0.01629
1687.64291,0.01552
1686.15312,0.01931
1684.66333,0.02653
1683.17354,0.02265
1681.68375,0.03536
1680.19396,0.03177
1678.70417,0.03591
1677.21439,0.03961
1675.72460,0.03541
1674.23481,0.03780
1672.74502,0.03773
1671.25523,0.03835
1669.76544,0.05534
1668.27566,0.05715
1666.78587,0.06375
1665.29608,0.05563
1663.80629,0.06658
1662.31650,0.07575
1660.82671,0.06702
1659.33693,0.06693
1657.84714,0.06641
1656.35735,0.06592
1654.86756,0.06250
1653.37777,0.06047
1651.88798,0.07457
1650.39819,0.08370
1648.90841,0.06994
1647.41862,0.05893
1645.92883,0.06405
1644.43904,0.06919
1642.94925,0.07912
1641.45946,0.07229
1639.96968,0.07433
1638.47989,0.07911
1636.99010,0.07167
1635.50031,0.08104
1634.01052,0.07615
1632.52073,0.08375
1631.03094,0.07209
1629.54116,0.06160
1628.05137,0.08447
1626.56158,0.08219
1625.07179,0.08719
1623.58200,0.09289
1622.09221,0.07911
1620.60243,0.08577
1619.11264,0.09881
1617.62285,0.08374
1616.13306,0.08548
1614.64327,0.09020
1613.15348,0.08337
1611.66370,0.07769
1610.17391,0.09541
1608.68412,0.08457
1607.19433,0.08260
1605.70454,0.08859
1604.21475,0.09211
1602.72496,0.09566
1601.23518,0.06973
1599.74539,0.07832
1598.25560,0.08579
1596.76581,0.08217
1595.27602,0.08697
1593.78623,0.08544
1592.29645,0.08848
1590.80666,0.07270
1589.31687,0.07147
1587.82708,0.07594
1586.33729,0.07498
1584.84750,0.07791
1583.35771,0.07201
1581.86793,0.06364
1580.37814,0.07594
1578.88835,0.07419
1577.39856,0.07225
1575.90877,0.06035
1574.41898,0.05935
1572.92920,0.05453
1571.43941,0.04928
1569.94962,0.04700
1568.45983,0.04474
1566.97004,0.03979
1565.48025,0.02896
1563.99047,0.04515
1562.50068,0.03233
1561.01089,0.03677
1559.52110,0.03489
1558.03131,0.04527
1556.54152,0.02506
1555.05173,0.02733
1553.56195,0.02985
1552.07216,0.01765
1550.58237,0.02272
1549.09258,0.02032
1547.60279,0.00751
1546.11300,0.00879
1544.62322,0.02279
1543.13343,0.00915
1541.64364,0.00823
1540.15385,0.01483
1538.66406,0.02144
1537.17427,0.02707
1535.68448,0.01955
1534.19470,0.01728
1532.70491,0.00823
1531.21512,0.02897
1529.72533,0.01479
1528.23554,0.03716
1526.74575,0.04209
1525.25597,0.03751
1523.76618,0.03455
1522.27639,0.03614
1520.78660,0.03413
1519.29681,0.04712
1517.80702,0.04720
1516.31724,0.04141
1514.82745,0.04743
1513.33766,0.04021
1511.84787,0.03301
1510.35808,0.04410
1508.86829,0.04909
1507.37850,0.04276
1505.88872,0.04870
1504.39893,0.05059
1502.90914,0.06406
1501.41935,0.06100
1499.92956,0.06568
1498.43977,0.07288
1496.94999,0.07012
1495.46020,0.06670
1493.97041,0.07374
1492.48062,0.09805
1490.99083,0.08359
1489.50104,0.10500
1488.01125,0.10544
1486.52147,0.10591
1485.03168,0.12013
1483.54189,0.14322
1482.05210,0.16701
1480.56231,0.16066
1479.07252,0.16953
1477.58274,0.19952
1476.09295,0.19052
1474.60316,0.19764
1473.11337,0.18755
1471.62358,0.20357
1470.13379,0.20510
1468.64401,0.22072
1467.15422,0.23477
1465.66443,0.23671
1464.17464,0.23867
1462.68485,0.27707
1461.19506,0.31231
1459.70527,0.35462
1458.21549,0.39649
1456.72570,0.43816
1455.23591,0.51093
1453.74612,0.54856
1452.25633,0.56240
1450.76654,0.59373
1449.27676,0.60444
1447.78697,0.58659
1446.29718,0.57512
1444.80739,0.56355
1443.31760,0.55201
1441.82781,0.51770
1440.33802,0.51381
1438.84824,0.46116
1437.35845,0.44031
1435.86866,0.42582
1434.37887,0.44721
1432.88908,0.46181
1431.39929,0.49617
1429.90951,0.54780
1428.41972,0.61602
1426.92993,0.70898
1425.44014,0.75818
1423.95035,0.77078
1422.46056,0.78339
1420.97078,0.79433
1419.48099,0.81709
1417.99120,0.81265
1416.50141,0.82162
1415.01162,0.78319
1413.52183,0.73323
1412.03204,0.69395
1410.54226,0.62293
1409.05247,0.58143
1407.56268,0.58464
1406.07289,0.52323
1404.58310,0.49745
1403.09331,0.47170
1401.60353,0.42397
1400.11374,0.36469
1398.62395,0.32381
1397.13416,0.28499
1395.64437,0.23713
1394.15458,0.20585
1392.66479,0.17164
1391.17501,0.16015
1389.68522,0.12599
1388.19543,0.10683
1386.70564,0.09291
1385.21585,0.07902
1383.72606,0.05539
1382.23628,0.04449
1380.74649,0.03316
1379.25670,0.03071
1377.76691,0.02782
1376.27712,0.00477
1374.78733,0.02052
1373.29755,0.01202
1371.80776,0.01512
1370.31797,0.00712
1368.82818,0.00868
1367.33839,0.01026
1365.84860,0.00823
1364.35881,0.03535
1362.86903,0.03822
1361.37924,0.06039
1359.88945,0.08509
1358.39966,0.09438
1356.90987,0.13477
1355.42008,0.16930
1353.93030,0.21813
1352.44051,0.24170
1350.95072,0.26529
1349.46093,0.31488
1347.97114,0.37652
1346.48135,0.44090
1344.99156,0.51846
1343.50178,0.58040
1342.01199,0.61060
1340.52220,0.66010
1339.03241,0.69194
1337.54262,0.74762
1336.05283,0.75863
1334.56305,0.76967
1333.07326,0.77052
1331.58347,0.82652
1330.09368,0.81608
1328.60389,0.82358
1327.11410,0.78143
1325.62432,0.74043
1324.13453,0.73621
1322.64474,0.71704
1321.15495,0.67906
1319.66516,0.66266
1318.17537,0.64628
1316.68558,0.59704
1315.19580,0.55280
1313.70601,0.51336
1312.21622,0.47394
1310.72643,0.43454
1309.23664,0.40719
1307.74685,0.37034
1306.25707,0.35801
1304.76728,0.33981
1303.27749,0.32163
1301.78770,0.29077
1300.29791,0.26107
1298.80812,0.19464
1297.31834,0.16545
1295.82855,0.15124
1294.33876,0.12164
1292.84897,0.10317
1291.35918,0.08700
1289.86939,0.08435
1288.37960,0.08172
1286.88982,0.08287
1285.40003,0.06316
1283.91024,0.04711
1282.42045,0.05535
1280.93066,0.03980
1279.44087,0.04197
1277.95109,0.03940
1276.46130,0.03957
1274.97151,0.04249
1273.48172,0.04543
1271.99193,0.03524
1270.50214,0.04345
1269.01235,0.02855
1267.52257,0.02887
1266.03278,0.01083
1264.54299,0.02005
1263.05320,0.02066
1261.56341,0.02096
1260.07362,0.02129
1258.58384,0.01834
1257.09405,0.00908
1255.60426,0.01389
1254.11447,0.01828
1252.62468,0.02497
1251.13489,0.00944
1249.64511,0.00823
1248.15532,0.01259
1246.66553,0.01232
1245.17574,0.01208
1243.68595,0.01016
1242.19616,0.01733
1240.70637,0.01228
1239.21659,0.01837
1237.72680,0.01564
1236.23701,0.01452
1234.74722,0.03429
1233.25743,0.02778
1231.76764,0.02128
1230.27786,0.03092
1228.78807,0.03151
1227.29828,0.02372
1225.80849,0.01937
1224.31870,0.02297
1222.82891,0.00823
1221.33912,0.00996
1219.84934,0.01806
1218.35955,0.02619
1216.86976,0.03910
1215.37997,0.05476
1213.89018,0.04935
1212.40039,0.06393
1210.91061,0.06582
1209.42082,0.07296
1207.93103,0.06934
1206.44124,0.06575
1204.95145,0.06525
1203.46166,0.06091
1201.97188,0.06136
1200.48209,0.04822
1198.99230,0.04441
1197.50251,0.05741
1196.01272,0.03663
1194.52293,0.02620
1193.03314,0.01579
1191.54336,0.02821
1190.05357,0.02658
1188.56378,0.02838
1187.07399,0.02703
1185.58420,0.02026
1184.09441,0.00875
1182.60463,0.01756
1181.11484,0.02640
1179.62505,0.02086
1178.13526,0.02782
1176.64547,0.02210
1175.15568,0.00823
1173.66589,0.00854
1172.17611,0.01614
1170.68632,0.01230
1169.19653,0.00849
1167.70674,0.02415
1166.21695,0.03168
1164.72716,0.03514
1163.23738,0.05292
1161.74759,0.04532
1160.25780,0.05997
1158.76801,0.06307
1157.27822,0.06620
1155.78843,0.08025
1154.29865,0.09885
1152.80886,0.10047
1151.31907,0.10528
1149.82928,0.11896
1148.33949,0.12564
1146.84970,0.13030
1145.35991,0.13498
1143.87013,0.13765
1142.38034,0.15916
1140.89055,0.17118
1139.40076,0.17119
1137.91097,0.17940
1136.42118,0.19716
1134.93140,0.20586
1133.44161,0.21459
1131.95182,0.23900
1130.46203,0.24551
1128.97224,0.25295
1127.48245,0.23070
1125.99266,0.22707
1124.50288,0.26022
1123.01309,0.26163
1121.52330,0.26307
1120.03351,0.24116
1118.54372,0.25286
1117.05393,0.23803
1115.56415,0.24183
1114.07436,0.24339
1112.58457,0.24837
1111.09478,0.25338
1109.60499,0.23481
1108.11520,0.24395
1106.62542,0.24994
1105.13563,0.24370
1103.64584,0.23158
1102.15605,0.24467
1100.66626,0.24429
1099.17647,0.24393
1097.68668,0.21898
1096.19690,0.22082
1094.70711,0.20613
1093.21732,0.19441
1091.72753,0.19973
1090.23774,0.18227
1088.74795,0.16484
1087.25817,0.16410
1085.76838,0.15772
1084.27859,0.17586
1082.78880,0.18586
1081.29901,0.16321
1079.80922,0.17031
1078.31943,0.18061
1076.82965,0.19093
1075.33986,0.17383
1073.85007,0.17512
1072.36028,0.19005
1070.87049,0.20727
1069.38070,0.23019
1067.89092,0.24905
1066.40113,0.26793
1064.91134,0.30590
1063.42155,0.37587
1061.93176,0.43543
1060.44197,0.51498
1058.95219,0.59841
1057.46240,0.64829
1055.97261,0.69819
1054.48282,0.78033
1052.99303,0.86250
1051.50324,0.85825
1050.01345,0.85812
1048.52367,0.85460
1047.03388,0.84657
1045.54409,0.83857
1044.05430,0.79996
1042.56451,0.74754
1041.07472,0.70944
1039.58494,0.67703
1038.09515,0.59541
1036.60536,0.56770
1035.11557,0.54002
1033.62578,0.50317
1032.13599,0.43844
1030.64620,0.36329
1029.15642,0.31835
1027.66663,0.28965
1026.17684,0.26097
1024.68705,0.22540
1023.19726,0.21140
1021.70747,0.17769
1020.21769,0.14310
1018.72790,0.13983
1017.23811,0.13296
1015.74832,0.12612
1014.25853,0.10977
1012.76874,0.10955
1011.27896,0.09257
1009.78917,0.08446
1008.29938,0.07274
1006.80959,0.06831
1005.31980,0.06390
1003.83001,0.03615
1002.34022,0.04880
1000.85044,0.03698
999.36065,0.03675
997.87086,0.04414
996.38107,0.05156
994.89128,0.06365
993.40149,0.06692
991.91171,0.05729
990.42192,0.08397
988.93213,0.09343
987.44234,0.10315
985.95255,0.11289
984.46276,0.13060
982.97297,0.10069
981.48319,0.09144
979.99340,0.06475
978.50361,0.06418
977.01382,0.06363
975.52403,0.06106
974.03424,0.03923
972.54446,0.02333
971.05467,0.02446
969.56488,0.01155
968.07509,0.00990
966.58530,0.00827
965.09551,0.01016
963.60573,0.00823
962.11594,0.02577
960.62615,0.02746
959.13636,0.02475
957.64657,0.02206
956.15678,0.03335
954.66699,0.04466
953.17721,0.05146
951.68742,0.05261
950.19763,0.05934
948.70784,0.06610
947.21805,0.07027
945.72826,0.07855
944.23848,0.10001
942.74869,0.13079
941.25890,0.13370
939.76911,0.13913
938.27932,0.14457
936.78953,0.16525
935.29974,0.16598
933.80996,0.19101
932.32017,0.19746
930.83038,0.21653
929.34059,0.23562
927.85080,0.25236
926.36101,0.27116
924.87123,0.29293
923.38144,0.34807
921.89165,0.38101
920.40186,0.41397
918.91207,0.47531
917.42228,0.61925
915.93250,0.74075
914.44271,0.96868
912.95292,1.08649
911.46313,1.20432
909.97334,1.42619
908.48355,1.65580
906.99376,1.80808
905.50398,1.92158
904.01419,1.95991
902.52440,1.99826
901.03461,2.00000
899.54482,1.97318
898.05503,1.89262
896.56525,1.72564
895.07546,1.59681
893.58567,1.46800
892.09588,1.23304
890.60609,0.95183
889.11630,0.71397
887.62651,0.50971
886.13673,0.43399
884.64694,0.35830
883.15715,0.26686
881.66736,0.20947
880.17757,0.16390
878.68778,0.14014
877.19800,0.11640
875.70821,0.08905
874.21842,0.05379
872.72863,0.02785
871.23884,0.02939
869.74905,0.03549
868.25927,0.04161
866.76948,0.01168
865.27969,0.01332
863.78990,0.02132
862.30011,0.02709
860.81032,0.03571
859.32053,0.04436
857.83075,0.05223
856.34096,0.06127
854.85117,0.09438
853.36138,0.07238
851.87159,0.08228
850.38180,0.09221
848.89202,0.10635
847.40223,0.12733
845.91244,0.14424
844.42265,0.16186
842.93286,0.17951
841.44307,0.17132
839.95329,0.17358
838.46350,0.20287
836.97371,0.18318
835.48392,0.18347
833.99413,0.18379
832.50434,0.20728
831.01455,0.18950
829.52477,0.18082
828.03498,0.16943
826.54519,0.15343
825.05540,0.13744
823.56561,0.10958
822.07582,0.11031
820.58604,0.09905
819.09625,0.09700
817.60646,0.09498
816.11667,0.10262
814.62688,0.07331
813.13709,0.08848
811.64730,0.08031
810.15752,0.08079
808.66773,0.08129
807.17794,0.09611
805.68815,0.10845
804.19836,0.09746
802.70857,0.09964
801.21879,0.10185
799.72900,0.08775
798.23921,0.09499
796.74942,0.08344
795.25963,0.08438
793.76984,0.08535
792.28006,0.10993
790.79027,0.09779
789.30048,0.10427
787.81069,0.13959
786.32090,0.15372
784.83111,0.16787
783.34132,0.19487
781.85154,0.23255
780.36175,0.25801
778.87196,0.26840
777.38217,0.27882
775.89238,0.29346
774.40259,0.30381
772.91281,0.28924
771.42302,0.27990
769.93323,0.27059
768.44344,0.25722
766.95365,0.21869
765.46386,0.19856
763.97407,0.15418
762.48429,0.14136
760.99450,0.12856
759.50471,0.10830
758.01492,0.10485
756.52513,0.07692
755.03534,0.07148
753.54556,0.06606
752.05577,0.06339
750.56598,0.04373
749.07619,0.04473
747.58640,0.03419
746.09661,0.02367
744.60683,0.03836
743.11704,0.03062
741.62725,0.01813
740.13746,0.01519
738.64767,0.01228
737.15788,0.01008
735.66809,0.02695
734.17831,0.01526
732.68852,0.01574
731.19873,0.01624
729.70894,0.01801
728.21915,0.00823
726.72936,0.01056
725.23958,0.02062
723.74979,0.01947
722.26000,0.01835
720.77021,0.02508
719.28042,0.00665
717.79063,0.01256
716.30084,0.02007
714.81106,0.02761
713.32127,0.00705
711.83148,0.01781
710.34169,0.03178
708.85190,0.02988
707.36211,0.02801
705.87233,0.03048
704.38254,0.04136
702.89275,0.05091
701.40296,0.05016
699.91317,0.04943
698.42338,0.04998
696.93360,0.07958
695.44381,0.10354
693.95402,0.10495
692.46423,0.10638
690.97444,0.12202
689.48465,0.14426
687.99486,0.18308
686.50508,0.19289
685.01529,0.20273
683.52550,0.22529
682.03571,0.26216
680.54592,0.27230
679.05613,0.26737
677.56635,0.26246
676.07656,0.26609
674.58677,0.24864
673.09698,0.22895
671.60719,0.21801
670.11740,0.20710
668.62761,0.18476
667.13783,0.14701
665.64804,0.14729
664.15825,0.14759
662.66846,0.12353
661.17867,0.08542
659.68888,0.07207
658.19910,0.06510
656.70931,0.05814
655.21952,0.05938
653.72973,0.04658
652.23994,0.04787
650.75015,0.05610
649.26037,0.06435
647.77058,0.05686
646.28079,0.04871
644.79100,0.02880
643.30121,0.02716
641.81142,0.02556
640.32163,0.04087
638.83185,0.03171
637.34206,0.02734
635.85227,0.01777
634.36248,0.00823
632.87269,0.00986
631.38290,0.01854
629.89312,0.02816
628.40333,0.02702
626.91354,0.02590
625.42375,0.01926
623.93396,0.03464
622.44417,0.03677
620.95438,0.03893
619.46460,0.04281
617.97481,0.08166
616.48502,0.06268
614.99523,0.07514
613.50544,0.08763
612.01565,0.10433
610.52587,0.15668
609.03608,0.17208
607.54629,0.18239
606.05650,0.19273
604.56671,0.23338
603.07692,0.29356
601.58714,0.32109
600.09735,0.34865
598.60756,0.41753
597.11777,0.38411
595.62798,0.38384
594.13819,0.37883
592.64840,0.37385
591.15862,0.36276
589.66883,0.28455
588.17904,0.25150
586.68925,0.23538
585.19946,0.21929
583.70967,0.16227
582.21989,0.12818
580.73010,0.10445
579.24031,0.08073
577.75052,0.06487
576.26073,0.05629
574.77094,0.04365
573.28115,0.03410
571.79137,0.02457
570.30158,0.04490
568.81179,0.06275
567.32200,0.06203
565.83221,0.06133
564.34242,0.07631
562.85264,0.09630
561.36285,0.09296
559.87306,0.10301
558.38327,0.11310
556.89348,0.11572
555.40369,0.13130
553.91391,0.12693
552.42412,0.12259
550.93433,0.14709
549.44454,0.15164
547.95475,0.16280
546.46496,0.16740
544.97517,0.17203
543.48539,0.16784
541.99560,0.18726
540.50581,0.21271
539.01602,0.23820
537.52623,0.26427
536.03644,0.31123
534.54666,0.35255
533.05687,0.37121
531.56708,0.38989
530.07729,0.42788
528.58750,0.49697
527.09771,0.52673
525.60792,0.55651
524.11814,0.61274
522.62835,0.64994
521.13856,0.70009
519.64877,0.72509
518.15898,0.75011
516.66919,0.76200
515.17941,0.75214
513.68962,0.76850
512.19983,0.78488
510.71004,0.75626
509.22025,0.70747
507.73046,0.64237
506.24068,0.60236
504.75089,0.56238
503.26110,0.43202
501.77131,0.34523
500.28152,0.29772
498.79173,0.25023
497.30194,0.20731
495.81216,0.15942
494.32237,0.14580
492.83258,0.13221
491.34279,0.08938
489.85300,0.07788
488.36321,0.08296
486.87343,0.08059
485.38364,0.07823
483.89385,0.07545
482.40406,0.07654
480.91427,0.08254
479.42448,0.08856
477.93469,0.10085
476.44491,0.11384
474.95512,0.12707
473.46533,0.14034
471.97554,0.12844
470.48575,0.14334
468.99596,0.14942
467.50618,0.14202
466.01639,0.13465
464.52660,0.10427
463.03681,0.07914
461.54702,0.06979
460.05723,0.06047
458.56745,0.04131
457.07766,0.01786
455.58787,0.03130
454.09808,0.04476
452.60829,0.04905
451.11850,0.00823
449.62871,0.01395
448.13893,0.01969
446.64914,0.03816
445.15935,0.02217
443.66956,0.00779
442.17977,0.02293
440.68998,0.03809
439.20020,0.04466
437.71041,0.03582
436.22062,0.03688
434.73083,0.03796
433.24104,0.03577
431.75125,0.02862
430.26146,0.04055
428.77168,0.05250
427.28189,0.03793
425.79210,0.04607
424.30231,0.04539
422.81252,0.04474
421.32273,0.05272
419.83295,0.04622
418.34316,0.04699
416.85337,0.04779
415.36358,0.03818
413.87379,0.02088
412.38400,0.02481
410.89422,0.02877
409.40443,0.02583
407.91464,0.04583
406.42485,0.02525
404.93506,0.02000
403.44527,0.01478
401.95548,0.01355
400.46570,0.01960
398.97591,0.03430
397.48612,0.04903
395.99633,0.05039
394.50654,0.02932
393.01675,0.02744
391.52697,0.02321
390.03718,0.03432
388.54739,0.01801
387.05760,0.01805
385.56781,0.01812
384.07802,0.00823
382.58824,0.01902
381.09845,0.01610
379.60866,0.01321
378.11887,0.05219
376.62908,0.03018
375.13929,0.01896
373.64950,0.00777
372.15972,0.01079
370.66993,0.02675
369.18014,0.02101
367.69035,0.01530
366.20056,0.03275
364.71077,0.02345
363.22099,0.02405
361.73120,0.02467
360.24141,0.04357
358.75162,0.04118
357.26183,0.04119
355.77204,0.04122
354.28225,0.04298
352.79247,0.05475
351.30268,0.04374
349.81289,0.03275
348.32310,0.04096
346.83331,0.01947
345.34352,0.02257
343.85374,0.02569
342.36395,0.02509
340.87416,0.04108
339.38437,0.04869
337.89458,0.05633
336.40479,0.05107
334.91501,0.02722
333.42522,0.02064
331.93543,0.01408
330.44564,0.00823
328.95585,0.02620
327.46606,0.02140
325.97627,0.01661
324.48649,0.04671
322.99670,0.02669
321.50691,0.03460
320.01712,0.04254
318.52733,0.05844
317.03754,0.09795
315.54776,0.07760
314.05797,0.05727
312.56818,0.08348
311.07839,0.09042
309.58860,0.08389
308.09881,0.07738
306.60902,0.05786
305.11924,0.06807
303.62945,0.04156
302.13966,0.01508
300.64987,0.00823
299.16008,0.00823
