1778.52000,0.01571
1777.03021,0.01992
1775.54042,0.01797
1774.05063,0.00964
1772.56085,0.00944
1771.07106,0.00862
1769.58127,0.00933
1768.09148,0.00408
1766.60169,0.01188
1765.11190,0.00625
1763.62212,0.00769
1762.13233,0.01194
1760.64254,0.01343
1759.15275,0.00769
1757.66296,0.00859
1756.17317,0.00140
1754.68339,0.00000
1753.19360,0.00033
1751.70381,0.00240
1750.21402,0.00214
1748.72423,0.01173
1747.23444,0.00404
1745.74465,0.01453
1744.25487,0.01010
1742.76508,0.01253
1741.27529,0.00900
1739.78550,0.01318
1738.29571,0.01696
1736.80592,0.01031
1735.31614,0.00859
1733.82635,0.00774
1732.33656,0.00863
1730.84677,0.01658
1729.35698,0.01303
1727.86719,0.00546
1726.37740,0.00537
1724.88762,0.01676
1723.39783,0.01708
1721.90804,0.00995
1720.41825,0.01266
1718.92846,0.00878
1717.43867,0.01474
1715.94889,0.00984
1714.45910,0.01116
1712.96931,0.02156
1711.47952,0.01020
1709.98973,0.00955
1708.49994,0.01383
1707.01016,0.01120
1705.52037,0.00859
1704.03058,0.02355
1702.54079,0.02188
1701.05100,0.01938
1699.56121,0.01414
1698.07142,0.01682
1696.58164,0.01546
1695.09185,0.03014
1693.60206,0.02435
1692.11227,0.01859
1690.62248,0.01669
1689.13269,0.01866
1687.64291,0.02684
1686.15312,0.02417
1684.66333,0.02407
1683.17354,0.02700
1681.68375,0.03442
1680.19396,0.03398
1678.70417,0.02310
1677.21439,0.03252
1675.72460,0.04368
1674.23481,0.03756
1672.74502,0.04066
1671.25523,0.04100
1669.76544,0.06186
1668.27566,0.05990
1666.78587,0.06821
1665.29608,0.05990
1663.80629,0.07872
1662.31650,0.07217
1660.82671,0.08442
1659.33693,0.09670
1657.84714,0.06695
1656.35735,0.07116
1654.86756,0.06580
1653.37777,0.07988
1651.88798,0.07627
1650.39819,0.08293
1648.90841,0.08791
1647.41862,0.07968
1645.92883,0.08428
1644.43904,0.08890
1642.94925,0.08864
1641.45946,0.08648
1639.96968,0.08947
1638.47989,0.09633
1636.99010,0.08272
1635.50031,0.07874
1634.01052,0.07948
1632.52073,0.07191
1631.03094,0.08167
1629.54116,0.08483
1628.05137,0.09912
1626.56158,0.09677
1625.07179,0.09190
1623.58200,0.09964
1622.09221,0.09374
1620.60243,0.10410
1619.11264,0.10017
1617.62285,0.09840
1616.13306,0.09111
1614.64327,0.08299
1613.15348,0.09069
1611.66370,0.10097
1610.17391,0.08823
1608.68412,0.09173
1607.19433,0.09142
1605.70454,0.09155
1604.21475,0.09033
1602.72496,0.08913
1601.23518,0.08016
1599.74539,0.09064
1598.25560,0.08471
1596.76581,0.08648
1595.27602,0.09170
1593.78623,0.08072
1592.29645,0.08257
1590.80666,0.08317
1589.31687,0.07418
1587.82708,0.07717
1586.33729,0.08104
1584.84750,0.07319
1583.35771,0.06729
1581.86793,0.07572
1580.37814,0.07414
1578.88835,0.07962
1577.39856,0.07809
1575.90877,0.06847
1574.41898,0.07126
1572.92920,0.04631
1571.43941,0.04957
1569.94962,0.04592
1568.45983,0.04229
1566.97004,0.04798
1565.48025,0.04835
1563.99047,0.03188
1562.50068,0.03550
1561.01089,0.02740
1559.52110,0.03086
1558.03131,0.02922
1556.54152,0.03528
1555.05173,0.02408
1553.56195,0.02935
1552.07216,0.03143
1550.58237,0.02671
1549.09258,0.02286
1547.60279,0.01541
1546.11300,0.01930
1544.62322,0.03219
1543.13343,0.00859
1541.64364,0.02425
1540.15385,0.02725
1538.66406,0.03026
1537.17427,0.02658
1535.68448,0.01737
1534.19470,0.01608
1532.70491,0.01781
1531.21512,0.01508
1529.72533,0.02518
1528.23554,0.01716
1526.74575,0.02346
1525.25597,0.04773
1523.76618,0.04661
1522.27639,0.04211
1520.78660,0.03335
1519.29681,0.04491
1517.80702,0.05670
1516.31724,0.05741
1514.82745,0.05580
1513.33766,0.05582
1511.84787,0.05586
1510.35808,0.05262
1508.86829,0.06071
1507.37850,0.05495
1505.88872,0.05541
1504.39893,0.06977
1502.90914,0.07028
1501.41935,0.07999
1499.92956,0.09122
1498.43977,0.09692
1496.94999,0.08856
1495.46020,0.08599
1493.97041,0.10116
1492.48062,0.10995
1490.99083,0.12539
1489.50104,0.14362
1488.01125,0.15035
1486.52147,0.15710
1485.03168,0.19078
1483.54189,0.21786
1482.05210,0.26162
1480.56231,0.25758
1479.07252,0.26083
1477.58274,0.29740
1476.09295,0.29451
1474.60316,0.28993
1473.11337,0.29733
1471.62358,0.29130
1470.13379,0.32373
1468.64401,0.33206
1467.15422,0.34660
1465.66443,0.35359
1464.17464,0.36060
1462.68485,0.38910
1461.19506,0.43661
1459.70527,0.50443
1458.21549,0.53556
1456.72570,0.62947
1455.23591,0.68947
1453.74612,0.74586
1452.25633,0.73375
1450.76654,0.76179
1449.27676,0.77449
1447.78697,0.75798
1446.29718,0.74532
1444.80739,0.71178
1443.31760,0.67825
1441.82781,0.65244
1440.33802,0.58801
1438.84824,0.56523
1437.35845,0.55379
1435.86866,0.54516
1434.37887,0.54786
1432.88908,0.58644
1431.39929,0.59794
1429.90951,0.68717
1428.41972,0.75892
1426.92993,0.84799
1425.44014,0.89822
1423.95035,0.91881
1422.46056,0.93942
1420.97078,0.98952
1419.48099,0.99289
1417.99120,0.97473
1416.50141,0.94122
1415.01162,0.91734
1413.52183,0.86317
1412.03204,0.80732
1410.54226,0.75106
1409.05247,0.68544
1407.56268,0.64973
1406.07289,0.61362
1404.58310,0.58532
1403.09331,0.55704
1401.60353,0.48450
1400.11374,0.43162
1398.62395,0.39968
1397.13416,0.33276
1395.64437,0.28422
1394.15458,0.23806
1392.66479,0.20003
1391.17501,0.17697
1389.68522,0.14945
1388.19543,0.12601
1386.70564,0.11722
1385.21585,0.10845
1383.72606,0.07334
1382.23628,0.06217
1380.74649,0.05209
1379.25670,0.03605
1377.76691,0.03157
1376.27712,0.03052
1374.78733,0.00859
1373.29755,0.01490
1371.80776,0.01931
1370.31797,0.01393
1368.82818,0.01284
1367.33839,0.01177
1365.84860,0.01671
1364.35881,0.03790
1362.86903,0.03392
1361.37924,0.05110
1359.88945,0.07406
1358.39966,0.11008
1356.90987,0.13587
1355.42008,0.17193
1353.93030,0.22317
1352.44051,0.26088
1350.95072,0.29862
1349.46093,0.36125
1347.97114,0.44674
1346.48135,0.50622
1344.99156,0.59817
1343.50178,0.68908
1342.01199,0.70060
1340.52220,0.76124
1339.03241,0.80504
1337.54262,0.85634
1336.05283,0.87884
1334.56305,0.90137
1333.07326,0.90621
1331.58347,0.89847
1330.09368,0.90293
1328.60389,0.92876
1327.11410,0.90551
1325.62432,0.84856
1324.13453,0.83732
1322.64474,0.81671
1321.15495,0.77947
1319.66516,0.76617
1318.17537,0.75289
1316.68558,0.68435
1315.19580,0.64486
1313.70601,0.59707
1312.21622,0.56446
1310.72643,0.52292
1309.23664,0.48588
1307.74685,0.44075
1306.25707,0.44367
1304.76728,0.42709
1303.27749,0.41054
1301.78770,0.35206
1300.29791,0.28976
1298.80812,0.25737
1297.31834,0.20793
1295.82855,0.16876
1294.33876,0.14840
1292.84897,0.13575
1291.35918,0.12761
1289.86939,0.12654
1288.37960,0.12549
1286.88982,0.10867
1285.40003,0.09785
1283.91024,0.08577
1282.42045,0.06433
1280.93066,0.07749
1279.44087,0.06549
1277.95109,0.05756
1276.46130,0.06162
1274.97151,0.05364
1273.48172,0.04568
1271.99193,0.03999
1270.50214,0.05269
1269.01235,0.04641
1267.52257,0.04591
1266.03278,0.01961
1264.54299,0.02750
1263.05320,0.02644
1261.56341,0.02316
1260.07362,0.01990
1258.58384,0.01977
1257.09405,0.01262
1255.60426,0.02812
1254.11447,0.02336
1252.62468,0.00924
1251.13489,0.00859
1249.64511,0.01458
1248.15532,0.02337
1246.66553,0.02429
1245.17574,0.02523
1243.68595,0.02556
1242.19616,0.01097
1240.70637,0.01071
1239.21659,0.00769
1237.72680,0.02212
1236.23701,0.02590
1234.74722,0.04188
1233.25743,0.03386
1231.76764,0.02587
1230.27786,0.02719
1228.78807,0.03814
1227.29828,0.02947
1225.80849,0.03449
1224.31870,0.00859
1222.82891,0.02308
1221.33912,0.02265
1219.84934,0.03218
1218.35955,0.04173
1216.86976,0.04949
1215.37997,0.05471
1213.89018,0.06850
1212.40039,0.08253
1210.91061,0.09657
1209.42082,0.08823
1207.93103,0.08771
1206.44124,0.08721
1204.95145,0.08129
1203.46166,0.07966
1201.97188,0.07742
1200.48209,0.08481
1198.99230,0.07792
1197.50251,0.07532
1196.01272,0.05995
1194.52293,0.05003
1193.03314,0.04015
1191.54336,0.02847
1190.05357,0.04009
1188.56378,0.01864
1187.07399,0.01408
1185.58420,0.03794
1184.09441,0.02404
1182.60463,0.02403
1181.11484,0.02405
1179.62505,0.01834
1178.13526,0.02439
1176.64547,0.02661
1175.15568,0.02140
1173.66589,0.01450
1172.17611,0.00805
1170.68632,0.00891
1169.19653,0.00981
1167.70674,0.00859
1166.21695,0.02676
1164.72716,0.02873
1163.23738,0.04952
1161.74759,0.04193
1160.25780,0.05807
1158.76801,0.05918
1157.27822,0.06031
1155.78843,0.08229
1154.29865,0.08614
1152.80886,0.09108
1151.31907,0.12082
1149.82928,0.12965
1148.33949,0.13787
1146.84970,0.12680
1145.35991,0.11575
1143.87013,0.12938
1142.38034,0.16459
1140.89055,0.16952
1139.40076,0.17724
1137.91097,0.18692
1136.42118,0.20088
1134.93140,0.19683
1133.44161,0.19281
1131.95182,0.22179
1130.46203,0.23799
1128.97224,0.24802
1127.48245,0.24185
1125.99266,0.22119
1124.50288,0.22169
1123.01309,0.22627
1121.52330,0.23088
1120.03351,0.22697
1118.54372,0.22735
1117.05393,0.23672
1115.56415,0.23993
1114.07436,0.23612
1112.58457,0.24140
1111.09478,0.24671
1109.60499,0.23721
1108.11520,0.24716
1106.62542,0.22468
1105.13563,0.23553
1103.64584,0.23167
1102.15605,0.23660
1100.66626,0.23044
1099.17647,0.22431
1097.68668,0.20156
1096.19690,0.20999
1094.70711,0.21226
1093.21732,0.20708
1091.72753,0.21730
1090.23774,0.20715
1088.74795,0.19703
1087.25817,0.19601
1085.76838,0.20312
1084.27859,0.20663
1082.78880,0.21507
1081.29901,0.19856
1079.80922,0.23032
1078.31943,0.22816
1076.82965,0.22603
1075.33986,0.24441
1073.85007,0.22333
1072.36028,0.21764
1070.87049,0.26086
1069.38070,0.28339
1067.89092,0.32549
1066.40113,0.36761
1064.91134,0.42843
1063.42155,0.51596
1061.93176,0.58878
1060.44197,0.71842
1058.95219,0.80282
1057.46240,0.86846
1055.97261,0.93412
1054.48282,1.05446
1052.99303,1.15881
1051.50324,1.13447
1050.01345,1.11356
1048.52367,1.10442
1047.03388,1.09648
1045.54409,1.08856
1044.05430,1.00222
1042.56451,0.94343
1041.07472,0.88788
1039.58494,0.77471
1038.09515,0.69487
1036.60536,0.64398
1035.11557,0.59311
1033.62578,0.54024
1032.13599,0.46775
1030.64620,0.40959
1029.15642,0.34505
1027.66663,0.31416
1026.17684,0.28329
1024.68705,0.26259
1023.19726,0.23657
1021.70747,0.19222
1020.21769,0.16711
1018.72790,0.15696
1017.23811,0.16456
1015.74832,0.17218
1014.25853,0.14802
1012.76874,0.14373
1011.27896,0.12731
1009.78917,0.10215
1008.29938,0.08428
1006.80959,0.07795
1005.31980,0.07166
1003.83001,0.05663
1002.34022,0.04761
1000.85044,0.07725
999.36065,0.06379
997.87086,0.07096
996.38107,0.07815
994.89128,0.08547
993.40149,0.11139
991.91171,0.13456
990.42192,0.12765
988.93213,0.15493
987.44234,0.16536
985.95255,0.17582
984.46276,0.17200
982.97297,0.16351
981.48319,0.14458
979.99340,0.12290
978.50361,0.10957
977.01382,0.09627
975.52403,0.08512
974.03424,0.05308
972.54446,0.02875
971.05467,0.03220
969.56488,0.01389
968.07509,0.01728
966.58530,0.02069
965.09551,0.01548
963.60573,0.00859
962.11594,0.02548
960.62615,0.02831
959.13636,0.02839
957.64657,0.02849
956.15678,0.04570
954.66699,0.04500
953.17721,0.04432
951.68742,0.06181
950.19763,0.05958
948.70784,0.05738
947.21805,0.05723
945.72826,0.07290
944.23848,0.09115
942.74869,0.11242
941.25890,0.12966
939.76911,0.13432
938.27932,0.13902
936.78953,0.16508
935.29974,0.17003
933.80996,0.19038
932.32017,0.18428
930.83038,0.19112
929.34059,0.19799
927.85080,0.24298
926.36101,0.25491
924.87123,0.26858
923.38144,0.31919
921.89165,0.36589
920.40186,0.41261
918.91207,0.49532
917.42228,0.61776
915.93250,0.75880
914.44271,0.96518
912.95292,1.08845
911.46313,1.21173
909.97334,1.44530
908.48355,1.66993
906.99376,1.81709
905.50398,1.94464
904.01419,1.97231
902.52440,2.00000
901.03461,1.93849
899.54482,1.91905
898.05503,1.79248
896.56525,1.63647
895.07546,1.53385
893.58567,1.43126
892.09588,1.15066
890.60609,0.89805
889.11630,0.67236
887.62651,0.49173
886.13673,0.42470
884.64694,0.35769
883.15715,0.26573
881.66736,0.18788
880.17757,0.15596
878.68778,0.14369
877.19800,0.13146
875.70821,0.08573
874.21842,0.05924
872.72863,0.04771
871.23884,0.02746
869.74905,0.02260
868.25927,0.01777
866.76948,0.02641
865.27969,0.02696
863.78990,0.04163
862.30011,0.04884
860.81032,0.05758
859.32053,0.06634
857.83075,0.08303
856.34096,0.09760
854.85117,0.11370
853.36138,0.13579
851.87159,0.14158
850.38180,0.14739
848.89202,0.18835
847.40223,0.20371
845.91244,0.22764
844.42265,0.23248
842.93286,0.23735
841.44307,0.26263
839.95329,0.27832
838.46350,0.29533
836.97371,0.29271
835.48392,0.30101
833.99413,0.30934
832.50434,0.30253
831.01455,0.29980
829.52477,0.28023
828.03498,0.26923
826.54519,0.24480
825.05540,0.22040
823.56561,0.18983
822.07582,0.18212
820.58604,0.18256
819.09625,0.17116
817.60646,0.15980
816.11667,0.15283
814.62688,0.16233
813.13709,0.15221
811.64730,0.14788
810.15752,0.16385
808.66773,0.17985
807.17794,0.18712
805.68815,0.19420
804.19836,0.18785
802.70857,0.17865
801.21879,0.16948
799.72900,0.16833
798.23921,0.16529
796.74942,0.15287
795.25963,0.16066
793.76984,0.16847
792.28006,0.17385
790.79027,0.19825
789.30048,0.22161
787.81069,0.23945
786.32090,0.25496
784.83111,0.27049
783.34132,0.30889
781.85154,0.36311
780.36175,0.40199
778.87196,0.42563
777.38217,0.44929
775.89238,0.46903
774.40259,0.47726
772.91281,0.47357
771.42302,0.45260
769.93323,0.43167
768.44344,0.39325
766.95365,0.34589
765.46386,0.29279
763.97407,0.24676
762.48429,0.22584
760.99450,0.20494
759.50471,0.17436
758.01492,0.15554
756.52513,0.14933
755.03534,0.13163
753.54556,0.11395
752.05577,0.11914
750.56598,0.08485
749.07619,0.06127
747.58640,0.05959
746.09661,0.05794
744.60683,0.05129
743.11704,0.03592
741.62725,0.01309
740.13746,0.01570
738.64767,0.01833
737.15788,0.02056
735.66809,0.01107
734.17831,0.02103
732.68852,0.02366
731.19873,0.02630
729.70894,0.00859
728.21915,0.01235
726.72936,0.00888
725.23958,0.00859
723.74979,0.02466
722.26000,0.04077
720.77021,0.02615
719.28042,0.02736
717.79063,0.01344
716.30084,0.01523
714.81106,0.01704
713.32127,0.00554
711.83148,0.01664
710.34169,0.03118
708.85190,0.03400
707.36211,0.03684
705.87233,0.05465
704.38254,0.05371
702.89275,0.07392
701.40296,0.06715
699.91317,0.06040
698.42338,0.06083
696.93360,0.08882
695.44381,0.08674
693.95402,0.10240
692.46423,0.11809
690.97444,0.11181
689.48465,0.13715
687.99486,0.17639
686.50508,0.18715
685.01529,0.19794
683.52550,0.23875
682.03571,0.26229
680.54592,0.28351
679.05613,0.27358
677.56635,0.26368
676.07656,0.27003
674.58677,0.26231
673.09698,0.24096
671.60719,0.23724
670.11740,0.23354
668.62761,0.17021
667.13783,0.17008
665.64804,0.14960
664.15825,0.12914
662.66846,0.12055
661.17867,0.08679
659.68888,0.06459
658.19910,0.06269
656.70931,0.06082
655.21952,0.05064
653.72973,0.03452
652.23994,0.04702
650.75015,0.05506
649.26037,0.06313
647.77058,0.04966
646.28079,0.05458
644.79100,0.05995
643.30121,0.05050
641.81142,0.04108
640.32163,0.04289
638.83185,0.03021
637.34206,0.03719
635.85227,0.03417
634.36248,0.03117
632.87269,0.01837
631.38290,0.00859
629.89312,0.01632
628.40333,0.02343
626.91354,0.03058
625.42375,0.02493
623.93396,0.01483
622.44417,0.02301
620.95438,0.03121
619.46460,0.04445
617.97481,0.07714
616.48502,0.07847
614.99523,0.09392
613.50544,0.10939
612.01565,0.12105
610.52587,0.15706
609.03608,0.18947
607.54629,0.21305
606.05650,0.23665
604.56671,0.27297
603.07692,0.34220
601.58714,0.35808
600.09735,0.37399
598.60756,0.44563
597.11777,0.44259
595.62798,0.42697
594.13819,0.42547
592.64840,0.42400
591.15862,0.38775
589.66883,0.32933
588.17904,0.26986
586.68925,0.24681
585.19946,0.22379
583.70967,0.18895
582.21989,0.15093
580.73010,0.12649
579.24031,0.10207
577.75052,0.08355
576.26073,0.06014
574.77094,0.04978
573.28115,0.04456
571.79137,0.03937
570.30158,0.07413
568.81179,0.08542
567.32200,0.09119
565.83221,0.09699
564.34242,0.12223
562.85264,0.15690
561.36285,0.18667
559.87306,0.19555
558.38327,0.20446
556.89348,0.19951
555.40369,0.20271
553.91391,0.21179
552.42412,0.22090
550.93433,0.25106
549.44454,0.25307
547.95475,0.22735
546.46496,0.24115
544.97517,0.25497
543.48539,0.26605
541.99560,0.29892
540.50581,0.32327
539.01602,0.34765
537.52623,0.39319
536.03644,0.41506
534.54666,0.47324
533.05687,0.48758
531.56708,0.50194
530.07729,0.53458
528.58750,0.57194
527.09771,0.60794
525.60792,0.64396
524.11814,0.70807
522.62835,0.74916
521.13856,0.80991
519.64877,0.83760
518.15898,0.86531
516.66919,0.89368
515.17941,0.87555
513.68962,0.90675
512.19983,0.93797
510.71004,0.90390
509.22025,0.85854
507.73046,0.78886
506.24068,0.73085
504.75089,0.67286
503.26110,0.55074
501.77131,0.41478
500.28152,0.37404
498.79173,0.33334
497.30194,0.27963
495.81216,0.20481
494.32237,0.18457
492.83258,0.16434
491.34279,0.11628
489.85300,0.09622
488.36321,0.09859
486.87343,0.09191
485.38364,0.08525
483.89385,0.11438
482.40406,0.12155
480.91427,0.12788
479.42448,0.13424
477.93469,0.16987
476.44491,0.19592
474.95512,0.20651
473.46533,0.21713
471.97554,0.23151
470.48575,0.21923
468.99596,0.21893
467.50618,0.21524
466.01639,0.21158
464.52660,0.17570
463.03681,0.15137
461.54702,0.12985
460.05723,0.10835
458.56745,0.06723
457.07766,0.06051
455.58787,0.05349
454.09808,0.04650
452.60829,0.04881
451.11850,0.01273
449.62871,0.01168
448.13893,0.01065
446.64914,0.00859
445.15935,0.03237
443.66956,0.02650
442.17977,0.02023
440.68998,0.01398
439.20020,0.02953
437.71041,0.04169
436.22062,0.04363
434.73083,0.04559
433.24104,0.05676
431.75125,0.05216
430.26146,0.04821
428.77168,0.04430
427.28189,0.05215
425.79210,0.03846
424.30231,0.03163
422.81252,0.02482
421.32273,0.01868
419.83295,0.02921
418.34316,0.03635
416.85337,0.04352
415.36358,0.02787
413.87379,0.03039
412.38400,0.02333
410.89422,0.01629
409.40443,0.05261
407.91464,0.03665
406.42485,0.01496
404.93506,0.01464
403.44527,0.01434
401.95548,0.01791
400.46570,0.02961
398.97591,0.02746
397.48612,0.02534
395.99633,0.05761
394.50654,0.03996
393.01675,0.04303
391.52697,0.04613
390.03718,0.02001
388.54739,0.02277
387.05760,0.02225
385.56781,0.02176
384.07802,0.00859
382.58824,0.01835
381.09845,0.01223
379.60866,0.00614
378.11887,0.02954
376.62908,0.01689
375.13929,0.02188
373.64950,0.02689
372.15972,0.01944
370.66993,0.02439
369.18014,0.01648
367.69035,0.00859
366.20056,0.03277
364.71077,0.02452
363.22099,0.03071
361.73120,0.03692
360.24141,0.03687
358.75162,0.05690
357.26183,0.06212
355.77204,0.06736
354.28225,0.05801
352.79247,0.05188
351.30268,0.05229
349.81289,0.05272
348.32310,0.06972
346.83331,0.05707
345.34352,0.04925
343.85374,0.04146
342.36395,0.03721
340.87416,0.02701
339.38437,0.03925
337.89458,0.05151
336.40479,0.04586
334.91501,0.04323
333.42522,0.03507
331.93543,0.02694
330.44564,0.00859
328.95585,0.03460
327.46606,0.02350
325.97627,0.01242
324.48649,0.03804
322.99670,0.05344
321.50691,0.04240
320.01712,0.03137
318.52733,0.05859
317.03754,0.09330
315.54776,0.06986
314.05797,0.04645
312.56818,0.05156
311.07839,0.05371
309.58860,0.04627
308.09881,0.03886
306.60902,0.04834
305.11924,0.04866
303.62945,0.03065
302.13966,0.01267
300.64987,0.00859
299.16008,0.00859
