1778.52000,0.00719
1777.03021,0.01079
1775.54042,0.00820
1774.05063,0.01348
1772.56085,0.01127
1771.07106,0.01301
1769.58127,0.02000
1768.09148,0.00479
1766.60169,0.01314
1765.11190,0.02151
1763.62212,0.01128
1762.13233,0.01611
1760.64254,0.00985
1759.15275,0.01244
1757.66296,0.01832
1756.17317,0.00658
1754.68339,0.00859
1753.19360,0.00703
1751.70381,0.00582
1750.21402,0.01836
1748.72423,0.00837
1747.23444,0.01247
1745.74465,0.00221
1744.25487,0.00791
1742.76508,0.01233
1741.27529,0.01873
1739.78550,0.00980
1738.29571,0.00743
1736.80592,0.01391
1735.31614,0.00735
1733.82635,0.02237
1732.33656,0.02173
1730.84677,0.01426
1729.35698,0.02544
1727.86719,0.01409
1726.37740,0.01225
1724.88762,0.00389
1723.39783,0.01713
1721.90804,0.02941
1720.41825,0.00479
1718.92846,0.01494
1717.43867,0.00682
1715.94889,0.01146
1714.45910,0.01123
1712.96931,0.01233
1711.47952,0.01116
1709.98973,0.00806
1708.49994,0.02361
1707.01016,0.01419
1705.52037,0.00479
1704.03058,0.02462
1702.54079,0.02388
1701.05100,0.02415
1699.56121,0.01530
1698.07142,0.01496
1696.58164,0.02119
1695.09185,0.01731
1693.60206,0.01836
1692.11227,0.02204
1690.62248,0.02706
1689.13269,0.02295
1687.64291,0.02835
1686.15312,0.03213
1684.66333,0.02581
1683.17354,0.03324
1681.68375,0.03971
1680.19396,0.03216
1678.70417,0.05110
1677.21439,0.03772
1675.72460,0.04331
1674.23481,0.05546
1672.74502,0.04640
1671.25523,0.06187
1669.76544,0.05874
1668.27566,0.06576
1666.78587,0.07117
1665.29608,0.08739
1663.80629,0.07391
1662.31650,0.08724
1660.82671,0.09471
1659.33693,0.07901
1657.84714,0.08327
1656.35735,0.09114
1654.86756,0.08499
1653.37777,0.09814
1651.88798,0.08583
1650.39819,0.09871
1648.90841,0.08939
1647.41862,0.07879
1645.92883,0.08586
1644.43904,0.09295
1642.94925,0.09124
1641.45946,0.08858
1639.96968,0.09118
1638.47989,0.10164
1636.99010,0.08696
1635.50031,0.07689
1634.01052,0.07664
1632.52073,0.07347
1631.03094,0.09255
1629.54116,0.08715
1628.05137,0.09811
1626.56158,0.08393
1625.07179,0.10180
1623.58200,0.10304
1622.09221,0.11148
1620.60243,0.12714
1619.11264,0.09642
1617.62285,0.10658
1616.13306,0.10205
1614.64327,0.09722
1613.15348,0.09144
1611.66370,0.10594
1610.17391,0.09792
1608.68412,0.07947
1607.19433,0.10090
1605.70454,0.09361
1604.21475,0.09418
1602.72496,0.09478
1601.23518,0.08593
1599.74539,0.09246
1598.25560,0.07451
1596.76581,0.07586
1595.27602,0.08606
1593.78623,0.09203
1592.29645,0.08463
1590.80666,0.08118
1589.31687,0.08135
1587.82708,0.08710
1586.33729,0.08437
1584.84750,0.07743
1583.35771,0.07410
1581.86793,0.08844
1580.37814,0.08615
1578.88835,0.08289
1577.39856,0.07378
1575.90877,0.07483
1574.41898,0.07557
1572.92920,0.06098
1571.43941,0.06700
1569.94962,0.06422
1568.45983,0.06147
1566.97004,0.05254
1565.48025,0.04166
1563.99047,0.04944
1562.50068,0.03895
1561.01089,0.05527
1559.52110,0.06149
1558.03131,0.05401
1556.54152,0.04002
1555.05173,0.03880
1553.56195,0.02649
1552.07216,0.04002
1550.58237,0.03495
1549.09258,0.03023
1547.60279,0.02064
1546.11300,0.01368
1544.62322,0.00479
1543.13343,0.01724
1541.64364,0.00847
1540.15385,0.00774
1538.66406,0.00702
1537.17427,0.01056
1535.68448,0.02392
1534.19470,0.03534
1532.70491,0.01640
1531.21512,0.03310
1529.72533,0.00572
1528.23554,0.02044
1526.74575,0.02701
1525.25597,0.03916
1523.76618,0.03402
1522.27639,0.03120
1520.78660,0.03852
1519.29681,0.03378
1517.80702,0.04998
1516.31724,0.03647
1514.82745,0.05501
1513.33766,0.05478
1511.84787,0.05457
1510.35808,0.04966
1508.86829,0.04509
1507.37850,0.04153
1505.88872,0.03735
1504.39893,0.03482
1502.90914,0.05682
1501.41935,0.05499
1499.92956,0.06038
1498.43977,0.04749
1496.94999,0.03920
1495.46020,0.06100
1493.97041,0.08609
1492.48062,0.08507
1490.99083,0.09942
1489.50104,0.10727
1488.01125,0.11759
1486.52147,0.12794
1485.03168,0.13357
1483.54189,0.15328
1482.05210,0.17759
1480.56231,0.18853
1479.07252,0.19165
1477.58274,0.21668
1476.09295,0.21757
1474.60316,0.20834
1473.11337,0.23084
1471.62358,0.23376
1470.13379,0.22722
1468.64401,0.26352
1467.15422,0.27990
1465.66443,0.28668
1464.17464,0.29348
1462.68485,0.32693
1461.19506,0.38916
1459.70527,0.43181
1458.21549,0.47384
1456.72570,0.53680
1455.23591,0.58965
1453.74612,0.62587
1452.25633,0.65165
1450.76654,0.67093
1449.27676,0.69349
1447.78697,0.68766
1446.29718,0.66583
1444.80739,0.64812
1443.31760,0.63043
1441.82781,0.56556
1440.33802,0.52488
1438.84824,0.49240
1437.35845,0.47400
1435.86866,0.46052
1434.37887,0.46699
1432.88908,0.50258
1431.39929,0.57216
1429.90951,0.63720
1428.41972,0.73854
1426.92993,0.79579
1425.44014,0.83215
1423.95035,0.85432
1422.46056,0.87651
1420.97078,0.92602
1419.48099,0.92719
1417.99120,0.96302
1416.50141,0.99038
1415.01162,0.96091
1413.52183,0.90794
1412.03204,0.84780
1410.54226,0.77854
1409.05247,0.66520
1407.56268,0.67114
1406.07289,0.58986
1404.58310,0.56727
1403.09331,0.54469
1401.60353,0.47689
1400.11374,0.40748
1398.62395,0.37599
1397.13416,0.32362
1395.64437,0.26637
1394.15458,0.20490
1392.66479,0.17188
1391.17501,0.15555
1389.68522,0.13565
1388.19543,0.11643
1386.70564,0.11406
1385.21585,0.11172
1383.72606,0.08277
1382.23628,0.04567
1380.74649,0.04259
1379.25670,0.02678
1377.76691,0.00479
1376.27712,0.01210
1374.78733,0.02434
1373.29755,0.01340
1371.80776,0.01294
1370.31797,0.00794
1368.82818,0.01456
1367.33839,0.02120
1365.84860,0.01659
1364.35881,0.04207
1362.86903,0.04993
1361.37924,0.07350
1359.88945,0.08304
1358.39966,0.09392
1356.90987,0.14468
1355.42008,0.19286
1353.93030,0.24498
1352.44051,0.26674
1350.95072,0.28852
1349.46093,0.38384
1347.97114,0.42953
1346.48135,0.51510
1344.99156,0.57881
1343.50178,0.68109
1342.01199,0.71283
1340.52220,0.76059
1339.03241,0.83453
1337.54262,0.86470
1336.05283,0.90389
1334.56305,0.94310
1333.07326,0.99883
1331.58347,1.02126
1330.09368,1.00875
1328.60389,1.00052
1327.11410,0.97205
1325.62432,0.92302
1324.13453,0.91487
1322.64474,0.85053
1321.15495,0.82510
1319.66516,0.79806
1318.17537,0.77105
1316.68558,0.70061
1315.19580,0.65339
1313.70601,0.59508
1312.21622,0.55575
1310.72643,0.50011
1309.23664,0.46344
1307.74685,0.43007
1306.25707,0.41273
1304.76728,0.39248
1303.27749,0.37225
1301.78770,0.31806
1300.29791,0.26586
1298.80812,0.22741
1297.31834,0.21708
1295.82855,0.18064
1294.33876,0.15174
1292.84897,0.12057
1291.35918,0.10087
1289.86939,0.10341
1288.37960,0.10597
1286.88982,0.07556
1285.40003,0.07425
1283.91024,0.04618
1282.42045,0.03838
1280.93066,0.03454
1279.44087,0.05294
1277.95109,0.04554
1276.46130,0.05452
1274.97151,0.05355
1273.48172,0.05260
1271.99193,0.04988
1270.50214,0.03837
1269.01235,0.00891
1267.52257,0.03861
1266.03278,0.02880
1264.54299,0.01118
1263.05320,0.00502
1261.56341,0.01505
1260.07362,0.02511
1258.58384,0.02752
1257.09405,0.00479
1255.60426,0.01326
1254.11447,0.01685
1252.62468,0.01948
1251.13489,0.02017
1249.64511,0.02645
1248.15532,0.01478
1246.66553,0.02405
1245.17574,0.03334
1243.68595,0.02534
1242.19616,0.03206
1240.70637,0.02052
1239.21659,0.03089
1237.72680,0.02821
1236.23701,0.02034
1234.74722,0.03078
1233.25743,0.02573
1231.76764,0.02070
1230.27786,0.03482
1228.78807,0.03556
1227.29828,0.01705
1225.80849,0.02732
1224.31870,0.00983
1222.82891,0.00479
1221.33912,0.02156
1219.84934,0.03901
1218.35955,0.05648
1216.86976,0.05110
1215.37997,0.07679
1213.89018,0.07570
1212.40039,0.07367
1210.91061,0.06872
1209.42082,0.09777
1207.93103,0.09222
1206.44124,0.08668
1204.95145,0.08445
1203.46166,0.06034
1201.97188,0.06697
1200.48209,0.04912
1198.99230,0.05025
1197.50251,0.06088
1196.01272,0.03886
1194.52293,0.03271
1193.03314,0.02658
1191.54336,0.01999
1190.05357,0.01212
1188.56378,0.02911
1187.07399,0.00593
1185.58420,0.03080
1184.09441,0.01453
1182.60463,0.01299
1181.11484,0.01148
1179.62505,0.03188
1178.13526,0.01408
1176.64547,0.00479
1175.15568,0.02389
1173.66589,0.02766
1172.17611,0.02001
1170.68632,0.01239
1169.19653,0.00479
1167.70674,0.02901
1166.21695,0.02351
1164.72716,0.02653
1163.23738,0.03546
1161.74759,0.05552
1160.25780,0.05927
1158.76801,0.06044
1157.27822,0.06162
1155.78843,0.07166
1154.29865,0.08008
1152.80886,0.10225
1151.31907,0.10060
1149.82928,0.11825
1148.33949,0.14049
1146.84970,0.13270
1145.35991,0.12494
1143.87013,0.15020
1142.38034,0.17222
1140.89055,0.17401
1139.40076,0.17222
1137.91097,0.19595
1136.42118,0.21121
1134.93140,0.22371
1133.44161,0.23624
1131.95182,0.23916
1130.46203,0.25451
1128.97224,0.27774
1127.48245,0.23433
1125.99266,0.23277
1124.50288,0.24397
1123.01309,0.24214
1121.52330,0.24032
1120.03351,0.24148
1118.54372,0.24200
1117.05393,0.25595
1115.56415,0.25979
1114.07436,0.27019
1112.58457,0.27391
1111.09478,0.27767
1109.60499,0.24893
1108.11520,0.25453
1106.62542,0.28433
1105.13563,0.26253
1103.64584,0.25220
1102.15605,0.22359
1100.66626,0.21934
1099.17647,0.21512
1097.68668,0.19998
1096.19690,0.19925
1094.70711,0.20115
1093.21732,0.19850
1091.72753,0.20698
1090.23774,0.20716
1088.74795,0.20736
1087.25817,0.16593
1085.76838,0.21177
1084.27859,0.16777
1082.78880,0.16856
1081.29901,0.17428
1079.80922,0.20387
1078.31943,0.18775
1076.82965,0.17165
1075.33986,0.17060
1073.85007,0.18494
1072.36028,0.20192
1070.87049,0.21533
1069.38070,0.24052
1067.89092,0.26607
1066.40113,0.29164
1064.91134,0.32115
1063.42155,0.37390
1061.93176,0.46587
1060.44197,0.53467
1058.95219,0.63683
1057.46240,0.69653
1055.97261,0.75626
1054.48282,0.81372
1052.99303,0.83232
1051.50324,0.86043
1050.01345,0.85817
1048.52367,0.85006
1047.03388,0.85390
1045.54409,0.85776
1044.05430,0.81966
1042.56451,0.76557
1041.07472,0.71380
1039.58494,0.65944
1038.09515,0.57863
1036.60536,0.54866
1035.11557,0.51871
1033.62578,0.45269
1032.13599,0.38276
1030.64620,0.33116
1029.15642,0.26684
1027.66663,0.26283
1026.17684,0.25885
1024.68705,0.23447
1023.19726,0.17874
1021.70747,0.16291
1020.21769,0.12978
1018.72790,0.11661
1017.23811,0.11604
1015.74832,0.11549
1014.25853,0.09815
1012.76874,0.11873
1011.27896,0.09196
1009.78917,0.10507
1008.29938,0.08129
1006.80959,0.06374
1005.31980,0.04622
1003.83001,0.03656
1002.34022,0.01484
1000.85044,0.02353
999.36065,0.04564
997.87086,0.04082
996.38107,0.03603
994.89128,0.08795
993.40149,0.07716
991.91171,0.09743
990.42192,0.10956
988.93213,0.14851
987.44234,0.14517
985.95255,0.14186
984.46276,0.14625
982.97297,0.13204
981.48319,0.09367
979.99340,0.08670
978.50361,0.08024
977.01382,0.07380
975.52403,0.04959
974.03424,0.03618
972.54446,0.02868
971.05467,0.02414
969.56488,0.00721
968.07509,0.00599
966.58530,0.00479
965.09551,0.01464
963.60573,0.01143
962.11594,0.02525
960.62615,0.01197
959.13636,0.01423
957.64657,0.01652
956.15678,0.02880
954.66699,0.03064
953.17721,0.02990
951.68742,0.03899
950.19763,0.04434
948.70784,0.04972
947.21805,0.05267
945.72826,0.08963
944.23848,0.09426
942.74869,0.11624
941.25890,0.12746
939.76911,0.13168
938.27932,0.13593
936.78953,0.15604
935.29974,0.16311
933.80996,0.19079
932.32017,0.20543
930.83038,0.19934
929.34059,0.19328
927.85080,0.24589
926.36101,0.27762
924.87123,0.32898
923.38144,0.40944
921.89165,0.45954
920.40186,0.50966
918.91207,0.57190
917.42228,0.68088
915.93250,0.83368
914.44271,1.06394
912.95292,1.16990
911.46313,1.27589
909.97334,1.45917
908.48355,1.61993
906.99376,1.77909
905.50398,1.87390
904.01419,1.91629
902.52440,1.95870
901.03461,2.00000
899.54482,1.96584
898.05503,1.79676
896.56525,1.60810
895.07546,1.48334
893.58567,1.35861
892.09588,1.08180
890.60609,0.84586
889.11630,0.66484
887.62651,0.45313
886.13673,0.40530
884.64694,0.35751
883.15715,0.25304
881.66736,0.22245
880.17757,0.17652
878.68778,0.15235
877.19800,0.12821
875.70821,0.10523
874.21842,0.05711
872.72863,0.03680
871.23884,0.04918
869.74905,0.04231
868.25927,0.03547
866.76948,0.02767
865.27969,0.03623
863.78990,0.03012
862.30011,0.06128
860.81032,0.06665
859.32053,0.07204
857.83075,0.06504
856.34096,0.08094
854.85117,0.07661
853.36138,0.09583
851.87159,0.09269
850.38180,0.08957
848.89202,0.11703
847.40223,0.12949
845.91244,0.14817
844.42265,0.15480
842.93286,0.16144
841.44307,0.16125
839.95329,0.18952
838.46350,0.19624
836.97371,0.20201
835.48392,0.20943
833.99413,0.21688
832.50434,0.21129
831.01455,0.20996
829.52477,0.17141
828.03498,0.15968
826.54519,0.15304
825.05540,0.14643
823.56561,0.14948
822.07582,0.11955
820.58604,0.11840
819.09625,0.10225
817.60646,0.08612
816.11667,0.08406
814.62688,0.06831
813.13709,0.08460
811.64730,0.09275
810.15752,0.09373
808.66773,0.09474
807.17794,0.11440
805.68815,0.11088
804.19836,0.08713
802.70857,0.08743
801.21879,0.08774
799.72900,0.08367
798.23921,0.08257
796.74942,0.07332
795.25963,0.08729
793.76984,0.10130
792.28006,0.09114
790.79027,0.11434
789.30048,0.11110
787.81069,0.13631
786.32090,0.15419
784.83111,0.17210
783.34132,0.18366
781.85154,0.22040
780.36175,0.27481
778.87196,0.28334
777.38217,0.29190
775.89238,0.32744
774.40259,0.28654
772.91281,0.29566
771.42302,0.28944
769.93323,0.28326
768.44344,0.28199
766.95365,0.22423
765.46386,0.20995
763.97407,0.15746
762.48429,0.13522
760.99450,0.11301
759.50471,0.12529
758.01492,0.08793
756.52513,0.06857
755.03534,0.06900
753.54556,0.06946
752.05577,0.06651
750.56598,0.05803
749.07619,0.02082
747.58640,0.03412
746.09661,0.04744
744.60683,0.04690
743.11704,0.04443
741.62725,0.01976
740.13746,0.02142
738.64767,0.02310
737.15788,0.02269
735.66809,0.01184
734.17831,0.00592
732.68852,0.00966
731.19873,0.01343
729.70894,0.00726
728.21915,0.00896
726.72936,0.00479
725.23958,0.02946
723.74979,0.02540
722.26000,0.02136
720.77021,0.02356
719.28042,0.00323
717.79063,0.02299
716.30084,0.02823
714.81106,0.03350
713.32127,0.03177
711.83148,0.04967
710.34169,0.04537
708.85190,0.05107
707.36211,0.05679
705.87233,0.03296
704.38254,0.02811
702.89275,0.04779
701.40296,0.04691
699.91317,0.04605
698.42338,0.05699
696.93360,0.08984
695.44381,0.11389
693.95402,0.12457
692.46423,0.13527
690.97444,0.13065
689.48465,0.14924
687.99486,0.17407
686.50508,0.17573
685.01529,0.17741
683.52550,0.20754
682.03571,0.24194
680.54592,0.25383
679.05613,0.25315
677.56635,0.25251
676.07656,0.28276
674.58677,0.27547
673.09698,0.25578
671.60719,0.23628
670.11740,0.21681
668.62761,0.18968
667.13783,0.17597
665.64804,0.16784
664.15825,0.15974
662.66846,0.12716
661.17867,0.09198
659.68888,0.09180
658.19910,0.08069
656.70931,0.06961
655.21952,0.05545
653.72973,0.06712
652.23994,0.05759
650.75015,0.06800
649.26037,0.07845
647.77058,0.07519
646.28079,0.04321
644.79100,0.04033
643.30121,0.03764
641.81142,0.03497
640.32163,0.04197
638.83185,0.02220
637.34206,0.03317
635.85227,0.03142
634.36248,0.02969
632.87269,0.00479
631.38290,0.01169
629.89312,0.00913
628.40333,0.02212
626.91354,0.03513
625.42375,0.03166
623.93396,0.03934
622.44417,0.04899
620.95438,0.05867
619.46460,0.02231
617.97481,0.06863
616.48502,0.05911
614.99523,0.06546
613.50544,0.07183
612.01565,0.10029
610.52587,0.13301
609.03608,0.17785
607.54629,0.19315
606.05650,0.20847
604.56671,0.25142
603.07692,0.30682
601.58714,0.33218
600.09735,0.35757
598.60756,0.37187
597.11777,0.40416
595.62798,0.39531
594.13819,0.40005
592.64840,0.40481
591.15862,0.38427
589.66883,0.29906
588.17904,0.28805
586.68925,0.26301
585.19946,0.23800
583.70967,0.17543
582.21989,0.14622
580.73010,0.13174
579.24031,0.11728
577.75052,0.07605
576.26073,0.07373
574.77094,0.06817
573.28115,0.06378
571.79137,0.05941
570.30158,0.04804
568.81179,0.07492
567.32200,0.07373
565.83221,0.07257
564.34242,0.09953
562.85264,0.09580
561.36285,0.13196
559.87306,0.13285
558.38327,0.13377
556.89348,0.14746
555.40369,0.15758
553.91391,0.16772
552.42412,0.17789
550.93433,0.18743
549.44454,0.19568
547.95475,0.20004
546.46496,0.20002
544.97517,0.20002
543.48539,0.22111
541.99560,0.25335
540.50581,0.27025
539.01602,0.28717
537.52623,0.34660
536.03644,0.37305
534.54666,0.37633
533.05687,0.38404
531.56708,0.39178
530.07729,0.47322
528.58750,0.50764
527.09771,0.53293
525.60792,0.55825
524.11814,0.58751
522.62835,0.64817
521.13856,0.69839
519.64877,0.72479
518.15898,0.75121
516.66919,0.80706
515.17941,0.76590
513.68962,0.77312
512.19983,0.78036
510.71004,0.78370
509.22025,0.68742
507.73046,0.66173
506.24068,0.60470
504.75089,0.54770
503.26110,0.44596
501.77131,0.31450
500.28152,0.28763
498.79173,0.26079
497.30194,0.19803
495.81216,0.16045
494.32237,0.14855
492.83258,0.13668
491.34279,0.11290
489.85300,0.09502
488.36321,0.06378
486.87343,0.05854
485.38364,0.05332
483.89385,0.04469
482.40406,0.07171
480.91427,0.07588
479.42448,0.08007
477.93469,0.08331
476.44491,0.10226
474.95512,0.11094
473.46533,0.11964
471.97554,0.13441
470.48575,0.13320
468.99596,0.13397
467.50618,0.14082
466.01639,0.14768
464.52660,0.09952
463.03681,0.05889
461.54702,0.05930
460.05723,0.05973
458.56745,0.01428
457.07766,0.00479
455.58787,0.03008
454.09808,0.05540
452.60829,0.02699
451.11850,0.02246
449.62871,0.01926
448.13893,0.01608
446.64914,0.01750
445.15935,0.00000
443.66956,0.04467
442.17977,0.04101
440.68998,0.03737
439.20020,0.00631
437.71041,0.02069
436.22062,0.02448
434.73083,0.02829
433.24104,0.00681
431.75125,0.02717
430.26146,0.03873
428.77168,0.05032
427.28189,0.05834
425.79210,0.05789
424.30231,0.03819
422.81252,0.01851
421.32273,0.03513
419.83295,0.04360
418.34316,0.03216
416.85337,0.02075
415.36358,0.00479
413.87379,0.04276
412.38400,0.03828
410.89422,0.03382
409.40443,0.04638
407.91464,0.03936
406.42485,0.00916
404.93506,0.01280
403.44527,0.01648
401.95548,0.03798
400.46570,0.05330
398.97591,0.03270
397.48612,0.01213
395.99633,0.03634
394.50654,0.04000
393.01675,0.03029
391.52697,0.02059
390.03718,0.01648
388.54739,0.01392
387.05760,0.02216
385.56781,0.03043
384.07802,0.02173
382.58824,0.00685
381.09845,0.01540
379.60866,0.02398
378.11887,0.03765
376.62908,0.02259
375.13929,0.01246
373.64950,0.00235
372.15972,0.02859
370.66993,0.02348
369.18014,0.02587
367.69035,0.02828
366.20056,0.04575
364.71077,0.07043
363.22099,0.04302
361.73120,0.01563
360.24141,0.05705
358.75162,0.08314
357.26183,0.05991
355.77204,0.03671
354.28225,0.06123
352.79247,0.08350
351.30268,0.06968
349.81289,0.05589
348.32310,0.05568
346.83331,0.02511
345.34352,0.04082
343.85374,0.05655
342.36395,0.05139
340.87416,0.07208
339.38437,0.05864
337.89458,0.04522
336.40479,0.03232
334.91501,0.03840
333.42522,0.02865
331.93543,0.01893
330.44564,0.00842
328.95585,0.00479
327.46606,0.01616
325.97627,0.02755
324.48649,0.06827
322.99670,0.07992
321.50691,0.05942
320.01712,0.03895
318.52733,0.09806
317.03754,0.07453
315.54776,0.06523
314.05797,0.05596
312.56818,0.05897
311.07839,0.07377
309.58860,0.06866
308.09881,0.06358
306.60902,0.03336
305.11924,0.04074
303.62945,0.02641
302.13966,0.01212
300.64987,0.00479
299.16008,0.00479
