1778.52000,0.00554
1777.03021,0.01078
1775.54042,0.01071
1774.05063,0.00378
1772.56085,0.00687
1771.07106,0.00732
1769.58127,0.01157
1768.09148,0.00473
1766.60169,0.01281
1765.11190,0.01313
1763.62212,0.00792
1762.13233,0.00896
1760.64254,0.00980
1759.15275,0.01311
1757.66296,0.01355
1756.17317,0.00936
1754.68339,0.00296
1753.19360,0.01173
1751.70381,0.01808
1750.21402,0.01267
1748.72423,0.00728
1747.23444,0.00793
1745.74465,0.01215
1744.25487,0.02395
1742.76508,0.00889
1741.27529,0.01947
1739.78550,0.01274
1738.29571,0.01315
1736.80592,0.01358
1735.31614,0.01314
1733.82635,0.01318
1732.33656,0.00901
1730.84677,0.00999
1729.35698,0.00165
1727.86719,0.00000
1726.37740,0.01238
1724.88762,0.00611
1723.39783,0.00543
1721.90804,0.00832
1720.41825,0.00880
1718.92846,0.00930
1717.43867,0.01671
1715.94889,0.01526
1714.45910,0.00760
1712.96931,0.00575
1711.47952,0.00981
1709.98973,0.00189
1708.49994,0.01073
1707.01016,0.00826
1705.52037,0.00582
1704.03058,0.00473
1702.54079,0.01104
1701.05100,0.00692
1699.56121,0.00728
1698.07142,0.01432
1696.58164,0.01050
1695.09185,0.01204
1693.60206,0.01160
1692.11227,0.02275
1690.62248,0.01147
1689.13269,0.01621
1687.64291,0.01476
1686.15312,0.03200
1684.66333,0.02282
1683.17354,0.02633
1681.68375,0.02875
1680.19396,0.02498
1678.70417,0.02189
1677.21439,0.03150
1675.72460,0.03469
1674.23481,0.05057
1672.74502,0.03557
1671.25523,0.04683
1669.76544,0.04656
1668.27566,0.04587
1666.78587,0.06120
1665.29608,0.05700
1663.80629,0.05994
1662.31650,0.06245
1660.82671,0.07255
1659.33693,0.07466
1657.84714,0.06836
1656.35735,0.06119
1654.86756,0.06650
1653.37777,0.07538
1651.88798,0.07851
1650.39819,0.07722
1648.90841,0.08817
1647.41862,0.07692
1645.92883,0.07848
1644.43904,0.08007
1642.94925,0.08490
1641.45946,0.08575
1639.96968,0.08618
1638.47989,0.08597
1636.99010,0.07623
1635.50031,0.07362
1634.01052,0.06681
1632.52073,0.07115
1631.03094,0.07261
1629.54116,0.08255
1628.05137,0.07228
1626.56158,0.08071
1625.07179,0.08406
1623.58200,0.08409
1622.09221,0.07970
1620.60243,0.09689
1619.11264,0.09722
1617.62285,0.08801
1616.13306,0.07527
1614.64327,0.07100
1613.15348,0.07098
1611.66370,0.07499
1610.17391,0.09124
1608.68412,0.07751
1607.19433,0.09136
1605.70454,0.08724
1604.21475,0.08925
1602.72496,0.09129
1601.23518,0.08302
1599.74539,0.07588
1598.25560,0.06832
1596.76581,0.08546
1595.27602,0.08239
1593.78623,0.06357
1592.29645,0.07900
1590.80666,0.07823
1589.31687,0.07570
1587.82708,0.06809
1586.33729,0.07117
1584.84750,0.05761
1583.35771,0.07407
1581.86793,0.06811
1580.37814,0.05618
1578.88835,0.06249
1577.39856,0.06349
1575.90877,0.05296
1574.41898,0.05713
1572.92920,0.03531
1571.43941,0.04397
1569.94962,0.03564
1568.45983,0.02735
1566.97004,0.04319
1565.48025,0.02283
1563.99047,0.02049
1562.50068,0.02951
1561.01089,0.02100
1559.52110,0.01430
1558.03131,0.00983
1556.54152,0.00473
1555.05173,0.02431
1553.56195,0.01147
1552.07216,0.02510
1550.58237,0.00808
1549.09258,0.00042
1547.60279,0.00590
1546.11300,0.00095
1544.62322,0.01359
1543.13343,0.00892
1541.64364,0.00249
1540.15385,0.00329
1538.66406,0.00412
1537.17427,0.00908
1535.68448,0.00473
1534.19470,0.01138
1532.70491,0.01628
1531.21512,0.01409
1529.72533,0.00726
1528.23554,0.02067
1526.74575,0.01922
1525.25597,0.03024
1523.76618,0.02084
1522.27639,0.02568
1520.78660,0.02366
1519.29681,0.04434
1517.80702,0.03014
1516.31724,0.04108
1514.82745,0.04427
1513.33766,0.04604
1511.84787,0.04783
1510.35808,0.03464
1508.86829,0.03681
1507.37850,0.04234
1505.88872,0.03390
1504.39893,0.05015
1502.90914,0.04552
1501.41935,0.06693
1499.92956,0.08614
1498.43977,0.07826
1496.94999,0.07529
1495.46020,0.08724
1493.97041,0.10144
1492.48062,0.10588
1490.99083,0.10278
1489.50104,0.13016
1488.01125,0.13468
1486.52147,0.13921
1485.03168,0.15844
1483.54189,0.18459
1482.05210,0.21231
1480.56231,0.24939
1479.07252,0.23227
1477.58274,0.28029
1476.09295,0.26922
1474.60316,0.26172
1473.11337,0.26936
1471.62358,0.27770
1470.13379,0.29673
1468.64401,0.27910
1467.15422,0.31174
1465.66443,0.32817
1464.17464,0.34463
1462.68485,0.35800
1461.19506,0.41451
1459.70527,0.44326
1458.21549,0.53050
1456.72570,0.58597
1455.23591,0.64991
1453.74612,0.70033
1452.25633,0.73742
1450.76654,0.73854
1449.27676,0.76079
1447.78697,0.73662
1446.29718,0.71269
1444.80739,0.68912
1443.31760,0.66557
1441.82781,0.60816
1440.33802,0.56654
1438.84824,0.54918
1437.35845,0.53607
1435.86866,0.52876
1434.37887,0.52080
1432.88908,0.56866
1431.39929,0.60721
1429.90951,0.67179
1428.41972,0.75506
1426.92993,0.81902
1425.44014,0.86256
1423.95035,0.89411
1422.46056,0.92569
1420.97078,0.98175
1419.48099,0.95025
1417.99120,0.94456
1416.50141,0.96291
1415.01162,0.93237
1413.52183,0.85008
1412.03204,0.78981
1410.54226,0.72845
1409.05247,0.66868
1407.56268,0.62693
1406.07289,0.55831
1404.58310,0.54762
1403.09331,0.53695
1401.60353,0.46462
1400.11374,0.41500
1398.62395,0.37406
1397.13416,0.31337
1395.64437,0.25803
1394.15458,0.22428
1392.66479,0.19922
1391.17501,0.17174
1389.68522,0.13740
1388.19543,0.12130
1386.70564,0.10523
1385.21585,0.08919
1383.72606,0.05938
1382.23628,0.04583
1380.74649,0.04475
1379.25670,0.02569
1377.76691,0.02332
1376.27712,0.01186
1374.78733,0.01554
1373.29755,0.01969
1371.80776,0.01587
1370.31797,0.00473
1368.82818,0.00968
1367.33839,0.01466
1365.84860,0.02155
1364.35881,0.02668
1362.86903,0.03806
1361.37924,0.04614
1359.88945,0.06912
1358.39966,0.10192
1356.90987,0.14540
1355.42008,0.17758
1353.93030,0.24934
1352.44051,0.27856
1350.95072,0.30781
1349.46093,0.34852
1347.97114,0.40327
1346.48135,0.48671
1344.99156,0.57106
1343.50178,0.66500
1342.01199,0.71028
1340.52220,0.78226
1339.03241,0.82981
1337.54262,0.85739
1336.05283,0.88343
1334.56305,0.90950
1333.07326,0.90492
1331.58347,0.91881
1330.09368,0.95028
1328.60389,0.91443
1327.11410,0.89617
1325.62432,0.86948
1324.13453,0.82148
1322.64474,0.79662
1321.15495,0.77778
1319.66516,0.75141
1318.17537,0.72507
1316.68558,0.68319
1315.19580,0.63689
1313.70601,0.59328
1312.21622,0.57726
1310.72643,0.51525
1309.23664,0.46771
1307.74685,0.44020
1306.25707,0.43161
1304.76728,0.40659
1303.27749,0.38160
1301.78770,0.33908
1300.29791,0.29435
1298.80812,0.23120
1297.31834,0.20075
1295.82855,0.17721
1294.33876,0.12636
1292.84897,0.12755
1291.35918,0.11764
1289.86939,0.12132
1288.37960,0.12502
1286.88982,0.11496
1285.40003,0.09182
1283.91024,0.08359
1282.42045,0.06982
1280.93066,0.05675
1279.44087,0.06838
1277.95109,0.05113
1276.46130,0.06036
1274.97151,0.05661
1273.48172,0.05288
1271.99193,0.05018
1270.50214,0.06462
1269.01235,0.05463
1267.52257,0.04067
1266.03278,0.04362
1264.54299,0.01770
1263.05320,0.03048
1261.56341,0.02928
1260.07362,0.02811
1258.58384,0.00473
1257.09405,0.01256
1255.60426,0.02685
1254.11447,0.00805
1252.62468,0.00795
1251.13489,0.00720
1249.64511,0.01626
1248.15532,0.02601
1246.66553,0.02556
1245.17574,0.02513
1243.68595,0.02584
1242.19616,0.02124
1240.70637,0.00643
1239.21659,0.01033
1237.72680,0.00535
1236.23701,0.01974
1234.74722,0.02348
1233.25743,0.02103
1231.76764,0.01859
1230.27786,0.02997
1228.78807,0.02025
1227.29828,0.02167
1225.80849,0.02244
1224.31870,0.01457
1222.82891,0.00473
1221.33912,0.01121
1219.84934,0.02416
1218.35955,0.03713
1216.86976,0.03902
1215.37997,0.05404
1213.89018,0.06620
1212.40039,0.07704
1210.91061,0.08080
1209.42082,0.09237
1207.93103,0.08917
1206.44124,0.08600
1204.95145,0.08941
1203.46166,0.06729
1201.97188,0.08519
1200.48209,0.06979
1198.99230,0.07507
1197.50251,0.07216
1196.01272,0.05927
1194.52293,0.05118
1193.03314,0.04311
1191.54336,0.02985
1190.05357,0.02484
1188.56378,0.00473
1187.07399,0.02132
1185.58420,0.01393
1184.09441,0.01324
1182.60463,0.01746
1181.11484,0.02170
1179.62505,0.01263
1178.13526,0.00736
1176.64547,0.01390
1175.15568,0.01224
1173.66589,0.01460
1172.17611,0.01209
1170.68632,0.01039
1169.19653,0.00872
1167.70674,0.00473
1166.21695,0.01872
1164.72716,0.02407
1163.23738,0.03500
1161.74759,0.05062
1160.25780,0.06004
1158.76801,0.06693
1157.27822,0.07384
1155.78843,0.07845
1154.29865,0.08708
1152.80886,0.08062
1151.31907,0.08929
1149.82928,0.10577
1148.33949,0.12628
1146.84970,0.12592
1145.35991,0.12558
1143.87013,0.12126
1142.38034,0.14387
1140.89055,0.16494
1139.40076,0.17736
1137.91097,0.18937
1136.42118,0.17051
1134.93140,0.18723
1133.44161,0.20398
1131.95182,0.19941
1130.46203,0.21309
1128.97224,0.24503
1127.48245,0.23675
1125.99266,0.23673
1124.50288,0.23028
1123.01309,0.23686
1121.52330,0.24347
1120.03351,0.23132
1118.54372,0.23875
1117.05393,0.21909
1115.56415,0.22945
1114.07436,0.24029
1112.58457,0.22993
1111.09478,0.21959
1109.60499,0.23361
1108.11520,0.21409
1106.62542,0.20016
1105.13563,0.20403
1103.64584,0.21414
1102.15605,0.21339
1100.66626,0.21089
1099.17647,0.20841
1097.68668,0.19573
1096.19690,0.20197
1094.70711,0.18801
1093.21732,0.19207
1091.72753,0.18060
1090.23774,0.18516
1088.74795,0.18974
1087.25817,0.18034
1085.76838,0.17497
1084.27859,0.19473
1082.78880,0.20297
1081.29901,0.20367
1079.80922,0.18328
1078.31943,0.18703
1076.82965,0.19080
1075.33986,0.20849
1073.85007,0.20620
1072.36028,0.21794
1070.87049,0.24014
1069.38070,0.26771
1067.89092,0.29241
1066.40113,0.31713
1064.91134,0.39278
1063.42155,0.46623
1061.93176,0.56438
1060.44197,0.63765
1058.95219,0.75785
1057.46240,0.80728
1055.97261,0.85674
1054.48282,0.94211
1052.99303,1.07419
1051.50324,1.06870
1050.01345,1.05013
1048.52367,1.04092
1047.03388,1.02428
1045.54409,1.00767
1044.05430,0.96007
1042.56451,0.87383
1041.07472,0.78717
1039.58494,0.74231
1038.09515,0.63036
1036.60536,0.59767
1035.11557,0.56500
1033.62578,0.51668
1032.13599,0.42572
1030.64620,0.37990
1029.15642,0.32143
1027.66663,0.30300
1026.17684,0.28459
1024.68705,0.23487
1023.19726,0.22540
1021.70747,0.19639
1020.21769,0.16274
1018.72790,0.13512
1017.23811,0.14064
1015.74832,0.14618
1014.25853,0.12152
1012.76874,0.09799
1011.27896,0.11094
1009.78917,0.09325
1008.29938,0.08157
1006.80959,0.06581
1005.31980,0.05008
1003.83001,0.03336
1002.34022,0.03157
1000.85044,0.04313
999.36065,0.06672
997.87086,0.07022
996.38107,0.07374
994.89128,0.08740
993.40149,0.11887
991.91171,0.13324
990.42192,0.13164
988.93213,0.14784
987.44234,0.15029
985.95255,0.15276
984.46276,0.16659
982.97297,0.14977
981.48319,0.14253
979.99340,0.12976
978.50361,0.11024
977.01382,0.09074
975.52403,0.08715
974.03424,0.06226
972.54446,0.05383
971.05467,0.04054
969.56488,0.02794
968.07509,0.02314
966.58530,0.01837
965.09551,0.00473
963.60573,0.01739
962.11594,0.01517
960.62615,0.03610
959.13636,0.03116
957.64657,0.02624
956.15678,0.02323
954.66699,0.03514
953.17721,0.04952
951.68742,0.05726
950.19763,0.05835
948.70784,0.05947
947.21805,0.05994
945.72826,0.06622
944.23848,0.08608
942.74869,0.12152
941.25890,0.13987
939.76911,0.14624
938.27932,0.15264
936.78953,0.16751
935.29974,0.19463
933.80996,0.18843
932.32017,0.21337
930.83038,0.21411
929.34059,0.21487
927.85080,0.22878
926.36101,0.26271
924.87123,0.29310
923.38144,0.34531
921.89165,0.37820
920.40186,0.41111
918.91207,0.51807
917.42228,0.65083
915.93250,0.79273
914.44271,0.97088
912.95292,1.09482
911.46313,1.21879
909.97334,1.42591
908.48355,1.64861
906.99376,1.83711
905.50398,1.94317
904.01419,1.97157
902.52440,2.00000
901.03461,1.97877
899.54482,1.93268
898.05503,1.78636
896.56525,1.63118
895.07546,1.52126
893.58567,1.41136
892.09588,1.15245
890.60609,0.90913
889.11630,0.68472
887.62651,0.50457
886.13673,0.43647
884.64694,0.36839
883.15715,0.23987
881.66736,0.19073
880.17757,0.14740
878.68778,0.12842
877.19800,0.10947
875.70821,0.08888
874.21842,0.06676
872.72863,0.04755
871.23884,0.03214
869.74905,0.03254
868.25927,0.03296
866.76948,0.01762
865.27969,0.03765
863.78990,0.04704
862.30011,0.04644
860.81032,0.05587
859.32053,0.06533
857.83075,0.07615
856.34096,0.11477
854.85117,0.12163
853.36138,0.13741
851.87159,0.13965
850.38180,0.14192
848.89202,0.16155
847.40223,0.18787
845.91244,0.21577
844.42265,0.22324
842.93286,0.23075
841.44307,0.25427
839.95329,0.26471
838.46350,0.28029
836.97371,0.27810
835.48392,0.27606
833.99413,0.27403
832.50434,0.28926
831.01455,0.25717
829.52477,0.25644
828.03498,0.23529
826.54519,0.22083
825.05540,0.20639
823.56561,0.19865
822.07582,0.17870
820.58604,0.14411
819.09625,0.13877
817.60646,0.13346
816.11667,0.14095
814.62688,0.12513
813.13709,0.14823
811.64730,0.14156
810.15752,0.13837
808.66773,0.13520
807.17794,0.15729
805.68815,0.18184
804.19836,0.16752
802.70857,0.16189
801.21879,0.15629
799.72900,0.15226
798.23921,0.14026
796.74942,0.12495
795.25963,0.12734
793.76984,0.12975
792.28006,0.14940
790.79027,0.18420
789.30048,0.18479
787.81069,0.21830
786.32090,0.23950
784.83111,0.26072
783.34132,0.27253
781.85154,0.32880
780.36175,0.37666
778.87196,0.39743
777.38217,0.41821
775.89238,0.42947
774.40259,0.44431
772.91281,0.41093
771.42302,0.40704
769.93323,0.40316
768.44344,0.34653
766.95365,0.30592
765.46386,0.26555
763.97407,0.19498
762.48429,0.18623
760.99450,0.17750
759.50471,0.15724
758.01492,0.13078
756.52513,0.11990
755.03534,0.11238
753.54556,0.10488
752.05577,0.07807
750.56598,0.08551
749.07619,0.06542
747.58640,0.06013
746.09661,0.05487
744.60683,0.04307
743.11704,0.04197
741.62725,0.02310
740.13746,0.02749
738.64767,0.03191
737.15788,0.01623
735.66809,0.00702
734.17831,0.00473
732.68852,0.00922
731.19873,0.01373
729.70894,0.00782
728.21915,0.00949
726.72936,0.00540
725.23958,0.00748
723.74979,0.01359
722.26000,0.01972
720.77021,0.01454
719.28042,0.02627
717.79063,0.02158
716.30084,0.01248
714.81106,0.00339
713.32127,0.00687
711.83148,0.01416
710.34169,0.00569
708.85190,0.01658
707.36211,0.02749
705.87233,0.03065
704.38254,0.03894
702.89275,0.04215
701.40296,0.04627
699.91317,0.05041
698.42338,0.05814
696.93360,0.06789
695.44381,0.09300
693.95402,0.10624
692.46423,0.11951
690.97444,0.10424
689.48465,0.12567
687.99486,0.16112
686.50508,0.17215
685.01529,0.18321
683.52550,0.20629
682.03571,0.23962
680.54592,0.26541
679.05613,0.26712
677.56635,0.26885
676.07656,0.28027
674.58677,0.24637
673.09698,0.22672
671.60719,0.22277
670.11740,0.21884
668.62761,0.17015
667.13783,0.15060
665.64804,0.14029
664.15825,0.13002
662.66846,0.11409
661.17867,0.07197
659.68888,0.05965
658.19910,0.05458
656.70931,0.04954
655.21952,0.04085
653.72973,0.03996
652.23994,0.05155
650.75015,0.04971
649.26037,0.04790
647.77058,0.04200
646.28079,0.05435
644.79100,0.04383
643.30121,0.02889
641.81142,0.01397
640.32163,0.01441
638.83185,0.02377
637.34206,0.02493
635.85227,0.01722
634.36248,0.00954
632.87269,0.01318
631.38290,0.00617
629.89312,0.00929
628.40333,0.00700
626.91354,0.00473
625.42375,0.01281
623.93396,0.01135
622.44417,0.01492
620.95438,0.01852
619.46460,0.03980
617.97481,0.05289
616.48502,0.07734
614.99523,0.08559
613.50544,0.09386
612.01565,0.11527
610.52587,0.13692
609.03608,0.18727
607.54629,0.19686
606.05650,0.20648
604.56671,0.24090
603.07692,0.29779
601.58714,0.34127
600.09735,0.38476
598.60756,0.43595
597.11777,0.43204
595.62798,0.44305
594.13819,0.42085
592.64840,0.39867
591.15862,0.39375
589.66883,0.31350
588.17904,0.26839
586.68925,0.23387
585.19946,0.19937
583.70967,0.14344
582.21989,0.12177
580.73010,0.10257
579.24031,0.08339
577.75052,0.06779
576.26073,0.04866
574.77094,0.05534
573.28115,0.04859
571.79137,0.04187
570.30158,0.04439
568.81179,0.05361
567.32200,0.05874
565.83221,0.06390
564.34242,0.10097
562.85264,0.11962
561.36285,0.14586
559.87306,0.15833
558.38327,0.17083
556.89348,0.16402
555.40369,0.16278
553.91391,0.16613
552.42412,0.16950
550.93433,0.19079
549.44454,0.19855
547.95475,0.22011
546.46496,0.22513
544.97517,0.23018
543.48539,0.24292
541.99560,0.25969
540.50581,0.27992
539.01602,0.30018
537.52623,0.33614
536.03644,0.38078
534.54666,0.40367
533.05687,0.42358
531.56708,0.44352
530.07729,0.47804
528.58750,0.54459
527.09771,0.57104
525.60792,0.59752
524.11814,0.63080
522.62835,0.66544
521.13856,0.74878
519.64877,0.77902
518.15898,0.80929
516.66919,0.82380
515.17941,0.80055
513.68962,0.80522
512.19983,0.80991
510.71004,0.82296
509.22025,0.75757
507.73046,0.70555
506.24068,0.66411
504.75089,0.62269
503.26110,0.48561
501.77131,0.38922
500.28152,0.34277
498.79173,0.29633
497.30194,0.22558
495.81216,0.18042
494.32237,0.15150
492.83258,0.12261
491.34279,0.07530
489.85300,0.07158
488.36321,0.08165
486.87343,0.08120
485.38364,0.08077
483.89385,0.05692
482.40406,0.10688
480.91427,0.10797
479.42448,0.10908
477.93469,0.14133
476.44491,0.16516
474.95512,0.18079
473.46533,0.19645
471.97554,0.20835
470.48575,0.20427
468.99596,0.19933
467.50618,0.20074
466.01639,0.20218
464.52660,0.15464
463.03681,0.11134
461.54702,0.10630
460.05723,0.10128
458.56745,0.06805
457.07766,0.03885
455.58787,0.04002
454.09808,0.04121
452.60829,0.05320
451.11850,0.02366
449.62871,0.01614
448.13893,0.00864
446.64914,0.00473
445.15935,0.01891
443.66956,0.01822
442.17977,0.02145
440.68998,0.02470
439.20020,0.03542
437.71041,0.03661
436.22062,0.04249
434.73083,0.04839
433.24104,0.05009
431.75125,0.01226
430.26146,0.02857
428.77168,0.04490
427.28189,0.05604
425.79210,0.03608
424.30231,0.04416
422.81252,0.05225
421.32273,0.03303
419.83295,0.02340
418.34316,0.02746
416.85337,0.03154
415.36358,0.02953
413.87379,0.04177
412.38400,0.03882
410.89422,0.03588
409.40443,0.02641
407.91464,0.04542
406.42485,0.03934
404.93506,0.02294
403.44527,0.00657
401.95548,0.01367
400.46570,0.02258
398.97591,0.03339
397.48612,0.04423
395.99633,0.04099
394.50654,0.03687
393.01675,0.03145
391.52697,0.02605
390.03718,0.02512
388.54739,0.01377
387.05760,0.01513
385.56781,0.01652
384.07802,0.03070
382.58824,0.01024
381.09845,0.00747
379.60866,0.00473
378.11887,0.01912
376.62908,0.04443
375.13929,0.02342
373.64950,0.00243
372.15972,0.01981
370.66993,0.02054
369.18014,0.02502
367.69035,0.02951
366.20056,0.03771
364.71077,0.04592
363.22099,0.03238
361.73120,0.01886
360.24141,0.06004
358.75162,0.05368
357.26183,0.05280
355.77204,0.05193
354.28225,0.05076
352.79247,0.05828
351.30268,0.06349
349.81289,0.06872
348.32310,0.07120
346.83331,0.06415
345.34352,0.04545
343.85374,0.02678
342.36395,0.05625
340.87416,0.02440
339.38437,0.03036
337.89458,0.03634
336.40479,0.04257
334.91501,0.02882
333.42522,0.03365
331.93543,0.03851
330.44564,0.04372
328.95585,0.00473
327.46606,0.01618
325.97627,0.02766
324.48649,0.03717
322.99670,0.04604
321.50691,0.04916
320.01712,0.05230
318.52733,0.05880
317.03754,0.09643
315.54776,0.08387
314.05797,0.07132
312.56818,0.08236
311.07839,0.08498
309.58860,0.08451
308.09881,0.08406
306.60902,0.05319
305.11924,0.03368
303.62945,0.02030
302.13966,0.00695
300.64987,0.00894
299.16008,0.00473
