1778.52000,0.00088
1777.03021,0.02815
1775.54042,0.02574
1774.05063,0.01960
1772.56085,0.02070
1771.07106,0.02038
1769.58127,0.02412
1768.09148,0.01750
1766.60169,0.00975
1765.11190,0.00520
1763.62212,0.01509
1762.13233,0.02011
1760.64254,0.00582
1759.15275,0.01752
1757.66296,0.01511
1756.17317,0.01272
1754.68339,0.01180
1753.19360,0.01033
1751.70381,0.00600
1750.21402,0.00140
1748.72423,-0.00000
1747.23444,0.00007
1745.74465,0.00968
1744.25487,0.01239
1742.76508,0.01512
1741.27529,0.01125
1739.78550,0.00451
1738.29571,0.00501
1736.80592,0.00582
1735.31614,0.01160
1733.82635,0.00556
1732.33656,0.01571
1730.84677,0.00915
1729.35698,0.01041
1727.86719,0.00764
1726.37740,0.00520
1724.88762,0.00998
1723.39783,0.00874
1721.90804,0.00348
1720.41825,0.01711
1718.92846,0.01057
1717.43867,0.01675
1715.94889,0.00854
1714.45910,0.00582
1712.96931,0.01360
1711.47952,0.01592
1709.98973,0.01047
1708.49994,0.00563
1707.01016,0.00571
1705.52037,0.00582
1704.03058,0.01644
1702.54079,0.01640
1701.05100,0.02100
1699.56121,0.02275
1698.07142,0.01730
1696.58164,0.02659
1695.09185,0.02495
1693.60206,0.03833
1692.11227,0.02836
1690.62248,0.02708
1689.13269,0.03476
1687.64291,0.03612
1686.15312,0.05308
1684.66333,0.03488
1683.17354,0.04323
1681.68375,0.04353
1680.19396,0.05598
1678.70417,0.06210
1677.21439,0.05065
1675.72460,0.06980
1674.23481,0.07455
1672.74502,0.07240
1671.25523,0.07720
1669.76544,0.07885
1668.27566,0.08947
1666.78587,0.08771
1665.29608,0.09289
1663.80629,0.10214
1662.31650,0.09785
1660.82671,0.10888
1659.33693,0.10897
1657.84714,0.11024
1656.35735,0.09480
1654.86756,0.08718
1653.37777,0.08909
1651.88798,0.08931
1650.39819,0.09358
1648.90841,0.08317
1647.41862,0.08028
1645.92883,0.08333
1644.43904,0.08640
1642.94925,0.09224
1641.45946,0.11137
1639.96968,0.09937
1638.47989,0.10297
1636.99010,0.09131
1635.50031,0.08948
1634.01052,0.07267
1632.52073,0.07003
1631.03094,0.08039
1629.54116,0.08183
1628.05137,0.09021
1626.56158,0.09343
1625.07179,0.11802
1623.58200,0.10225
1622.09221,0.10295
1620.60243,0.11174
1619.11264,0.10643
1617.62285,0.10057
1616.13306,0.08982
1614.64327,0.10968
1613.15348,0.11138
1611.66370,0.09408
1610.17391,0.09583
1608.68412,0.09011
1607.19433,0.09769
1605.70454,0.10096
1604.21475,0.09545
1602.72496,0.08997
1601.23518,0.09995
1599.74539,0.09322
1598.25560,0.09950
1596.76581,0.09253
1595.27602,0.10607
1593.78623,0.08242
1592.29645,0.07725
1590.80666,0.09749
1589.31687,0.08632
1587.82708,0.08931
1586.33729,0.07905
1584.84750,0.08669
1583.35771,0.09206
1581.86793,0.07812
1580.37814,0.08671
1578.88835,0.07888
1577.39856,0.06386
1575.90877,0.07079
1574.41898,0.05957
1572.92920,0.05212
1571.43941,0.07037
1569.94962,0.06355
1568.45983,0.05675
1566.97004,0.05344
1565.48025,0.06054
1563.99047,0.05440
1562.50068,0.05029
1561.01089,0.03352
1559.52110,0.04014
1558.03131,0.03005
1556.54152,0.04105
1555.05173,0.03764
1553.56195,0.03455
1552.07216,0.03696
1550.58237,0.04055
1549.09258,0.02628
1547.60279,0.02300
1546.11300,0.02320
1544.62322,0.01679
1543.13343,0.03089
1541.64364,0.01732
1540.15385,0.01156
1538.66406,0.00582
1537.17427,0.01237
1535.68448,0.00798
1534.19470,0.02554
1532.70491,0.00764
1531.21512,0.01486
1529.72533,0.01172
1528.23554,0.01553
1526.74575,0.02974
1525.25597,0.03533
1523.76618,0.02363
1522.27639,0.04138
1520.78660,0.03002
1519.29681,0.03513
1517.80702,0.04546
1516.31724,0.03388
1514.82745,0.05060
1513.33766,0.04830
1511.84787,0.04603
1510.35808,0.05099
1508.86829,0.03925
1507.37850,0.05205
1505.88872,0.04094
1504.39893,0.04888
1502.90914,0.05368
1501.41935,0.07408
1499.92956,0.07546
1498.43977,0.07052
1496.94999,0.08234
1495.46020,0.08005
1493.97041,0.07893
1492.48062,0.08419
1490.99083,0.09062
1489.50104,0.10515
1488.01125,0.11538
1486.52147,0.12564
1485.03168,0.14226
1483.54189,0.16555
1482.05210,0.18165
1480.56231,0.20757
1479.07252,0.22055
1477.58274,0.24710
1476.09295,0.23993
1474.60316,0.25355
1473.11337,0.25537
1471.62358,0.26905
1470.13379,0.27582
1468.64401,0.28550
1467.15422,0.30242
1465.66443,0.32195
1464.17464,0.34151
1462.68485,0.34523
1461.19506,0.39773
1459.70527,0.43121
1458.21549,0.49327
1456.72570,0.57843
1455.23591,0.63881
1453.74612,0.70065
1452.25633,0.73368
1450.76654,0.72721
1449.27676,0.72105
1447.78697,0.74174
1446.29718,0.70679
1444.80739,0.69407
1443.31760,0.68138
1441.82781,0.65371
1440.33802,0.56779
1438.84824,0.56411
1437.35845,0.54229
1435.86866,0.51212
1434.37887,0.55582
1432.88908,0.55425
1431.39929,0.59079
1429.90951,0.65648
1428.41972,0.72364
1426.92993,0.79573
1425.44014,0.83698
1423.95035,0.88604
1422.46056,0.93513
1420.97078,0.98539
1419.48099,0.97972
1417.99120,0.92157
1416.50141,0.94133
1415.01162,0.91093
1413.52183,0.86035
1412.03204,0.77836
1410.54226,0.73418
1409.05247,0.65080
1407.56268,0.63147
1406.07289,0.60612
1404.58310,0.56593
1403.09331,0.52577
1401.60353,0.48577
1400.11374,0.41176
1398.62395,0.34989
1397.13416,0.32959
1395.64437,0.25940
1394.15458,0.22674
1392.66479,0.16237
1391.17501,0.15370
1389.68522,0.13899
1388.19543,0.10873
1386.70564,0.10201
1385.21585,0.09531
1383.72606,0.06310
1382.23628,0.03352
1380.74649,0.03511
1379.25670,0.02230
1377.76691,0.00981
1376.27712,0.00801
1374.78733,0.01749
1373.29755,0.02728
1371.80776,0.02412
1370.31797,0.01896
1368.82818,0.01238
1367.33839,0.00582
1365.84860,0.02512
1364.35881,0.03492
1362.86903,0.03408
1361.37924,0.05114
1359.88945,0.09736
1358.39966,0.09918
1356.90987,0.13218
1355.42008,0.21194
1353.93030,0.28162
1352.44051,0.29608
1350.95072,0.31058
1349.46093,0.36302
1347.97114,0.41751
1346.48135,0.50434
1344.99156,0.59724
1343.50178,0.68728
1342.01199,0.71677
1340.52220,0.77081
1339.03241,0.81766
1337.54262,0.84665
1336.05283,0.87407
1334.56305,0.90152
1333.07326,0.91703
1331.58347,0.93198
1330.09368,0.91724
1328.60389,0.91147
1327.11410,0.91813
1325.62432,0.85732
1324.13453,0.84499
1322.64474,0.78220
1321.15495,0.76905
1319.66516,0.74353
1318.17537,0.71803
1316.68558,0.68476
1315.19580,0.62988
1313.70601,0.55311
1312.21622,0.52886
1310.72643,0.48415
1309.23664,0.46947
1307.74685,0.43115
1306.25707,0.42286
1304.76728,0.39859
1303.27749,0.37434
1301.78770,0.32516
1300.29791,0.28928
1298.80812,0.23496
1297.31834,0.18614
1295.82855,0.14745
1294.33876,0.14223
1292.84897,0.10214
1291.35918,0.10939
1289.86939,0.10915
1288.37960,0.10894
1286.88982,0.09289
1285.40003,0.07484
1283.91024,0.07067
1282.42045,0.05671
1280.93066,0.06354
1279.44087,0.05453
1277.95109,0.04901
1276.46130,0.06428
1274.97151,0.05391
1273.48172,0.04355
1271.99193,0.04880
1270.50214,0.06071
1269.01235,0.04408
1267.52257,0.02806
1266.03278,0.03052
1264.54299,0.03618
1263.05320,0.02542
1261.56341,0.02882
1260.07362,0.03224
1258.58384,0.03338
1257.09405,0.01464
1255.60426,0.01929
1254.11447,0.01906
1252.62468,0.01799
1251.13489,0.01088
1249.64511,0.00582
1248.15532,0.03243
1246.66553,0.03325
1245.17574,0.03409
1243.68595,0.03250
1242.19616,0.01651
1240.70637,0.02161
1239.21659,0.02442
1237.72680,0.01832
1236.23701,0.04021
1234.74722,0.03185
1233.25743,0.02798
1231.76764,0.02414
1230.27786,0.02623
1228.78807,0.03642
1227.29828,0.03193
1225.80849,0.00582
1224.31870,0.01681
1222.82891,0.01312
1221.33912,0.01233
1219.84934,0.02166
1218.35955,0.03102
1216.86976,0.03579
1215.37997,0.05702
1213.89018,0.05808
1212.40039,0.07648
1210.91061,0.07557
1209.42082,0.06431
1207.93103,0.06864
1206.44124,0.07300
1204.95145,0.06989
1203.46166,0.05843
1201.97188,0.03027
1200.48209,0.05001
1198.99230,0.06026
1197.50251,0.06072
1196.01272,0.05227
1194.52293,0.04024
1193.03314,0.02823
1191.54336,0.02274
1190.05357,0.01554
1188.56378,0.01413
1187.07399,0.01967
1185.58420,0.01514
1184.09441,0.01755
1182.60463,0.01494
1181.11484,0.01236
1179.62505,0.03388
1178.13526,0.02341
1176.64547,0.02682
1175.15568,0.03111
1173.66589,0.01927
1172.17611,0.02303
1170.68632,0.01442
1169.19653,0.00582
1167.70674,0.01453
1166.21695,0.01835
1164.72716,0.02653
1163.23738,0.02376
1161.74759,0.03920
1160.25780,0.05293
1158.76801,0.06336
1157.27822,0.07382
1155.78843,0.08531
1154.29865,0.09798
1152.80886,0.07318
1151.31907,0.10667
1149.82928,0.07701
1148.33949,0.11718
1146.84970,0.11570
1145.35991,0.11424
1143.87013,0.12044
1142.38034,0.14052
1140.89055,0.16350
1139.40076,0.18161
1137.91097,0.18041
1136.42118,0.20722
1134.93140,0.20752
1133.44161,0.20783
1131.95182,0.21193
1130.46203,0.22614
1128.97224,0.26490
1127.48245,0.24685
1125.99266,0.24239
1124.50288,0.22180
1123.01309,0.23454
1121.52330,0.24731
1120.03351,0.25276
1118.54372,0.23745
1117.05393,0.22910
1115.56415,0.23028
1114.07436,0.23524
1112.58457,0.22984
1111.09478,0.22447
1109.60499,0.23700
1108.11520,0.21293
1106.62542,0.22089
1105.13563,0.20552
1103.64584,0.21959
1102.15605,0.23657
1100.66626,0.23281
1099.17647,0.22907
1097.68668,0.21670
1096.19690,0.17407
1094.70711,0.20848
1093.21732,0.17571
1091.72753,0.19949
1090.23774,0.18782
1088.74795,0.17618
1087.25817,0.17032
1085.76838,0.18296
1084.27859,0.17398
1082.78880,0.17599
1081.29901,0.15610
1079.80922,0.15585
1078.31943,0.17019
1076.82965,0.18455
1075.33986,0.17889
1073.85007,0.17384
1072.36028,0.15525
1070.87049,0.17331
1069.38070,0.21419
1067.89092,0.23851
1066.40113,0.26285
1064.91134,0.30640
1063.42155,0.38487
1061.93176,0.44434
1060.44197,0.50786
1058.95219,0.57198
1057.46240,0.60628
1055.97261,0.64060
1054.48282,0.74633
1052.99303,0.82267
1051.50324,0.84019
1050.01345,0.83523
1048.52367,0.79164
1047.03388,0.79495
1045.54409,0.79829
1044.05430,0.78074
1042.56451,0.74706
1041.07472,0.68830
1039.58494,0.62986
1038.09515,0.56741
1036.60536,0.53267
1035.11557,0.49796
1033.62578,0.47250
1032.13599,0.41418
1030.64620,0.35040
1029.15642,0.29963
1027.66663,0.27903
1026.17684,0.25845
1024.68705,0.21871
1023.19726,0.18419
1021.70747,0.16498
1020.21769,0.14840
1018.72790,0.14741
1017.23811,0.13851
1015.74832,0.12964
1014.25853,0.13911
1012.76874,0.11688
1011.27896,0.13476
1009.78917,0.10565
1008.29938,0.10656
1006.80959,0.08313
1005.31980,0.05971
1003.83001,0.02666
1002.34022,0.01786
1000.85044,0.03448
999.36065,0.02025
997.87086,0.02868
996.38107,0.03715
994.89128,0.05068
993.40149,0.06222
991.91171,0.05590
990.42192,0.07441
988.93213,0.09122
987.44234,0.09896
985.95255,0.10673
984.46276,0.09880
982.97297,0.09724
981.48319,0.08561
979.99340,0.07400
978.50361,0.06126
977.01382,0.04855
975.52403,0.04423
974.03424,0.04541
972.54446,0.03508
971.05467,0.03833
969.56488,0.02978
968.07509,0.01779
966.58530,0.00582
965.09551,0.01111
963.60573,0.00806
962.11594,0.03071
960.62615,0.03780
959.13636,0.03900
957.64657,0.04023
956.15678,0.05057
954.66699,0.04911
953.17721,0.04882
951.68742,0.05837
950.19763,0.06073
948.70784,0.06311
947.21805,0.06523
945.72826,0.08035
944.23848,0.10243
942.74869,0.13635
941.25890,0.14693
939.76911,0.15580
938.27932,0.16470
936.78953,0.18314
935.29974,0.20017
933.80996,0.19443
932.32017,0.19391
930.83038,0.20610
929.34059,0.21832
927.85080,0.23777
926.36101,0.24657
924.87123,0.28569
923.38144,0.32541
921.89165,0.34755
920.40186,0.36972
918.91207,0.47586
917.42228,0.60827
915.93250,0.71733
914.44271,0.92363
912.95292,1.03433
911.46313,1.14506
909.97334,1.36528
908.48355,1.60196
906.99376,1.79165
905.50398,1.89858
904.01419,1.94034
902.52440,1.98213
901.03461,2.00000
899.54482,1.95876
898.05503,1.77188
896.56525,1.67040
895.07546,1.55482
893.58567,1.43926
892.09588,1.17517
890.60609,0.92351
889.11630,0.70216
887.62651,0.52179
886.13673,0.44255
884.64694,0.36333
883.15715,0.25083
881.66736,0.18334
880.17757,0.12800
878.68778,0.11162
877.19800,0.09526
875.70821,0.07085
874.21842,0.05166
872.72863,0.02297
871.23884,0.01595
869.74905,0.01586
868.25927,0.01581
866.76948,0.01433
865.27969,0.04605
863.78990,0.04232
862.30011,0.02649
860.81032,0.04242
859.32053,0.05837
857.83075,0.05647
856.34096,0.07593
854.85117,0.09715
853.36138,0.07310
851.87159,0.08500
850.38180,0.09691
848.89202,0.10553
847.40223,0.12947
845.91244,0.16929
844.42265,0.17280
842.93286,0.17633
841.44307,0.16574
839.95329,0.17740
838.46350,0.22398
836.97371,0.21404
835.48392,0.21135
833.99413,0.20867
832.50434,0.21901
831.01455,0.21494
829.52477,0.19792
828.03498,0.18005
826.54519,0.16495
825.05540,0.14988
823.56561,0.12517
822.07582,0.11115
820.58604,0.09600
819.09625,0.08867
817.60646,0.08136
816.11667,0.08504
814.62688,0.09191
813.13709,0.09823
811.64730,0.08525
810.15752,0.08715
808.66773,0.08907
807.17794,0.09923
805.68815,0.11116
804.19836,0.10753
802.70857,0.09613
801.21879,0.08476
799.72900,0.09621
798.23921,0.08604
796.74942,0.08253
795.25963,0.08308
793.76984,0.08366
792.28006,0.10417
790.79027,0.12008
789.30048,0.12708
787.81069,0.15689
786.32090,0.17359
784.83111,0.19033
783.34132,0.21127
781.85154,0.24954
780.36175,0.26447
778.87196,0.28144
777.38217,0.29844
775.89238,0.33825
774.40259,0.33193
772.91281,0.33544
771.42302,0.31576
769.93323,0.29610
768.44344,0.27719
766.95365,0.26119
765.46386,0.23482
763.97407,0.17733
762.48429,0.16342
760.99450,0.14953
759.50471,0.12499
758.01492,0.08606
756.52513,0.08666
755.03534,0.08398
753.54556,0.08132
752.05577,0.08315
750.56598,0.05501
749.07619,0.04622
747.58640,0.03933
746.09661,0.03246
744.60683,0.02663
743.11704,0.02659
741.62725,0.01503
740.13746,0.01375
738.64767,0.01248
737.15788,0.00677
735.66809,0.01513
734.17831,0.01025
732.68852,0.00944
731.19873,0.00865
729.70894,0.01336
728.21915,0.00886
726.72936,0.02401
725.23958,0.00803
723.74979,0.01163
722.26000,0.01526
720.77021,0.01964
719.28042,0.02288
717.79063,0.00827
716.30084,0.00810
714.81106,0.00796
713.32127,0.00582
711.83148,0.01770
710.34169,0.03076
708.85190,0.03043
707.36211,0.03012
705.87233,0.04758
704.38254,0.03766
702.89275,0.06901
701.40296,0.06981
699.91317,0.07063
698.42338,0.07840
696.93360,0.08187
695.44381,0.11363
693.95402,0.11282
692.46423,0.11203
690.97444,0.12252
689.48465,0.14544
687.99486,0.17357
686.50508,0.18860
685.01529,0.20366
683.52550,0.21081
682.03571,0.26586
680.54592,0.29815
679.05613,0.29888
677.56635,0.29964
676.07656,0.27402
674.58677,0.28074
673.09698,0.26613
671.60719,0.24737
670.11740,0.22863
668.62761,0.18872
667.13783,0.18344
665.64804,0.17299
664.15825,0.16257
662.66846,0.10256
661.17867,0.07633
659.68888,0.06021
658.19910,0.05234
656.70931,0.04449
655.21952,0.04575
653.72973,0.04329
652.23994,0.05383
650.75015,0.04968
649.26037,0.04556
647.77058,0.05474
646.28079,0.03393
644.79100,0.05325
643.30121,0.04072
641.81142,0.02821
640.32163,0.02279
638.83185,0.02836
637.34206,0.01174
635.85227,0.01633
634.36248,0.02096
632.87269,0.00844
631.38290,0.01110
629.89312,0.01984
628.40333,0.02038
626.91354,0.02095
625.42375,0.00582
623.93396,0.01708
622.44417,0.02793
620.95438,0.03880
619.46460,0.07234
617.97481,0.08052
616.48502,0.08469
614.99523,0.08426
613.50544,0.08386
612.01565,0.11493
610.52587,0.13736
609.03608,0.22905
607.54629,0.23581
606.05650,0.24260
604.56671,0.24235
603.07692,0.30990
601.58714,0.35484
600.09735,0.39980
598.60756,0.44579
597.11777,0.47104
595.62798,0.44728
594.13819,0.44013
592.64840,0.43300
591.15862,0.40469
589.66883,0.33141
588.17904,0.27864
586.68925,0.24853
585.19946,0.21845
583.70967,0.17844
582.21989,0.15114
580.73010,0.13296
579.24031,0.11480
577.75052,0.07921
576.26073,0.06817
574.77094,0.07446
573.28115,0.06519
571.79137,0.05595
570.30158,0.04991
568.81179,0.06408
567.32200,0.07467
565.83221,0.08529
564.34242,0.09376
562.85264,0.12505
561.36285,0.16184
559.87306,0.16578
558.38327,0.16974
556.89348,0.16939
555.40369,0.15234
553.91391,0.16055
552.42412,0.16879
550.93433,0.17287
549.44454,0.19745
547.95475,0.20850
546.46496,0.21597
544.97517,0.22347
543.48539,0.23747
541.99560,0.23535
540.50581,0.26124
539.01602,0.28714
537.52623,0.33759
536.03644,0.35634
534.54666,0.42328
533.05687,0.45000
531.56708,0.47675
530.07729,0.50800
528.58750,0.58570
527.09771,0.62118
525.60792,0.65668
524.11814,0.71456
522.62835,0.76554
521.13856,0.81135
519.64877,0.84522
518.15898,0.87911
516.66919,0.92355
515.17941,0.88206
513.68962,0.87636
512.19983,0.87069
510.71004,0.83475
509.22025,0.80345
507.73046,0.72429
506.24068,0.68006
504.75089,0.63586
503.26110,0.47889
501.77131,0.38108
500.28152,0.34935
498.79173,0.31765
497.30194,0.24875
495.81216,0.16777
494.32237,0.15460
492.83258,0.14145
491.34279,0.10439
489.85300,0.07629
488.36321,0.08283
486.87343,0.08117
485.38364,0.07954
483.89385,0.06308
482.40406,0.08558
480.91427,0.10147
479.42448,0.11738
477.93469,0.15150
476.44491,0.16169
474.95512,0.16138
473.46533,0.16110
471.97554,0.14627
470.48575,0.17214
468.99596,0.14524
467.50618,0.14808
466.01639,0.15095
464.52660,0.10394
463.03681,0.09762
461.54702,0.08339
460.05723,0.06919
458.56745,0.06266
457.07766,0.04981
455.58787,0.03553
454.09808,0.02129
452.60829,0.03302
451.11850,0.02488
449.62871,0.02224
448.13893,0.01963
446.64914,0.01214
445.15935,0.00582
443.66956,0.01819
442.17977,0.02120
440.68998,0.02424
439.20020,0.02023
437.71041,0.03413
436.22062,0.03897
434.73083,0.04384
433.24104,0.03301
431.75125,0.04066
430.26146,0.05050
428.77168,0.06036
427.28189,0.05021
425.79210,0.06200
424.30231,0.04222
422.81252,0.02247
421.32273,0.03145
419.83295,0.02949
418.34316,0.03116
416.85337,0.03286
415.36358,0.04078
413.87379,0.03286
412.38400,0.03404
410.89422,0.03526
409.40443,0.03376
407.91464,0.05564
406.42485,0.04727
404.93506,0.03315
403.44527,0.01905
401.95548,0.01017
400.46570,0.03719
398.97591,0.04851
397.48612,0.05985
395.99633,0.04512
394.50654,0.06214
393.01675,0.03995
391.52697,0.01779
390.03718,0.04271
388.54739,0.02699
387.05760,0.02888
385.56781,0.03080
384.07802,0.01688
382.58824,0.00788
381.09845,0.00684
379.60866,0.00582
378.11887,0.03571
376.62908,0.03996
375.13929,0.02663
373.64950,0.01332
372.15972,0.03206
370.66993,0.04448
369.18014,0.03341
367.69035,0.02236
366.20056,0.03810
364.71077,0.04521
363.22099,0.02797
361.73120,0.01075
360.24141,0.03207
358.75162,0.02514
357.26183,0.02141
355.77204,0.01770
354.28225,0.05469
352.79247,0.07526
351.30268,0.06629
349.81289,0.05735
348.32310,0.06732
346.83331,0.06029
345.34352,0.04392
343.85374,0.02757
342.36395,0.04428
340.87416,0.01716
339.38437,0.02136
337.89458,0.02559
336.40479,0.04412
334.91501,0.02056
333.42522,0.01318
331.93543,0.00582
330.44564,0.01919
328.95585,0.04355
327.46606,0.03735
325.97627,0.03117
324.48649,0.05993
322.99670,0.04717
321.50691,0.04986
320.01712,0.05258
318.52733,0.04596
317.03754,0.08608
315.54776,0.07589
314.05797,0.06573
312.56818,0.10131
311.07839,0.09913
309.58860,0.09452
308.09881,0.08994
306.60902,0.06331
305.11924,0.10853
303.62945,0.06652
302.13966,0.02453
300.64987,0.00582
299.16008,0.00582
