1778.52000,0.00711
1777.03021,0.00894
1775.54042,0.00698
1774.05063,0.00909
1772.56085,0.00221
1771.07106,0.00527
1769.58127,0.01353
1768.09148,0.00268
1766.60169,0.01032
1765.11190,0.02113
1763.62212,0.02363
1762.13233,0.00635
1760.64254,0.00260
1759.15275,0.00765
1757.66296,0.00755
1756.17317,0.00342
1754.68339,0.00922
1753.19360,0.00379
1751.70381,0.00131
1750.21402,0.00606
1748.72423,0.01691
1747.23444,0.00437
1745.74465,0.01437
1744.25487,0.00909
1742.76508,0.00338
1741.27529,0.00624
1739.78550,0.00216
1738.29571,0.00260
1736.80592,0.01274
1735.31614,0.00940
1733.82635,0.00991
1732.33656,0.01517
1730.84677,0.00987
1729.35698,0.01158
1727.86719,0.00250
1726.37740,0.01349
1724.88762,0.01122
1723.39783,0.01325
1721.90804,0.00990
1720.41825,0.01265
1718.92846,0.01295
1717.43867,0.01125
1715.94889,0.00260
1714.45910,0.00471
1712.96931,0.00820
1711.47952,0.00000
1709.98973,0.00722
1708.49994,0.00321
1707.01016,0.00215
1705.52037,0.00111
1704.03058,0.00933
1702.54079,0.01217
1701.05100,0.00963
1699.56121,0.00734
1698.07142,0.00260
1696.58164,0.00620
1695.09185,0.01477
1693.60206,0.00513
1692.11227,0.01669
1690.62248,0.00777
1689.13269,0.00721
1687.64291,0.00645
1686.15312,0.01675
1684.66333,0.01334
1683.17354,0.01670
1681.68375,0.01829
1680.19396,0.00775
1678.70417,0.01952
1677.21439,0.01960
1675.72460,0.01859
1674.23481,0.02908
1672.74502,0.03284
1671.25523,0.03640
1669.76544,0.04201
1668.27566,0.04134
1666.78587,0.04903
1665.29608,0.05313
1663.80629,0.05861
1662.31650,0.06457
1660.82671,0.07348
1659.33693,0.06170
1657.84714,0.05714
1656.35735,0.07243
1654.86756,0.07018
1653.37777,0.07988
1651.88798,0.07745
1650.39819,0.09576
1648.90841,0.09225
1647.41862,0.06941
1645.92883,0.07394
1644.43904,0.07850
1642.94925,0.07824
1641.45946,0.08612
1639.96968,0.08028
1638.47989,0.08054
1636.99010,0.07318
1635.50031,0.07417
1634.01052,0.07338
1632.52073,0.07464
1631.03094,0.07885
1629.54116,0.07476
1628.05137,0.08938
1626.56158,0.09750
1625.07179,0.10001
1623.58200,0.10096
1622.09221,0.09474
1620.60243,0.08674
1619.11264,0.09498
1617.62285,0.09198
1616.13306,0.09080
1614.64327,0.08042
1613.15348,0.08178
1611.66370,0.08338
1610.17391,0.09243
1608.68412,0.08958
1607.19433,0.08540
1605.70454,0.08508
1604.21475,0.08320
1602.72496,0.08134
1601.23518,0.08401
1599.74539,0.08874
1598.25560,0.07682
1596.76581,0.08384
1595.27602,0.08886
1593.78623,0.08175
1592.29645,0.07534
1590.80666,0.07863
1589.31687,0.07114
1587.82708,0.06164
1586.33729,0.06838
1584.84750,0.07515
1583.35771,0.07181
1581.86793,0.06714
1580.37814,0.06565
1578.88835,0.06959
1577.39856,0.06049
1575.90877,0.05411
1574.41898,0.06060
1572.92920,0.04257
1571.43941,0.03244
1569.94962,0.03438
1568.45983,0.03635
1566.97004,0.02629
1565.48025,0.02842
1563.99047,0.03282
1562.50068,0.02554
1561.01089,0.02662
1559.52110,0.03380
1558.03131,0.02028
1556.54152,0.01017
1555.05173,0.01067
1553.56195,0.02087
1552.07216,0.00633
1550.58237,0.00150
1549.09258,0.01177
1547.60279,0.00406
1546.11300,0.01235
1544.62322,0.00491
1543.13343,0.00335
1541.64364,0.00181
1540.15385,0.00465
1538.66406,0.00750
1537.17427,0.00386
1535.68448,0.00680
1534.19470,0.01719
1532.70491,0.00420
1531.21512,0.00856
1529.72533,0.00260
1528.23554,0.01995
1526.74575,0.01954
1525.25597,0.02186
1523.76618,0.01677
1522.27639,0.02972
1520.78660,0.02760
1519.29681,0.03069
1517.80702,0.02840
1516.31724,0.04370
1514.82745,0.03920
1513.33766,0.03496
1511.84787,0.03074
1510.35808,0.04501
1508.86829,0.04309
1507.37850,0.01777
1505.88872,0.03909
1504.39893,0.04288
1502.90914,0.04488
1501.41935,0.06470
1499.92956,0.07531
1498.43977,0.07288
1496.94999,0.04774
1495.46020,0.07823
1493.97041,0.08038
1492.48062,0.09787
1490.99083,0.09061
1489.50104,0.13359
1488.01125,0.13358
1486.52147,0.13360
1485.03168,0.15368
1483.54189,0.18482
1482.05210,0.19978
1480.56231,0.22106
1479.07252,0.21647
1477.58274,0.23645
1476.09295,0.22651
1474.60316,0.24136
1473.11337,0.24024
1471.62358,0.23758
1470.13379,0.25970
1468.64401,0.26744
1467.15422,0.29547
1465.66443,0.31339
1464.17464,0.33134
1462.68485,0.34796
1461.19506,0.41053
1459.70527,0.42900
1458.21549,0.47204
1456.72570,0.55224
1455.23591,0.61312
1453.74612,0.63010
1452.25633,0.64757
1450.76654,0.67767
1449.27676,0.71949
1447.78697,0.70055
1446.29718,0.67263
1444.80739,0.65802
1443.31760,0.64343
1441.82781,0.61063
1440.33802,0.56659
1438.84824,0.51853
1437.35845,0.50742
1435.86866,0.47741
1434.37887,0.50215
1432.88908,0.52105
1431.39929,0.58929
1429.90951,0.68727
1428.41972,0.75466
1426.92993,0.82387
1425.44014,0.84289
1423.95035,0.86341
1422.46056,0.88395
1420.97078,0.91430
1419.48099,0.92217
1417.99120,0.92713
1416.50141,0.93414
1415.01162,0.92677
1413.52183,0.88429
1412.03204,0.80762
1410.54226,0.72917
1409.05247,0.69690
1407.56268,0.65925
1406.07289,0.61442
1404.58310,0.57547
1403.09331,0.53654
1401.60353,0.46229
1400.11374,0.40720
1398.62395,0.39041
1397.13416,0.32591
1395.64437,0.27315
1394.15458,0.22198
1392.66479,0.18728
1391.17501,0.15350
1389.68522,0.12672
1388.19543,0.12654
1386.70564,0.10882
1385.21585,0.09112
1383.72606,0.06962
1382.23628,0.04387
1380.74649,0.04381
1379.25670,0.01990
1377.76691,0.02349
1376.27712,0.01765
1374.78733,0.00260
1373.29755,0.01728
1371.80776,0.01015
1370.31797,0.00372
1368.82818,0.00527
1367.33839,0.00685
1365.84860,0.01453
1364.35881,0.02696
1362.86903,0.04865
1361.37924,0.05842
1359.88945,0.08489
1358.39966,0.09651
1356.90987,0.14171
1355.42008,0.19189
1353.93030,0.21958
1352.44051,0.25416
1350.95072,0.28876
1349.46093,0.34444
1347.97114,0.43099
1346.48135,0.51913
1344.99156,0.57939
1343.50178,0.62683
1342.01199,0.69772
1340.52220,0.74183
1339.03241,0.79385
1337.54262,0.84072
1336.05283,0.87072
1334.56305,0.90075
1333.07326,0.91977
1331.58347,0.97979
1330.09368,0.93672
1328.60389,0.94297
1327.11410,0.89724
1325.62432,0.84276
1324.13453,0.81576
1322.64474,0.81176
1321.15495,0.75915
1319.66516,0.73414
1318.17537,0.70916
1316.68558,0.66518
1315.19580,0.62302
1313.70601,0.57345
1312.21622,0.54868
1310.72643,0.48926
1309.23664,0.45485
1307.74685,0.42970
1306.25707,0.41854
1304.76728,0.40030
1303.27749,0.38209
1301.78770,0.32124
1300.29791,0.27752
1298.80812,0.22595
1297.31834,0.20930
1295.82855,0.17736
1294.33876,0.14342
1292.84897,0.11108
1291.35918,0.10016
1289.86939,0.10029
1288.37960,0.10045
1286.88982,0.08014
1285.40003,0.07900
1283.91024,0.06144
1282.42045,0.05786
1280.93066,0.04373
1279.44087,0.05146
1277.95109,0.03580
1276.46130,0.04651
1274.97151,0.04486
1273.48172,0.04323
1271.99193,0.04591
1270.50214,0.04343
1269.01235,0.02139
1267.52257,0.01963
1266.03278,0.03163
1264.54299,0.03038
1263.05320,0.02149
1261.56341,0.01488
1260.07362,0.00829
1258.58384,0.00848
1257.09405,0.01590
1255.60426,0.00646
1254.11447,0.01033
1252.62468,0.00746
1251.13489,0.00260
1249.64511,0.02571
1248.15532,0.02452
1246.66553,0.02089
1245.17574,0.01728
1243.68595,0.01572
1242.19616,0.00360
1240.70637,0.00299
1239.21659,0.01006
1237.72680,0.01850
1236.23701,0.02539
1234.74722,0.02466
1233.25743,0.02191
1231.76764,0.01920
1230.27786,0.02934
1228.78807,0.03162
1227.29828,0.02605
1225.80849,0.02253
1224.31870,0.00260
1222.82891,0.01226
1221.33912,0.03432
1219.84934,0.03581
1218.35955,0.03733
1216.86976,0.04686
1215.37997,0.06475
1213.89018,0.07410
1212.40039,0.08911
1210.91061,0.06834
1209.42082,0.08677
1207.93103,0.09048
1206.44124,0.09422
1204.95145,0.08773
1203.46166,0.07699
1201.97188,0.06875
1200.48209,0.07630
1198.99230,0.06293
1197.50251,0.06647
1196.01272,0.06914
1194.52293,0.05516
1193.03314,0.04122
1191.54336,0.02346
1190.05357,0.03118
1188.56378,0.02699
1187.07399,0.02687
1185.58420,0.01214
1184.09441,0.00645
1182.60463,0.00674
1181.11484,0.00706
1179.62505,0.01337
1178.13526,0.01250
1176.64547,0.01615
1175.15568,0.01848
1173.66589,0.01138
1172.17611,0.00790
1170.68632,0.00524
1169.19653,0.00260
1167.70674,0.01740
1166.21695,0.02975
1164.72716,0.05384
1163.23738,0.07074
1161.74759,0.07393
1160.25780,0.06431
1158.76801,0.06688
1157.27822,0.06947
1155.78843,0.07073
1154.29865,0.09206
1152.80886,0.11228
1151.31907,0.12375
1149.82928,0.11025
1148.33949,0.12829
1146.84970,0.13218
1145.35991,0.13609
1143.87013,0.13935
1142.38034,0.17640
1140.89055,0.18511
1139.40076,0.17538
1137.91097,0.17221
1136.42118,0.20508
1134.93140,0.21310
1133.44161,0.22115
1131.95182,0.26580
1130.46203,0.25644
1128.97224,0.26332
1127.48245,0.23330
1125.99266,0.23459
1124.50288,0.23884
1123.01309,0.23692
1121.52330,0.23503
1120.03351,0.23845
1118.54372,0.23063
1117.05393,0.23906
1115.56415,0.24255
1114.07436,0.24832
1112.58457,0.24679
1111.09478,0.24529
1109.60499,0.23718
1108.11520,0.23201
1106.62542,0.23227
1105.13563,0.25192
1103.64584,0.24953
1102.15605,0.22081
1100.66626,0.21915
1099.17647,0.21750
1097.68668,0.20980
1096.19690,0.21654
1094.70711,0.21879
1093.21732,0.22513
1091.72753,0.20987
1090.23774,0.19689
1088.74795,0.18393
1087.25817,0.17482
1085.76838,0.18961
1084.27859,0.19586
1082.78880,0.19696
1081.29901,0.19020
1079.80922,0.21904
1078.31943,0.22202
1076.82965,0.22501
1075.33986,0.21408
1073.85007,0.22298
1072.36028,0.24068
1070.87049,0.25188
1069.38070,0.28292
1067.89092,0.29405
1066.40113,0.30521
1064.91134,0.38181
1063.42155,0.43861
1061.93176,0.54700
1060.44197,0.63469
1058.95219,0.74381
1057.46240,0.80149
1055.97261,0.85921
1054.48282,0.93957
1052.99303,1.01523
1051.50324,1.01279
1050.01345,1.00046
1048.52367,0.97217
1047.03388,0.97351
1045.54409,0.97488
1044.05430,0.91514
1042.56451,0.84754
1041.07472,0.78065
1039.58494,0.70995
1038.09515,0.61023
1036.60536,0.57639
1035.11557,0.54258
1033.62578,0.46747
1032.13599,0.39532
1030.64620,0.35381
1029.15642,0.33079
1027.66663,0.30081
1026.17684,0.27086
1024.68705,0.24993
1023.19726,0.18918
1021.70747,0.17732
1020.21769,0.14071
1018.72790,0.12844
1017.23811,0.12193
1015.74832,0.11545
1014.25853,0.10213
1012.76874,0.09221
1011.27896,0.08817
1009.78917,0.09023
1008.29938,0.06102
1006.80959,0.05502
1005.31980,0.04905
1003.83001,0.04963
1002.34022,0.03020
1000.85044,0.03893
999.36065,0.04071
997.87086,0.04263
996.38107,0.04457
994.89128,0.07907
993.40149,0.10707
991.91171,0.10784
990.42192,0.12913
988.93213,0.15832
987.44234,0.16413
985.95255,0.16995
984.46276,0.17805
982.97297,0.15151
981.48319,0.13804
979.99340,0.12055
978.50361,0.10769
977.01382,0.09486
975.52403,0.05605
974.03424,0.06252
972.54446,0.05123
971.05467,0.02442
969.56488,0.00260
968.07509,0.00570
966.58530,0.00882
965.09551,0.01647
963.60573,0.01109
962.11594,0.01834
960.62615,0.01571
959.13636,0.02154
957.64657,0.02740
956.15678,0.01696
954.66699,0.01623
953.17721,0.02430
951.68742,0.03149
950.19763,0.03184
948.70784,0.03222
947.21805,0.04084
945.72826,0.05893
944.23848,0.08224
942.74869,0.09183
941.25890,0.11563
939.76911,0.12921
938.27932,0.14281
936.78953,0.15475
935.29974,0.15839
933.80996,0.18523
932.32017,0.18892
930.83038,0.19499
929.34059,0.20108
927.85080,0.21136
926.36101,0.24261
924.87123,0.30248
923.38144,0.35922
921.89165,0.38525
920.40186,0.41130
918.91207,0.50053
917.42228,0.65644
915.93250,0.76058
914.44271,1.02686
912.95292,1.13207
911.46313,1.23730
909.97334,1.43656
908.48355,1.64935
906.99376,1.78538
905.50398,1.86538
904.01419,1.93268
902.52440,2.00000
901.03461,1.96344
899.54482,1.94356
898.05503,1.78366
896.56525,1.63707
895.07546,1.50175
893.58567,1.36647
892.09588,1.11457
890.60609,0.90031
889.11630,0.66602
887.62651,0.47454
886.13673,0.42145
884.64694,0.36838
883.15715,0.26095
881.66736,0.21570
880.17757,0.14615
878.68778,0.13979
877.19800,0.13344
875.70821,0.07388
874.21842,0.06207
872.72863,0.05006
871.23884,0.03852
869.74905,0.03173
868.25927,0.02498
866.76948,0.01892
865.27969,0.02706
863.78990,0.02195
862.30011,0.04344
860.81032,0.05368
859.32053,0.06396
857.83075,0.08979
856.34096,0.09268
854.85117,0.10347
853.36138,0.11925
851.87159,0.13989
850.38180,0.16055
848.89202,0.16041
847.40223,0.16772
845.91244,0.19172
844.42265,0.19830
842.93286,0.20490
841.44307,0.24000
839.95329,0.25959
838.46350,0.26255
836.97371,0.27251
835.48392,0.27293
833.99413,0.27337
832.50434,0.29286
831.01455,0.25450
829.52477,0.22473
828.03498,0.18620
826.54519,0.19093
825.05540,0.19568
823.56561,0.19145
822.07582,0.17801
820.58604,0.14050
819.09625,0.13803
817.60646,0.13559
816.11667,0.12472
814.62688,0.12581
813.13709,0.13909
811.64730,0.13460
810.15752,0.13599
808.66773,0.13741
807.17794,0.13704
805.68815,0.16057
804.19836,0.14405
802.70857,0.14286
801.21879,0.14169
799.72900,0.12726
798.23921,0.11646
796.74942,0.11447
795.25963,0.12286
793.76984,0.13127
792.28006,0.13092
790.79027,0.13375
789.30048,0.16430
787.81069,0.19397
786.32090,0.21410
784.83111,0.23426
783.34132,0.27323
781.85154,0.28792
780.36175,0.34248
778.87196,0.34899
777.38217,0.35553
775.89238,0.39598
774.40259,0.40718
772.91281,0.39972
771.42302,0.38857
769.93323,0.37744
768.44344,0.34034
766.95365,0.29289
765.46386,0.25313
763.97407,0.17917
762.48429,0.16400
760.99450,0.14885
759.50471,0.13935
758.01492,0.11953
756.52513,0.09545
755.03534,0.09526
753.54556,0.09509
752.05577,0.09472
750.56598,0.07051
749.07619,0.03732
747.58640,0.05437
746.09661,0.07143
744.60683,0.04777
743.11704,0.02886
741.62725,0.02236
740.13746,0.02106
738.64767,0.01978
737.15788,0.01561
735.66809,0.01731
734.17831,0.00260
732.68852,0.00525
731.19873,0.00794
729.70894,0.01087
728.21915,0.00302
726.72936,0.01539
725.23958,0.01563
723.74979,0.01510
722.26000,0.01460
720.77021,0.02820
719.28042,0.00129
717.79063,0.00366
716.30084,0.01236
714.81106,0.02108
713.32127,0.01699
711.83148,0.01135
710.34169,0.01430
708.85190,0.01276
707.36211,0.01125
705.87233,0.02800
704.38254,0.03171
702.89275,0.02779
701.40296,0.03021
699.91317,0.03264
698.42338,0.05447
696.93360,0.07992
695.44381,0.10359
693.95402,0.10094
692.46423,0.09832
690.97444,0.12049
689.48465,0.12850
687.99486,0.16626
686.50508,0.17848
685.01529,0.19073
683.52550,0.21955
682.03571,0.23646
680.54592,0.24326
679.05613,0.24559
677.56635,0.24794
676.07656,0.26787
674.58677,0.23335
673.09698,0.21618
671.60719,0.20714
670.11740,0.19813
668.62761,0.17428
667.13783,0.16554
665.64804,0.14613
664.15825,0.12674
662.66846,0.10412
661.17867,0.08197
659.68888,0.06682
658.19910,0.05068
656.70931,0.03457
655.21952,0.04877
653.72973,0.02876
652.23994,0.03152
650.75015,0.03881
649.26037,0.04612
647.77058,0.04085
646.28079,0.05046
644.79100,0.02633
643.30121,0.02451
641.81142,0.02271
640.32163,0.03422
638.83185,0.02954
637.34206,0.01949
635.85227,0.01317
634.36248,0.00688
632.87269,0.01052
631.38290,0.01576
629.89312,0.01540
628.40333,0.00899
626.91354,0.00260
625.42375,0.01241
623.93396,0.02721
622.44417,0.02267
620.95438,0.01815
619.46460,0.03166
617.97481,0.03980
616.48502,0.06440
614.99523,0.07697
613.50544,0.08957
612.01565,0.10051
610.52587,0.14660
609.03608,0.16794
607.54629,0.18705
606.05650,0.20619
604.56671,0.26093
603.07692,0.30871
601.58714,0.32871
600.09735,0.34873
598.60756,0.40672
597.11777,0.39854
595.62798,0.42482
594.13819,0.41207
592.64840,0.39934
591.15862,0.37707
589.66883,0.34266
588.17904,0.27225
586.68925,0.24791
585.19946,0.22360
583.70967,0.19334
582.21989,0.12100
580.73010,0.10543
579.24031,0.08988
577.75052,0.05319
576.26073,0.04174
574.77094,0.05171
573.28115,0.05010
571.79137,0.04852
570.30158,0.05135
568.81179,0.04858
567.32200,0.05946
565.83221,0.07035
564.34242,0.11944
562.85264,0.12442
561.36285,0.16298
559.87306,0.16508
558.38327,0.16721
556.89348,0.15382
555.40369,0.17423
553.91391,0.18746
552.42412,0.20072
550.93433,0.21378
549.44454,0.19173
547.95475,0.21834
546.46496,0.20524
544.97517,0.19216
543.48539,0.21322
541.99560,0.27168
540.50581,0.29571
539.01602,0.31976
537.52623,0.34790
536.03644,0.37223
534.54666,0.39928
533.05687,0.42794
531.56708,0.45662
530.07729,0.48735
528.58750,0.55143
527.09771,0.56690
525.60792,0.58240
524.11814,0.63191
522.62835,0.65376
521.13856,0.74160
519.64877,0.77070
518.15898,0.79982
516.66919,0.82650
515.17941,0.81852
513.68962,0.82486
512.19983,0.83123
510.71004,0.81229
509.22025,0.76681
507.73046,0.71234
506.24068,0.66342
504.75089,0.61452
503.26110,0.47794
501.77131,0.36796
500.28152,0.32161
498.79173,0.27528
497.30194,0.21626
495.81216,0.17347
494.32237,0.15682
492.83258,0.14020
491.34279,0.12113
489.85300,0.09600
488.36321,0.08598
486.87343,0.07103
485.38364,0.05611
483.89385,0.06080
482.40406,0.10716
480.91427,0.10717
479.42448,0.10721
477.93469,0.12212
476.44491,0.16814
474.95512,0.17072
473.46533,0.17333
471.97554,0.20996
470.48575,0.20586
468.99596,0.20696
467.50618,0.19323
466.01639,0.17952
464.52660,0.15142
463.03681,0.12268
461.54702,0.10431
460.05723,0.08597
458.56745,0.05122
457.07766,0.03225
455.58787,0.03965
454.09808,0.04708
452.60829,0.05048
451.11850,0.03836
449.62871,0.03629
448.13893,0.03424
446.64914,0.02445
445.15935,0.01964
443.66956,0.00944
442.17977,0.02134
440.68998,0.03326
439.20020,0.02472
437.71041,0.01755
436.22062,0.02110
434.73083,0.02467
433.24104,0.02793
431.75125,0.01366
430.26146,0.03577
428.77168,0.05790
427.28189,0.04617
425.79210,0.06081
424.30231,0.05983
422.81252,0.05887
421.32273,0.04093
419.83295,0.03225
418.34316,0.02799
416.85337,0.02375
415.36358,0.00861
413.87379,0.02817
412.38400,0.03650
410.89422,0.04485
409.40443,0.05481
407.91464,0.02876
406.42485,0.04664
404.93506,0.03584
403.44527,0.02506
401.95548,0.04954
400.46570,0.05244
398.97591,0.04230
397.48612,0.03218
395.99633,0.05113
394.50654,0.05727
393.01675,0.04363
391.52697,0.03000
390.03718,0.02699
388.54739,0.02107
387.05760,0.01514
385.56781,0.00924
384.07802,0.04941
382.58824,0.03421
381.09845,0.03863
379.60866,0.04307
378.11887,0.03088
376.62908,0.02636
375.13929,0.01950
373.64950,0.01267
372.15972,0.00260
370.66993,0.04139
369.18014,0.03526
367.69035,0.02916
366.20056,0.01757
364.71077,0.01951
363.22099,0.02193
361.73120,0.02437
360.24141,0.03786
358.75162,0.06872
357.26183,0.06651
355.77204,0.06431
354.28225,0.07476
352.79247,0.07329
351.30268,0.05912
349.81289,0.04498
348.32310,0.06408
346.83331,0.07216
345.34352,0.06935
343.85374,0.06657
342.36395,0.08531
340.87416,0.07976
339.38437,0.06432
337.89458,0.04891
336.40479,0.03870
334.91501,0.02424
333.42522,0.01341
331.93543,0.00260
330.44564,0.01319
328.95585,0.03935
327.46606,0.03648
325.97627,0.03364
324.48649,0.06476
322.99670,0.07361
321.50691,0.05737
320.01712,0.04117
318.52733,0.07913
317.03754,0.08718
315.54776,0.07329
314.05797,0.05943
312.56818,0.05337
311.07839,0.08560
309.58860,0.07508
308.09881,0.06458
306.60902,0.05028
305.11924,0.03825
303.62945,0.02197
302.13966,0.00572
300.64987,0.02914
299.16008,0.00260
