1778.52000,0.02837
1777.03021,0.03613
1775.54042,0.03539
1774.05063,0.04477
1772.56085,0.02895
1771.07106,0.03081
1769.58127,0.02954
1768.09148,0.02672
1766.60169,0.03024
1765.11190,0.02084
1763.62212,0.02314
1762.13233,0.04092
1760.64254,0.02182
1759.15275,0.02640
1757.66296,0.00641
1756.17317,0.00000
1754.68339,0.01065
1753.19360,0.01596
1751.70381,0.00426
1750.21402,0.00394
1748.72423,0.01784
1747.23444,0.01347
1745.74465,0.00945
1744.25487,0.01585
1742.76508,0.00998
1741.27529,0.01643
1739.78550,0.01692
1738.29571,0.00670
1736.80592,0.00723
1735.31614,0.01032
1733.82635,0.01689
1732.33656,0.00268
1730.84677,0.00236
1729.35698,0.00901
1727.86719,0.01442
1726.37740,0.01040
1724.88762,0.00766
1723.39783,0.02387
1721.90804,0.01424
1720.41825,0.00842
1718.92846,0.00799
1717.43867,0.00758
1715.94889,0.02139
1714.45910,0.01693
1712.96931,0.02479
1711.47952,0.02070
1709.98973,0.00559
1708.49994,0.00641
1707.01016,0.00944
1705.52037,0.01250
1704.03058,0.03623
1702.54079,0.02530
1701.05100,0.03585
1699.56121,0.03411
1698.07142,0.02105
1696.58164,0.02378
1695.09185,0.03379
1693.60206,0.02237
1692.11227,0.01697
1690.62248,0.03053
1689.13269,0.03874
1687.64291,0.04256
1686.15312,0.05966
1684.66333,0.04019
1683.17354,0.04945
1681.68375,0.04170
1680.19396,0.03871
1678.70417,0.05340
1677.21439,0.05298
1675.72460,0.06962
1674.23481,0.05726
1672.74502,0.06038
1671.25523,0.08214
1669.76544,0.07995
1668.27566,0.07337
1666.78587,0.08984
1665.29608,0.09529
1663.80629,0.09004
1662.31650,0.11573
1660.82671,0.11558
1659.33693,0.10031
1657.84714,0.09390
1656.35735,0.08405
1654.86756,0.07958
1653.37777,0.09627
1651.88798,0.09721
1650.39819,0.10133
1648.90841,0.08466
1647.41862,0.08789
1645.92883,0.09287
1644.43904,0.09788
1642.94925,0.08667
1641.45946,0.11932
1639.96968,0.09586
1638.47989,0.10459
1636.99010,0.08370
1635.50031,0.07987
1634.01052,0.06912
1632.52073,0.07953
1631.03094,0.08460
1629.54116,0.07519
1628.05137,0.08756
1626.56158,0.10438
1625.07179,0.11838
1623.58200,0.10055
1622.09221,0.11018
1620.60243,0.10880
1619.11264,0.10650
1617.62285,0.07583
1616.13306,0.08494
1614.64327,0.09406
1613.15348,0.08492
1611.66370,0.09189
1610.17391,0.10298
1608.68412,0.09832
1607.19433,0.11009
1605.70454,0.08751
1604.21475,0.09003
1602.72496,0.09257
1601.23518,0.08804
1599.74539,0.08889
1598.25560,0.08757
1596.76581,0.08942
1595.27602,0.08719
1593.78623,0.08941
1592.29645,0.07998
1590.80666,0.08508
1589.31687,0.08201
1587.82708,0.06098
1586.33729,0.07499
1584.84750,0.07987
1583.35771,0.08194
1581.86793,0.09823
1580.37814,0.08395
1578.88835,0.08547
1577.39856,0.07975
1575.90877,0.06996
1574.41898,0.05830
1572.92920,0.06433
1571.43941,0.06281
1569.94962,0.05517
1568.45983,0.04755
1566.97004,0.05020
1565.48025,0.05509
1563.99047,0.03919
1562.50068,0.04823
1561.01089,0.04121
1559.52110,0.04241
1558.03131,0.04332
1556.54152,0.02975
1555.05173,0.03985
1553.56195,0.02791
1552.07216,0.03617
1550.58237,0.03657
1549.09258,0.00641
1547.60279,0.00815
1546.11300,0.01780
1544.62322,0.03253
1543.13343,0.01352
1541.64364,0.02483
1540.15385,0.01755
1538.66406,0.01029
1537.17427,0.02229
1535.68448,0.01982
1534.19470,0.02525
1532.70491,0.00894
1531.21512,0.01073
1529.72533,0.01728
1528.23554,0.01786
1526.74575,0.04275
1525.25597,0.03927
1523.76618,0.04876
1522.27639,0.03965
1520.78660,0.05234
1519.29681,0.04833
1517.80702,0.03867
1516.31724,0.05427
1514.82745,0.06043
1513.33766,0.06063
1511.84787,0.06084
1510.35808,0.05541
1508.86829,0.04495
1507.37850,0.05880
1505.88872,0.04303
1504.39893,0.04053
1502.90914,0.06266
1501.41935,0.07566
1499.92956,0.07103
1498.43977,0.07273
1496.94999,0.06278
1495.46020,0.09702
1493.97041,0.08617
1492.48062,0.09523
1490.99083,0.10052
1489.50104,0.11340
1488.01125,0.11244
1486.52147,0.11149
1485.03168,0.15347
1483.54189,0.18790
1482.05210,0.19302
1480.56231,0.20858
1479.07252,0.19357
1477.58274,0.21453
1476.09295,0.21502
1474.60316,0.23288
1473.11337,0.25582
1471.62358,0.24660
1470.13379,0.22764
1468.64401,0.24150
1467.15422,0.27778
1465.66443,0.28175
1464.17464,0.28575
1462.68485,0.31548
1461.19506,0.35437
1459.70527,0.43052
1458.21549,0.47483
1456.72570,0.53241
1455.23591,0.58371
1453.74612,0.63566
1452.25633,0.64884
1450.76654,0.64975
1449.27676,0.69831
1447.78697,0.67529
1446.29718,0.66524
1444.80739,0.65221
1443.31760,0.63920
1441.82781,0.58537
1440.33802,0.55870
1438.84824,0.55066
1437.35845,0.49753
1435.86866,0.47440
1434.37887,0.51311
1432.88908,0.54743
1431.39929,0.57767
1429.90951,0.65210
1428.41972,0.70194
1426.92993,0.76822
1425.44014,0.84272
1423.95035,0.85826
1422.46056,0.87382
1420.97078,0.92159
1419.48099,0.95486
1417.99120,0.90932
1416.50141,0.94107
1415.01162,0.87728
1413.52183,0.82328
1412.03204,0.72485
1410.54226,0.71285
1409.05247,0.66052
1407.56268,0.66750
1406.07289,0.59281
1404.58310,0.56089
1403.09331,0.52899
1401.60353,0.47173
1400.11374,0.43562
1398.62395,0.37904
1397.13416,0.33005
1395.64437,0.28613
1394.15458,0.22079
1392.66479,0.19616
1391.17501,0.17093
1389.68522,0.15612
1388.19543,0.13409
1386.70564,0.10735
1385.21585,0.08063
1383.72606,0.07035
1382.23628,0.04273
1380.74649,0.04006
1379.25670,0.03206
1377.76691,0.02313
1376.27712,0.00571
1374.78733,0.02111
1373.29755,0.03717
1371.80776,0.02456
1370.31797,0.01007
1368.82818,0.00823
1367.33839,0.00641
1365.84860,0.02332
1364.35881,0.04373
1362.86903,0.04713
1361.37924,0.08083
1359.88945,0.09091
1358.39966,0.10920
1356.90987,0.15023
1355.42008,0.20233
1353.93030,0.26391
1352.44051,0.29666
1350.95072,0.32943
1349.46093,0.37720
1347.97114,0.42753
1346.48135,0.51636
1344.99156,0.59386
1343.50178,0.66476
1342.01199,0.69909
1340.52220,0.77383
1339.03241,0.80916
1337.54262,0.85398
1336.05283,0.86303
1334.56305,0.87210
1333.07326,0.88829
1331.58347,0.91207
1330.09368,0.92201
1328.60389,0.89790
1327.11410,0.85048
1325.62432,0.86301
1324.13453,0.86074
1322.64474,0.83641
1321.15495,0.74840
1319.66516,0.73690
1318.17537,0.72543
1316.68558,0.68228
1315.19580,0.60477
1313.70601,0.55347
1312.21622,0.53279
1310.72643,0.50866
1309.23664,0.44513
1307.74685,0.43209
1306.25707,0.39952
1304.76728,0.38890
1303.27749,0.37830
1301.78770,0.33413
1300.29791,0.27737
1298.80812,0.23673
1297.31834,0.18349
1295.82855,0.16812
1294.33876,0.13827
1292.84897,0.12106
1291.35918,0.11870
1289.86939,0.10548
1288.37960,0.09229
1286.88982,0.09410
1285.40003,0.08395
1283.91024,0.05901
1282.42045,0.06216
1280.93066,0.06501
1279.44087,0.04676
1277.95109,0.05692
1276.46130,0.06805
1274.97151,0.06328
1273.48172,0.05853
1271.99193,0.04545
1270.50214,0.05100
1269.01235,0.04491
1267.52257,0.01676
1266.03278,0.01766
1264.54299,0.03025
1263.05320,0.02646
1261.56341,0.02948
1260.07362,0.03252
1258.58384,0.02660
1257.09405,0.03553
1255.60426,0.03817
1254.11447,0.03358
1252.62468,0.02965
1251.13489,0.00966
1249.64511,0.00641
1248.15532,0.01091
1246.66553,0.01827
1245.17574,0.02565
1243.68595,0.02202
1242.19616,0.03419
1240.70637,0.02272
1239.21659,0.03841
1237.72680,0.04150
1236.23701,0.04525
1234.74722,0.04587
1233.25743,0.03168
1231.76764,0.01753
1230.27786,0.03557
1228.78807,0.03344
1227.29828,0.02662
1225.80849,0.02360
1224.31870,0.00641
1222.82891,0.02640
1221.33912,0.02497
1219.84934,0.02783
1218.35955,0.03071
1216.86976,0.03944
1215.37997,0.06997
1213.89018,0.08096
1212.40039,0.08063
1210.91061,0.07811
1209.42082,0.08539
1207.93103,0.06936
1206.44124,0.05336
1204.95145,0.07554
1203.46166,0.04949
1201.97188,0.06162
1200.48209,0.06716
1198.99230,0.07998
1197.50251,0.07106
1196.01272,0.05144
1194.52293,0.04194
1193.03314,0.03246
1191.54336,0.02269
1190.05357,0.03439
1188.56378,0.03760
1187.07399,0.02948
1185.58420,0.02076
1184.09441,0.03477
1182.60463,0.03555
1181.11484,0.03636
1179.62505,0.01607
1178.13526,0.01945
1176.64547,0.03453
1175.15568,0.02818
1173.66589,0.00641
1172.17611,0.02625
1170.68632,0.01962
1169.19653,0.01302
1167.70674,0.04019
1166.21695,0.02953
1164.72716,0.03719
1163.23738,0.04520
1161.74759,0.06048
1160.25780,0.04424
1158.76801,0.05595
1157.27822,0.06767
1155.78843,0.07359
1154.29865,0.09373
1152.80886,0.09591
1151.31907,0.11546
1149.82928,0.12495
1148.33949,0.11711
1146.84970,0.11214
1145.35991,0.10719
1143.87013,0.11866
1142.38034,0.18504
1140.89055,0.18080
1139.40076,0.19991
1137.91097,0.18878
1136.42118,0.21552
1134.93140,0.21405
1133.44161,0.21261
1131.95182,0.23753
1130.46203,0.26626
1128.97224,0.24013
1127.48245,0.23484
1125.99266,0.22611
1124.50288,0.22434
1123.01309,0.23395
1121.52330,0.24359
1120.03351,0.23906
1118.54372,0.24117
1117.05393,0.23070
1115.56415,0.25557
1114.07436,0.24987
1112.58457,0.24751
1111.09478,0.24518
1109.60499,0.24145
1108.11520,0.24405
1106.62542,0.24825
1105.13563,0.25658
1103.64584,0.24443
1102.15605,0.24777
1100.66626,0.24024
1099.17647,0.23274
1097.68668,0.21690
1096.19690,0.21623
1094.70711,0.20203
1093.21732,0.19983
1091.72753,0.19071
1090.23774,0.19014
1088.74795,0.18959
1087.25817,0.17929
1085.76838,0.16618
1084.27859,0.17800
1082.78880,0.16872
1081.29901,0.15442
1079.80922,0.17073
1078.31943,0.17682
1076.82965,0.18294
1075.33986,0.18229
1073.85007,0.16338
1072.36028,0.17635
1070.87049,0.20543
1069.38070,0.23327
1067.89092,0.24663
1066.40113,0.26001
1064.91134,0.33398
1063.42155,0.38242
1061.93176,0.44318
1060.44197,0.49041
1058.95219,0.59759
1057.46240,0.63919
1055.97261,0.68081
1054.48282,0.79248
1052.99303,0.83668
1051.50324,0.82350
1050.01345,0.81318
1048.52367,0.84231
1047.03388,0.84529
1045.54409,0.84829
1044.05430,0.79360
1042.56451,0.70960
1041.07472,0.72561
1039.58494,0.62683
1038.09515,0.56719
1036.60536,0.55441
1035.11557,0.54166
1033.62578,0.49565
1032.13599,0.43800
1030.64620,0.36871
1029.15642,0.31521
1027.66663,0.30557
1026.17684,0.29596
1024.68705,0.21383
1023.19726,0.20617
1021.70747,0.19127
1020.21769,0.15274
1018.72790,0.13473
1017.23811,0.13300
1015.74832,0.13129
1014.25853,0.12124
1012.76874,0.12415
1011.27896,0.10091
1009.78917,0.11648
1008.29938,0.08856
1006.80959,0.08179
1005.31980,0.07505
1003.83001,0.04373
1002.34022,0.04460
1000.85044,0.04045
999.36065,0.04075
997.87086,0.03917
996.38107,0.03762
994.89128,0.05313
993.40149,0.06267
991.91171,0.06087
990.42192,0.08024
988.93213,0.10341
987.44234,0.10390
985.95255,0.10442
984.46276,0.13019
982.97297,0.11940
981.48319,0.08119
979.99340,0.05278
978.50361,0.05027
977.01382,0.04777
975.52403,0.03395
974.03424,0.05075
972.54446,0.02972
971.05467,0.03899
969.56488,0.00792
968.07509,0.00715
966.58530,0.00641
965.09551,0.01961
963.60573,0.00855
962.11594,0.03126
960.62615,0.03097
959.13636,0.03086
957.64657,0.03078
956.15678,0.04949
954.66699,0.04867
953.17721,0.04818
951.68742,0.07107
950.19763,0.06606
948.70784,0.06108
947.21805,0.08340
945.72826,0.09945
944.23848,0.11488
942.74869,0.13823
941.25890,0.13983
939.76911,0.14777
938.27932,0.15574
936.78953,0.17729
935.29974,0.19161
933.80996,0.19618
932.32017,0.21559
930.83038,0.21564
929.34059,0.21571
927.85080,0.22037
926.36101,0.24241
924.87123,0.29002
923.38144,0.34743
921.89165,0.38815
920.40186,0.42890
918.91207,0.49837
917.42228,0.62243
915.93250,0.78026
914.44271,0.98290
912.95292,1.10105
911.46313,1.21921
909.97334,1.45221
908.48355,1.60228
906.99376,1.78612
905.50398,1.91574
904.01419,1.95786
902.52440,2.00000
901.03461,1.98145
899.54482,1.96955
898.05503,1.85013
896.56525,1.70675
895.07546,1.60188
893.58567,1.49704
892.09588,1.21875
890.60609,0.95121
889.11630,0.72690
887.62651,0.53604
886.13673,0.43653
884.64694,0.33703
883.15715,0.26642
881.66736,0.19742
880.17757,0.16281
878.68778,0.14526
877.19800,0.12774
875.70821,0.09005
874.21842,0.04451
872.72863,0.02485
871.23884,0.03266
869.74905,0.03434
868.25927,0.03604
866.76948,0.03131
865.27969,0.00641
863.78990,0.01590
862.30011,0.00965
860.81032,0.02739
859.32053,0.04516
857.83075,0.06674
856.34096,0.07856
854.85117,0.08411
853.36138,0.10039
851.87159,0.09542
850.38180,0.09047
848.89202,0.10399
847.40223,0.11375
845.91244,0.12764
844.42265,0.14597
842.93286,0.16433
841.44307,0.15369
839.95329,0.18092
838.46350,0.20439
836.97371,0.19982
835.48392,0.19433
833.99413,0.18886
832.50434,0.20549
831.01455,0.20291
829.52477,0.16313
828.03498,0.17668
826.54519,0.15478
825.05540,0.13289
823.56561,0.11466
822.07582,0.11696
820.58604,0.10193
819.09625,0.10018
817.60646,0.09845
816.11667,0.09926
814.62688,0.07866
813.13709,0.06786
811.64730,0.08704
810.15752,0.08717
808.66773,0.08732
807.17794,0.10153
805.68815,0.10472
804.19836,0.10826
802.70857,0.10362
801.21879,0.09901
799.72900,0.09158
798.23921,0.10310
796.74942,0.08279
795.25963,0.08678
793.76984,0.09081
792.28006,0.09612
790.79027,0.08757
789.30048,0.10586
787.81069,0.13522
786.32090,0.14757
784.83111,0.15994
783.34132,0.19283
781.85154,0.23459
780.36175,0.25870
778.87196,0.27101
777.38217,0.28335
775.89238,0.29681
774.40259,0.31125
772.91281,0.31435
771.42302,0.29320
769.93323,0.27207
768.44344,0.26831
766.95365,0.27214
765.46386,0.25014
763.97407,0.17864
762.48429,0.15937
760.99450,0.14012
759.50471,0.11947
758.01492,0.09349
756.52513,0.10254
755.03534,0.08860
753.54556,0.07467
752.05577,0.06141
750.56598,0.05100
749.07619,0.04472
747.58640,0.04414
746.09661,0.04359
744.60683,0.04369
743.11704,0.02900
741.62725,0.01464
740.13746,0.01292
738.64767,0.01123
737.15788,0.00641
735.66809,0.02048
734.17831,0.01786
732.68852,0.01400
731.19873,0.01017
729.70894,0.02623
728.21915,0.01424
726.72936,0.01531
725.23958,0.02365
723.74979,0.02808
722.26000,0.03252
720.77021,0.02454
719.28042,0.02541
717.79063,0.02441
716.30084,0.01540
714.81106,0.00641
713.32127,0.01437
711.83148,0.03844
710.34169,0.04172
708.85190,0.05353
707.36211,0.06538
705.87233,0.06684
704.38254,0.06454
702.89275,0.06636
701.40296,0.06190
699.91317,0.05746
698.42338,0.07166
696.93360,0.07895
695.44381,0.11401
693.95402,0.12544
692.46423,0.13690
690.97444,0.13576
689.48465,0.17313
687.99486,0.17993
686.50508,0.19054
685.01529,0.20118
683.52550,0.24401
682.03571,0.31335
680.54592,0.29094
679.05613,0.28543
677.56635,0.27995
676.07656,0.29420
674.58677,0.27599
673.09698,0.27105
671.60719,0.25194
670.11740,0.23285
668.62761,0.20181
667.13783,0.17552
665.64804,0.16566
664.15825,0.15582
662.66846,0.11383
661.17867,0.11792
659.68888,0.07346
658.19910,0.07255
656.70931,0.07166
655.21952,0.05219
653.72973,0.02770
652.23994,0.06190
650.75015,0.05749
649.26037,0.05310
647.77058,0.07002
646.28079,0.04471
644.79100,0.06704
643.30121,0.04982
641.81142,0.03262
640.32163,0.03011
638.83185,0.02258
637.34206,0.00782
635.85227,0.01169
634.36248,0.01558
632.87269,0.00641
631.38290,0.02156
629.89312,0.00930
628.40333,0.01756
626.91354,0.02584
625.42375,0.01775
623.93396,0.01473
622.44417,0.01868
620.95438,0.02265
619.46460,0.04399
617.97481,0.05431
616.48502,0.08327
614.99523,0.08892
613.50544,0.09459
612.01565,0.13213
610.52587,0.15835
609.03608,0.19753
607.54629,0.20503
606.05650,0.21255
604.56671,0.26852
603.07692,0.31284
601.58714,0.35718
600.09735,0.40155
598.60756,0.45604
597.11777,0.42318
595.62798,0.41621
594.13819,0.41636
592.64840,0.41654
591.15862,0.39009
589.66883,0.36083
588.17904,0.27576
586.68925,0.25790
585.19946,0.24007
583.70967,0.18157
582.21989,0.15148
580.73010,0.12504
579.24031,0.09863
577.75052,0.06862
576.26073,0.07269
574.77094,0.02633
573.28115,0.03092
571.79137,0.03554
570.30158,0.04728
568.81179,0.06441
567.32200,0.06043
565.83221,0.05648
564.34242,0.08819
562.85264,0.10888
561.36285,0.10343
559.87306,0.11581
558.38327,0.12822
556.89348,0.15785
555.40369,0.13767
553.91391,0.13406
552.42412,0.13049
550.93433,0.16936
549.44454,0.17924
547.95475,0.20238
546.46496,0.19749
544.97517,0.19261
543.48539,0.18177
541.99560,0.21038
540.50581,0.22750
539.01602,0.24465
537.52623,0.29604
536.03644,0.37458
534.54666,0.39984
533.05687,0.42355
531.56708,0.44729
530.07729,0.48934
528.58750,0.58156
527.09771,0.61783
525.60792,0.65412
524.11814,0.68208
522.62835,0.72362
521.13856,0.80682
519.64877,0.82886
518.15898,0.85092
516.66919,0.86355
515.17941,0.86421
513.68962,0.88950
512.19983,0.91482
510.71004,0.88149
509.22025,0.82170
507.73046,0.74868
506.24068,0.68641
504.75089,0.62417
503.26110,0.47017
501.77131,0.38274
500.28152,0.35100
498.79173,0.31929
497.30194,0.25181
495.81216,0.20485
494.32237,0.18079
492.83258,0.15674
491.34279,0.10607
489.85300,0.09454
488.36321,0.07514
486.87343,0.06792
485.38364,0.06071
483.89385,0.07577
482.40406,0.08013
480.91427,0.08703
479.42448,0.09396
477.93469,0.11133
476.44491,0.12335
474.95512,0.13256
473.46533,0.14180
471.97554,0.14885
470.48575,0.15057
468.99596,0.15799
467.50618,0.16369
466.01639,0.16943
464.52660,0.10848
463.03681,0.07751
461.54702,0.07401
460.05723,0.07054
458.56745,0.05290
457.07766,0.05262
455.58787,0.04402
454.09808,0.03544
452.60829,0.03146
451.11850,0.02087
449.62871,0.01363
448.13893,0.00641
446.64914,0.01170
445.15935,0.02837
443.66956,0.01699
442.17977,0.02441
440.68998,0.03185
439.20020,0.05208
437.71041,0.03134
436.22062,0.04059
434.73083,0.04986
433.24104,0.04213
431.75125,0.04009
430.26146,0.04439
428.77168,0.04871
427.28189,0.04644
425.79210,0.06343
424.30231,0.04985
422.81252,0.03629
421.32273,0.04484
419.83295,0.04458
418.34316,0.03519
416.85337,0.02583
415.36358,0.00641
413.87379,0.03555
412.38400,0.03129
410.89422,0.02706
409.40443,0.04681
407.91464,0.05272
406.42485,0.03720
404.93506,0.02928
403.44527,0.02138
401.95548,0.04094
400.46570,0.02962
398.97591,0.04624
397.48612,0.06288
395.99633,0.04848
394.50654,0.04042
393.01675,0.04073
391.52697,0.04107
390.03718,0.02267
388.54739,0.03426
387.05760,0.02915
385.56781,0.02407
384.07802,0.01649
382.58824,0.00641
381.09845,0.03352
379.60866,0.06065
378.11887,0.05627
376.62908,0.01375
375.13929,0.02014
373.64950,0.02655
372.15972,0.03205
370.66993,0.02463
369.18014,0.01551
367.69035,0.00641
366.20056,0.03852
364.71077,0.04132
363.22099,0.03846
361.73120,0.03564
360.24141,0.01202
358.75162,0.06065
357.26183,0.05474
355.77204,0.04885
354.28225,0.05687
352.79247,0.05608
351.30268,0.05548
349.81289,0.05490
348.32310,0.05797
346.83331,0.02069
345.34352,0.01513
343.85374,0.00960
342.36395,0.04116
340.87416,0.01250
339.38437,0.02486
337.89458,0.03725
336.40479,0.05376
334.91501,0.03466
333.42522,0.04097
331.93543,0.04730
330.44564,0.00935
328.95585,0.01495
327.46606,0.02183
325.97627,0.02874
324.48649,0.03157
322.99670,0.05903
321.50691,0.05371
320.01712,0.04841
318.52733,0.12735
317.03754,0.10728
315.54776,0.09323
314.05797,0.07920
312.56818,0.09359
311.07839,0.09664
309.58860,0.08237
308.09881,0.06812
306.60902,0.06021
305.11924,0.11288
303.62945,0.08025
302.13966,0.04766
300.64987,0.00641
299.16008,0.00641
