1778.52000,0.01931
1777.03021,0.01611
1775.54042,0.02201
1774.05063,0.01201
1772.56085,0.01278
1771.07106,0.01875
1769.58127,0.01679
1768.09148,0.01633
1766.60169,0.01200
1765.11190,0.01696
1763.62212,0.02065
1762.13233,0.01066
1760.64254,0.01198
1759.15275,0.00704
1757.66296,0.00601
1756.17317,0.00852
1754.68339,0.00735
1753.19360,0.01009
1751.70381,0.00842
1750.21402,0.01084
1748.72423,0.01032
1747.23444,0.00909
1745.74465,0.00584
1744.25487,0.00799
1742.76508,0.00442
1741.27529,0.00273
1739.78550,0.00624
1738.29571,0.00849
1736.80592,0.01205
1735.31614,0.00601
1733.82635,0.00773
1732.33656,0.00652
1730.84677,0.00662
1729.35698,0.00527
1727.86719,0.01023
1726.37740,0.00744
1724.88762,0.01079
1723.39783,0.00861
1721.90804,0.01126
1720.41825,0.01098
1718.92846,0.00813
1717.43867,0.01159
1715.94889,0.01508
1714.45910,0.00601
1712.96931,0.00843
1711.47952,0.00939
1709.98973,0.00945
1708.49994,0.01176
1707.01016,0.00734
1705.52037,0.00293
1704.03058,0.01162
1702.54079,0.01516
1701.05100,0.01612
1699.56121,0.01192
1698.07142,0.01182
1696.58164,0.00601
1695.09185,0.00962
1693.60206,0.01362
1692.11227,0.01005
1690.62248,0.01650
1689.13269,0.00762
1687.64291,0.01023
1686.15312,0.01824
1684.66333,0.01591
1683.17354,0.02304
1681.68375,0.02464
1680.19396,0.02071
1678.70417,0.02421
1677.21439,0.02514
1675.72460,0.02535
1674.23481,0.04355
1672.74502,0.03660
1671.25523,0.03022
1669.76544,0.03849
1668.27566,0.04864
1666.78587,0.05159
1665.29608,0.05716
1663.80629,0.05905
1662.31650,0.06966
1660.82671,0.06456
1659.33693,0.06708
1657.84714,0.06369
1656.35735,0.06200
1654.86756,0.06163
1653.37777,0.06683
1651.88798,0.08372
1650.39819,0.07713
1648.90841,0.06907
1647.41862,0.07567
1645.92883,0.08053
1644.43904,0.08542
1642.94925,0.07709
1641.45946,0.07656
1639.96968,0.08180
1638.47989,0.08724
1636.99010,0.06939
1635.50031,0.07414
1634.01052,0.06540
1632.52073,0.07427
1631.03094,0.06818
1629.54116,0.08228
1628.05137,0.07419
1626.56158,0.08964
1625.07179,0.08290
1623.58200,0.09432
1622.09221,0.08337
1620.60243,0.09780
1619.11264,0.10023
1617.62285,0.08916
1616.13306,0.07368
1614.64327,0.08303
1613.15348,0.08258
1611.66370,0.08754
1610.17391,0.09029
1608.68412,0.08955
1607.19433,0.08939
1605.70454,0.09388
1604.21475,0.09146
1602.72496,0.08906
1601.23518,0.08918
1599.74539,0.07933
1598.25560,0.07931
1596.76581,0.07636
1595.27602,0.09083
1593.78623,0.08218
1592.29645,0.07097
1590.80666,0.07941
1589.31687,0.06361
1587.82708,0.07654
1586.33729,0.07339
1584.84750,0.07599
1583.35771,0.07029
1581.86793,0.08294
1580.37814,0.08081
1578.88835,0.07759
1577.39856,0.07754
1575.90877,0.06493
1574.41898,0.05659
1572.92920,0.05514
1571.43941,0.05000
1569.94962,0.04748
1568.45983,0.04498
1566.97004,0.04121
1565.48025,0.03876
1563.99047,0.04208
1562.50068,0.03505
1561.01089,0.03526
1559.52110,0.03643
1558.03131,0.03077
1556.54152,0.02865
1555.05173,0.02674
1553.56195,0.03096
1552.07216,0.02317
1550.58237,0.02263
1549.09258,0.01600
1547.60279,0.00995
1546.11300,0.00948
1544.62322,0.01181
1543.13343,0.01657
1541.64364,0.01173
1540.15385,0.00886
1538.66406,0.00601
1537.17427,0.01427
1535.68448,0.02108
1534.19470,0.02273
1532.70491,0.02995
1531.21512,0.01572
1529.72533,0.01244
1528.23554,0.02474
1526.74575,0.02688
1525.25597,0.02941
1523.76618,0.02937
1522.27639,0.04695
1520.78660,0.03715
1519.29681,0.03737
1517.80702,0.03761
1516.31724,0.04288
1514.82745,0.04891
1513.33766,0.04053
1511.84787,0.03217
1510.35808,0.04290
1508.86829,0.05032
1507.37850,0.04648
1505.88872,0.03969
1504.39893,0.04164
1502.90914,0.06341
1501.41935,0.07022
1499.92956,0.08056
1498.43977,0.06816
1496.94999,0.06282
1495.46020,0.08582
1493.97041,0.09052
1492.48062,0.10117
1490.99083,0.11074
1489.50104,0.13125
1488.01125,0.13845
1486.52147,0.14568
1485.03168,0.15793
1483.54189,0.18594
1482.05210,0.19713
1480.56231,0.22427
1479.07252,0.22976
1477.58274,0.24806
1476.09295,0.24805
1474.60316,0.24936
1473.11337,0.25014
1471.62358,0.23781
1470.13379,0.25141
1468.64401,0.26115
1467.15422,0.30220
1465.66443,0.31263
1464.17464,0.32309
1462.68485,0.35218
1461.19506,0.39480
1459.70527,0.43116
1458.21549,0.48790
1456.72570,0.55782
1455.23591,0.60202
1453.74612,0.64625
1452.25633,0.65292
1450.76654,0.65850
1449.27676,0.67837
1447.78697,0.68640
1446.29718,0.65152
1444.80739,0.63110
1443.31760,0.61070
1441.82781,0.58477
1440.33802,0.55775
1438.84824,0.51244
1437.35845,0.47529
1435.86866,0.48130
1434.37887,0.49881
1432.88908,0.53893
1431.39929,0.60407
1429.90951,0.67848
1428.41972,0.75052
1426.92993,0.79647
1425.44014,0.82801
1423.95035,0.85199
1422.46056,0.87599
1420.97078,0.90797
1419.48099,0.91424
1417.99120,0.89425
1416.50141,0.89909
1415.01162,0.89841
1413.52183,0.82702
1412.03204,0.75640
1410.54226,0.70858
1409.05247,0.64245
1407.56268,0.62467
1406.07289,0.57692
1404.58310,0.54483
1403.09331,0.51277
1401.60353,0.43899
1400.11374,0.38911
1398.62395,0.35870
1397.13416,0.31590
1395.64437,0.24647
1394.15458,0.21502
1392.66479,0.16286
1391.17501,0.14367
1389.68522,0.11618
1388.19543,0.11166
1386.70564,0.10060
1385.21585,0.08956
1383.72606,0.06901
1382.23628,0.05849
1380.74649,0.04095
1379.25670,0.02621
1377.76691,0.02464
1376.27712,0.01569
1374.78733,0.01047
1373.29755,0.00601
1371.80776,0.01007
1370.31797,0.01360
1368.82818,0.01253
1367.33839,0.01148
1365.84860,0.00805
1364.35881,0.02789
1362.86903,0.04794
1361.37924,0.07191
1359.88945,0.09219
1358.39966,0.11324
1356.90987,0.15042
1355.42008,0.18874
1353.93030,0.23615
1352.44051,0.27044
1350.95072,0.30476
1349.46093,0.36853
1347.97114,0.45028
1346.48135,0.53651
1344.99156,0.60868
1343.50178,0.64756
1342.01199,0.67739
1340.52220,0.75371
1339.03241,0.81506
1337.54262,0.85293
1336.05283,0.87702
1334.56305,0.90114
1333.07326,0.91038
1331.58347,0.94890
1330.09368,0.91561
1328.60389,0.92529
1327.11410,0.88557
1325.62432,0.84976
1324.13453,0.81508
1322.64474,0.78488
1321.15495,0.74747
1319.66516,0.73582
1318.17537,0.72420
1316.68558,0.66799
1315.19580,0.59661
1313.70601,0.57359
1312.21622,0.54281
1310.72643,0.50612
1309.23664,0.45262
1307.74685,0.43765
1306.25707,0.41752
1304.76728,0.40454
1303.27749,0.39158
1301.78770,0.32931
1300.29791,0.26170
1298.80812,0.23021
1297.31834,0.19448
1295.82855,0.16434
1294.33876,0.15458
1292.84897,0.14003
1291.35918,0.12681
1289.86939,0.11934
1288.37960,0.11190
1286.88982,0.09690
1285.40003,0.07784
1283.91024,0.06603
1282.42045,0.05406
1280.93066,0.05451
1279.44087,0.05814
1277.95109,0.04828
1276.46130,0.04880
1274.97151,0.05130
1273.48172,0.05382
1271.99193,0.03757
1270.50214,0.04986
1269.01235,0.03773
1267.52257,0.02119
1266.03278,0.01633
1264.54299,0.02686
1263.05320,0.02168
1261.56341,0.01606
1260.07362,0.01046
1258.58384,0.00961
1257.09405,0.00601
1255.60426,0.01886
1254.11447,0.01082
1252.62468,0.01242
1251.13489,0.00942
1249.64511,0.01293
1248.15532,0.02479
1246.66553,0.01946
1245.17574,0.01415
1243.68595,0.00775
1242.19616,0.02085
1240.70637,0.01564
1239.21659,0.01805
1237.72680,0.01696
1236.23701,0.02886
1234.74722,0.02319
1233.25743,0.02060
1231.76764,0.01804
1230.27786,0.03818
1228.78807,0.02335
1227.29828,0.01299
1225.80849,0.00691
1224.31870,0.01784
1222.82891,0.01398
1221.33912,0.01347
1219.84934,0.02262
1218.35955,0.03179
1216.86976,0.04579
1215.37997,0.05094
1213.89018,0.06759
1212.40039,0.07741
1210.91061,0.08170
1209.42082,0.08305
1207.93103,0.07934
1206.44124,0.07565
1204.95145,0.07356
1203.46166,0.07538
1201.97188,0.06408
1200.48209,0.07020
1198.99230,0.05488
1197.50251,0.05606
1196.01272,0.03800
1194.52293,0.03339
1193.03314,0.02881
1191.54336,0.02471
1190.05357,0.02305
1188.56378,0.01104
1187.07399,0.01886
1185.58420,0.02097
1184.09441,0.02366
1182.60463,0.01869
1181.11484,0.01374
1179.62505,0.02076
1178.13526,0.00762
1176.64547,0.01413
1175.15568,0.00548
1173.66589,0.00873
1172.17611,0.02495
1170.68632,0.01547
1169.19653,0.00601
1167.70674,0.00656
1166.21695,0.02657
1164.72716,0.03383
1163.23738,0.04445
1161.74759,0.05583
1160.25780,0.05724
1158.76801,0.05942
1157.27822,0.06161
1155.78843,0.06846
1154.29865,0.07738
1152.80886,0.10445
1151.31907,0.11878
1149.82928,0.11758
1148.33949,0.12159
1146.84970,0.11979
1145.35991,0.11802
1143.87013,0.13839
1142.38034,0.15342
1140.89055,0.16014
1139.40076,0.16466
1137.91097,0.17939
1136.42118,0.18729
1134.93140,0.20290
1133.44161,0.21854
1131.95182,0.22373
1130.46203,0.25099
1128.97224,0.24735
1127.48245,0.24447
1125.99266,0.23829
1124.50288,0.24009
1123.01309,0.22988
1121.52330,0.21970
1120.03351,0.23398
1118.54372,0.24291
1117.05393,0.24427
1115.56415,0.24733
1114.07436,0.24708
1112.58457,0.24935
1111.09478,0.25164
1109.60499,0.23665
1108.11520,0.24483
1106.62542,0.23896
1105.13563,0.25588
1103.64584,0.23969
1102.15605,0.22556
1100.66626,0.21933
1099.17647,0.21311
1097.68668,0.22553
1096.19690,0.21020
1094.70711,0.22266
1093.21732,0.21460
1091.72753,0.20527
1090.23774,0.20457
1088.74795,0.20389
1087.25817,0.19796
1085.76838,0.20502
1084.27859,0.18784
1082.78880,0.19698
1081.29901,0.19800
1079.80922,0.22959
1078.31943,0.23278
1076.82965,0.23600
1075.33986,0.22767
1073.85007,0.21548
1072.36028,0.23886
1070.87049,0.26633
1069.38070,0.27957
1067.89092,0.31441
1066.40113,0.34926
1064.91134,0.38276
1063.42155,0.48014
1061.93176,0.55441
1060.44197,0.65166
1058.95219,0.75375
1057.46240,0.81532
1055.97261,0.87691
1054.48282,0.94963
1052.99303,1.00054
1051.50324,0.99000
1050.01345,0.96894
1048.52367,0.94475
1047.03388,0.93947
1045.54409,0.93421
1044.05430,0.89862
1042.56451,0.83917
1041.07472,0.78826
1039.58494,0.66869
1038.09515,0.62209
1036.60536,0.57551
1035.11557,0.52896
1033.62578,0.46521
1032.13599,0.39352
1030.64620,0.34204
1029.15642,0.30835
1027.66663,0.28534
1026.17684,0.26234
1024.68705,0.23151
1023.19726,0.19384
1021.70747,0.17546
1020.21769,0.14766
1018.72790,0.12099
1017.23811,0.11906
1015.74832,0.11715
1014.25853,0.09555
1012.76874,0.10453
1011.27896,0.09631
1009.78917,0.07700
1008.29938,0.06476
1006.80959,0.05300
1005.31980,0.04126
1003.83001,0.02983
1002.34022,0.04397
1000.85044,0.03499
999.36065,0.04566
997.87086,0.04618
996.38107,0.04671
994.89128,0.08022
993.40149,0.09969
991.91171,0.10881
990.42192,0.12999
988.93213,0.15213
987.44234,0.16169
985.95255,0.17128
984.46276,0.16442
982.97297,0.14444
981.48319,0.12633
979.99340,0.10232
978.50361,0.09954
977.01382,0.09678
975.52403,0.06525
974.03424,0.05578
972.54446,0.03226
971.05467,0.02765
969.56488,0.00863
968.07509,0.00731
966.58530,0.00601
965.09551,0.00759
963.60573,0.01124
962.11594,0.01269
960.62615,0.00509
959.13636,0.00564
957.64657,0.00622
956.15678,0.02404
954.66699,0.02244
953.17721,0.02679
951.68742,0.02080
950.19763,0.03103
948.70784,0.04129
947.21805,0.03537
945.72826,0.05928
944.23848,0.08359
942.74869,0.09811
941.25890,0.09784
939.76911,0.10731
938.27932,0.11681
936.78953,0.14327
935.29974,0.15236
933.80996,0.17442
932.32017,0.17263
930.83038,0.18123
929.34059,0.18986
927.85080,0.20591
926.36101,0.23032
924.87123,0.27530
923.38144,0.33753
921.89165,0.36664
920.40186,0.39577
918.91207,0.48398
917.42228,0.61942
915.93250,0.75619
914.44271,0.98646
912.95292,1.09051
911.46313,1.19458
909.97334,1.41678
908.48355,1.60439
906.99376,1.77406
905.50398,1.89656
904.01419,1.93743
902.52440,1.97833
901.03461,2.00000
899.54482,1.92321
898.05503,1.77683
896.56525,1.59771
895.07546,1.45897
893.58567,1.32026
892.09588,1.07882
890.60609,0.86869
889.11630,0.62638
887.62651,0.45851
886.13673,0.40248
884.64694,0.34648
883.15715,0.27551
881.66736,0.20141
880.17757,0.15621
878.68778,0.13835
877.19800,0.12051
875.70821,0.09038
874.21842,0.04936
872.72863,0.04834
871.23884,0.03976
869.74905,0.03713
868.25927,0.03452
866.76948,0.02971
865.27969,0.01901
863.78990,0.04128
862.30011,0.05598
860.81032,0.06460
859.32053,0.07325
857.83075,0.08654
856.34096,0.11097
854.85117,0.10525
853.36138,0.12435
851.87159,0.13506
850.38180,0.14579
848.89202,0.16423
847.40223,0.17436
845.91244,0.20025
844.42265,0.20525
842.93286,0.21027
841.44307,0.23031
839.95329,0.25611
838.46350,0.25732
836.97371,0.27002
835.48392,0.27627
833.99413,0.28255
832.50434,0.28163
831.01455,0.27185
829.52477,0.23561
828.03498,0.21255
826.54519,0.19914
825.05540,0.18575
823.56561,0.18294
822.07582,0.16274
820.58604,0.15220
819.09625,0.14289
817.60646,0.13360
816.11667,0.12647
814.62688,0.12361
813.13709,0.13782
811.64730,0.13316
810.15752,0.13843
808.66773,0.14372
807.17794,0.16561
805.68815,0.15457
804.19836,0.14633
802.70857,0.14599
801.21879,0.14566
799.72900,0.13768
798.23921,0.14361
796.74942,0.11512
795.25963,0.12406
793.76984,0.13302
792.28006,0.13441
790.79027,0.15361
789.30048,0.16690
787.81069,0.19261
786.32090,0.21882
784.83111,0.24505
783.34132,0.27676
781.85154,0.30165
780.36175,0.34915
778.87196,0.37316
777.38217,0.39719
775.89238,0.38219
774.40259,0.38961
772.91281,0.36596
771.42302,0.36871
769.93323,0.37148
768.44344,0.34197
766.95365,0.28861
765.46386,0.23267
763.97407,0.19213
762.48429,0.17559
760.99450,0.15906
759.50471,0.13063
758.01492,0.12461
756.52513,0.08604
755.03534,0.08831
753.54556,0.09061
752.05577,0.08044
750.56598,0.07177
749.07619,0.05035
747.58640,0.04478
746.09661,0.03924
744.60683,0.03196
743.11704,0.02230
741.62725,0.02562
740.13746,0.01721
738.64767,0.00882
737.15788,0.02277
735.66809,0.00601
734.17831,0.00863
732.68852,0.01090
731.19873,0.01320
729.70894,0.00996
728.21915,0.00601
726.72936,0.01666
725.23958,0.02307
723.74979,0.02173
722.26000,0.02042
720.77021,0.01506
719.28042,0.00435
717.79063,0.01563
716.30084,0.01406
714.81106,0.01251
713.32127,0.01720
711.83148,0.01820
710.34169,0.00905
708.85190,0.01547
707.36211,0.02191
705.87233,0.02986
704.38254,0.03043
702.89275,0.04194
701.40296,0.03368
699.91317,0.02543
698.42338,0.04276
696.93360,0.07399
695.44381,0.09858
693.95402,0.10201
692.46423,0.10545
690.97444,0.10550
689.48465,0.13019
687.99486,0.17082
686.50508,0.17927
685.01529,0.18774
683.52550,0.20234
682.03571,0.22808
680.54592,0.23311
679.05613,0.24482
677.56635,0.25656
676.07656,0.25536
674.58677,0.23920
673.09698,0.22083
671.60719,0.21267
670.11740,0.20454
668.62761,0.17569
667.13783,0.15094
665.64804,0.14232
664.15825,0.13373
662.66846,0.11368
661.17867,0.06663
659.68888,0.05496
658.19910,0.05257
656.70931,0.05021
655.21952,0.04768
653.72973,0.03352
652.23994,0.03381
650.75015,0.03173
649.26037,0.02967
647.77058,0.04541
646.28079,0.04728
644.79100,0.03641
643.30121,0.02908
641.81142,0.02177
640.32163,0.03004
638.83185,0.03740
637.34206,0.03054
635.85227,0.02471
634.36248,0.01891
632.87269,0.00601
631.38290,0.01585
629.89312,0.01145
628.40333,0.01180
626.91354,0.01218
625.42375,0.01304
623.93396,0.02966
622.44417,0.02881
620.95438,0.02799
619.46460,0.03339
617.97481,0.04622
616.48502,0.06685
614.99523,0.07593
613.50544,0.08504
612.01565,0.11685
610.52587,0.16442
609.03608,0.22423
607.54629,0.22344
606.05650,0.22267
604.56671,0.25960
603.07692,0.31154
601.58714,0.35083
600.09735,0.39015
598.60756,0.38848
597.11777,0.43164
595.62798,0.44594
594.13819,0.43111
592.64840,0.41630
591.15862,0.39550
589.66883,0.33159
588.17904,0.27159
586.68925,0.25067
585.19946,0.22978
583.70967,0.17411
582.21989,0.12310
580.73010,0.10487
579.24031,0.08667
577.75052,0.06164
576.26073,0.05682
574.77094,0.05517
573.28115,0.05159
571.79137,0.04804
570.30158,0.03961
568.81179,0.06601
567.32200,0.07299
565.83221,0.08000
564.34242,0.09555
562.85264,0.12426
561.36285,0.15226
559.87306,0.14881
558.38327,0.14538
556.89348,0.15161
555.40369,0.16619
553.91391,0.17765
552.42412,0.18913
550.93433,0.20785
549.44454,0.19013
547.95475,0.20150
546.46496,0.19984
544.97517,0.19820
543.48539,0.21798
541.99560,0.25813
540.50581,0.27879
539.01602,0.29946
537.52623,0.33729
536.03644,0.34551
534.54666,0.38320
533.05687,0.39722
531.56708,0.41125
530.07729,0.48697
528.58750,0.54919
527.09771,0.55904
525.60792,0.56892
524.11814,0.63584
522.62835,0.64391
521.13856,0.72902
519.64877,0.74603
518.15898,0.76306
516.66919,0.83991
515.17941,0.81867
513.68962,0.81523
512.19983,0.81181
510.71004,0.81415
509.22025,0.72488
507.73046,0.68487
506.24068,0.62573
504.75089,0.56662
503.26110,0.46115
501.77131,0.33701
500.28152,0.29305
498.79173,0.24912
497.30194,0.18670
495.81216,0.17725
494.32237,0.15024
492.83258,0.12325
491.34279,0.08887
489.85300,0.08730
488.36321,0.08796
486.87343,0.06968
485.38364,0.05142
483.89385,0.05401
482.40406,0.07032
480.91427,0.08193
479.42448,0.09358
477.93469,0.10070
476.44491,0.13026
474.95512,0.14928
473.46533,0.16833
471.97554,0.16982
470.48575,0.18114
468.99596,0.16823
467.50618,0.16933
466.01639,0.17045
464.52660,0.10134
463.03681,0.08686
461.54702,0.07481
460.05723,0.06279
458.56745,0.03580
457.07766,0.01309
455.58787,0.02067
454.09808,0.02828
452.60829,0.00601
451.11850,0.02430
449.62871,0.02114
448.13893,0.01800
446.64914,0.01804
445.15935,0.00273
443.66956,0.02795
442.17977,0.01940
440.68998,0.01089
439.20020,0.01100
437.71041,0.00965
436.22062,0.01287
434.73083,0.01611
433.24104,0.01540
431.75125,0.03174
430.26146,0.03366
428.77168,0.03561
427.28189,0.03961
425.79210,0.03476
424.30231,0.03595
422.81252,0.03716
421.32273,0.03645
419.83295,0.02207
418.34316,0.01289
416.85337,0.00374
415.36358,0.01071
413.87379,0.02308
412.38400,0.02826
410.89422,0.03346
409.40443,0.03461
407.91464,0.03504
406.42485,0.01828
404.93506,0.01885
403.44527,0.01945
401.95548,0.02461
400.46570,0.02201
398.97591,0.02481
397.48612,0.02764
395.99633,0.02993
394.50654,0.02521
393.01675,0.02736
391.52697,0.02954
390.03718,0.00601
388.54739,0.00866
387.05760,0.01300
385.56781,0.01736
384.07802,0.02490
382.58824,0.00876
381.09845,0.01190
379.60866,0.01506
378.11887,0.04250
376.62908,0.01017
375.13929,0.00507
373.64950,0.00000
372.15972,0.00421
370.66993,0.01029
369.18014,0.01276
367.69035,0.01525
366.20056,0.02378
364.71077,0.03067
363.22099,0.02490
361.73120,0.01916
360.24141,0.03094
358.75162,0.06458
357.26183,0.05502
355.77204,0.04549
354.28225,0.06698
352.79247,0.04556
351.30268,0.04359
349.81289,0.04165
348.32310,0.05991
346.83331,0.04210
345.34352,0.05282
343.85374,0.06356
342.36395,0.05822
340.87416,0.05827
339.38437,0.05613
337.89458,0.05401
336.40479,0.02193
334.91501,0.01338
333.42522,0.01485
331.93543,0.01634
330.44564,0.00601
328.95585,0.01684
327.46606,0.02149
325.97627,0.02617
324.48649,0.05597
322.99670,0.05284
321.50691,0.05945
320.01712,0.06609
318.52733,0.05821
317.03754,0.07943
315.54776,0.06938
314.05797,0.05936
312.56818,0.05510
311.07839,0.09086
309.58860,0.07350
308.09881,0.05617
306.60902,0.04072
305.11924,0.00955
303.62945,0.01145
302.13966,0.01338
300.64987,0.01209
299.16008,0.00601
