1778.52000,0.00703
1777.03021,0.01458
1775.54042,0.01077
1774.05063,0.00883
1772.56085,0.00189
1771.07106,0.00000
1769.58127,0.01271
1768.09148,0.00742
1766.60169,0.00534
1765.11190,0.00726
1763.62212,0.00470
1762.13233,0.00560
1760.64254,0.01421
1759.15275,0.00642
1757.66296,0.01429
1756.17317,0.00469
1754.68339,0.00704
1753.19360,0.01206
1751.70381,0.00519
1750.21402,0.01423
1748.72423,0.00661
1747.23444,0.00855
1745.74465,0.00469
1744.25487,0.01121
1742.76508,0.00954
1741.27529,0.01160
1739.78550,0.00812
1738.29571,0.01411
1736.80592,0.01191
1735.31614,0.01212
1733.82635,0.01262
1732.33656,0.00281
1730.84677,0.00733
1729.35698,0.00737
1727.86719,0.00743
1726.37740,0.01547
1724.88762,0.00790
1723.39783,0.00591
1721.90804,0.00607
1720.41825,0.00891
1718.92846,0.01229
1717.43867,0.00935
1715.94889,0.00642
1714.45910,0.01241
1712.96931,0.01340
1711.47952,0.01467
1709.98973,0.01331
1708.49994,0.00642
1707.01016,0.00843
1705.52037,0.01046
1704.03058,0.01000
1702.54079,0.00983
1701.05100,0.01896
1699.56121,0.01910
1698.07142,0.02244
1696.58164,0.02581
1695.09185,0.02099
1693.60206,0.01514
1692.11227,0.02626
1690.62248,0.02814
1689.13269,0.03560
1687.64291,0.03222
1686.15312,0.03602
1684.66333,0.03243
1683.17354,0.03893
1681.68375,0.04784
1680.19396,0.03346
1678.70417,0.04294
1677.21439,0.04477
1675.72460,0.04529
1674.23481,0.06253
1672.74502,0.04218
1671.25523,0.06132
1669.76544,0.07068
1668.27566,0.07875
1666.78587,0.06750
1665.29608,0.08117
1663.80629,0.08083
1662.31650,0.07972
1660.82671,0.07651
1659.33693,0.10140
1657.84714,0.08473
1656.35735,0.08743
1654.86756,0.08220
1653.37777,0.08652
1651.88798,0.07393
1650.39819,0.08572
1648.90841,0.08350
1647.41862,0.08686
1645.92883,0.08641
1644.43904,0.08599
1642.94925,0.07644
1641.45946,0.08547
1639.96968,0.09558
1638.47989,0.09220
1636.99010,0.08699
1635.50031,0.07466
1634.01052,0.09042
1632.52073,0.07999
1631.03094,0.07170
1629.54116,0.09628
1628.05137,0.08857
1626.56158,0.07929
1625.07179,0.09600
1623.58200,0.10398
1622.09221,0.09240
1620.60243,0.09381
1619.11264,0.09286
1617.62285,0.08240
1616.13306,0.07674
1614.64327,0.09520
1613.15348,0.09727
1611.66370,0.08717
1610.17391,0.08451
1608.68412,0.09353
1607.19433,0.08907
1605.70454,0.09179
1604.21475,0.09452
1602.72496,0.09728
1601.23518,0.09451
1599.74539,0.08328
1598.25560,0.08638
1596.76581,0.09956
1595.27602,0.08311
1593.78623,0.09370
1592.29645,0.08285
1590.80666,0.08607
1589.31687,0.07527
1587.82708,0.08834
1586.33729,0.08315
1584.84750,0.08435
1583.35771,0.08530
1581.86793,0.08443
1580.37814,0.09152
1578.88835,0.06368
1577.39856,0.09042
1575.90877,0.07825
1574.41898,0.05551
1572.92920,0.05954
1571.43941,0.06016
1569.94962,0.05921
1568.45983,0.05829
1566.97004,0.04759
1565.48025,0.04432
1563.99047,0.04718
1562.50068,0.03099
1561.01089,0.05217
1559.52110,0.04662
1558.03131,0.05513
1556.54152,0.04354
1555.05173,0.03277
1553.56195,0.03870
1552.07216,0.03672
1550.58237,0.01410
1549.09258,0.01534
1547.60279,0.01634
1546.11300,0.01312
1544.62322,0.01894
1543.13343,0.01445
1541.64364,0.01608
1540.15385,0.01124
1538.66406,0.00642
1537.17427,0.01767
1535.68448,0.01675
1534.19470,0.01480
1532.70491,0.01685
1531.21512,0.01283
1529.72533,0.00644
1528.23554,0.01545
1526.74575,0.03216
1525.25597,0.02188
1523.76618,0.02168
1522.27639,0.03820
1520.78660,0.02932
1519.29681,0.02151
1517.80702,0.04128
1516.31724,0.06187
1514.82745,0.04990
1513.33766,0.04325
1511.84787,0.03663
1510.35808,0.03532
1508.86829,0.03802
1507.37850,0.04339
1505.88872,0.04242
1504.39893,0.06559
1502.90914,0.06043
1501.41935,0.07411
1499.92956,0.08940
1498.43977,0.07266
1496.94999,0.07263
1495.46020,0.08640
1493.97041,0.08298
1492.48062,0.08382
1490.99083,0.09475
1489.50104,0.10173
1488.01125,0.10821
1486.52147,0.11471
1485.03168,0.13845
1483.54189,0.14685
1482.05210,0.18600
1480.56231,0.18438
1479.07252,0.20849
1477.58274,0.22308
1476.09295,0.22365
1474.60316,0.21816
1473.11337,0.23229
1471.62358,0.23638
1470.13379,0.23360
1468.64401,0.24119
1467.15422,0.26760
1465.66443,0.27880
1464.17464,0.29003
1462.68485,0.34168
1461.19506,0.37773
1459.70527,0.40161
1458.21549,0.47108
1456.72570,0.53263
1455.23591,0.59446
1453.74612,0.63301
1452.25633,0.68059
1450.76654,0.69826
1449.27676,0.69450
1447.78697,0.68494
1446.29718,0.65447
1444.80739,0.65038
1443.31760,0.64632
1441.82781,0.60268
1440.33802,0.56463
1438.84824,0.53772
1437.35845,0.52435
1435.86866,0.48266
1434.37887,0.51146
1432.88908,0.54080
1431.39929,0.56673
1429.90951,0.61494
1428.41972,0.71667
1426.92993,0.80466
1425.44014,0.83413
1423.95035,0.86627
1422.46056,0.89844
1420.97078,0.94997
1419.48099,0.93503
1417.99120,0.92780
1416.50141,0.91821
1415.01162,0.87738
1413.52183,0.84267
1412.03204,0.75660
1410.54226,0.70949
1409.05247,0.68201
1407.56268,0.64475
1406.07289,0.60963
1404.58310,0.57440
1403.09331,0.53920
1401.60353,0.47449
1400.11374,0.42596
1398.62395,0.37745
1397.13416,0.31387
1395.64437,0.26143
1394.15458,0.22492
1392.66479,0.19214
1391.17501,0.16812
1389.68522,0.12532
1388.19543,0.11565
1386.70564,0.10522
1385.21585,0.09481
1383.72606,0.06932
1382.23628,0.03909
1380.74649,0.03776
1379.25670,0.01446
1377.76691,0.02271
1376.27712,0.01298
1374.78733,0.00803
1373.29755,0.01317
1371.80776,0.00642
1370.31797,0.02203
1368.82818,0.02110
1367.33839,0.02020
1365.84860,0.03879
1364.35881,0.02112
1362.86903,0.04347
1361.37924,0.06663
1359.88945,0.08771
1358.39966,0.11013
1356.90987,0.14740
1355.42008,0.19822
1353.93030,0.24110
1352.44051,0.28137
1350.95072,0.32166
1349.46093,0.38131
1347.97114,0.48098
1346.48135,0.54650
1344.99156,0.64039
1343.50178,0.68239
1342.01199,0.71991
1340.52220,0.77494
1339.03241,0.83608
1337.54262,0.85724
1336.05283,0.87367
1334.56305,0.89011
1333.07326,0.89705
1331.58347,0.92096
1330.09368,0.91417
1328.60389,0.90343
1327.11410,0.88874
1325.62432,0.84440
1324.13453,0.84830
1322.64474,0.80084
1321.15495,0.77591
1319.66516,0.75498
1318.17537,0.73408
1316.68558,0.68883
1315.19580,0.62268
1313.70601,0.57536
1312.21622,0.51561
1310.72643,0.48317
1309.23664,0.44917
1307.74685,0.41492
1306.25707,0.40189
1304.76728,0.38677
1303.27749,0.37166
1301.78770,0.32718
1300.29791,0.26948
1298.80812,0.21816
1297.31834,0.17535
1295.82855,0.15851
1294.33876,0.14753
1292.84897,0.12306
1291.35918,0.09040
1289.86939,0.09379
1288.37960,0.09721
1286.88982,0.07601
1285.40003,0.06438
1283.91024,0.06072
1282.42045,0.06449
1280.93066,0.05876
1279.44087,0.05384
1277.95109,0.04842
1276.46130,0.04965
1274.97151,0.05169
1273.48172,0.05376
1271.99193,0.05134
1270.50214,0.04843
1269.01235,0.02858
1267.52257,0.02836
1266.03278,0.01518
1264.54299,0.03249
1263.05320,0.01380
1261.56341,0.01010
1260.07362,0.00642
1258.58384,0.00998
1257.09405,0.02574
1255.60426,0.02855
1254.11447,0.01628
1252.62468,0.01251
1251.13489,0.02758
1249.64511,0.02147
1248.15532,0.01910
1246.66553,0.02589
1245.17574,0.03271
1243.68595,0.02458
1242.19616,0.01701
1240.70637,0.01264
1239.21659,0.02816
1237.72680,0.02093
1236.23701,0.04815
1234.74722,0.04282
1233.25743,0.04347
1231.76764,0.04414
1230.27786,0.03517
1228.78807,0.05325
1227.29828,0.03505
1225.80849,0.02430
1224.31870,0.00642
1222.82891,0.02460
1221.33912,0.03405
1219.84934,0.02684
1218.35955,0.01966
1216.86976,0.04614
1215.37997,0.06602
1213.89018,0.05572
1212.40039,0.07062
1210.91061,0.08554
1209.42082,0.07559
1207.93103,0.07095
1206.44124,0.06634
1204.95145,0.07898
1203.46166,0.07945
1201.97188,0.06034
1200.48209,0.06139
1198.99230,0.08048
1197.50251,0.05535
1196.01272,0.04641
1194.52293,0.03735
1193.03314,0.02832
1191.54336,0.02554
1190.05357,0.01670
1188.56378,0.04813
1187.07399,0.03139
1185.58420,0.03427
1184.09441,0.04459
1182.60463,0.04354
1181.11484,0.04252
1179.62505,0.02245
1178.13526,0.02889
1176.64547,0.02396
1175.15568,0.02701
1173.66589,0.02823
1172.17611,0.00642
1170.68632,0.00870
1169.19653,0.01100
1167.70674,0.02472
1166.21695,0.03369
1164.72716,0.04242
1163.23738,0.03767
1161.74759,0.04486
1160.25780,0.05366
1158.76801,0.06354
1157.27822,0.07346
1155.78843,0.07650
1154.29865,0.08911
1152.80886,0.09803
1151.31907,0.11969
1149.82928,0.12416
1148.33949,0.13104
1146.84970,0.12337
1145.35991,0.11572
1143.87013,0.12956
1142.38034,0.15878
1140.89055,0.17584
1139.40076,0.19982
1137.91097,0.18567
1136.42118,0.21154
1134.93140,0.20950
1133.44161,0.20747
1131.95182,0.23210
1130.46203,0.24509
1128.97224,0.25413
1127.48245,0.26055
1125.99266,0.24924
1124.50288,0.26339
1123.01309,0.26060
1121.52330,0.25785
1120.03351,0.26809
1118.54372,0.27227
1117.05393,0.24945
1115.56415,0.27036
1114.07436,0.25766
1112.58457,0.26789
1111.09478,0.27815
1109.60499,0.27214
1108.11520,0.25556
1106.62542,0.25702
1105.13563,0.25796
1103.64584,0.25179
1102.15605,0.25146
1100.66626,0.24321
1099.17647,0.23498
1097.68668,0.21672
1096.19690,0.22311
1094.70711,0.22767
1093.21732,0.22378
1091.72753,0.19633
1090.23774,0.19289
1088.74795,0.18947
1087.25817,0.18964
1085.76838,0.17660
1084.27859,0.18054
1082.78880,0.16622
1081.29901,0.18238
1079.80922,0.19752
1078.31943,0.19559
1076.82965,0.19368
1075.33986,0.18398
1073.85007,0.17935
1072.36028,0.17261
1070.87049,0.19213
1069.38070,0.23709
1067.89092,0.24791
1066.40113,0.25876
1064.91134,0.32287
1063.42155,0.36794
1061.93176,0.46256
1060.44197,0.51456
1058.95219,0.60976
1057.46240,0.63690
1055.97261,0.66408
1054.48282,0.76597
1052.99303,0.85173
1051.50324,0.87023
1050.01345,0.82227
1048.52367,0.84294
1047.03388,0.83582
1045.54409,0.82872
1044.05430,0.78245
1042.56451,0.73434
1041.07472,0.71486
1039.58494,0.63475
1038.09515,0.59360
1036.60536,0.57619
1035.11557,0.55880
1033.62578,0.49494
1032.13599,0.43323
1030.64620,0.36253
1029.15642,0.32338
1027.66663,0.29432
1026.17684,0.26529
1024.68705,0.23336
1023.19726,0.22185
1021.70747,0.16481
1020.21769,0.14514
1018.72790,0.15861
1017.23811,0.15780
1015.74832,0.15701
1014.25853,0.12605
1012.76874,0.11789
1011.27896,0.10181
1009.78917,0.10058
1008.29938,0.09568
1006.80959,0.07649
1005.31980,0.05733
1003.83001,0.05090
1002.34022,0.05430
1000.85044,0.04210
999.36065,0.02780
997.87086,0.04094
996.38107,0.05410
994.89128,0.07431
993.40149,0.07574
991.91171,0.07268
990.42192,0.07230
988.93213,0.10267
987.44234,0.10790
985.95255,0.11315
984.46276,0.12188
982.97297,0.10095
981.48319,0.09939
979.99340,0.06925
978.50361,0.06694
977.01382,0.06465
975.52403,0.04570
974.03424,0.05009
972.54446,0.03808
971.05467,0.02688
969.56488,0.01174
968.07509,0.00907
966.58530,0.00642
965.09551,0.01105
963.60573,0.02286
962.11594,0.04423
960.62615,0.02668
959.13636,0.03472
957.64657,0.04278
956.15678,0.04385
954.66699,0.04070
953.17721,0.03572
951.68742,0.06865
950.19763,0.06200
948.70784,0.05537
947.21805,0.06638
945.72826,0.08616
944.23848,0.09616
942.74869,0.12526
941.25890,0.16100
939.76911,0.15067
938.27932,0.14037
936.78953,0.17327
935.29974,0.18633
933.80996,0.19518
932.32017,0.21729
930.83038,0.21559
929.34059,0.21391
927.85080,0.24907
926.36101,0.27207
924.87123,0.31205
923.38144,0.34994
921.89165,0.38480
920.40186,0.41969
918.91207,0.51460
917.42228,0.61748
915.93250,0.75217
914.44271,0.97191
912.95292,1.09023
911.46313,1.20857
909.97334,1.41699
908.48355,1.65140
906.99376,1.84478
905.50398,1.99023
904.01419,1.98181
902.52440,1.97341
901.03461,2.00000
899.54482,1.98767
898.05503,1.84717
896.56525,1.72946
895.07546,1.60556
893.58567,1.48167
892.09588,1.19742
890.60609,0.94287
889.11630,0.70211
887.62651,0.51514
886.13673,0.44370
884.64694,0.37228
883.15715,0.27704
881.66736,0.20673
880.17757,0.15180
878.68778,0.13266
877.19800,0.11354
875.70821,0.08067
874.21842,0.04862
872.72863,0.03832
871.23884,0.02460
869.74905,0.03262
868.25927,0.04066
866.76948,0.02224
865.27969,0.02107
863.78990,0.01991
862.30011,0.02726
860.81032,0.02986
859.32053,0.03249
857.83075,0.05474
856.34096,0.08973
854.85117,0.08555
853.36138,0.08509
851.87159,0.08413
850.38180,0.08319
848.89202,0.13234
847.40223,0.12457
845.91244,0.14092
844.42265,0.14484
842.93286,0.14879
841.44307,0.12919
839.95329,0.15253
838.46350,0.19099
836.97371,0.19397
835.48392,0.19924
833.99413,0.20452
832.50434,0.20599
831.01455,0.18365
829.52477,0.18410
828.03498,0.15015
826.54519,0.13688
825.05540,0.12364
823.56561,0.11730
822.07582,0.09960
820.58604,0.10180
819.09625,0.10057
817.60646,0.09936
816.11667,0.08096
814.62688,0.07822
813.13709,0.07391
811.64730,0.09002
810.15752,0.08960
808.66773,0.08920
807.17794,0.10273
805.68815,0.10702
804.19836,0.09782
802.70857,0.09831
801.21879,0.09883
799.72900,0.09473
798.23921,0.08828
796.74942,0.07840
795.25963,0.08166
793.76984,0.08495
792.28006,0.09236
790.79027,0.10298
789.30048,0.11945
787.81069,0.13197
786.32090,0.14796
784.83111,0.16397
783.34132,0.19802
781.85154,0.23421
780.36175,0.24500
778.87196,0.26985
777.38217,0.29472
775.89238,0.31935
774.40259,0.31037
772.91281,0.30326
771.42302,0.30254
769.93323,0.30184
768.44344,0.27573
766.95365,0.23667
765.46386,0.22703
763.97407,0.17212
762.48429,0.16042
760.99450,0.14873
759.50471,0.14131
758.01492,0.11458
756.52513,0.10376
755.03534,0.08887
753.54556,0.07399
752.05577,0.06563
750.56598,0.05279
749.07619,0.03336
747.58640,0.04109
746.09661,0.04886
744.60683,0.03293
743.11704,0.04511
741.62725,0.02686
740.13746,0.02107
738.64767,0.01531
737.15788,0.02070
735.66809,0.02559
734.17831,0.02732
732.68852,0.02019
731.19873,0.01310
729.70894,0.00642
728.21915,0.01537
726.72936,0.02038
725.23958,0.02673
723.74979,0.02462
722.26000,0.02255
720.77021,0.02155
719.28042,0.01740
717.79063,0.01381
716.30084,0.01010
714.81106,0.00642
713.32127,0.01020
711.83148,0.02222
710.34169,0.04088
708.85190,0.03665
707.36211,0.03244
705.87233,0.04959
704.38254,0.05219
702.89275,0.03627
701.40296,0.04116
699.91317,0.04609
698.42338,0.05911
696.93360,0.07852
695.44381,0.10695
693.95402,0.10946
692.46423,0.11198
690.97444,0.12884
689.48465,0.15075
687.99486,0.16950
686.50508,0.18179
685.01529,0.19411
683.52550,0.22697
682.03571,0.26172
680.54592,0.27159
679.05613,0.25817
677.56635,0.24478
676.07656,0.27061
674.58677,0.25833
673.09698,0.25216
671.60719,0.24376
670.11740,0.23539
668.62761,0.17658
667.13783,0.16521
665.64804,0.14128
664.15825,0.11738
662.66846,0.11429
661.17867,0.08818
659.68888,0.08805
658.19910,0.06319
656.70931,0.03834
655.21952,0.03299
653.72973,0.03243
652.23994,0.04753
650.75015,0.05509
649.26037,0.06269
647.77058,0.03732
646.28079,0.03662
644.79100,0.02799
643.30121,0.02773
641.81142,0.02750
640.32163,0.01974
638.83185,0.02657
637.34206,0.03608
635.85227,0.02124
634.36248,0.00642
632.87269,0.00789
631.38290,0.01893
629.89312,0.00932
628.40333,0.02252
626.91354,0.03574
625.42375,0.01879
623.93396,0.00769
622.44417,0.01595
620.95438,0.02424
619.46460,0.04632
617.97481,0.05545
616.48502,0.07255
614.99523,0.08093
613.50544,0.08934
612.01565,0.10306
610.52587,0.15443
609.03608,0.17827
607.54629,0.18955
606.05650,0.20086
604.56671,0.23722
603.07692,0.31811
601.58714,0.35055
600.09735,0.38301
598.60756,0.41974
597.11777,0.41622
595.62798,0.39578
594.13819,0.39867
592.64840,0.40158
591.15862,0.38571
589.66883,0.33225
588.17904,0.26239
586.68925,0.22395
585.19946,0.18552
583.70967,0.16501
582.21989,0.11511
580.73010,0.09305
579.24031,0.07102
577.75052,0.09086
576.26073,0.04848
574.77094,0.02996
573.28115,0.04391
571.79137,0.05789
570.30158,0.03202
568.81179,0.03956
567.32200,0.05917
565.83221,0.07881
564.34242,0.07000
562.85264,0.10677
561.36285,0.11972
559.87306,0.11402
558.38327,0.10835
556.89348,0.10681
555.40369,0.09867
553.91391,0.10909
552.42412,0.11954
550.93433,0.13796
549.44454,0.14925
547.95475,0.17063
546.46496,0.16767
544.97517,0.16473
543.48539,0.18565
541.99560,0.19548
540.50581,0.21897
539.01602,0.24248
537.52623,0.27542
536.03644,0.33567
534.54666,0.36892
533.05687,0.39372
531.56708,0.41854
530.07729,0.45982
528.58750,0.53952
527.09771,0.56905
525.60792,0.59861
524.11814,0.67335
522.62835,0.70786
521.13856,0.77841
519.64877,0.79667
518.15898,0.81496
516.66919,0.83128
515.17941,0.84074
513.68962,0.85155
512.19983,0.86238
510.71004,0.84092
509.22025,0.80836
507.73046,0.70934
506.24068,0.65219
504.75089,0.59506
503.26110,0.46591
501.77131,0.38261
500.28152,0.34529
498.79173,0.30800
497.30194,0.24013
495.81216,0.15931
494.32237,0.13851
492.83258,0.11773
491.34279,0.08573
489.85300,0.06010
488.36321,0.07370
486.87343,0.05991
485.38364,0.04614
483.89385,0.05266
482.40406,0.07192
480.91427,0.08895
479.42448,0.10601
477.93469,0.09832
476.44491,0.11052
474.95512,0.11904
473.46533,0.12758
471.97554,0.12529
470.48575,0.12885
468.99596,0.14117
467.50618,0.13550
466.01639,0.12986
464.52660,0.09325
463.03681,0.07203
461.54702,0.06156
460.05723,0.05111
458.56745,0.03923
457.07766,0.02844
455.58787,0.02296
454.09808,0.01751
452.60829,0.01368
451.11850,0.00642
449.62871,0.00723
448.13893,0.00806
446.64914,0.00719
445.15935,0.01323
443.66956,0.01082
442.17977,0.00910
440.68998,0.00740
439.20020,0.01963
437.71041,0.01388
436.22062,0.02284
434.73083,0.03184
433.24104,0.01105
431.75125,0.03559
430.26146,0.03763
428.77168,0.03970
427.28189,0.04842
425.79210,0.02775
424.30231,0.03029
422.81252,0.03285
421.32273,0.02418
419.83295,0.01712
418.34316,0.01963
416.85337,0.02215
415.36358,0.00642
413.87379,0.02464
412.38400,0.02342
410.89422,0.02221
409.40443,0.02408
407.91464,0.02677
406.42485,0.00564
404.93506,0.00850
403.44527,0.01139
401.95548,0.02212
400.46570,0.00639
398.97591,0.02366
397.48612,0.04095
395.99633,0.03164
394.50654,0.03825
393.01675,0.03257
391.52697,0.02691
390.03718,0.01134
388.54739,0.02387
387.05760,0.02000
385.56781,0.01616
384.07802,0.00836
382.58824,0.00642
381.09845,0.01381
379.60866,0.02122
378.11887,0.04256
376.62908,0.01862
375.13929,0.01312
373.64950,0.00765
372.15972,0.01955
370.66993,0.02167
369.18014,0.01574
367.69035,0.00983
366.20056,0.04108
364.71077,0.05541
363.22099,0.04341
361.73120,0.03142
360.24141,0.02596
358.75162,0.05760
357.26183,0.05443
355.77204,0.05129
354.28225,0.04962
352.79247,0.07050
351.30268,0.06637
349.81289,0.06226
348.32310,0.03579
346.83331,0.04299
345.34352,0.03445
343.85374,0.02594
342.36395,0.03427
340.87416,0.04474
339.38437,0.04663
337.89458,0.04854
336.40479,0.03207
334.91501,0.03018
333.42522,0.03389
331.93543,0.03762
330.44564,0.03449
328.95585,0.03482
327.46606,0.02061
325.97627,0.00642
324.48649,0.04766
322.99670,0.06005
321.50691,0.05100
320.01712,0.04198
318.52733,0.06901
317.03754,0.08891
315.54776,0.08632
314.05797,0.08375
312.56818,0.06691
311.07839,0.08054
309.58860,0.07461
308.09881,0.06869
306.60902,0.08134
305.11924,0.06700
303.62945,0.04513
302.13966,0.02329
300.64987,0.02676
299.16008,0.00642
