1778.52000,0.00445
1777.03021,0.00755
1775.54042,0.01647
1774.05063,0.01431
1772.56085,0.00665
1771.07106,0.02214
1769.58127,0.01741
1768.09148,0.01440
1766.60169,0.01454
1765.11190,0.02434
1763.62212,0.01393
1762.13233,0.01897
1760.64254,0.01583
1759.15275,0.02020
1757.66296,0.02025
1756.17317,0.02514
1754.68339,0.02934
1753.19360,0.01861
1751.70381,0.01876
1750.21402,0.01725
1748.72423,0.02178
1747.23444,0.01405
1745.74465,0.02653
1744.25487,0.03421
1742.76508,0.03252
1741.27529,0.02193
1739.78550,0.02005
1738.29571,0.01964
1736.80592,0.01877
1735.31614,0.02057
1733.82635,0.02144
1732.33656,0.01679
1730.84677,0.00638
1729.35698,0.01868
1727.86719,0.00715
1726.37740,0.00696
1724.88762,0.01621
1723.39783,0.01704
1721.90804,0.00970
1720.41825,0.00793
1718.92846,0.01125
1717.43867,0.01748
1715.94889,0.01193
1714.45910,0.00665
1712.96931,0.00964
1711.47952,0.01338
1709.98973,0.00607
1708.49994,0.01140
1707.01016,0.01097
1705.52037,0.01056
1704.03058,0.00825
1702.54079,0.01561
1701.05100,0.02637
1699.56121,0.02461
1698.07142,0.02722
1696.58164,0.01974
1695.09185,0.02914
1693.60206,0.03183
1692.11227,0.04153
1690.62248,0.03462
1689.13269,0.02605
1687.64291,0.02932
1686.15312,0.03960
1684.66333,0.04966
1683.17354,0.04288
1681.68375,0.04696
1680.19396,0.05806
1678.70417,0.05979
1677.21439,0.06226
1675.72460,0.07151
1674.23481,0.06801
1672.74502,0.06959
1671.25523,0.07578
1669.76544,0.08705
1668.27566,0.08726
1666.78587,0.09834
1665.29608,0.10559
1663.80629,0.10516
1662.31650,0.10691
1660.82671,0.10942
1659.33693,0.11146
1657.84714,0.11137
1656.35735,0.09153
1654.86756,0.09654
1653.37777,0.09507
1651.88798,0.11315
1650.39819,0.09679
1648.90841,0.09708
1647.41862,0.08100
1645.92883,0.08833
1644.43904,0.09569
1642.94925,0.09487
1641.45946,0.08637
1639.96968,0.10175
1638.47989,0.10270
1636.99010,0.08752
1635.50031,0.08442
1634.01052,0.07290
1632.52073,0.06575
1631.03094,0.07478
1629.54116,0.07731
1628.05137,0.09530
1626.56158,0.08608
1625.07179,0.10002
1623.58200,0.10555
1622.09221,0.09159
1620.60243,0.10633
1619.11264,0.10422
1617.62285,0.09852
1616.13306,0.09309
1614.64327,0.08430
1613.15348,0.08615
1611.66370,0.09140
1610.17391,0.08317
1608.68412,0.09545
1607.19433,0.09644
1605.70454,0.09045
1604.21475,0.08715
1602.72496,0.08386
1601.23518,0.08518
1599.74539,0.08556
1598.25560,0.07609
1596.76581,0.08423
1595.27602,0.07746
1593.78623,0.08951
1592.29645,0.07170
1590.80666,0.09608
1589.31687,0.08700
1587.82708,0.07938
1586.33729,0.06770
1584.84750,0.07989
1583.35771,0.07862
1581.86793,0.06411
1580.37814,0.08096
1578.88835,0.07663
1577.39856,0.06942
1575.90877,0.07623
1574.41898,0.06257
1572.92920,0.05761
1571.43941,0.06183
1569.94962,0.05704
1568.45983,0.05228
1566.97004,0.03850
1565.48025,0.03607
1563.99047,0.03488
1562.50068,0.04214
1561.01089,0.03256
1559.52110,0.04638
1558.03131,0.04263
1556.54152,0.04108
1555.05173,0.04124
1553.56195,0.05250
1552.07216,0.04187
1550.58237,0.02426
1549.09258,0.01199
1547.60279,0.00552
1546.11300,0.02583
1544.62322,0.01218
1543.13343,0.02434
1541.64364,0.00665
1540.15385,0.01174
1538.66406,0.01686
1537.17427,0.02333
1535.68448,0.00909
1534.19470,0.01966
1532.70491,0.01627
1531.21512,0.01629
1529.72533,0.02596
1528.23554,0.02048
1526.74575,0.02707
1525.25597,0.03490
1523.76618,0.03551
1522.27639,0.03664
1520.78660,0.03972
1519.29681,0.02860
1517.80702,0.04136
1516.31724,0.05464
1514.82745,0.05564
1513.33766,0.05631
1511.84787,0.05701
1510.35808,0.04917
1508.86829,0.03340
1507.37850,0.03574
1505.88872,0.03183
1504.39893,0.03421
1502.90914,0.05349
1501.41935,0.06364
1499.92956,0.06272
1498.43977,0.07123
1496.94999,0.07446
1495.46020,0.06494
1493.97041,0.08606
1492.48062,0.07707
1490.99083,0.09510
1489.50104,0.09870
1488.01125,0.10509
1486.52147,0.11150
1485.03168,0.13204
1483.54189,0.15574
1482.05210,0.17850
1480.56231,0.19839
1479.07252,0.19950
1477.58274,0.22812
1476.09295,0.23555
1474.60316,0.24132
1473.11337,0.23337
1471.62358,0.25847
1470.13379,0.26552
1468.64401,0.25693
1467.15422,0.28403
1465.66443,0.30814
1464.17464,0.33228
1462.68485,0.34259
1461.19506,0.36304
1459.70527,0.40737
1458.21549,0.47752
1456.72570,0.56023
1455.23591,0.62127
1453.74612,0.66233
1452.25633,0.70800
1450.76654,0.70910
1449.27676,0.70492
1447.78697,0.68029
1446.29718,0.67616
1444.80739,0.67025
1443.31760,0.66437
1441.82781,0.59524
1440.33802,0.55699
1438.84824,0.54118
1437.35845,0.51672
1435.86866,0.49637
1434.37887,0.49799
1432.88908,0.55024
1431.39929,0.55962
1429.90951,0.63722
1428.41972,0.67075
1426.92993,0.76118
1425.44014,0.81548
1423.95035,0.84655
1422.46056,0.87765
1420.97078,0.91708
1419.48099,0.89171
1417.99120,0.86733
1416.50141,0.87020
1415.01162,0.87189
1413.52183,0.82156
1412.03204,0.73678
1410.54226,0.69299
1409.05247,0.62080
1407.56268,0.59899
1406.07289,0.56396
1404.58310,0.53570
1403.09331,0.50747
1401.60353,0.44383
1400.11374,0.39877
1398.62395,0.34097
1397.13416,0.29861
1395.64437,0.25435
1394.15458,0.20144
1392.66479,0.17723
1391.17501,0.14823
1389.68522,0.11853
1388.19543,0.10500
1386.70564,0.09488
1385.21585,0.08477
1383.72606,0.04963
1382.23628,0.02222
1380.74649,0.00665
1379.25670,0.01623
1377.76691,0.02005
1376.27712,0.01184
1374.78733,0.00703
1373.29755,0.00514
1371.80776,0.00718
1370.31797,0.01309
1368.82818,0.01229
1367.33839,0.01150
1365.84860,0.00665
1364.35881,0.03666
1362.86903,0.03440
1361.37924,0.05699
1359.88945,0.06924
1358.39966,0.09790
1356.90987,0.13478
1355.42008,0.17434
1353.93030,0.23080
1352.44051,0.26775
1350.95072,0.30473
1349.46093,0.33355
1347.97114,0.42987
1346.48135,0.50862
1344.99156,0.58305
1343.50178,0.65679
1342.01199,0.67464
1340.52220,0.73445
1339.03241,0.81067
1337.54262,0.83848
1336.05283,0.85208
1334.56305,0.86572
1333.07326,0.87335
1331.58347,0.90366
1330.09368,0.90990
1328.60389,0.87567
1327.11410,0.88147
1325.62432,0.80608
1324.13453,0.79145
1322.64474,0.77106
1321.15495,0.73719
1319.66516,0.72227
1318.17537,0.70738
1316.68558,0.66563
1315.19580,0.60993
1313.70601,0.54221
1312.21622,0.53356
1310.72643,0.47914
1309.23664,0.42836
1307.74685,0.40388
1306.25707,0.38231
1304.76728,0.35811
1303.27749,0.33395
1301.78770,0.32764
1300.29791,0.28496
1298.80812,0.23893
1297.31834,0.18256
1295.82855,0.15201
1294.33876,0.12703
1292.84897,0.08736
1291.35918,0.09328
1289.86939,0.09512
1288.37960,0.09698
1286.88982,0.09261
1285.40003,0.08657
1283.91024,0.08007
1282.42045,0.06348
1280.93066,0.05077
1279.44087,0.05109
1277.95109,0.05361
1276.46130,0.05519
1274.97151,0.04897
1273.48172,0.04276
1271.99193,0.04731
1270.50214,0.05381
1269.01235,0.05358
1267.52257,0.04278
1266.03278,0.03971
1264.54299,0.04318
1263.05320,0.05052
1261.56341,0.04151
1260.07362,0.03251
1258.58384,0.03005
1257.09405,0.00665
1255.60426,0.03634
1254.11447,0.03570
1252.62468,0.02110
1251.13489,0.03111
1249.64511,0.02813
1248.15532,0.01433
1246.66553,0.02152
1245.17574,0.02873
1243.68595,0.03549
1242.19616,0.03287
1240.70637,0.02450
1239.21659,0.01205
1237.72680,0.01336
1236.23701,0.02796
1234.74722,0.01510
1233.25743,0.02143
1231.76764,0.02778
1230.27786,0.01861
1228.78807,0.03429
1227.29828,0.03289
1225.80849,0.03585
1224.31870,0.03136
1222.82891,0.00665
1221.33912,0.01219
1219.84934,0.02101
1218.35955,0.02985
1216.86976,0.05619
1215.37997,0.04809
1213.89018,0.06508
1212.40039,0.08041
1210.91061,0.08227
1209.42082,0.08150
1207.93103,0.07305
1206.44124,0.06461
1204.95145,0.06320
1203.46166,0.07000
1201.97188,0.05899
1200.48209,0.06126
1198.99230,0.06452
1197.50251,0.06202
1196.01272,0.04002
1194.52293,0.03323
1193.03314,0.02647
1191.54336,0.01684
1190.05357,0.03253
1188.56378,0.01837
1187.07399,0.00665
1185.58420,0.02094
1184.09441,0.01935
1182.60463,0.02598
1181.11484,0.03264
1179.62505,0.02414
1178.13526,0.02602
1176.64547,0.01877
1175.15568,0.02456
1173.66589,0.02050
1172.17611,0.01766
1170.68632,0.01473
1169.19653,0.01182
1167.70674,0.00665
1166.21695,0.01951
1164.72716,0.02540
1163.23738,0.02819
1161.74759,0.02354
1160.25780,0.05072
1158.76801,0.05816
1157.27822,0.06562
1155.78843,0.05576
1154.29865,0.06521
1152.80886,0.06479
1151.31907,0.09598
1149.82928,0.10791
1148.33949,0.11769
1146.84970,0.11930
1145.35991,0.12094
1143.87013,0.12092
1142.38034,0.13418
1140.89055,0.14697
1139.40076,0.17330
1137.91097,0.17602
1136.42118,0.20625
1134.93140,0.21047
1133.44161,0.21471
1131.95182,0.21151
1130.46203,0.23485
1128.97224,0.23652
1127.48245,0.25219
1125.99266,0.24475
1124.50288,0.24697
1123.01309,0.24380
1121.52330,0.24065
1120.03351,0.25356
1118.54372,0.24118
1117.05393,0.23798
1115.56415,0.24325
1114.07436,0.25287
1112.58457,0.25168
1111.09478,0.25051
1109.60499,0.24744
1108.11520,0.24367
1106.62542,0.23679
1105.13563,0.22439
1103.64584,0.22480
1102.15605,0.21799
1100.66626,0.22206
1099.17647,0.22615
1097.68668,0.21122
1096.19690,0.20210
1094.70711,0.20627
1093.21732,0.19503
1091.72753,0.20358
1090.23774,0.19457
1088.74795,0.18557
1087.25817,0.18239
1085.76838,0.17513
1084.27859,0.16573
1082.78880,0.18624
1081.29901,0.18195
1079.80922,0.16973
1078.31943,0.18140
1076.82965,0.19309
1075.33986,0.18600
1073.85007,0.15966
1072.36028,0.17769
1070.87049,0.18105
1069.38070,0.20346
1067.89092,0.22964
1066.40113,0.25585
1064.91134,0.30437
1063.42155,0.36930
1061.93176,0.44173
1060.44197,0.52937
1058.95219,0.57919
1057.46240,0.62085
1055.97261,0.66253
1054.48282,0.76810
1052.99303,0.87346
1051.50324,0.86870
1050.01345,0.85552
1048.52367,0.84238
1047.03388,0.83672
1045.54409,0.83110
1044.05430,0.80718
1042.56451,0.76545
1041.07472,0.71169
1039.58494,0.65387
1038.09515,0.58088
1036.60536,0.55202
1035.11557,0.52319
1033.62578,0.48715
1032.13599,0.41354
1030.64620,0.34068
1029.15642,0.29604
1027.66663,0.26492
1026.17684,0.23383
1024.68705,0.21963
1023.19726,0.19437
1021.70747,0.18359
1020.21769,0.14319
1018.72790,0.15585
1017.23811,0.15129
1015.74832,0.14676
1014.25853,0.11393
1012.76874,0.11367
1011.27896,0.13488
1009.78917,0.13346
1008.29938,0.10652
1006.80959,0.08068
1005.31980,0.05488
1003.83001,0.02704
1002.34022,0.02912
1000.85044,0.03894
999.36065,0.03528
997.87086,0.03201
996.38107,0.02876
994.89128,0.06085
993.40149,0.06717
991.91171,0.05881
990.42192,0.05410
988.93213,0.08291
987.44234,0.09222
985.95255,0.10156
984.46276,0.08128
982.97297,0.06898
981.48319,0.07164
979.99340,0.04661
978.50361,0.05451
977.01382,0.06243
975.52403,0.04253
974.03424,0.02026
972.54446,0.01078
971.05467,0.02084
969.56488,0.00731
968.07509,0.01008
966.58530,0.01287
965.09551,0.00665
963.60573,0.01670
962.11594,0.02317
960.62615,0.01689
959.13636,0.02196
957.64657,0.02705
956.15678,0.05314
954.66699,0.05106
953.17721,0.04345
951.68742,0.05371
950.19763,0.04989
948.70784,0.04609
947.21805,0.08076
945.72826,0.09546
944.23848,0.10608
942.74869,0.13817
941.25890,0.15510
939.76911,0.15724
938.27932,0.15940
936.78953,0.18388
935.29974,0.17585
933.80996,0.17435
932.32017,0.19867
930.83038,0.19818
929.34059,0.19772
927.85080,0.23898
926.36101,0.24989
924.87123,0.26951
923.38144,0.32988
921.89165,0.35726
920.40186,0.38466
918.91207,0.47017
917.42228,0.59475
915.93250,0.72562
914.44271,0.93822
912.95292,1.04588
911.46313,1.15357
909.97334,1.36744
908.48355,1.59532
906.99376,1.78997
905.50398,1.90004
904.01419,1.95001
902.52440,2.00000
901.03461,1.98531
899.54482,1.92388
898.05503,1.80584
896.56525,1.63022
895.07546,1.53899
893.58567,1.44777
892.09588,1.16908
890.60609,0.95958
889.11630,0.71829
887.62651,0.49751
886.13673,0.43318
884.64694,0.36886
883.15715,0.27469
881.66736,0.18440
880.17757,0.13004
878.68778,0.11728
877.19800,0.10455
875.70821,0.06882
874.21842,0.04373
872.72863,0.03384
871.23884,0.02181
869.74905,0.01956
868.25927,0.01734
866.76948,0.01863
865.27969,0.02598
863.78990,0.02877
862.30011,0.03713
860.81032,0.04443
859.32053,0.05176
857.83075,0.06742
856.34096,0.08022
854.85117,0.08919
853.36138,0.09866
851.87159,0.09839
850.38180,0.09815
848.89202,0.10650
847.40223,0.11727
845.91244,0.15241
844.42265,0.15758
842.93286,0.16276
841.44307,0.18304
839.95329,0.18213
838.46350,0.19425
836.97371,0.20544
835.48392,0.20931
833.99413,0.21320
832.50434,0.20711
831.01455,0.18995
829.52477,0.19548
828.03498,0.16705
826.54519,0.15901
825.05540,0.15100
823.56561,0.11879
822.07582,0.09841
820.58604,0.08553
819.09625,0.07966
817.60646,0.07382
816.11667,0.06776
814.62688,0.07932
813.13709,0.09356
811.64730,0.09528
810.15752,0.08800
808.66773,0.08074
807.17794,0.09676
805.68815,0.10051
804.19836,0.09850
802.70857,0.10315
801.21879,0.10782
799.72900,0.08806
798.23921,0.07097
796.74942,0.07969
795.25963,0.07747
793.76984,0.07527
792.28006,0.09564
790.79027,0.10350
789.30048,0.11210
787.81069,0.13302
786.32090,0.14408
784.83111,0.15517
783.34132,0.19424
781.85154,0.22466
780.36175,0.26233
778.87196,0.27943
777.38217,0.29654
775.89238,0.32778
774.40259,0.33109
772.91281,0.32623
771.42302,0.31693
769.93323,0.30766
768.44344,0.27612
766.95365,0.24099
765.46386,0.22902
763.97407,0.16767
762.48429,0.15611
760.99450,0.14458
759.50471,0.12186
758.01492,0.11363
756.52513,0.09988
755.03534,0.09266
753.54556,0.08547
752.05577,0.07710
750.56598,0.07285
749.07619,0.03319
747.58640,0.03381
746.09661,0.03445
744.60683,0.03368
743.11704,0.02063
741.62725,0.00665
740.13746,0.00829
738.64767,0.00996
737.15788,0.00587
735.66809,0.01314
734.17831,0.02573
732.68852,0.02292
731.19873,0.02013
729.70894,0.00484
728.21915,0.01864
726.72936,0.01898
725.23958,0.01163
723.74979,0.02081
722.26000,0.03002
720.77021,0.03166
719.28042,0.02416
717.79063,0.02296
716.30084,0.01479
714.81106,0.00665
713.32127,0.03109
711.83148,0.02881
710.34169,0.03692
708.85190,0.03590
707.36211,0.03490
705.87233,0.03922
704.38254,0.04815
702.89275,0.06555
701.40296,0.06127
699.91317,0.05702
698.42338,0.07906
696.93360,0.09245
695.44381,0.09213
693.95402,0.10883
692.46423,0.12555
690.97444,0.12385
689.48465,0.14508
687.99486,0.17139
686.50508,0.18701
685.01529,0.20265
683.52550,0.21987
682.03571,0.24894
680.54592,0.27080
679.05613,0.26773
677.56635,0.26469
676.07656,0.26469
674.58677,0.26882
673.09698,0.25344
671.60719,0.24026
670.11740,0.22710
668.62761,0.18649
667.13783,0.17001
665.64804,0.15632
664.15825,0.14266
662.66846,0.11179
661.17867,0.08963
659.68888,0.07134
658.19910,0.06091
656.70931,0.05050
655.21952,0.03157
653.72973,0.05170
652.23994,0.06125
650.75015,0.05757
649.26037,0.05392
647.77058,0.05366
646.28079,0.05801
644.79100,0.03804
643.30121,0.03618
641.81142,0.03433
640.32163,0.02408
638.83185,0.03650
637.34206,0.04004
635.85227,0.02407
634.36248,0.00813
632.87269,0.01862
631.38290,0.01732
629.89312,0.00665
628.40333,0.01994
626.91354,0.03327
625.42375,0.03661
623.93396,0.02094
622.44417,0.01964
620.95438,0.01836
619.46460,0.04952
617.97481,0.06552
616.48502,0.09287
614.99523,0.09663
613.50544,0.10041
612.01565,0.12085
610.52587,0.14758
609.03608,0.19458
607.54629,0.20678
606.05650,0.21900
604.56671,0.24872
603.07692,0.30642
601.58714,0.35041
600.09735,0.39442
598.60756,0.43075
597.11777,0.43553
595.62798,0.45455
594.13819,0.43491
592.64840,0.41530
591.15862,0.37125
589.66883,0.31952
588.17904,0.26853
586.68925,0.24974
585.19946,0.23098
583.70967,0.16102
582.21989,0.14219
580.73010,0.12940
579.24031,0.11664
577.75052,0.08631
576.26073,0.08035
574.77094,0.04982
573.28115,0.04632
571.79137,0.04284
570.30158,0.05047
568.81179,0.04945
567.32200,0.05292
565.83221,0.05640
564.34242,0.08582
562.85264,0.10250
561.36285,0.13823
559.87306,0.14628
558.38327,0.15435
556.89348,0.14340
555.40369,0.13971
553.91391,0.15268
552.42412,0.16567
550.93433,0.17001
549.44454,0.18280
547.95475,0.19852
546.46496,0.19570
544.97517,0.19290
543.48539,0.20508
541.99560,0.23920
540.50581,0.25155
539.01602,0.26391
537.52623,0.29956
536.03644,0.33958
534.54666,0.37841
533.05687,0.40714
531.56708,0.43590
530.07729,0.49361
528.58750,0.55350
527.09771,0.59162
525.60792,0.62975
524.11814,0.69599
522.62835,0.72225
521.13856,0.77624
519.64877,0.81520
518.15898,0.85418
516.66919,0.89500
515.17941,0.83317
513.68962,0.82306
512.19983,0.81297
510.71004,0.81798
509.22025,0.74925
507.73046,0.68682
506.24068,0.64719
504.75089,0.60759
503.26110,0.50040
501.77131,0.38553
500.28152,0.33491
498.79173,0.28432
497.30194,0.21194
495.81216,0.16682
494.32237,0.15992
492.83258,0.15305
491.34279,0.10824
489.85300,0.08708
488.36321,0.09727
486.87343,0.08724
485.38364,0.07724
483.89385,0.07256
482.40406,0.07924
480.91427,0.09474
479.42448,0.11026
477.93469,0.10520
476.44491,0.12933
474.95512,0.13770
473.46533,0.14609
471.97554,0.16113
470.48575,0.15619
468.99596,0.16598
467.50618,0.16580
466.01639,0.16564
464.52660,0.12971
463.03681,0.10393
461.54702,0.08721
460.05723,0.07052
458.56745,0.05276
457.07766,0.03576
455.58787,0.03637
454.09808,0.03701
452.60829,0.03502
451.11850,0.03305
449.62871,0.02593
448.13893,0.01884
446.64914,0.01936
445.15935,0.00665
443.66956,0.01457
442.17977,0.01866
440.68998,0.02277
439.20020,0.02306
437.71041,0.03276
436.22062,0.04117
434.73083,0.04960
433.24104,0.05553
431.75125,0.02629
430.26146,0.02648
428.77168,0.02669
427.28189,0.02284
425.79210,0.03973
424.30231,0.03918
422.81252,0.03865
421.32273,0.03874
419.83295,0.02802
418.34316,0.03407
416.85337,0.04015
415.36358,0.04685
413.87379,0.03671
412.38400,0.03310
410.89422,0.02951
409.40443,0.03053
407.91464,0.02506
406.42485,0.03095
404.93506,0.01879
403.44527,0.00665
401.95548,0.01305
400.46570,0.02863
398.97591,0.02918
397.48612,0.02975
395.99633,0.02420
394.50654,0.05001
393.01675,0.03487
391.52697,0.01975
390.03718,0.02780
388.54739,0.00816
387.05760,0.00940
385.56781,0.01067
384.07802,0.00799
382.58824,0.01305
381.09845,0.00921
379.60866,0.00540
378.11887,0.02354
376.62908,0.02387
375.13929,0.01471
373.64950,0.00558
372.15972,0.02285
370.66993,0.01172
369.18014,0.01129
367.69035,0.01089
366.20056,0.01341
364.71077,0.05114
363.22099,0.02888
361.73120,0.00665
360.24141,0.02208
358.75162,0.01682
357.26183,0.02146
355.77204,0.02612
354.28225,0.02792
352.79247,0.04059
351.30268,0.03846
349.81289,0.03636
348.32310,0.06091
346.83331,0.01029
345.34352,0.00888
343.85374,0.00749
342.36395,0.01431
340.87416,0.02960
339.38437,0.02202
337.89458,0.01446
336.40479,0.05971
334.91501,0.02641
333.42522,0.02122
331.93543,0.01605
330.44564,0.01006
328.95585,0.00000
327.46606,0.00997
325.97627,0.01996
324.48649,0.02564
322.99670,0.05303
321.50691,0.04249
320.01712,0.03198
318.52733,0.05029
317.03754,0.06910
315.54776,0.06987
314.05797,0.07066
312.56818,0.07075
311.07839,0.06821
309.58860,0.07980
308.09881,0.09142
306.60902,0.03931
305.11924,0.05471
303.62945,0.03615
302.13966,0.01761
300.64987,0.01694
299.16008,0.00665
