1778.52000,0.01252
1777.03021,0.01914
1775.54042,0.01387
1774.05063,0.01513
1772.56085,0.01559
1771.07106,0.00931
1769.58127,0.01389
1768.09148,0.01605
1766.60169,0.00875
1765.11190,0.00636
1763.62212,0.01320
1762.13233,0.01492
1760.64254,0.01395
1759.15275,0.01490
1757.66296,0.01588
1756.17317,0.00280
1754.68339,0.00870
1753.19360,0.00677
1751.70381,0.00297
1750.21402,0.00000
1748.72423,0.00898
1747.23444,0.01446
1745.74465,0.00263
1744.25487,0.00382
1742.76508,0.01425
1741.27529,0.02308
1739.78550,0.01838
1738.29571,0.01940
1736.80592,0.00636
1735.31614,0.01359
1733.82635,0.00242
1732.33656,0.01376
1730.84677,0.00453
1729.35698,0.02161
1727.86719,0.00485
1726.37740,0.01872
1724.88762,0.01176
1723.39783,0.00645
1721.90804,0.01417
1720.41825,0.00592
1718.92846,0.01856
1717.43867,0.00793
1715.94889,0.01547
1714.45910,0.01302
1712.96931,0.00787
1711.47952,0.01467
1709.98973,0.01689
1708.49994,0.01589
1707.01016,0.01111
1705.52037,0.00636
1704.03058,0.01483
1702.54079,0.01655
1701.05100,0.01152
1699.56121,0.03144
1698.07142,0.01535
1696.58164,0.02096
1695.09185,0.02334
1693.60206,0.02548
1692.11227,0.02276
1690.62248,0.01953
1689.13269,0.02851
1687.64291,0.03264
1686.15312,0.02623
1684.66333,0.02796
1683.17354,0.03135
1681.68375,0.04018
1680.19396,0.03116
1678.70417,0.04518
1677.21439,0.03946
1675.72460,0.05434
1674.23481,0.05137
1672.74502,0.04464
1671.25523,0.05499
1669.76544,0.04749
1668.27566,0.07550
1666.78587,0.06507
1665.29608,0.06739
1663.80629,0.08328
1662.31650,0.08457
1660.82671,0.07775
1659.33693,0.10807
1657.84714,0.09941
1656.35735,0.09700
1654.86756,0.08595
1653.37777,0.07980
1651.88798,0.08803
1650.39819,0.08626
1648.90841,0.08966
1647.41862,0.09742
1645.92883,0.09667
1644.43904,0.09594
1642.94925,0.09673
1641.45946,0.08942
1639.96968,0.10949
1638.47989,0.12606
1636.99010,0.11231
1635.50031,0.09914
1634.01052,0.10495
1632.52073,0.09642
1631.03094,0.09063
1629.54116,0.10410
1628.05137,0.08860
1626.56158,0.10347
1625.07179,0.11647
1623.58200,0.10592
1622.09221,0.10326
1620.60243,0.10170
1619.11264,0.10612
1617.62285,0.09703
1616.13306,0.10069
1614.64327,0.10627
1613.15348,0.10781
1611.66370,0.08635
1610.17391,0.11395
1608.68412,0.11014
1607.19433,0.10501
1605.70454,0.10261
1604.21475,0.09928
1602.72496,0.09598
1601.23518,0.10584
1599.74539,0.08972
1598.25560,0.08554
1596.76581,0.08627
1595.27602,0.09189
1593.78623,0.08155
1592.29645,0.08045
1590.80666,0.10078
1589.31687,0.08970
1587.82708,0.07242
1586.33729,0.09417
1584.84750,0.07613
1583.35771,0.07788
1581.86793,0.06774
1580.37814,0.06737
1578.88835,0.06649
1577.39856,0.08892
1575.90877,0.08348
1574.41898,0.05640
1572.92920,0.05561
1571.43941,0.04022
1569.94962,0.04286
1568.45983,0.04554
1566.97004,0.04295
1565.48025,0.03307
1563.99047,0.03405
1562.50068,0.02937
1561.01089,0.02038
1559.52110,0.02198
1558.03131,0.03443
1556.54152,0.02172
1555.05173,0.01852
1553.56195,0.01885
1552.07216,0.01651
1550.58237,0.02340
1549.09258,0.01297
1547.60279,0.00203
1546.11300,0.00843
1544.62322,0.01349
1543.13343,0.01154
1541.64364,0.00744
1540.15385,0.00689
1538.66406,0.00636
1537.17427,0.00750
1535.68448,0.00976
1534.19470,0.01420
1532.70491,0.02164
1531.21512,0.00636
1529.72533,0.02308
1528.23554,0.01788
1526.74575,0.02815
1525.25597,0.02571
1523.76618,0.03115
1522.27639,0.03065
1520.78660,0.04453
1519.29681,0.04571
1517.80702,0.04800
1516.31724,0.04814
1514.82745,0.05074
1513.33766,0.05147
1511.84787,0.05223
1510.35808,0.04976
1508.86829,0.04108
1507.37850,0.03080
1505.88872,0.03436
1504.39893,0.03686
1502.90914,0.04318
1501.41935,0.06578
1499.92956,0.07431
1498.43977,0.07799
1496.94999,0.06436
1495.46020,0.07243
1493.97041,0.08485
1492.48062,0.09675
1490.99083,0.10245
1489.50104,0.12118
1488.01125,0.12571
1486.52147,0.13026
1485.03168,0.14553
1483.54189,0.16138
1482.05210,0.19946
1480.56231,0.21182
1479.07252,0.20851
1477.58274,0.23528
1476.09295,0.24095
1474.60316,0.25016
1473.11337,0.25100
1471.62358,0.24618
1470.13379,0.27091
1468.64401,0.27020
1467.15422,0.30039
1465.66443,0.30894
1464.17464,0.31751
1462.68485,0.32366
1461.19506,0.38565
1459.70527,0.43249
1458.21549,0.52486
1456.72570,0.56525
1455.23591,0.63031
1453.74612,0.69458
1452.25633,0.71933
1450.76654,0.73407
1449.27676,0.74641
1447.78697,0.71515
1446.29718,0.72347
1444.80739,0.69538
1443.31760,0.66731
1441.82781,0.62206
1440.33802,0.57873
1438.84824,0.56686
1437.35845,0.52981
1435.86866,0.50281
1434.37887,0.54545
1432.88908,0.59164
1431.39929,0.59505
1429.90951,0.69060
1428.41972,0.75392
1426.92993,0.84816
1425.44014,0.88959
1423.95035,0.91751
1422.46056,0.94544
1420.97078,0.98993
1419.48099,1.00898
1417.99120,0.96330
1416.50141,0.99052
1415.01162,0.98933
1413.52183,0.91934
1412.03204,0.85209
1410.54226,0.77105
1409.05247,0.72878
1407.56268,0.66810
1406.07289,0.62154
1404.58310,0.59233
1403.09331,0.56316
1401.60353,0.49147
1400.11374,0.43688
1398.62395,0.39720
1397.13416,0.31855
1395.64437,0.28570
1394.15458,0.23418
1392.66479,0.19894
1391.17501,0.18052
1389.68522,0.14451
1388.19543,0.11422
1386.70564,0.10413
1385.21585,0.09407
1383.72606,0.05654
1382.23628,0.04612
1380.74649,0.02705
1379.25670,0.02156
1377.76691,0.01961
1376.27712,0.00332
1374.78733,0.01144
1373.29755,0.01038
1371.80776,0.01232
1370.31797,0.01618
1368.82818,0.01126
1367.33839,0.00636
1365.84860,0.02535
1364.35881,0.02351
1362.86903,0.03280
1361.37924,0.03643
1359.88945,0.08640
1358.39966,0.10931
1356.90987,0.14714
1355.42008,0.18526
1353.93030,0.26026
1352.44051,0.29084
1350.95072,0.32146
1349.46093,0.37810
1347.97114,0.45373
1346.48135,0.52234
1344.99156,0.59097
1343.50178,0.68970
1342.01199,0.76570
1340.52220,0.80163
1339.03241,0.88011
1337.54262,0.90011
1336.05283,0.92486
1334.56305,0.94965
1333.07326,0.96240
1331.58347,0.98466
1330.09368,0.98527
1328.60389,0.96098
1327.11410,0.93428
1325.62432,0.91383
1324.13453,0.86875
1322.64474,0.82723
1321.15495,0.79683
1319.66516,0.78636
1318.17537,0.77592
1316.68558,0.72339
1315.19580,0.66220
1313.70601,0.58777
1312.21622,0.58677
1310.72643,0.52729
1309.23664,0.46728
1307.74685,0.44252
1306.25707,0.40315
1304.76728,0.38467
1303.27749,0.36621
1301.78770,0.33206
1300.29791,0.26732
1298.80812,0.23729
1297.31834,0.18885
1295.82855,0.15426
1294.33876,0.14678
1292.84897,0.10221
1291.35918,0.09749
1289.86939,0.10823
1288.37960,0.11900
1286.88982,0.08888
1285.40003,0.06963
1283.91024,0.07505
1282.42045,0.06912
1280.93066,0.03802
1279.44087,0.04839
1277.95109,0.03250
1276.46130,0.05890
1274.97151,0.04591
1273.48172,0.03295
1271.99193,0.04235
1270.50214,0.03363
1269.01235,0.05040
1267.52257,0.03279
1266.03278,0.02604
1264.54299,0.02934
1263.05320,0.02562
1261.56341,0.02476
1260.07362,0.02393
1258.58384,0.00890
1257.09405,0.00636
1255.60426,0.01368
1254.11447,0.01181
1252.62468,0.00916
1251.13489,0.00978
1249.64511,0.00907
1248.15532,0.01587
1246.66553,0.01647
1245.17574,0.01709
1243.68595,0.02071
1242.19616,0.01705
1240.70637,0.00636
1239.21659,0.01556
1237.72680,0.01611
1236.23701,0.02156
1234.74722,0.03380
1233.25743,0.02955
1231.76764,0.02532
1230.27786,0.02924
1228.78807,0.02994
1227.29828,0.03743
1225.80849,0.02626
1224.31870,0.01754
1222.82891,0.00967
1221.33912,0.00994
1219.84934,0.02283
1218.35955,0.03575
1216.86976,0.03529
1215.37997,0.03701
1213.89018,0.05312
1212.40039,0.07656
1210.91061,0.07213
1209.42082,0.07666
1207.93103,0.07092
1206.44124,0.06521
1204.95145,0.06710
1203.46166,0.07390
1201.97188,0.04170
1200.48209,0.06480
1198.99230,0.07519
1197.50251,0.07991
1196.01272,0.06461
1194.52293,0.04744
1193.03314,0.03030
1191.54336,0.03457
1190.05357,0.02587
1188.56378,0.00636
1187.07399,0.02627
1185.58420,0.03753
1184.09441,0.01550
1182.60463,0.01164
1181.11484,0.00781
1179.62505,0.02161
1178.13526,0.02351
1176.64547,0.02354
1175.15568,0.01872
1173.66589,0.01609
1172.17611,0.01539
1170.68632,0.01592
1169.19653,0.01648
1167.70674,0.00636
1166.21695,0.02022
1164.72716,0.03790
1163.23738,0.04828
1161.74759,0.05057
1160.25780,0.05883
1158.76801,0.07349
1157.27822,0.08817
1155.78843,0.09055
1154.29865,0.08781
1152.80886,0.09972
1151.31907,0.12601
1149.82928,0.14149
1148.33949,0.13397
1146.84970,0.13893
1145.35991,0.14392
1143.87013,0.14216
1142.38034,0.16751
1140.89055,0.18042
1139.40076,0.20474
1137.91097,0.22529
1136.42118,0.22500
1134.93140,0.22176
1133.44161,0.21854
1131.95182,0.23485
1130.46203,0.24008
1128.97224,0.26971
1127.48245,0.27174
1125.99266,0.25591
1124.50288,0.25230
1123.01309,0.25819
1121.52330,0.26410
1120.03351,0.25920
1118.54372,0.26896
1117.05393,0.26384
1115.56415,0.26822
1114.07436,0.25909
1112.58457,0.25364
1111.09478,0.24821
1109.60499,0.25540
1108.11520,0.24636
1106.62542,0.23409
1105.13563,0.24569
1103.64584,0.26517
1102.15605,0.25298
1100.66626,0.24771
1099.17647,0.24248
1097.68668,0.23659
1096.19690,0.23262
1094.70711,0.22786
1093.21732,0.22015
1091.72753,0.22492
1090.23774,0.21061
1088.74795,0.19634
1087.25817,0.21472
1085.76838,0.19846
1084.27859,0.20823
1082.78880,0.20041
1081.29901,0.21971
1079.80922,0.20544
1078.31943,0.21152
1076.82965,0.21761
1075.33986,0.22129
1073.85007,0.20224
1072.36028,0.20814
1070.87049,0.23249
1069.38070,0.26769
1067.89092,0.28273
1066.40113,0.29780
1064.91134,0.37127
1063.42155,0.46346
1061.93176,0.52045
1060.44197,0.63680
1058.95219,0.70332
1057.46240,0.75484
1055.97261,0.80638
1054.48282,0.89275
1052.99303,0.99567
1051.50324,1.02737
1050.01345,0.98378
1048.52367,0.96108
1047.03388,0.95750
1045.54409,0.95394
1044.05430,0.89718
1042.56451,0.85046
1041.07472,0.77452
1039.58494,0.71214
1038.09515,0.59858
1036.60536,0.57513
1035.11557,0.55169
1033.62578,0.52165
1032.13599,0.44259
1030.64620,0.37982
1029.15642,0.30352
1027.66663,0.27641
1026.17684,0.24933
1024.68705,0.24191
1023.19726,0.21068
1021.70747,0.18706
1020.21769,0.15127
1018.72790,0.12715
1017.23811,0.12270
1015.74832,0.11827
1014.25853,0.11996
1012.76874,0.11735
1011.27896,0.09037
1009.78917,0.09918
1008.29938,0.07496
1006.80959,0.06377
1005.31980,0.05260
1003.83001,0.03956
1002.34022,0.03278
1000.85044,0.05310
999.36065,0.06045
997.87086,0.06891
996.38107,0.07739
994.89128,0.08021
993.40149,0.10093
991.91171,0.12818
990.42192,0.10398
988.93213,0.14211
987.44234,0.13922
985.95255,0.13636
984.46276,0.15750
982.97297,0.13558
981.48319,0.11911
979.99340,0.10267
978.50361,0.09857
977.01382,0.09450
975.52403,0.07650
974.03424,0.06313
972.54446,0.05493
971.05467,0.02346
969.56488,0.00664
968.07509,0.01045
966.58530,0.01429
965.09551,0.00636
963.60573,0.00889
962.11594,0.01497
960.62615,0.01891
959.13636,0.01312
957.64657,0.00735
956.15678,0.02328
954.66699,0.02731
953.17721,0.04058
951.68742,0.05279
950.19763,0.04578
948.70784,0.03881
947.21805,0.06707
945.72826,0.06177
944.23848,0.09441
942.74869,0.13683
941.25890,0.13133
939.76911,0.13425
938.27932,0.13719
936.78953,0.14991
935.29974,0.16780
933.80996,0.17001
932.32017,0.17819
930.83038,0.19358
929.34059,0.20900
927.85080,0.24028
926.36101,0.27078
924.87123,0.33760
923.38144,0.39605
921.89165,0.41714
920.40186,0.43825
918.91207,0.53632
917.42228,0.66936
915.93250,0.80567
914.44271,1.03628
912.95292,1.15274
911.46313,1.26921
909.97334,1.46224
908.48355,1.70649
906.99376,1.82372
905.50398,1.95045
904.01419,1.97521
902.52440,2.00000
901.03461,1.95262
899.54482,1.92693
898.05503,1.81404
896.56525,1.64564
895.07546,1.52738
893.58567,1.40915
892.09588,1.15196
890.60609,0.90781
889.11630,0.67587
887.62651,0.49570
886.13673,0.42418
884.64694,0.35268
883.15715,0.25222
881.66736,0.18646
880.17757,0.14673
878.68778,0.13181
877.19800,0.11691
875.70821,0.09270
874.21842,0.06878
872.72863,0.05951
871.23884,0.04349
869.74905,0.04090
868.25927,0.03834
866.76948,0.01536
865.27969,0.03411
863.78990,0.02959
862.30011,0.05218
860.81032,0.06478
859.32053,0.07740
857.83075,0.09465
856.34096,0.11625
854.85117,0.10863
853.36138,0.12866
851.87159,0.13490
850.38180,0.14116
848.89202,0.15422
847.40223,0.16893
845.91244,0.19287
844.42265,0.19896
842.93286,0.20507
841.44307,0.22990
839.95329,0.24202
838.46350,0.26202
836.97371,0.26687
835.48392,0.27311
833.99413,0.27936
832.50434,0.26614
831.01455,0.23018
829.52477,0.22703
828.03498,0.22445
826.54519,0.20170
825.05540,0.17898
823.56561,0.16726
822.07582,0.15556
820.58604,0.12438
819.09625,0.12912
817.60646,0.13388
816.11667,0.11875
814.62688,0.12478
813.13709,0.13435
811.64730,0.13474
810.15752,0.13339
808.66773,0.13207
807.17794,0.12630
805.68815,0.17690
804.19836,0.13569
802.70857,0.14408
801.21879,0.15249
799.72900,0.12192
798.23921,0.12577
796.74942,0.12180
795.25963,0.12191
793.76984,0.12205
792.28006,0.14550
790.79027,0.14975
789.30048,0.17109
787.81069,0.19570
786.32090,0.20639
784.83111,0.21710
783.34132,0.25776
781.85154,0.28247
780.36175,0.33159
778.87196,0.34375
777.38217,0.35593
775.89238,0.36448
774.40259,0.39419
772.91281,0.37055
771.42302,0.36441
769.93323,0.35830
768.44344,0.31631
766.95365,0.26433
765.46386,0.24162
763.97407,0.18671
762.48429,0.17570
760.99450,0.16472
759.50471,0.13561
758.01492,0.11032
756.52513,0.09941
755.03534,0.09178
753.54556,0.08416
752.05577,0.07522
750.56598,0.07606
749.07619,0.04712
747.58640,0.04340
746.09661,0.03970
744.60683,0.04090
743.11704,0.01937
741.62725,0.01656
740.13746,0.01837
738.64767,0.02022
737.15788,0.01829
735.66809,0.00636
734.17831,0.01580
732.68852,0.01199
731.19873,0.00820
729.70894,0.01419
728.21915,0.01371
726.72936,0.01704
725.23958,0.00739
723.74979,0.00686
722.26000,0.00636
720.77021,0.01647
719.28042,0.02199
717.79063,0.00505
716.30084,0.00827
714.81106,0.01151
713.32127,0.00502
711.83148,0.00344
710.34169,0.00810
708.85190,0.01388
707.36211,0.01968
705.87233,0.02415
704.38254,0.02376
702.89275,0.04101
701.40296,0.03892
699.91317,0.03685
698.42338,0.03981
696.93360,0.04903
695.44381,0.08049
693.95402,0.08447
692.46423,0.08848
690.97444,0.12190
689.48465,0.13991
687.99486,0.14088
686.50508,0.16489
685.01529,0.18893
683.52550,0.19404
682.03571,0.22571
680.54592,0.23411
679.05613,0.23644
677.56635,0.23879
676.07656,0.23237
674.58677,0.24736
673.09698,0.21904
671.60719,0.21391
670.11740,0.20880
668.62761,0.17540
667.13783,0.15151
665.64804,0.13510
664.15825,0.11870
662.66846,0.09841
661.17867,0.07299
659.68888,0.05166
658.19910,0.04322
656.70931,0.03480
655.21952,0.02465
653.72973,0.03999
652.23994,0.05372
650.75015,0.04581
649.26037,0.03792
647.77058,0.03683
646.28079,0.03630
644.79100,0.02469
643.30121,0.02137
641.81142,0.01807
640.32163,0.01304
638.83185,0.02834
637.34206,0.02254
635.85227,0.02192
634.36248,0.02131
632.87269,0.01423
631.38290,0.00636
629.89312,0.00666
628.40333,0.01442
626.91354,0.02222
625.42375,0.00498
623.93396,0.00835
622.44417,0.00849
620.95438,0.00866
619.46460,0.04164
617.97481,0.06786
616.48502,0.07975
614.99523,0.08489
613.50544,0.09006
612.01565,0.11394
610.52587,0.11346
609.03608,0.17180
607.54629,0.18789
606.05650,0.20402
604.56671,0.26053
603.07692,0.29972
601.58714,0.34721
600.09735,0.39471
598.60756,0.44644
597.11777,0.43399
595.62798,0.44433
594.13819,0.43613
592.64840,0.42795
591.15862,0.39284
589.66883,0.33284
588.17904,0.27502
586.68925,0.25069
585.19946,0.22638
583.70967,0.17758
582.21989,0.16185
580.73010,0.13490
579.24031,0.10798
577.75052,0.09232
576.26073,0.08455
574.77094,0.08005
573.28115,0.06961
571.79137,0.05920
570.30158,0.06913
568.81179,0.06797
567.32200,0.08147
565.83221,0.09499
564.34242,0.12642
562.85264,0.15570
561.36285,0.16144
559.87306,0.17370
558.38327,0.18599
556.89348,0.18801
555.40369,0.20116
553.91391,0.21108
552.42412,0.22103
550.93433,0.23507
549.44454,0.26240
547.95475,0.27675
546.46496,0.25903
544.97517,0.24133
543.48539,0.26605
541.99560,0.28511
540.50581,0.31597
539.01602,0.34686
537.52623,0.36002
536.03644,0.39868
534.54666,0.45009
533.05687,0.46266
531.56708,0.47524
530.07729,0.52402
528.58750,0.58013
527.09771,0.61961
525.60792,0.65911
524.11814,0.66789
522.62835,0.71056
521.13856,0.77871
519.64877,0.80897
518.15898,0.83924
516.66919,0.84787
515.17941,0.84461
513.68962,0.84651
512.19983,0.84844
510.71004,0.83170
509.22025,0.77896
507.73046,0.72516
506.24068,0.68492
504.75089,0.64472
503.26110,0.48371
501.77131,0.37637
500.28152,0.33542
498.79173,0.29449
497.30194,0.23598
495.81216,0.19158
494.32237,0.17430
492.83258,0.15704
491.34279,0.11244
489.85300,0.09739
488.36321,0.08562
486.87343,0.08742
485.38364,0.08924
483.89385,0.10328
482.40406,0.10623
480.91427,0.11611
479.42448,0.12602
477.93469,0.13230
476.44491,0.16109
474.95512,0.17391
473.46533,0.18676
471.97554,0.18176
470.48575,0.17597
468.99596,0.18510
467.50618,0.18653
466.01639,0.18799
464.52660,0.14518
463.03681,0.11946
461.54702,0.10460
460.05723,0.08977
458.56745,0.07766
457.07766,0.04094
455.58787,0.04283
454.09808,0.04476
452.60829,0.03654
451.11850,0.02483
449.62871,0.01558
448.13893,0.00636
446.64914,0.03593
445.15935,0.01974
443.66956,0.02118
442.17977,0.02373
440.68998,0.02630
439.20020,0.04190
437.71041,0.03260
436.22062,0.02549
434.73083,0.01841
433.24104,0.04034
431.75125,0.03032
430.26146,0.03130
428.77168,0.03231
427.28189,0.03835
425.79210,0.04089
424.30231,0.04021
422.81252,0.03955
421.32273,0.03214
419.83295,0.01501
418.34316,0.02525
416.85337,0.03553
415.36358,0.02469
413.87379,0.03718
412.38400,0.02694
410.89422,0.01672
409.40443,0.04743
407.91464,0.02697
406.42485,0.02143
404.93506,0.02349
403.44527,0.02559
401.95548,0.01470
400.46570,0.04041
398.97591,0.04027
397.48612,0.04016
395.99633,0.05998
394.50654,0.04461
393.01675,0.03346
391.52697,0.02233
390.03718,0.02391
388.54739,0.02010
387.05760,0.01604
385.56781,0.01200
384.07802,0.00636
382.58824,0.00970
381.09845,0.01658
379.60866,0.02349
378.11887,0.04207
376.62908,0.03873
375.13929,0.03081
373.64950,0.02292
372.15972,0.03780
370.66993,0.02291
369.18014,0.03161
367.69035,0.04033
366.20056,0.03376
364.71077,0.05540
363.22099,0.04847
361.73120,0.04158
360.24141,0.04242
358.75162,0.09883
357.26183,0.07873
355.77204,0.05865
354.28225,0.05689
352.79247,0.07682
351.30268,0.07253
349.81289,0.06826
348.32310,0.06443
346.83331,0.05547
345.34352,0.04206
343.85374,0.02868
342.36395,0.05393
340.87416,0.02881
339.38437,0.03555
337.89458,0.04231
336.40479,0.04761
334.91501,0.05591
333.42522,0.04216
331.93543,0.02843
330.44564,0.03653
328.95585,0.04113
327.46606,0.03073
325.97627,0.02035
324.48649,0.04376
322.99670,0.04688
321.50691,0.03905
320.01712,0.03124
318.52733,0.06261
317.03754,0.06690
315.54776,0.07692
314.05797,0.08695
312.56818,0.05475
311.07839,0.07215
309.58860,0.07007
308.09881,0.06801
306.60902,0.05053
305.11924,0.02604
303.62945,0.02595
302.13966,0.02468
300.64987,0.00636
299.16008,0.00636
