1778.52000,0.00745
1777.03021,0.01578
1775.54042,0.01326
1774.05063,0.01175
1772.56085,0.01126
1771.07106,0.01153
1769.58127,0.00688
1768.09148,0.01214
1766.60169,0.00977
1765.11190,0.00346
1763.62212,0.00509
1762.13233,0.01416
1760.64254,0.01905
1759.15275,0.00617
1757.66296,0.01357
1756.17317,0.00000
1754.68339,0.01463
1753.19360,0.00580
1751.70381,0.00169
1750.21402,0.00847
1748.72423,0.01109
1747.23444,0.00828
1745.74465,0.00996
1744.25487,0.00646
1742.76508,0.00843
1741.27529,0.00523
1739.78550,0.01125
1738.29571,0.00692
1736.80592,0.02041
1735.31614,0.01069
1733.82635,0.00544
1732.33656,0.01357
1730.84677,0.00392
1729.35698,0.00418
1727.86719,0.00620
1726.37740,0.00651
1724.88762,0.01154
1723.39783,0.00597
1721.90804,0.00635
1720.41825,0.01195
1718.92846,0.01634
1717.43867,0.00617
1715.94889,0.01776
1714.45910,0.01652
1712.96931,0.01433
1711.47952,0.01042
1709.98973,0.01049
1708.49994,0.01430
1707.01016,0.01022
1705.52037,0.00617
1704.03058,0.01645
1702.54079,0.01489
1701.05100,0.00916
1699.56121,0.01679
1698.07142,0.01630
1696.58164,0.01410
1695.09185,0.02304
1693.60206,0.02163
1692.11227,0.02593
1690.62248,0.02012
1689.13269,0.02298
1687.64291,0.03847
1686.15312,0.02705
1684.66333,0.03196
1683.17354,0.02825
1681.68375,0.02925
1680.19396,0.03572
1678.70417,0.03529
1677.21439,0.04255
1675.72460,0.04044
1674.23481,0.03959
1672.74502,0.05187
1671.25523,0.05527
1669.76544,0.05968
1668.27566,0.06882
1666.78587,0.07427
1665.29608,0.07455
1663.80629,0.08623
1662.31650,0.07865
1660.82671,0.08791
1659.33693,0.09645
1657.84714,0.09463
1656.35735,0.08666
1654.86756,0.10416
1653.37777,0.09772
1651.88798,0.08735
1650.39819,0.10295
1648.90841,0.08818
1647.41862,0.10111
1645.92883,0.09702
1644.43904,0.09295
1642.94925,0.09681
1641.45946,0.11404
1639.96968,0.10880
1638.47989,0.10458
1636.99010,0.09841
1635.50031,0.09374
1634.01052,0.09849
1632.52073,0.09980
1631.03094,0.09298
1629.54116,0.09360
1628.05137,0.10190
1626.56158,0.10306
1625.07179,0.08794
1623.58200,0.09508
1622.09221,0.11386
1620.60243,0.09535
1619.11264,0.10973
1617.62285,0.10782
1616.13306,0.10075
1614.64327,0.10334
1613.15348,0.09929
1611.66370,0.10835
1610.17391,0.09619
1608.68412,0.10629
1607.19433,0.09788
1605.70454,0.11001
1604.21475,0.10919
1602.72496,0.10839
1601.23518,0.10947
1599.74539,0.09376
1598.25560,0.09934
1596.76581,0.10494
1595.27602,0.10018
1593.78623,0.09965
1592.29645,0.09173
1590.80666,0.10163
1589.31687,0.06929
1587.82708,0.08196
1586.33729,0.09539
1584.84750,0.09031
1583.35771,0.09242
1581.86793,0.08368
1580.37814,0.09029
1578.88835,0.08210
1577.39856,0.06948
1575.90877,0.06578
1574.41898,0.06185
1572.92920,0.05969
1571.43941,0.05507
1569.94962,0.04999
1568.45983,0.04492
1566.97004,0.04384
1565.48025,0.03957
1563.99047,0.04818
1562.50068,0.04371
1561.01089,0.02493
1559.52110,0.03286
1558.03131,0.02352
1556.54152,0.03966
1555.05173,0.03284
1553.56195,0.02704
1552.07216,0.00988
1550.58237,0.01203
1549.09258,0.01001
1547.60279,0.01567
1546.11300,0.01517
1544.62322,0.01445
1543.13343,0.01153
1541.64364,0.00617
1540.15385,0.00996
1538.66406,0.01379
1537.17427,0.01479
1535.68448,0.01286
1534.19470,0.01737
1532.70491,0.01944
1531.21512,0.01906
1529.72533,0.01969
1528.23554,0.02257
1526.74575,0.02350
1525.25597,0.02396
1523.76618,0.02790
1522.27639,0.02841
1520.78660,0.03610
1519.29681,0.03394
1517.80702,0.03032
1516.31724,0.05143
1514.82745,0.03921
1513.33766,0.04332
1511.84787,0.04746
1510.35808,0.03852
1508.86829,0.03158
1507.37850,0.03678
1505.88872,0.04768
1504.39893,0.04848
1502.90914,0.05054
1501.41935,0.07734
1499.92956,0.07005
1498.43977,0.07218
1496.94999,0.07137
1495.46020,0.09307
1493.97041,0.08786
1492.48062,0.10368
1490.99083,0.11656
1489.50104,0.13614
1488.01125,0.14659
1486.52147,0.15707
1485.03168,0.18364
1483.54189,0.21691
1482.05210,0.21016
1480.56231,0.23705
1479.07252,0.25605
1477.58274,0.27039
1476.09295,0.28376
1474.60316,0.28603
1473.11337,0.29648
1471.62358,0.29113
1470.13379,0.29051
1468.64401,0.33811
1467.15422,0.34989
1465.66443,0.35849
1464.17464,0.36711
1462.68485,0.38465
1461.19506,0.43805
1459.70527,0.50038
1458.21549,0.53900
1456.72570,0.61447
1455.23591,0.65908
1453.74612,0.71582
1452.25633,0.74737
1450.76654,0.79180
1449.27676,0.81277
1447.78697,0.78112
1446.29718,0.74752
1444.80739,0.72345
1443.31760,0.69942
1441.82781,0.68319
1440.33802,0.63115
1438.84824,0.57863
1437.35845,0.51922
1435.86866,0.51891
1434.37887,0.54260
1432.88908,0.58064
1431.39929,0.62217
1429.90951,0.71588
1428.41972,0.81480
1426.92993,0.86159
1425.44014,0.93066
1423.95035,0.94895
1422.46056,0.96727
1420.97078,0.99340
1419.48099,1.01238
1417.99120,0.99976
1416.50141,0.98345
1415.01162,0.98248
1413.52183,0.88935
1412.03204,0.86348
1410.54226,0.82254
1409.05247,0.77941
1407.56268,0.73408
1406.07289,0.65170
1404.58310,0.61013
1403.09331,0.56858
1401.60353,0.48800
1400.11374,0.42524
1398.62395,0.38401
1397.13416,0.31685
1395.64437,0.26652
1394.15458,0.22784
1392.66479,0.19906
1391.17501,0.18118
1389.68522,0.15443
1388.19543,0.12227
1386.70564,0.10966
1385.21585,0.09707
1383.72606,0.07610
1382.23628,0.04502
1380.74649,0.05030
1379.25670,0.03682
1377.76691,0.01966
1376.27712,0.01068
1374.78733,0.00617
1373.29755,0.01727
1371.80776,0.01950
1370.31797,0.02769
1368.82818,0.01774
1367.33839,0.00781
1365.84860,0.02141
1364.35881,0.04666
1362.86903,0.05586
1361.37924,0.06632
1359.88945,0.10054
1358.39966,0.09993
1356.90987,0.15396
1355.42008,0.17120
1353.93030,0.24580
1352.44051,0.28656
1350.95072,0.32735
1349.46093,0.39708
1347.97114,0.44977
1346.48135,0.53488
1344.99156,0.62346
1343.50178,0.66758
1342.01199,0.67465
1340.52220,0.75417
1339.03241,0.82802
1337.54262,0.88484
1336.05283,0.90993
1334.56305,0.93504
1333.07326,0.93435
1331.58347,0.96482
1330.09368,0.98420
1328.60389,0.98036
1327.11410,0.96074
1325.62432,0.93594
1324.13453,0.87459
1322.64474,0.83773
1321.15495,0.81845
1319.66516,0.78955
1318.17537,0.76068
1316.68558,0.68388
1315.19580,0.65530
1313.70601,0.58892
1312.21622,0.55174
1310.72643,0.50025
1309.23664,0.49846
1307.74685,0.46506
1306.25707,0.43836
1304.76728,0.41983
1303.27749,0.40133
1301.78770,0.33367
1300.29791,0.28927
1298.80812,0.22808
1297.31834,0.20276
1295.82855,0.18043
1294.33876,0.14156
1292.84897,0.12595
1291.35918,0.10641
1289.86939,0.10518
1288.37960,0.10398
1286.88982,0.09514
1285.40003,0.08459
1283.91024,0.08248
1282.42045,0.06407
1280.93066,0.05409
1279.44087,0.06440
1277.95109,0.06362
1276.46130,0.04407
1274.97151,0.04383
1273.48172,0.04361
1271.99193,0.05157
1270.50214,0.06005
1269.01235,0.02629
1267.52257,0.03507
1266.03278,0.02657
1264.54299,0.02205
1263.05320,0.02892
1261.56341,0.02889
1260.07362,0.02889
1258.58384,0.01038
1257.09405,0.01413
1255.60426,0.03003
1254.11447,0.01974
1252.62468,0.02184
1251.13489,0.00617
1249.64511,0.00710
1248.15532,0.02091
1246.66553,0.01559
1245.17574,0.01029
1243.68595,0.02343
1242.19616,0.02474
1240.70637,0.02112
1239.21659,0.02099
1237.72680,0.03225
1236.23701,0.02351
1234.74722,0.02568
1233.25743,0.02144
1231.76764,0.01723
1230.27786,0.01477
1228.78807,0.02642
1227.29828,0.01882
1225.80849,0.02632
1224.31870,0.00617
1222.82891,0.02719
1221.33912,0.02773
1219.84934,0.03855
1218.35955,0.04939
1216.86976,0.05371
1215.37997,0.06052
1213.89018,0.06340
1212.40039,0.09127
1210.91061,0.08753
1209.42082,0.09543
1207.93103,0.08617
1206.44124,0.07694
1204.95145,0.10172
1203.46166,0.08871
1201.97188,0.07794
1200.48209,0.07264
1198.99230,0.06464
1197.50251,0.07224
1196.01272,0.04106
1194.52293,0.04710
1193.03314,0.05316
1191.54336,0.04529
1190.05357,0.04880
1188.56378,0.03974
1187.07399,0.03416
1185.58420,0.03825
1184.09441,0.03988
1182.60463,0.02548
1181.11484,0.01110
1179.62505,0.01701
1178.13526,0.03135
1176.64547,0.00617
1175.15568,0.01594
1173.66589,0.02229
1172.17611,0.02791
1170.68632,0.03257
1169.19653,0.03726
1167.70674,0.04592
1166.21695,0.04003
1164.72716,0.04281
1163.23738,0.04512
1161.74759,0.05981
1160.25780,0.07206
1158.76801,0.07123
1157.27822,0.07042
1155.78843,0.08472
1154.29865,0.10003
1152.80886,0.10547
1151.31907,0.12552
1149.82928,0.11471
1148.33949,0.13456
1146.84970,0.13516
1145.35991,0.13578
1143.87013,0.13964
1142.38034,0.15095
1140.89055,0.17240
1139.40076,0.17411
1137.91097,0.16596
1136.42118,0.19614
1134.93140,0.20509
1133.44161,0.21407
1131.95182,0.23419
1130.46203,0.21528
1128.97224,0.23866
1127.48245,0.25020
1125.99266,0.23236
1124.50288,0.25581
1123.01309,0.25297
1121.52330,0.25015
1120.03351,0.24970
1118.54372,0.25447
1117.05393,0.24320
1115.56415,0.25098
1114.07436,0.26150
1112.58457,0.25129
1111.09478,0.24110
1109.60499,0.23514
1108.11520,0.23439
1106.62542,0.24973
1105.13563,0.25052
1103.64584,0.24342
1102.15605,0.24054
1100.66626,0.23621
1099.17647,0.23190
1097.68668,0.23404
1096.19690,0.21173
1094.70711,0.22060
1093.21732,0.22504
1091.72753,0.21244
1090.23774,0.21162
1088.74795,0.21081
1087.25817,0.19285
1085.76838,0.20458
1084.27859,0.21188
1082.78880,0.21081
1081.29901,0.20135
1079.80922,0.23913
1078.31943,0.23404
1076.82965,0.22898
1075.33986,0.23396
1073.85007,0.23550
1072.36028,0.25165
1070.87049,0.26658
1069.38070,0.30749
1067.89092,0.32235
1066.40113,0.33724
1064.91134,0.40912
1063.42155,0.49511
1061.93176,0.60980
1060.44197,0.70029
1058.95219,0.82194
1057.46240,0.86478
1055.97261,0.90764
1054.48282,1.04148
1052.99303,1.11256
1051.50324,1.11150
1050.01345,1.13246
1048.52367,1.12947
1047.03388,1.09437
1045.54409,1.05929
1044.05430,0.99755
1042.56451,0.93459
1041.07472,0.85263
1039.58494,0.77514
1038.09515,0.68408
1036.60536,0.65026
1035.11557,0.61647
1033.62578,0.53438
1032.13599,0.45973
1030.64620,0.38585
1029.15642,0.33671
1027.66663,0.31762
1026.17684,0.29855
1024.68705,0.25863
1023.19726,0.23627
1021.70747,0.18923
1020.21769,0.16247
1018.72790,0.15428
1017.23811,0.15316
1015.74832,0.15206
1014.25853,0.12219
1012.76874,0.11063
1011.27896,0.10009
1009.78917,0.09056
1008.29938,0.09070
1006.80959,0.08146
1005.31980,0.07225
1003.83001,0.05318
1002.34022,0.04130
1000.85044,0.03414
999.36065,0.02972
997.87086,0.04745
996.38107,0.06521
994.89128,0.09843
993.40149,0.09733
991.91171,0.10934
990.42192,0.11422
988.93213,0.15298
987.44234,0.16309
985.95255,0.17323
984.46276,0.17029
982.97297,0.13648
981.48319,0.12395
979.99340,0.09933
978.50361,0.08994
977.01382,0.08057
975.52403,0.06542
974.03424,0.05301
972.54446,0.03148
971.05467,0.01517
969.56488,0.01717
968.07509,0.01166
966.58530,0.00617
965.09551,0.01065
963.60573,0.01121
962.11594,0.02143
960.62615,0.01092
959.13636,0.01353
957.64657,0.01616
956.15678,0.02599
954.66699,0.02496
953.17721,0.01283
951.68742,0.03361
950.19763,0.03735
948.70784,0.04112
947.21805,0.04293
945.72826,0.06973
944.23848,0.06838
942.74869,0.10042
941.25890,0.10159
939.76911,0.11341
938.27932,0.12526
936.78953,0.14232
935.29974,0.15792
933.80996,0.16292
932.32017,0.18400
930.83038,0.20610
929.34059,0.22823
927.85080,0.23308
926.36101,0.25747
924.87123,0.30043
923.38144,0.35726
921.89165,0.40719
920.40186,0.45714
918.91207,0.55062
917.42228,0.65746
915.93250,0.79499
914.44271,1.03164
912.95292,1.12868
911.46313,1.22574
909.97334,1.42836
908.48355,1.62433
906.99376,1.76571
905.50398,1.91081
904.01419,1.93780
902.52440,1.96481
901.03461,2.00000
899.54482,1.96354
898.05503,1.81686
896.56525,1.66774
895.07546,1.55386
893.58567,1.44001
892.09588,1.13748
890.60609,0.93333
889.11630,0.70672
887.62651,0.52438
886.13673,0.45699
884.64694,0.38963
883.15715,0.29312
881.66736,0.22383
880.17757,0.16643
878.68778,0.13735
877.19800,0.10829
875.70821,0.07790
874.21842,0.07720
872.72863,0.04809
871.23884,0.03483
869.74905,0.03951
868.25927,0.04421
866.76948,0.03201
865.27969,0.03664
863.78990,0.04871
862.30011,0.07217
860.81032,0.06983
859.32053,0.06751
857.83075,0.10068
856.34096,0.10496
854.85117,0.11149
853.36138,0.12867
851.87159,0.14674
850.38180,0.16484
848.89202,0.18209
847.40223,0.19542
845.91244,0.21865
844.42265,0.21917
842.93286,0.21971
841.44307,0.24697
839.95329,0.27871
838.46350,0.29860
836.97371,0.29727
835.48392,0.30745
833.99413,0.31765
832.50434,0.32010
831.01455,0.29834
829.52477,0.26574
828.03498,0.24477
826.54519,0.23730
825.05540,0.22986
823.56561,0.20007
822.07582,0.17747
820.58604,0.15935
819.09625,0.15039
817.60646,0.14146
816.11667,0.13132
814.62688,0.15160
813.13709,0.16746
811.64730,0.15294
810.15752,0.15859
808.66773,0.16426
807.17794,0.17750
805.68815,0.19620
804.19836,0.18699
802.70857,0.17348
801.21879,0.16000
799.72900,0.17138
798.23921,0.13903
796.74942,0.14576
795.25963,0.14041
793.76984,0.13508
792.28006,0.15301
790.79027,0.15860
789.30048,0.19462
787.81069,0.23363
786.32090,0.24337
784.83111,0.25314
783.34132,0.27937
781.85154,0.31650
780.36175,0.35514
778.87196,0.38613
777.38217,0.41716
775.89238,0.41854
774.40259,0.42465
772.91281,0.40903
771.42302,0.41370
769.93323,0.41840
768.44344,0.39569
766.95365,0.30626
765.46386,0.25690
763.97407,0.20411
762.48429,0.19002
760.99450,0.17595
759.50471,0.16648
758.01492,0.11922
756.52513,0.10634
755.03534,0.10411
753.54556,0.10191
752.05577,0.08094
750.56598,0.06915
749.07619,0.05392
747.58640,0.04996
746.09661,0.04602
744.60683,0.03630
743.11704,0.02808
741.62725,0.01965
740.13746,0.01692
738.64767,0.01422
737.15788,0.01005
735.66809,0.01827
734.17831,0.01119
732.68852,0.00908
731.19873,0.00699
729.70894,0.00617
728.21915,0.02038
726.72936,0.00818
725.23958,0.01507
723.74979,0.01655
722.26000,0.01806
720.77021,0.01118
719.28042,0.00853
717.79063,0.01184
716.30084,0.00899
714.81106,0.00617
713.32127,0.02861
711.83148,0.02685
710.34169,0.03673
708.85190,0.03280
707.36211,0.02889
705.87233,0.03687
704.38254,0.04413
702.89275,0.02793
701.40296,0.03660
699.91317,0.04530
698.42338,0.05290
696.93360,0.08401
695.44381,0.09883
693.95402,0.10478
692.46423,0.11076
690.97444,0.12046
689.48465,0.15886
687.99486,0.17257
686.50508,0.17604
685.01529,0.17954
683.52550,0.22496
682.03571,0.21627
680.54592,0.24320
679.05613,0.24617
677.56635,0.24917
676.07656,0.27519
674.58677,0.28689
673.09698,0.25437
671.60719,0.23114
670.11740,0.20794
668.62761,0.18242
667.13783,0.16977
665.64804,0.15740
664.15825,0.14505
662.66846,0.11418
661.17867,0.10558
659.68888,0.08095
658.19910,0.07759
656.70931,0.07426
655.21952,0.05909
653.72973,0.04517
652.23994,0.06539
650.75015,0.05882
649.26037,0.05227
647.77058,0.06070
646.28079,0.06248
644.79100,0.04254
643.30121,0.04128
641.81142,0.04004
640.32163,0.04340
638.83185,0.03690
637.34206,0.03586
635.85227,0.02100
634.36248,0.00617
632.87269,0.00764
631.38290,0.01605
629.89312,0.01535
628.40333,0.01578
626.91354,0.01623
625.42375,0.00349
623.93396,0.01796
622.44417,0.02393
620.95438,0.02992
619.46460,0.03457
617.97481,0.05631
616.48502,0.07955
614.99523,0.08106
613.50544,0.08260
612.01565,0.12198
610.52587,0.15669
609.03608,0.19068
607.54629,0.20467
606.05650,0.21869
604.56671,0.27104
603.07692,0.33553
601.58714,0.35951
600.09735,0.38351
598.60756,0.40679
597.11777,0.41651
595.62798,0.44256
594.13819,0.43169
592.64840,0.42084
591.15862,0.38047
589.66883,0.33000
588.17904,0.26695
586.68925,0.24334
585.19946,0.21976
583.70967,0.16444
582.21989,0.11335
580.73010,0.09972
579.24031,0.08613
577.75052,0.07638
576.26073,0.07136
574.77094,0.04856
573.28115,0.05867
571.79137,0.06879
570.30158,0.05645
568.81179,0.05551
567.32200,0.07287
565.83221,0.09026
564.34242,0.10768
562.85264,0.09447
561.36285,0.13467
559.87306,0.14450
558.38327,0.15435
556.89348,0.16348
555.40369,0.19118
553.91391,0.19381
552.42412,0.19647
550.93433,0.19531
549.44454,0.19888
547.95475,0.21978
546.46496,0.22537
544.97517,0.23099
543.48539,0.24554
541.99560,0.30830
540.50581,0.30744
539.01602,0.30661
537.52623,0.35733
536.03644,0.40264
534.54666,0.40893
533.05687,0.43093
531.56708,0.45296
530.07729,0.49021
528.58750,0.54627
527.09771,0.57368
525.60792,0.60112
524.11814,0.63105
522.62835,0.68647
521.13856,0.73894
519.64877,0.76438
518.15898,0.78983
516.66919,0.82607
515.17941,0.86257
513.68962,0.86190
512.19983,0.86126
510.71004,0.83357
509.22025,0.77798
507.73046,0.70116
506.24068,0.65538
504.75089,0.60963
503.26110,0.49086
501.77131,0.38744
500.28152,0.34374
498.79173,0.30006
497.30194,0.24194
495.81216,0.18113
494.32237,0.15396
492.83258,0.12682
491.34279,0.10340
489.85300,0.09879
488.36321,0.07963
486.87343,0.07482
485.38364,0.07004
483.89385,0.06380
482.40406,0.08033
480.91427,0.10206
479.42448,0.12383
477.93469,0.14215
476.44491,0.17731
474.95512,0.18036
473.46533,0.18344
471.97554,0.20063
470.48575,0.22550
468.99596,0.22074
467.50618,0.20339
466.01639,0.18608
464.52660,0.15741
463.03681,0.16041
461.54702,0.14218
460.05723,0.12397
458.56745,0.05659
457.07766,0.05499
455.58787,0.03858
454.09808,0.02220
452.60829,0.05775
451.11850,0.01002
449.62871,0.01138
448.13893,0.01277
446.64914,0.01752
445.15935,0.01636
443.66956,0.04216
442.17977,0.03610
440.68998,0.03007
439.20020,0.01492
437.71041,0.03884
436.22062,0.03004
434.73083,0.02127
433.24104,0.03760
431.75125,0.03369
430.26146,0.03895
428.77168,0.04424
427.28189,0.04287
425.79210,0.06081
424.30231,0.04701
422.81252,0.03324
421.32273,0.01764
419.83295,0.03567
418.34316,0.03767
416.85337,0.03969
415.36358,0.02912
413.87379,0.01265
412.38400,0.02451
410.89422,0.03639
409.40443,0.03976
407.91464,0.04736
406.42485,0.04040
404.93506,0.03693
403.44527,0.03348
401.95548,0.03871
400.46570,0.04421
398.97591,0.04442
397.48612,0.04465
395.99633,0.03341
394.50654,0.03481
393.01675,0.03672
391.52697,0.03865
390.03718,0.02356
388.54739,0.01752
387.05760,0.02016
385.56781,0.02282
384.07802,0.01858
382.58824,0.02697
381.09845,0.02044
379.60866,0.01393
378.11887,0.03648
376.62908,0.00617
375.13929,0.01972
373.64950,0.03330
372.15972,0.03047
370.66993,0.03854
369.18014,0.03785
367.69035,0.03718
366.20056,0.01367
364.71077,0.01787
363.22099,0.01258
361.73120,0.00731
360.24141,0.04050
358.75162,0.06507
357.26183,0.06383
355.77204,0.06261
354.28225,0.07539
352.79247,0.09065
351.30268,0.07925
349.81289,0.06788
348.32310,0.08371
346.83331,0.05780
345.34352,0.05651
343.85374,0.05524
342.36395,0.06129
340.87416,0.04684
339.38437,0.05393
337.89458,0.06103
336.40479,0.02887
334.91501,0.03899
333.42522,0.02257
331.93543,0.00617
330.44564,0.01995
328.95585,0.01621
327.46606,0.02263
325.97627,0.02907
324.48649,0.04315
322.99670,0.05627
321.50691,0.04259
320.01712,0.02894
318.52733,0.07352
317.03754,0.06103
315.54776,0.05276
314.05797,0.04452
312.56818,0.08227
311.07839,0.09039
309.58860,0.09235
308.09881,0.09434
306.60902,0.08499
305.11924,0.04006
303.62945,0.02643
302.13966,0.01282
300.64987,0.00617
299.16008,0.00617
