1778.52000,0.00964
1777.03021,0.00338
1775.54042,0.00121
1774.05063,0.01051
1772.56085,0.00099
1771.07106,0.01273
1769.58127,0.01733
1768.09148,0.00000
1766.60169,0.00919
1765.11190,0.01411
1763.62212,0.01952
1762.13233,0.01255
1760.64254,0.00274
1759.15275,0.01754
1757.66296,0.02234
1756.17317,0.01260
1754.68339,0.02056
1753.19360,0.01850
1751.70381,0.00574
1750.21402,0.00135
1748.72423,0.00626
1747.23444,0.01049
1745.74465,0.02119
1744.25487,0.01591
1742.76508,0.00971
1741.27529,0.00997
1739.78550,0.00955
1738.29571,0.01821
1736.80592,0.02046
1735.31614,0.00841
1733.82635,0.00736
1732.33656,0.00586
1730.84677,0.01418
1729.35698,0.01153
1727.86719,0.00939
1726.37740,0.01038
1724.88762,0.00088
1723.39783,0.00571
1721.90804,0.00460
1720.41825,0.00804
1718.92846,0.00841
1717.43867,0.01906
1715.94889,0.01399
1714.45910,0.00512
1712.96931,0.01282
1711.47952,0.00670
1709.98973,0.00658
1708.49994,0.00696
1707.01016,0.01022
1705.52037,0.01351
1704.03058,0.00274
1702.54079,0.01354
1701.05100,0.01840
1699.56121,0.01635
1698.07142,0.02412
1696.58164,0.00995
1695.09185,0.02828
1693.60206,0.01487
1692.11227,0.02083
1690.62248,0.02848
1689.13269,0.03472
1687.64291,0.01616
1686.15312,0.03391
1684.66333,0.03713
1683.17354,0.03034
1681.68375,0.03599
1680.19396,0.03712
1678.70417,0.03542
1677.21439,0.04854
1675.72460,0.05118
1674.23481,0.05528
1672.74502,0.04270
1671.25523,0.06355
1669.76544,0.06725
1668.27566,0.07312
1666.78587,0.06254
1665.29608,0.06750
1663.80629,0.06818
1662.31650,0.07200
1660.82671,0.08420
1659.33693,0.09212
1657.84714,0.08407
1656.35735,0.08965
1654.86756,0.08261
1653.37777,0.08896
1651.88798,0.07504
1650.39819,0.09552
1648.90841,0.07879
1647.41862,0.09239
1645.92883,0.08335
1644.43904,0.07433
1642.94925,0.08061
1641.45946,0.09264
1639.96968,0.09586
1638.47989,0.09338
1636.99010,0.07589
1635.50031,0.08635
1634.01052,0.07296
1632.52073,0.08347
1631.03094,0.07514
1629.54116,0.08856
1628.05137,0.08935
1626.56158,0.08182
1625.07179,0.09364
1623.58200,0.10549
1622.09221,0.09325
1620.60243,0.09010
1619.11264,0.09104
1617.62285,0.08317
1616.13306,0.09753
1614.64327,0.08875
1613.15348,0.07618
1611.66370,0.08512
1610.17391,0.09193
1608.68412,0.07729
1607.19433,0.09967
1605.70454,0.09295
1604.21475,0.09687
1602.72496,0.10082
1601.23518,0.08582
1599.74539,0.07108
1598.25560,0.06639
1596.76581,0.08226
1595.27602,0.08669
1593.78623,0.07419
1592.29645,0.08440
1590.80666,0.09296
1589.31687,0.06216
1587.82708,0.08748
1586.33729,0.09110
1584.84750,0.06395
1583.35771,0.07383
1581.86793,0.07585
1580.37814,0.07002
1578.88835,0.05944
1577.39856,0.07156
1575.90877,0.08586
1574.41898,0.05959
1572.92920,0.05341
1571.43941,0.03579
1569.94962,0.03395
1568.45983,0.03213
1566.97004,0.02198
1565.48025,0.03096
1563.99047,0.03184
1562.50068,0.02415
1561.01089,0.02198
1559.52110,0.01696
1558.03131,0.02320
1556.54152,0.01775
1555.05173,0.02141
1553.56195,0.02508
1552.07216,0.02210
1550.58237,0.01294
1549.09258,0.02122
1547.60279,0.00447
1546.11300,0.00111
1544.62322,0.01420
1543.13343,0.00703
1541.64364,0.00299
1540.15385,0.00732
1538.66406,0.01167
1537.17427,0.00816
1535.68448,0.00898
1534.19470,0.02295
1532.70491,0.00496
1531.21512,0.00274
1529.72533,0.01925
1528.23554,0.01884
1526.74575,0.02752
1525.25597,0.03384
1523.76618,0.04591
1522.27639,0.04081
1520.78660,0.03981
1519.29681,0.03763
1517.80702,0.05481
1516.31724,0.04480
1514.82745,0.05009
1513.33766,0.05171
1511.84787,0.05335
1510.35808,0.05753
1508.86829,0.04406
1507.37850,0.03348
1505.88872,0.03916
1504.39893,0.03030
1502.90914,0.04653
1501.41935,0.05634
1499.92956,0.06594
1498.43977,0.07699
1496.94999,0.07613
1495.46020,0.07458
1493.97041,0.09119
1492.48062,0.10210
1490.99083,0.08200
1489.50104,0.11468
1488.01125,0.12089
1486.52147,0.12712
1485.03168,0.13362
1483.54189,0.14802
1482.05210,0.17700
1480.56231,0.18094
1479.07252,0.20019
1477.58274,0.22017
1476.09295,0.21941
1474.60316,0.22226
1473.11337,0.23754
1471.62358,0.24187
1470.13379,0.25792
1468.64401,0.26444
1467.15422,0.28794
1465.66443,0.29308
1464.17464,0.29824
1462.68485,0.32683
1461.19506,0.35114
1459.70527,0.38836
1458.21549,0.44877
1456.72570,0.52662
1455.23591,0.57967
1453.74612,0.60673
1452.25633,0.67320
1450.76654,0.70222
1449.27676,0.68065
1447.78697,0.65839
1446.29718,0.65525
1444.80739,0.63984
1443.31760,0.62446
1441.82781,0.60277
1440.33802,0.54746
1438.84824,0.52248
1437.35845,0.48177
1435.86866,0.48715
1434.37887,0.48684
1432.88908,0.51376
1431.39929,0.53784
1429.90951,0.61159
1428.41972,0.69540
1426.92993,0.77350
1425.44014,0.81964
1423.95035,0.84933
1422.46056,0.87904
1420.97078,0.93552
1419.48099,0.91372
1417.99120,0.87858
1416.50141,0.90362
1415.01162,0.92701
1413.52183,0.84849
1412.03204,0.77478
1410.54226,0.71779
1409.05247,0.65917
1407.56268,0.62228
1406.07289,0.59641
1404.58310,0.56614
1403.09331,0.53589
1401.60353,0.45733
1400.11374,0.41461
1398.62395,0.38646
1397.13416,0.30798
1395.64437,0.28895
1394.15458,0.24131
1392.66479,0.19273
1391.17501,0.16925
1389.68522,0.12645
1388.19543,0.11423
1386.70564,0.11302
1385.21585,0.11183
1383.72606,0.08274
1382.23628,0.05176
1380.74649,0.03370
1379.25670,0.02688
1377.76691,0.01960
1376.27712,0.01450
1374.78733,0.00274
1373.29755,0.02533
1371.80776,0.01834
1370.31797,0.01185
1368.82818,0.01231
1367.33839,0.01279
1365.84860,0.01210
1364.35881,0.01502
1362.86903,0.02560
1361.37924,0.05698
1359.88945,0.08217
1358.39966,0.11407
1356.90987,0.12928
1355.42008,0.18248
1353.93030,0.23020
1352.44051,0.26626
1350.95072,0.30234
1349.46093,0.34536
1347.97114,0.40679
1346.48135,0.49642
1344.99156,0.57676
1343.50178,0.64590
1342.01199,0.69692
1340.52220,0.73675
1339.03241,0.81074
1337.54262,0.81959
1336.05283,0.85448
1334.56305,0.88939
1333.07326,0.92672
1331.58347,0.92945
1330.09368,0.94320
1328.60389,0.93166
1327.11410,0.91800
1325.62432,0.88765
1324.13453,0.82271
1322.64474,0.80411
1321.15495,0.76524
1319.66516,0.75790
1318.17537,0.75059
1316.68558,0.70273
1315.19580,0.62934
1313.70601,0.60754
1312.21622,0.56739
1310.72643,0.50625
1309.23664,0.43630
1307.74685,0.42439
1306.25707,0.41703
1304.76728,0.38786
1303.27749,0.35871
1301.78770,0.31323
1300.29791,0.27184
1298.80812,0.23930
1297.31834,0.19151
1295.82855,0.15353
1294.33876,0.11462
1292.84897,0.10987
1291.35918,0.08390
1289.86939,0.09293
1288.37960,0.10198
1286.88982,0.08181
1285.40003,0.07456
1283.91024,0.05778
1282.42045,0.04198
1280.93066,0.03957
1279.44087,0.03910
1277.95109,0.04510
1276.46130,0.02844
1274.97151,0.03663
1273.48172,0.04485
1271.99193,0.02970
1270.50214,0.03415
1269.01235,0.02143
1267.52257,0.00564
1266.03278,0.02305
1264.54299,0.02234
1263.05320,0.02810
1261.56341,0.02410
1260.07362,0.02012
1258.58384,0.00543
1257.09405,0.00771
1255.60426,0.01144
1254.11447,0.00542
1252.62468,0.00992
1251.13489,0.00274
1249.64511,0.00318
1248.15532,0.01223
1246.66553,0.02131
1245.17574,0.03041
1243.68595,0.01996
1242.19616,0.02601
1240.70637,0.00033
1239.21659,0.00189
1237.72680,0.01039
1236.23701,0.00842
1234.74722,0.01936
1233.25743,0.01768
1231.76764,0.01602
1230.27786,0.01176
1228.78807,0.03521
1227.29828,0.01954
1225.80849,0.02585
1224.31870,0.01190
1222.82891,0.00274
1221.33912,0.03017
1219.84934,0.02718
1218.35955,0.02421
1216.86976,0.03142
1215.37997,0.03602
1213.89018,0.05497
1212.40039,0.05747
1210.91061,0.07528
1209.42082,0.06637
1207.93103,0.06489
1206.44124,0.06343
1204.95145,0.06391
1203.46166,0.05486
1201.97188,0.05587
1200.48209,0.03111
1198.99230,0.04625
1197.50251,0.06117
1196.01272,0.04985
1194.52293,0.04095
1193.03314,0.03207
1191.54336,0.01916
1190.05357,0.00245
1188.56378,0.01175
1187.07399,0.00292
1185.58420,0.01083
1184.09441,0.00325
1182.60463,0.00679
1181.11484,0.01035
1179.62505,0.01645
1178.13526,0.01803
1176.64547,0.00651
1175.15568,0.01316
1173.66589,0.00694
1172.17611,0.00480
1170.68632,0.00376
1169.19653,0.00274
1167.70674,0.00516
1166.21695,0.02241
1164.72716,0.02273
1163.23738,0.02761
1161.74759,0.02297
1160.25780,0.05989
1158.76801,0.07141
1157.27822,0.08295
1155.78843,0.06910
1154.29865,0.06959
1152.80886,0.08180
1151.31907,0.07566
1149.82928,0.11298
1148.33949,0.11930
1146.84970,0.12469
1145.35991,0.13010
1143.87013,0.12217
1142.38034,0.14028
1140.89055,0.15221
1139.40076,0.17610
1137.91097,0.16540
1136.42118,0.17836
1134.93140,0.19158
1133.44161,0.20482
1131.95182,0.22334
1130.46203,0.22398
1128.97224,0.24327
1127.48245,0.24062
1125.99266,0.24229
1124.50288,0.24446
1123.01309,0.23328
1121.52330,0.22213
1120.03351,0.25016
1118.54372,0.24240
1117.05393,0.21414
1115.56415,0.23842
1114.07436,0.25890
1112.58457,0.25243
1111.09478,0.24599
1109.60499,0.24363
1108.11520,0.24415
1106.62542,0.21678
1105.13563,0.22141
1103.64584,0.22249
1102.15605,0.22335
1100.66626,0.21732
1099.17647,0.21131
1097.68668,0.21129
1096.19690,0.19912
1094.70711,0.21037
1093.21732,0.21257
1091.72753,0.18448
1090.23774,0.18208
1088.74795,0.17970
1087.25817,0.18654
1085.76838,0.15663
1084.27859,0.17116
1082.78880,0.18332
1081.29901,0.18094
1079.80922,0.17883
1078.31943,0.19010
1076.82965,0.20141
1075.33986,0.19507
1073.85007,0.18279
1072.36028,0.18270
1070.87049,0.19577
1069.38070,0.20362
1067.89092,0.22258
1066.40113,0.24158
1064.91134,0.29700
1063.42155,0.37154
1061.93176,0.43273
1060.44197,0.51210
1058.95219,0.61560
1057.46240,0.66517
1055.97261,0.71477
1054.48282,0.82860
1052.99303,0.92599
1051.50324,0.94606
1050.01345,0.94921
1048.52367,0.90201
1047.03388,0.88873
1045.54409,0.87548
1044.05430,0.89328
1042.56451,0.78220
1041.07472,0.73059
1039.58494,0.66898
1038.09515,0.60404
1036.60536,0.57065
1035.11557,0.53727
1033.62578,0.48602
1032.13599,0.43718
1030.64620,0.36831
1029.15642,0.29731
1027.66663,0.27182
1026.17684,0.24635
1024.68705,0.22389
1023.19726,0.20336
1021.70747,0.17617
1020.21769,0.15498
1018.72790,0.12688
1017.23811,0.12722
1015.74832,0.12758
1014.25853,0.10338
1012.76874,0.09209
1011.27896,0.12117
1009.78917,0.11185
1008.29938,0.09228
1006.80959,0.07930
1005.31980,0.06634
1003.83001,0.03300
1002.34022,0.02833
1000.85044,0.03490
999.36065,0.03410
997.87086,0.03690
996.38107,0.03972
994.89128,0.06358
993.40149,0.06812
991.91171,0.06959
990.42192,0.05938
988.93213,0.08000
987.44234,0.08655
985.95255,0.09312
984.46276,0.09376
982.97297,0.09274
981.48319,0.07958
979.99340,0.07503
978.50361,0.06180
977.01382,0.04859
975.52403,0.05151
974.03424,0.03537
972.54446,0.03357
971.05467,0.01461
969.56488,0.01811
968.07509,0.01041
966.58530,0.00274
965.09551,0.01491
963.60573,0.00704
962.11594,0.00946
960.62615,0.00571
959.13636,0.02155
957.64657,0.03741
956.15678,0.01917
954.66699,0.02816
953.17721,0.02691
951.68742,0.02974
950.19763,0.04226
948.70784,0.05481
947.21805,0.06942
945.72826,0.08189
944.23848,0.10418
942.74869,0.12769
941.25890,0.14454
939.76911,0.14566
938.27932,0.14680
936.78953,0.16611
935.29974,0.17303
933.80996,0.18069
932.32017,0.19362
930.83038,0.20419
929.34059,0.21479
927.85080,0.23448
926.36101,0.26112
924.87123,0.26630
923.38144,0.33787
921.89165,0.36291
920.40186,0.38798
918.91207,0.48444
917.42228,0.58356
915.93250,0.76266
914.44271,0.93965
912.95292,1.04230
911.46313,1.14497
909.97334,1.34184
908.48355,1.57264
906.99376,1.80369
905.50398,1.90825
904.01419,1.95411
902.52440,2.00000
901.03461,1.96809
899.54482,1.93811
898.05503,1.84108
896.56525,1.70517
895.07546,1.57954
893.58567,1.45393
892.09588,1.22380
890.60609,0.94212
889.11630,0.70010
887.62651,0.50895
886.13673,0.44649
884.64694,0.38405
883.15715,0.25217
881.66736,0.17068
880.17757,0.13481
878.68778,0.12714
877.19800,0.11949
875.70821,0.08011
874.21842,0.03647
872.72863,0.02268
871.23884,0.02969
869.74905,0.02109
868.25927,0.01251
866.76948,0.01720
865.27969,0.01690
863.78990,0.02905
862.30011,0.03405
860.81032,0.03156
859.32053,0.02910
857.83075,0.04802
856.34096,0.05861
854.85117,0.09143
853.36138,0.08464
851.87159,0.09149
850.38180,0.09836
848.89202,0.12626
847.40223,0.13533
845.91244,0.15994
844.42265,0.16273
842.93286,0.16554
841.44307,0.17089
839.95329,0.20037
838.46350,0.19191
836.97371,0.22144
835.48392,0.21495
833.99413,0.20848
832.50434,0.21349
831.01455,0.20444
829.52477,0.20044
828.03498,0.17759
826.54519,0.17208
825.05540,0.16659
823.56561,0.12902
822.07582,0.11678
820.58604,0.10480
819.09625,0.09809
817.60646,0.09141
816.11667,0.08165
814.62688,0.07813
813.13709,0.10112
811.64730,0.10361
810.15752,0.09347
808.66773,0.08335
807.17794,0.11074
805.68815,0.10354
804.19836,0.12620
802.70857,0.12191
801.21879,0.11765
799.72900,0.11961
798.23921,0.10203
796.74942,0.08662
795.25963,0.09713
793.76984,0.10767
792.28006,0.10164
790.79027,0.12739
789.30048,0.11448
787.81069,0.14600
786.32090,0.15738
784.83111,0.16878
783.34132,0.22520
781.85154,0.24465
780.36175,0.27605
778.87196,0.29626
777.38217,0.31649
775.89238,0.33150
774.40259,0.34892
772.91281,0.33008
771.42302,0.31997
769.93323,0.30989
768.44344,0.28778
766.95365,0.23418
765.46386,0.20066
763.97407,0.16191
762.48429,0.15422
760.99450,0.14655
759.50471,0.12124
758.01492,0.10050
756.52513,0.10054
755.03534,0.08426
753.54556,0.06800
752.05577,0.07886
750.56598,0.07136
749.07619,0.06078
747.58640,0.05513
746.09661,0.04949
744.60683,0.04018
743.11704,0.04164
741.62725,0.03023
740.13746,0.02529
738.64767,0.02037
737.15788,0.03052
735.66809,0.03448
734.17831,0.01914
732.68852,0.02589
731.19873,0.03268
729.70894,0.03196
728.21915,0.00502
726.72936,0.00786
725.23958,0.00642
723.74979,0.00979
722.26000,0.01317
720.77021,0.02661
719.28042,0.01597
717.79063,0.00892
716.30084,0.01133
714.81106,0.01377
713.32127,0.00274
711.83148,0.01745
710.34169,0.02359
708.85190,0.03214
707.36211,0.04072
705.87233,0.04144
704.38254,0.04123
702.89275,0.05490
701.40296,0.05533
699.91317,0.05580
698.42338,0.07407
696.93360,0.08615
695.44381,0.10949
693.95402,0.10503
692.46423,0.10060
690.97444,0.11422
689.48465,0.13120
687.99486,0.15394
686.50508,0.17658
685.01529,0.19925
683.52550,0.22492
682.03571,0.24608
680.54592,0.27515
679.05613,0.26318
677.56635,0.25123
676.07656,0.27321
674.58677,0.26847
673.09698,0.23941
671.60719,0.22959
670.11740,0.21980
668.62761,0.18461
667.13783,0.16973
665.64804,0.15165
664.15825,0.13360
662.66846,0.10781
661.17867,0.08372
659.68888,0.07541
658.19910,0.05948
656.70931,0.04358
655.21952,0.02388
653.72973,0.03739
652.23994,0.04113
650.75015,0.04406
649.26037,0.04702
647.77058,0.04607
646.28079,0.04704
644.79100,0.01415
643.30121,0.01589
641.81142,0.01766
640.32163,0.02327
638.83185,0.01243
637.34206,0.01546
635.85227,0.01052
634.36248,0.00560
632.87269,0.00274
631.38290,0.01578
629.89312,0.03864
628.40333,0.02941
626.91354,0.02020
625.42375,0.01592
623.93396,0.01595
622.44417,0.01147
620.95438,0.00702
619.46460,0.02646
617.97481,0.06479
616.48502,0.08213
614.99523,0.08983
613.50544,0.09755
612.01565,0.09850
610.52587,0.14005
609.03608,0.19595
607.54629,0.20436
606.05650,0.21280
604.56671,0.22581
603.07692,0.28634
601.58714,0.32373
600.09735,0.36116
598.60756,0.42081
597.11777,0.42032
595.62798,0.42655
594.13819,0.41036
592.64840,0.39419
591.15862,0.39022
589.66883,0.33997
588.17904,0.27565
586.68925,0.24049
585.19946,0.20535
583.70967,0.15089
582.21989,0.12535
580.73010,0.10759
579.24031,0.08985
577.75052,0.08920
576.26073,0.05922
574.77094,0.04143
573.28115,0.03621
571.79137,0.03100
570.30158,0.03668
568.81179,0.04311
567.32200,0.05194
565.83221,0.06080
564.34242,0.06873
562.85264,0.08933
561.36285,0.12356
559.87306,0.12894
558.38327,0.13434
556.89348,0.13594
555.40369,0.12993
553.91391,0.13791
552.42412,0.14591
550.93433,0.17650
549.44454,0.16700
547.95475,0.19238
546.46496,0.19941
544.97517,0.20646
543.48539,0.21640
541.99560,0.22898
540.50581,0.24100
539.01602,0.25304
537.52623,0.28981
536.03644,0.33449
534.54666,0.38587
533.05687,0.40946
531.56708,0.43308
530.07729,0.47905
528.58750,0.56180
527.09771,0.60148
525.60792,0.64119
524.11814,0.66720
522.62835,0.72021
521.13856,0.78828
519.64877,0.80959
518.15898,0.83092
516.66919,0.85562
515.17941,0.81064
513.68962,0.80029
512.19983,0.78997
510.71004,0.82169
509.22025,0.77227
507.73046,0.71118
506.24068,0.67660
504.75089,0.64206
503.26110,0.51635
501.77131,0.37514
500.28152,0.33398
498.79173,0.29285
497.30194,0.22429
495.81216,0.17914
494.32237,0.14321
492.83258,0.10731
491.34279,0.10855
489.85300,0.07162
488.36321,0.06956
486.87343,0.06538
485.38364,0.06123
483.89385,0.05161
482.40406,0.08283
480.91427,0.09152
479.42448,0.10024
477.93469,0.08952
476.44491,0.12394
474.95512,0.13882
473.46533,0.15372
471.97554,0.16912
470.48575,0.15208
468.99596,0.16681
467.50618,0.16020
466.01639,0.15362
464.52660,0.12164
463.03681,0.07392
461.54702,0.08078
460.05723,0.08766
458.56745,0.05554
457.07766,0.04182
455.58787,0.03218
454.09808,0.02257
452.60829,0.02396
451.11850,0.01965
449.62871,0.01118
448.13893,0.00274
446.64914,0.02220
445.15935,0.01758
443.66956,0.01823
442.17977,0.01950
440.68998,0.02079
439.20020,0.02271
437.71041,0.02680
436.22062,0.03163
434.73083,0.03648
433.24104,0.02059
431.75125,0.01404
430.26146,0.02230
428.77168,0.03060
427.28189,0.01934
425.79210,0.03341
424.30231,0.03330
422.81252,0.03322
421.32273,0.02993
419.83295,0.02357
418.34316,0.01759
416.85337,0.01164
415.36358,0.01872
413.87379,0.02439
412.38400,0.02161
410.89422,0.01885
409.40443,0.02507
407.91464,0.03395
406.42485,0.03926
404.93506,0.02276
403.44527,0.00628
401.95548,0.01817
400.46570,0.01361
398.97591,0.01791
397.48612,0.02223
395.99633,0.03230
394.50654,0.04240
393.01675,0.03594
391.52697,0.02949
390.03718,0.03251
388.54739,0.01812
387.05760,0.02003
385.56781,0.02197
384.07802,0.03180
382.58824,0.02448
381.09845,0.01360
379.60866,0.00274
378.11887,0.00771
376.62908,0.03849
375.13929,0.02394
373.64950,0.00940
372.15972,0.01065
370.66993,0.02243
369.18014,0.01439
367.69035,0.00638
366.20056,0.01558
364.71077,0.03936
363.22099,0.02521
361.73120,0.01109
360.24141,0.03280
358.75162,0.04331
357.26183,0.03881
355.77204,0.03433
354.28225,0.03322
352.79247,0.05409
351.30268,0.04539
349.81289,0.03671
348.32310,0.05838
346.83331,0.02946
345.34352,0.02181
343.85374,0.01418
342.36395,0.03332
340.87416,0.04651
339.38437,0.04051
337.89458,0.03453
336.40479,0.03299
334.91501,0.03387
333.42522,0.02510
331.93543,0.01636
330.44564,0.00274
328.95585,0.00796
327.46606,0.01070
325.97627,0.01346
324.48649,0.04954
322.99670,0.03815
321.50691,0.03943
320.01712,0.04073
318.52733,0.06761
317.03754,0.04628
315.54776,0.05876
314.05797,0.07126
312.56818,0.06983
311.07839,0.07987
309.58860,0.08278
308.09881,0.08571
306.60902,0.05501
305.11924,0.04940
303.62945,0.03497
302.13966,0.02058
300.64987,0.00310
299.16008,0.00274
