1778.52000,0.00676
1777.03021,0.01187
1775.54042,0.01446
1774.05063,0.01802
1772.56085,0.01178
1771.07106,0.01158
1769.58127,0.01522
1768.09148,0.01127
1766.60169,0.00956
1765.11190,0.02025
1763.62212,0.00940
1762.13233,0.00808
1760.64254,0.00679
1759.15275,0.01377
1757.66296,0.01443
1756.17317,0.01797
1754.68339,0.00567
1753.19360,0.00989
1751.70381,0.01096
1750.21402,0.00223
1748.72423,0.01096
1747.23444,0.01528
1745.74465,0.02756
1744.25487,0.01701
1742.76508,0.02331
1741.27529,0.01504
1739.78550,0.00679
1738.29571,0.01305
1736.80592,0.01235
1735.31614,0.01295
1733.82635,0.00373
1732.33656,0.00438
1730.84677,0.01806
1729.35698,0.00289
1727.86719,0.00360
1726.37740,0.00657
1724.88762,0.00670
1723.39783,0.01542
1721.90804,0.02227
1720.41825,0.01930
1718.92846,0.01635
1717.43867,0.01407
1715.94889,0.01689
1714.45910,0.00799
1712.96931,0.02402
1711.47952,0.01628
1709.98973,0.00000
1708.49994,0.00802
1707.01016,0.00592
1705.52037,0.00384
1704.03058,0.00750
1702.54079,0.01689
1701.05100,0.02440
1699.56121,0.02940
1698.07142,0.02871
1696.58164,0.00679
1695.09185,0.02445
1693.60206,0.01961
1692.11227,0.02083
1690.62248,0.03126
1689.13269,0.01857
1687.64291,0.01732
1686.15312,0.04084
1684.66333,0.02504
1683.17354,0.03433
1681.68375,0.04967
1680.19396,0.04886
1678.70417,0.04236
1677.21439,0.04668
1675.72460,0.04562
1674.23481,0.05759
1672.74502,0.04167
1671.25523,0.06321
1669.76544,0.07399
1668.27566,0.07464
1666.78587,0.07786
1665.29608,0.08776
1663.80629,0.08721
1662.31650,0.08320
1660.82671,0.07572
1659.33693,0.10602
1657.84714,0.08717
1656.35735,0.07691
1654.86756,0.07049
1653.37777,0.07868
1651.88798,0.08816
1650.39819,0.08688
1648.90841,0.08087
1647.41862,0.08376
1645.92883,0.07875
1644.43904,0.07376
1642.94925,0.09068
1641.45946,0.08828
1639.96968,0.07988
1638.47989,0.08863
1636.99010,0.09137
1635.50031,0.08431
1634.01052,0.07917
1632.52073,0.06549
1631.03094,0.07563
1629.54116,0.08231
1628.05137,0.07505
1626.56158,0.07606
1625.07179,0.10628
1623.58200,0.09275
1622.09221,0.10304
1620.60243,0.09844
1619.11264,0.11131
1617.62285,0.10517
1616.13306,0.09779
1614.64327,0.09741
1613.15348,0.08214
1611.66370,0.08847
1610.17391,0.09483
1608.68412,0.08947
1607.19433,0.08604
1605.70454,0.09278
1604.21475,0.09273
1602.72496,0.09270
1601.23518,0.10079
1599.74539,0.08003
1598.25560,0.09134
1596.76581,0.08618
1595.27602,0.09373
1593.78623,0.09020
1592.29645,0.08130
1590.80666,0.08036
1589.31687,0.07341
1587.82708,0.08520
1586.33729,0.08021
1584.84750,0.07619
1583.35771,0.08171
1581.86793,0.06949
1580.37814,0.07570
1578.88835,0.07432
1577.39856,0.06978
1575.90877,0.08114
1574.41898,0.05699
1572.92920,0.04428
1571.43941,0.06300
1569.94962,0.04717
1568.45983,0.03136
1566.97004,0.04445
1565.48025,0.04963
1563.99047,0.04214
1562.50068,0.04515
1561.01089,0.04216
1559.52110,0.05283
1558.03131,0.05686
1556.54152,0.02760
1555.05173,0.03041
1553.56195,0.03166
1552.07216,0.02659
1550.58237,0.02567
1549.09258,0.02033
1547.60279,0.02358
1546.11300,0.01289
1544.62322,0.02317
1543.13343,0.01095
1541.64364,0.00668
1540.15385,0.00672
1538.66406,0.00679
1537.17427,0.01825
1535.68448,0.01355
1534.19470,0.01649
1532.70491,0.01248
1531.21512,0.01927
1529.72533,0.01404
1528.23554,0.01232
1526.74575,0.02744
1525.25597,0.02925
1523.76618,0.02507
1522.27639,0.02852
1520.78660,0.03041
1519.29681,0.02693
1517.80702,0.04949
1516.31724,0.04352
1514.82745,0.06613
1513.33766,0.05276
1511.84787,0.03941
1510.35808,0.03639
1508.86829,0.04323
1507.37850,0.04217
1505.88872,0.04145
1504.39893,0.06550
1502.90914,0.04135
1501.41935,0.06068
1499.92956,0.07719
1498.43977,0.08801
1496.94999,0.06681
1495.46020,0.07324
1493.97041,0.08350
1492.48062,0.10203
1490.99083,0.10314
1489.50104,0.11823
1488.01125,0.12113
1486.52147,0.12405
1485.03168,0.14492
1483.54189,0.18739
1482.05210,0.18103
1480.56231,0.20832
1479.07252,0.20677
1477.58274,0.23030
1476.09295,0.23355
1474.60316,0.22604
1473.11337,0.25504
1471.62358,0.25868
1470.13379,0.24554
1468.64401,0.26858
1467.15422,0.28784
1465.66443,0.29380
1464.17464,0.29979
1462.68485,0.35148
1461.19506,0.40034
1459.70527,0.42956
1458.21549,0.51813
1456.72570,0.57055
1455.23591,0.64362
1453.74612,0.67198
1452.25633,0.67975
1450.76654,0.70721
1449.27676,0.72612
1447.78697,0.73333
1446.29718,0.69519
1444.80739,0.68848
1443.31760,0.68180
1441.82781,0.63802
1440.33802,0.61774
1438.84824,0.56450
1437.35845,0.52746
1435.86866,0.51550
1434.37887,0.55211
1432.88908,0.56241
1431.39929,0.58035
1429.90951,0.68302
1428.41972,0.75843
1426.92993,0.83672
1425.44014,0.88521
1423.95035,0.91200
1422.46056,0.93881
1420.97078,0.99816
1419.48099,1.01185
1417.99120,0.98496
1416.50141,0.98189
1415.01162,0.96488
1413.52183,0.90157
1412.03204,0.82783
1410.54226,0.75030
1409.05247,0.69468
1407.56268,0.67081
1406.07289,0.61905
1404.58310,0.59999
1403.09331,0.58096
1401.60353,0.49850
1400.11374,0.44874
1398.62395,0.39139
1397.13416,0.33724
1395.64437,0.27169
1394.15458,0.23186
1392.66479,0.21077
1391.17501,0.16116
1389.68522,0.13663
1388.19543,0.11911
1386.70564,0.10573
1385.21585,0.09238
1383.72606,0.05177
1382.23628,0.04291
1380.74649,0.02170
1379.25670,0.02177
1377.76691,0.00886
1376.27712,0.00866
1374.78733,0.00563
1373.29755,0.02198
1371.80776,0.00472
1370.31797,0.00885
1368.82818,0.01697
1367.33839,0.02511
1365.84860,0.00679
1364.35881,0.02466
1362.86903,0.03590
1361.37924,0.06271
1359.88945,0.08605
1358.39966,0.09959
1356.90987,0.14646
1355.42008,0.20255
1353.93030,0.24312
1352.44051,0.27801
1350.95072,0.31292
1349.46093,0.38211
1347.97114,0.46434
1346.48135,0.53454
1344.99156,0.64220
1343.50178,0.70324
1342.01199,0.75923
1340.52220,0.78131
1339.03241,0.86336
1337.54262,0.89532
1336.05283,0.92191
1334.56305,0.94852
1333.07326,0.96912
1331.58347,0.96279
1330.09368,0.96187
1328.60389,1.00032
1327.11410,0.93695
1325.62432,0.89011
1324.13453,0.86708
1322.64474,0.83837
1321.15495,0.81126
1319.66516,0.79449
1318.17537,0.77775
1316.68558,0.69774
1315.19580,0.67200
1313.70601,0.62535
1312.21622,0.57301
1310.72643,0.54766
1309.23664,0.46111
1307.74685,0.43550
1306.25707,0.43211
1304.76728,0.41337
1303.27749,0.39464
1301.78770,0.34565
1300.29791,0.27479
1298.80812,0.24043
1297.31834,0.18136
1295.82855,0.17434
1294.33876,0.14545
1292.84897,0.12579
1291.35918,0.12043
1289.86939,0.11128
1288.37960,0.10216
1286.88982,0.10131
1285.40003,0.07289
1283.91024,0.06320
1282.42045,0.06814
1280.93066,0.05438
1279.44087,0.06444
1277.95109,0.04788
1276.46130,0.06243
1274.97151,0.04892
1273.48172,0.03544
1271.99193,0.03642
1270.50214,0.03997
1269.01235,0.03592
1267.52257,0.03475
1266.03278,0.04757
1264.54299,0.02932
1263.05320,0.01902
1261.56341,0.02192
1260.07362,0.02484
1258.58384,0.03048
1257.09405,0.01806
1255.60426,0.02153
1254.11447,0.01836
1252.62468,0.02124
1251.13489,0.01558
1249.64511,0.01566
1248.15532,0.02940
1246.66553,0.03777
1245.17574,0.04617
1243.68595,0.01906
1242.19616,0.03353
1240.70637,0.00679
1239.21659,0.03502
1237.72680,0.03027
1236.23701,0.03793
1234.74722,0.04085
1233.25743,0.04396
1231.76764,0.04709
1230.27786,0.04247
1228.78807,0.04358
1227.29828,0.03171
1225.80849,0.04049
1224.31870,0.02074
1222.82891,0.00926
1221.33912,0.02314
1219.84934,0.02530
1218.35955,0.02748
1216.86976,0.05634
1215.37997,0.05541
1213.89018,0.06972
1212.40039,0.09643
1210.91061,0.09176
1209.42082,0.09155
1207.93103,0.07313
1206.44124,0.05473
1204.95145,0.07997
1203.46166,0.07320
1201.97188,0.05059
1200.48209,0.07369
1198.99230,0.04732
1197.50251,0.05587
1196.01272,0.05144
1194.52293,0.04609
1193.03314,0.04075
1191.54336,0.03989
1190.05357,0.02730
1188.56378,0.01951
1187.07399,0.00729
1185.58420,0.01808
1184.09441,0.01588
1182.60463,0.01180
1181.11484,0.00775
1179.62505,0.00848
1178.13526,0.02795
1176.64547,0.01350
1175.15568,0.00765
1173.66589,0.02021
1172.17611,0.00679
1170.68632,0.00772
1169.19653,0.00869
1167.70674,0.02014
1166.21695,0.03289
1164.72716,0.03107
1163.23738,0.02990
1161.74759,0.03892
1160.25780,0.06318
1158.76801,0.05908
1157.27822,0.05500
1155.78843,0.06443
1154.29865,0.08340
1152.80886,0.08241
1151.31907,0.10269
1149.82928,0.10143
1148.33949,0.10115
1146.84970,0.10834
1145.35991,0.11556
1143.87013,0.11217
1142.38034,0.16053
1140.89055,0.16988
1139.40076,0.16466
1137.91097,0.16899
1136.42118,0.19396
1134.93140,0.19786
1133.44161,0.20178
1131.95182,0.22778
1130.46203,0.24523
1128.97224,0.25922
1127.48245,0.26054
1125.99266,0.22699
1124.50288,0.24359
1123.01309,0.24118
1121.52330,0.23880
1120.03351,0.24659
1118.54372,0.24234
1117.05393,0.22607
1115.56415,0.26947
1114.07436,0.24721
1112.58457,0.25132
1111.09478,0.25545
1109.60499,0.24564
1108.11520,0.21555
1106.62542,0.23498
1105.13563,0.26300
1103.64584,0.25107
1102.15605,0.24963
1100.66626,0.23728
1099.17647,0.22494
1097.68668,0.22231
1096.19690,0.22922
1094.70711,0.21331
1093.21732,0.21202
1091.72753,0.19330
1090.23774,0.18476
1088.74795,0.17625
1087.25817,0.18520
1085.76838,0.16563
1084.27859,0.19145
1082.78880,0.18050
1081.29901,0.17179
1079.80922,0.18055
1078.31943,0.18013
1076.82965,0.17974
1075.33986,0.19048
1073.85007,0.17713
1072.36028,0.16698
1070.87049,0.19112
1069.38070,0.21813
1067.89092,0.25564
1066.40113,0.29317
1064.91134,0.31201
1063.42155,0.37434
1061.93176,0.43637
1060.44197,0.52190
1058.95219,0.61317
1057.46240,0.65577
1055.97261,0.69839
1054.48282,0.80179
1052.99303,0.86174
1051.50324,0.86652
1050.01345,0.86276
1048.52367,0.85110
1047.03388,0.84628
1045.54409,0.84148
1044.05430,0.79752
1042.56451,0.77041
1041.07472,0.69573
1039.58494,0.67152
1038.09515,0.58261
1036.60536,0.55750
1035.11557,0.53240
1033.62578,0.47720
1032.13599,0.41345
1030.64620,0.37099
1029.15642,0.30189
1027.66663,0.27518
1026.17684,0.24849
1024.68705,0.22547
1023.19726,0.21422
1021.70747,0.19061
1020.21769,0.13912
1018.72790,0.13745
1017.23811,0.13676
1015.74832,0.13610
1014.25853,0.12150
1012.76874,0.11803
1011.27896,0.11458
1009.78917,0.10545
1008.29938,0.09475
1006.80959,0.07805
1005.31980,0.06138
1003.83001,0.03267
1002.34022,0.03223
1000.85044,0.03625
999.36065,0.01904
997.87086,0.02818
996.38107,0.03735
994.89128,0.03607
993.40149,0.04846
991.91171,0.07737
990.42192,0.06506
988.93213,0.08736
987.44234,0.09874
985.95255,0.11014
984.46276,0.11157
982.97297,0.10573
981.48319,0.10118
979.99340,0.06715
978.50361,0.05821
977.01382,0.04929
975.52403,0.04199
974.03424,0.05311
972.54446,0.03665
971.05467,0.01546
969.56488,0.00666
968.07509,0.01348
966.58530,0.02032
965.09551,0.01132
963.60573,0.00679
962.11594,0.01258
960.62615,0.03362
959.13636,0.02787
957.64657,0.02216
956.15678,0.03534
954.66699,0.02951
953.17721,0.03703
951.68742,0.04204
950.19763,0.04072
948.70784,0.03943
947.21805,0.08290
945.72826,0.07373
944.23848,0.10772
942.74869,0.12525
941.25890,0.12979
939.76911,0.14229
938.27932,0.15481
936.78953,0.15911
935.29974,0.17485
933.80996,0.19125
932.32017,0.20228
930.83038,0.20018
929.34059,0.19809
927.85080,0.23553
926.36101,0.26284
924.87123,0.29588
923.38144,0.35052
921.89165,0.37568
920.40186,0.40087
918.91207,0.48350
917.42228,0.59217
915.93250,0.74052
914.44271,0.96948
912.95292,1.06918
911.46313,1.16891
909.97334,1.41919
908.48355,1.66125
906.99376,1.78056
905.50398,1.93606
904.01419,1.96802
902.52440,2.00000
901.03461,1.98077
899.54482,1.95046
898.05503,1.84689
896.56525,1.64912
895.07546,1.55051
893.58567,1.45193
892.09588,1.17302
890.60609,0.93601
889.11630,0.70378
887.62651,0.50806
886.13673,0.43862
884.64694,0.36922
883.15715,0.26906
881.66736,0.20573
880.17757,0.15543
878.68778,0.14100
877.19800,0.12660
875.70821,0.07257
874.21842,0.05663
872.72863,0.03786
871.23884,0.02229
869.74905,0.01625
868.25927,0.01025
866.76948,0.01473
865.27969,0.01131
863.78990,0.01616
862.30011,0.02643
860.81032,0.03799
859.32053,0.04958
857.83075,0.05072
856.34096,0.08108
854.85117,0.08893
853.36138,0.07999
851.87159,0.09646
850.38180,0.11295
848.89202,0.12597
847.40223,0.12951
845.91244,0.11688
844.42265,0.13363
842.93286,0.15040
841.44307,0.14895
839.95329,0.17481
838.46350,0.20419
836.97371,0.21328
835.48392,0.19861
833.99413,0.18396
832.50434,0.20582
831.01455,0.19788
829.52477,0.17759
828.03498,0.15003
826.54519,0.14248
825.05540,0.13496
823.56561,0.11889
822.07582,0.10888
820.58604,0.09889
819.09625,0.09209
817.60646,0.08532
816.11667,0.09444
814.62688,0.08455
813.13709,0.08039
811.64730,0.07847
810.15752,0.08436
808.66773,0.09027
807.17794,0.11000
805.68815,0.11865
804.19836,0.12416
802.70857,0.11462
801.21879,0.10510
799.72900,0.10560
798.23921,0.08328
796.74942,0.07051
795.25963,0.07664
793.76984,0.08279
792.28006,0.09895
790.79027,0.10563
789.30048,0.11487
787.81069,0.15998
786.32090,0.16688
784.83111,0.17381
783.34132,0.22502
781.85154,0.24073
780.36175,0.26153
778.87196,0.28363
777.38217,0.30575
775.89238,0.30569
774.40259,0.33134
772.91281,0.31896
771.42302,0.31469
769.93323,0.31044
768.44344,0.28765
766.95365,0.26712
765.46386,0.21805
763.97407,0.17535
762.48429,0.15679
760.99450,0.13826
759.50471,0.11657
758.01492,0.10728
756.52513,0.08628
755.03534,0.07958
753.54556,0.07290
752.05577,0.06942
750.56598,0.06628
749.07619,0.03398
747.58640,0.03850
746.09661,0.04305
744.60683,0.04984
743.11704,0.03349
741.62725,0.01876
740.13746,0.01928
738.64767,0.01983
737.15788,0.01151
735.66809,0.02448
734.17831,0.03398
732.68852,0.02748
731.19873,0.02101
729.70894,0.00679
728.21915,0.00940
726.72936,0.04090
725.23958,0.01469
723.74979,0.01912
722.26000,0.02358
720.77021,0.01394
719.28042,0.01225
717.79063,0.00679
716.30084,0.01360
714.81106,0.02043
713.32127,0.02015
711.83148,0.02371
710.34169,0.02570
708.85190,0.03961
707.36211,0.05355
705.87233,0.04926
704.38254,0.05294
702.89275,0.04807
701.40296,0.05528
699.91317,0.06252
698.42338,0.06375
696.93360,0.08087
695.44381,0.08723
693.95402,0.10836
692.46423,0.12952
690.97444,0.09915
689.48465,0.14589
687.99486,0.18537
686.50508,0.19853
685.01529,0.21172
683.52550,0.25063
682.03571,0.26514
680.54592,0.27301
679.05613,0.28582
677.56635,0.29865
676.07656,0.27011
674.58677,0.27046
673.09698,0.24324
671.60719,0.23143
670.11740,0.21964
668.62761,0.18106
667.13783,0.18090
665.64804,0.16554
664.15825,0.15020
662.66846,0.13932
661.17867,0.10055
659.68888,0.07482
658.19910,0.06909
656.70931,0.06339
655.21952,0.04788
653.72973,0.05301
652.23994,0.05817
650.75015,0.05383
649.26037,0.04952
647.77058,0.06110
646.28079,0.04636
644.79100,0.03451
643.30121,0.02982
641.81142,0.02515
640.32163,0.01718
638.83185,0.04381
637.34206,0.02986
635.85227,0.01831
634.36248,0.00679
632.87269,0.02094
631.38290,0.03162
629.89312,0.03567
628.40333,0.02086
626.91354,0.00608
625.42375,0.01845
623.93396,0.01181
622.44417,0.01439
620.95438,0.01700
619.46460,0.05738
617.97481,0.08002
616.48502,0.07128
614.99523,0.08651
613.50544,0.10177
612.01565,0.12134
610.52587,0.14474
609.03608,0.17165
607.54629,0.19589
606.05650,0.22015
604.56671,0.28552
603.07692,0.34647
601.58714,0.38160
600.09735,0.41674
598.60756,0.43240
597.11777,0.44174
595.62798,0.46253
594.13819,0.44765
592.64840,0.43279
591.15862,0.40067
589.66883,0.34255
588.17904,0.30699
586.68925,0.26082
585.19946,0.21468
583.70967,0.16776
582.21989,0.13261
580.73010,0.11541
579.24031,0.09823
577.75052,0.07934
576.26073,0.07220
574.77094,0.05494
573.28115,0.05340
571.79137,0.05189
570.30158,0.05310
568.81179,0.05402
567.32200,0.07114
565.83221,0.08829
564.34242,0.09657
562.85264,0.09346
561.36285,0.12940
559.87306,0.13110
558.38327,0.13282
556.89348,0.13615
555.40369,0.14553
553.91391,0.15796
552.42412,0.17040
550.93433,0.14940
549.44454,0.19378
547.95475,0.19409
546.46496,0.19854
544.97517,0.20302
543.48539,0.19515
541.99560,0.23679
540.50581,0.25800
539.01602,0.27923
537.52623,0.32856
536.03644,0.39124
534.54666,0.42730
533.05687,0.46020
531.56708,0.49313
530.07729,0.52450
528.58750,0.59841
527.09771,0.63062
525.60792,0.66286
524.11814,0.76094
522.62835,0.76801
521.13856,0.84521
519.64877,0.86310
518.15898,0.88102
516.66919,0.94021
515.17941,0.89442
513.68962,0.90686
512.19983,0.91933
510.71004,0.92722
509.22025,0.84725
507.73046,0.77271
506.24068,0.72579
504.75089,0.67889
503.26110,0.52193
501.77131,0.38531
500.28152,0.34277
498.79173,0.30025
497.30194,0.25474
495.81216,0.19086
494.32237,0.14889
492.83258,0.10695
491.34279,0.11706
489.85300,0.08056
488.36321,0.07422
486.87343,0.08662
485.38364,0.09905
483.89385,0.06360
482.40406,0.08274
480.91427,0.10237
479.42448,0.12204
477.93469,0.14030
476.44491,0.13891
474.95512,0.13977
473.46533,0.14065
471.97554,0.14600
470.48575,0.16565
468.99596,0.17803
467.50618,0.17330
466.01639,0.16859
464.52660,0.11759
463.03681,0.10120
461.54702,0.09419
460.05723,0.08720
458.56745,0.04391
457.07766,0.03047
455.58787,0.03180
454.09808,0.03316
452.60829,0.03089
451.11850,0.02008
449.62871,0.01342
448.13893,0.00679
446.64914,0.01427
445.15935,0.01004
443.66956,0.03471
442.17977,0.03021
440.68998,0.02574
439.20020,0.04001
437.71041,0.03336
436.22062,0.03737
434.73083,0.04140
433.24104,0.01864
431.75125,0.02637
430.26146,0.02017
428.77168,0.01398
427.28189,0.02654
425.79210,0.02168
424.30231,0.02921
422.81252,0.03676
421.32273,0.04625
419.83295,0.02022
418.34316,0.03372
416.85337,0.04724
415.36358,0.03938
413.87379,0.00679
412.38400,0.02029
410.89422,0.03383
409.40443,0.03564
407.91464,0.03876
406.42485,0.03174
404.93506,0.02237
403.44527,0.01302
401.95548,0.01940
400.46570,0.05595
398.97591,0.05048
397.48612,0.04503
395.99633,0.04993
394.50654,0.05643
393.01675,0.03710
391.52697,0.01779
390.03718,0.03128
388.54739,0.02702
387.05760,0.02200
385.56781,0.01700
384.07802,0.00679
382.58824,0.02889
381.09845,0.03024
379.60866,0.03161
378.11887,0.05347
376.62908,0.03919
375.13929,0.02604
373.64950,0.01292
372.15972,0.03868
370.66993,0.04671
369.18014,0.03318
367.69035,0.01968
366.20056,0.05736
364.71077,0.07857
363.22099,0.04698
361.73120,0.01542
360.24141,0.05320
358.75162,0.06213
357.26183,0.06427
355.77204,0.06643
354.28225,0.09796
352.79247,0.06543
351.30268,0.06576
349.81289,0.06611
348.32310,0.04952
346.83331,0.04977
345.34352,0.04385
343.85374,0.03795
342.36395,0.05762
340.87416,0.02910
339.38437,0.03438
337.89458,0.03969
336.40479,0.03027
334.91501,0.05735
333.42522,0.04211
331.93543,0.02690
330.44564,0.00679
328.95585,0.01811
327.46606,0.02249
325.97627,0.02688
324.48649,0.04717
322.99670,0.05161
321.50691,0.04514
320.01712,0.03869
318.52733,0.08699
317.03754,0.09692
315.54776,0.08880
314.05797,0.08070
312.56818,0.05930
311.07839,0.06775
309.58860,0.06924
308.09881,0.07075
306.60902,0.07673
305.11924,0.02500
303.62945,0.01723
302.13966,0.00679
300.64987,0.01090
299.16008,0.00679
