1778.52000,0.01608
1777.03021,0.02187
1775.54042,0.01976
1774.05063,0.00382
1772.56085,0.00940
1771.07106,0.01048
1769.58127,0.01583
1768.09148,0.00479
1766.60169,0.00651
1765.11190,0.02014
1763.62212,0.01031
1762.13233,0.01238
1760.64254,0.00487
1759.15275,0.01491
1757.66296,0.01027
1756.17317,0.01697
1754.68339,0.01153
1753.19360,0.00414
1751.70381,0.00101
1750.21402,0.00866
1748.72423,0.01067
1747.23444,0.00705
1745.74465,0.00883
1744.25487,0.00215
1742.76508,0.00652
1741.27529,0.00810
1739.78550,0.00347
1738.29571,0.00919
1736.80592,0.01323
1735.31614,0.00599
1733.82635,0.00171
1732.33656,-0.00000
1730.84677,0.00510
1729.35698,0.00967
1727.86719,0.00096
1726.37740,0.00925
1724.88762,0.01218
1723.39783,0.00694
1721.90804,0.01785
1720.41825,0.01521
1718.92846,0.00353
1717.43867,0.00928
1715.94889,0.00487
1714.45910,0.01186
1712.96931,0.01125
1711.47952,0.00783
1709.98973,0.00613
1708.49994,0.00503
1707.01016,0.00493
1705.52037,0.00487
1704.03058,0.02012
1702.54079,0.01898
1701.05100,0.02014
1699.56121,0.01793
1698.07142,0.02055
1696.58164,0.02206
1695.09185,0.03067
1693.60206,0.03619
1692.11227,0.02985
1690.62248,0.02128
1689.13269,0.05488
1687.64291,0.04070
1686.15312,0.03899
1684.66333,0.03419
1683.17354,0.03564
1681.68375,0.04419
1680.19396,0.03861
1678.70417,0.04410
1677.21439,0.05922
1675.72460,0.05259
1674.23481,0.06183
1672.74502,0.05836
1671.25523,0.05831
1669.76544,0.06677
1668.27566,0.07723
1666.78587,0.07160
1665.29608,0.08890
1663.80629,0.07483
1662.31650,0.08200
1660.82671,0.09004
1659.33693,0.07576
1657.84714,0.08668
1656.35735,0.08885
1654.86756,0.09586
1653.37777,0.08026
1651.88798,0.07063
1650.39819,0.08648
1648.90841,0.09472
1647.41862,0.08374
1645.92883,0.08142
1644.43904,0.07913
1642.94925,0.08039
1641.45946,0.07970
1639.96968,0.07705
1638.47989,0.09395
1636.99010,0.09248
1635.50031,0.07520
1634.01052,0.07406
1632.52073,0.08031
1631.03094,0.07215
1629.54116,0.07420
1628.05137,0.07458
1626.56158,0.08375
1625.07179,0.09408
1623.58200,0.10273
1622.09221,0.09699
1620.60243,0.08334
1619.11264,0.10876
1617.62285,0.08838
1616.13306,0.09037
1614.64327,0.08276
1613.15348,0.07518
1611.66370,0.09111
1610.17391,0.10338
1608.68412,0.08314
1607.19433,0.09518
1605.70454,0.08998
1604.21475,0.09089
1602.72496,0.09183
1601.23518,0.07511
1599.74539,0.09038
1598.25560,0.07541
1596.76581,0.08932
1595.27602,0.08345
1593.78623,0.08241
1592.29645,0.08535
1590.80666,0.06966
1589.31687,0.08029
1587.82708,0.07228
1586.33729,0.08522
1584.84750,0.07811
1583.35771,0.07215
1581.86793,0.07640
1580.37814,0.08011
1578.88835,0.06829
1577.39856,0.07714
1575.90877,0.07328
1574.41898,0.06832
1572.92920,0.05999
1571.43941,0.06837
1569.94962,0.06872
1568.45983,0.06909
1566.97004,0.05717
1565.48025,0.03822
1563.99047,0.05549
1562.50068,0.04733
1561.01089,0.04881
1559.52110,0.05004
1558.03131,0.04054
1556.54152,0.04068
1555.05173,0.02444
1553.56195,0.04924
1552.07216,0.02852
1550.58237,0.02904
1549.09258,0.01601
1547.60279,0.02450
1546.11300,0.02369
1544.62322,0.03392
1543.13343,0.00487
1541.64364,0.01564
1540.15385,0.01315
1538.66406,0.01068
1537.17427,0.01333
1535.68448,0.00808
1534.19470,0.01926
1532.70491,0.00558
1531.21512,0.01072
1529.72533,0.02127
1528.23554,0.02335
1526.74575,0.02263
1525.25597,0.03750
1523.76618,0.02014
1522.27639,0.02571
1520.78660,0.05027
1519.29681,0.02732
1517.80702,0.04457
1516.31724,0.03922
1514.82745,0.03077
1513.33766,0.03508
1511.84787,0.03942
1510.35808,0.03897
1508.86829,0.06117
1507.37850,0.04832
1505.88872,0.03776
1504.39893,0.03374
1502.90914,0.06481
1501.41935,0.09251
1499.92956,0.08912
1498.43977,0.07388
1496.94999,0.05441
1495.46020,0.06750
1493.97041,0.09957
1492.48062,0.10253
1490.99083,0.08175
1489.50104,0.12011
1488.01125,0.12328
1486.52147,0.12648
1485.03168,0.15077
1483.54189,0.17424
1482.05210,0.19746
1480.56231,0.19071
1479.07252,0.20096
1477.58274,0.22509
1476.09295,0.23794
1474.60316,0.24685
1473.11337,0.24701
1471.62358,0.26813
1470.13379,0.25250
1468.64401,0.24765
1467.15422,0.29713
1465.66443,0.30308
1464.17464,0.30904
1462.68485,0.33088
1461.19506,0.38583
1459.70527,0.43770
1458.21549,0.48903
1456.72570,0.57772
1455.23591,0.63249
1453.74612,0.67428
1452.25633,0.67903
1450.76654,0.70332
1449.27676,0.74292
1447.78697,0.72370
1446.29718,0.66348
1444.80739,0.66538
1443.31760,0.66731
1441.82781,0.62669
1440.33802,0.58496
1438.84824,0.54665
1437.35845,0.52053
1435.86866,0.49811
1434.37887,0.52098
1432.88908,0.56707
1431.39929,0.58517
1429.90951,0.67148
1428.41972,0.76941
1426.92993,0.81078
1425.44014,0.87736
1423.95035,0.89828
1422.46056,0.91922
1420.97078,0.94711
1419.48099,0.96768
1417.99120,0.94697
1416.50141,0.94665
1415.01162,0.91750
1413.52183,0.84482
1412.03204,0.78828
1410.54226,0.72950
1409.05247,0.67160
1407.56268,0.67200
1406.07289,0.60594
1404.58310,0.58149
1403.09331,0.55706
1401.60353,0.48090
1400.11374,0.41437
1398.62395,0.36428
1397.13416,0.33316
1395.64437,0.27237
1394.15458,0.23027
1392.66479,0.17971
1391.17501,0.17754
1389.68522,0.12448
1388.19543,0.10200
1386.70564,0.08662
1385.21585,0.07126
1383.72606,0.08817
1382.23628,0.03523
1380.74649,0.03777
1379.25670,0.02929
1377.76691,0.02763
1376.27712,0.01355
1374.78733,0.00487
1373.29755,0.01740
1371.80776,0.01439
1370.31797,0.00915
1368.82818,0.00804
1367.33839,0.00695
1365.84860,0.01706
1364.35881,0.02238
1362.86903,0.04329
1361.37924,0.05630
1359.88945,0.09168
1358.39966,0.12199
1356.90987,0.15969
1355.42008,0.20872
1353.93030,0.26061
1352.44051,0.29555
1350.95072,0.33051
1349.46093,0.39803
1347.97114,0.48312
1346.48135,0.58746
1344.99156,0.65930
1343.50178,0.74049
1342.01199,0.74194
1340.52220,0.81357
1339.03241,0.86401
1337.54262,0.86609
1336.05283,0.89777
1334.56305,0.92947
1333.07326,0.95737
1331.58347,0.97172
1330.09368,0.96346
1328.60389,0.93458
1327.11410,0.90459
1325.62432,0.87831
1324.13453,0.83620
1322.64474,0.81902
1321.15495,0.79761
1319.66516,0.76789
1318.17537,0.73819
1316.68558,0.71573
1315.19580,0.65425
1313.70601,0.60638
1312.21622,0.57126
1310.72643,0.52683
1309.23664,0.48016
1307.74685,0.47058
1306.25707,0.43924
1304.76728,0.41343
1303.27749,0.38766
1301.78770,0.33772
1300.29791,0.29148
1298.80812,0.23282
1297.31834,0.19936
1295.82855,0.17300
1294.33876,0.15119
1292.84897,0.12969
1291.35918,0.12857
1289.86939,0.11858
1288.37960,0.10860
1286.88982,0.09512
1285.40003,0.08392
1283.91024,0.06568
1282.42045,0.06726
1280.93066,0.05359
1279.44087,0.05465
1277.95109,0.05999
1276.46130,0.04780
1274.97151,0.05842
1273.48172,0.06906
1271.99193,0.06459
1270.50214,0.03893
1269.01235,0.03139
1267.52257,0.02813
1266.03278,0.02093
1264.54299,0.01969
1263.05320,0.03687
1261.56341,0.03823
1260.07362,0.03961
1258.58384,0.02178
1257.09405,0.00879
1255.60426,0.03231
1254.11447,0.01993
1252.62468,0.01210
1251.13489,0.00487
1249.64511,0.01311
1248.15532,0.02025
1246.66553,0.02063
1245.17574,0.02103
1243.68595,0.01325
1242.19616,0.03350
1240.70637,0.03058
1239.21659,0.02655
1237.72680,0.04206
1236.23701,0.02790
1234.74722,0.02903
1233.25743,0.03147
1231.76764,0.03393
1230.27786,0.02863
1228.78807,0.02987
1227.29828,0.03480
1225.80849,0.03411
1224.31870,0.00487
1222.82891,0.00637
1221.33912,0.03137
1219.84934,0.03433
1218.35955,0.03732
1216.86976,0.03666
1215.37997,0.07194
1213.89018,0.06114
1212.40039,0.07866
1210.91061,0.08856
1209.42082,0.09254
1207.93103,0.09075
1206.44124,0.08899
1204.95145,0.08314
1203.46166,0.06120
1201.97188,0.06615
1200.48209,0.06123
1198.99230,0.07303
1197.50251,0.06420
1196.01272,0.04238
1194.52293,0.04024
1193.03314,0.03813
1191.54336,0.03477
1190.05357,0.03455
1188.56378,0.02162
1187.07399,0.01579
1185.58420,0.03827
1184.09441,0.01382
1182.60463,0.01315
1181.11484,0.01251
1179.62505,0.03481
1178.13526,0.02375
1176.64547,0.01554
1175.15568,0.01868
1173.66589,0.02806
1172.17611,0.02898
1170.68632,0.01691
1169.19653,0.00487
1167.70674,0.02522
1166.21695,0.02155
1164.72716,0.04789
1163.23738,0.04228
1161.74759,0.06613
1160.25780,0.06623
1158.76801,0.06297
1157.27822,0.05973
1155.78843,0.08423
1154.29865,0.10028
1152.80886,0.10164
1151.31907,0.13244
1149.82928,0.10330
1148.33949,0.12340
1146.84970,0.11722
1145.35991,0.11107
1143.87013,0.13888
1142.38034,0.17379
1140.89055,0.19006
1139.40076,0.20041
1137.91097,0.20314
1136.42118,0.22853
1134.93140,0.23457
1133.44161,0.24064
1131.95182,0.26412
1130.46203,0.29810
1128.97224,0.30098
1127.48245,0.27560
1125.99266,0.26213
1124.50288,0.25320
1123.01309,0.26920
1121.52330,0.28522
1120.03351,0.28089
1118.54372,0.28678
1117.05393,0.28137
1115.56415,0.28815
1114.07436,0.28591
1112.58457,0.28383
1111.09478,0.28177
1109.60499,0.27168
1108.11520,0.27236
1106.62542,0.26543
1105.13563,0.28313
1103.64584,0.28445
1102.15605,0.26939
1100.66626,0.27359
1099.17647,0.27781
1097.68668,0.25632
1096.19690,0.23937
1094.70711,0.23886
1093.21732,0.24714
1091.72753,0.22009
1090.23774,0.21385
1088.74795,0.20764
1087.25817,0.21234
1085.76838,0.20858
1084.27859,0.21361
1082.78880,0.21245
1081.29901,0.19123
1079.80922,0.19294
1078.31943,0.21066
1076.82965,0.22840
1075.33986,0.19709
1073.85007,0.18929
1072.36028,0.19141
1070.87049,0.22806
1069.38070,0.27634
1067.89092,0.29649
1066.40113,0.31667
1064.91134,0.36446
1063.42155,0.42217
1061.93176,0.51583
1060.44197,0.57105
1058.95219,0.67522
1057.46240,0.70220
1055.97261,0.72920
1054.48282,0.83034
1052.99303,0.86587
1051.50324,0.85985
1050.01345,0.85215
1048.52367,0.85777
1047.03388,0.85380
1045.54409,0.84986
1044.05430,0.83575
1042.56451,0.76962
1041.07472,0.71257
1039.58494,0.70250
1038.09515,0.61975
1036.60536,0.59106
1035.11557,0.56239
1033.62578,0.52017
1032.13599,0.45591
1030.64620,0.37470
1029.15642,0.32831
1027.66663,0.29764
1026.17684,0.26700
1024.68705,0.24473
1023.19726,0.21371
1021.70747,0.19800
1020.21769,0.18287
1018.72790,0.15249
1017.23811,0.14152
1015.74832,0.13057
1014.25853,0.14128
1012.76874,0.12939
1011.27896,0.14468
1009.78917,0.13396
1008.29938,0.09725
1006.80959,0.08560
1005.31980,0.07397
1003.83001,0.03620
1002.34022,0.04740
1000.85044,0.04730
999.36065,0.03449
997.87086,0.04053
996.38107,0.04659
994.89128,0.06469
993.40149,0.06274
991.91171,0.05741
990.42192,0.08012
988.93213,0.09888
987.44234,0.10764
985.95255,0.11641
984.46276,0.13129
982.97297,0.10603
981.48319,0.09041
979.99340,0.06746
978.50361,0.05330
977.01382,0.03917
975.52403,0.04175
974.03424,0.04380
972.54446,0.02323
971.05467,0.02674
969.56488,0.01527
968.07509,0.01006
966.58530,0.00487
965.09551,0.01976
963.60573,0.00837
962.11594,0.02303
960.62615,0.02414
959.13636,0.03348
957.64657,0.04284
956.15678,0.02394
954.66699,0.03731
953.17721,0.04278
951.68742,0.04205
950.19763,0.04941
948.70784,0.05680
947.21805,0.07482
945.72826,0.09286
944.23848,0.12168
942.74869,0.12365
941.25890,0.14346
939.76911,0.14831
938.27932,0.15318
936.78953,0.18834
935.29974,0.17544
933.80996,0.19736
932.32017,0.21421
930.83038,0.20887
929.34059,0.20357
927.85080,0.24312
926.36101,0.26148
924.87123,0.29231
923.38144,0.33590
921.89165,0.36509
920.40186,0.39430
918.91207,0.49425
917.42228,0.59791
915.93250,0.74940
914.44271,0.98181
912.95292,1.10308
911.46313,1.22438
909.97334,1.39605
908.48355,1.67806
906.99376,1.82630
905.50398,1.91120
904.01419,1.94507
902.52440,1.97896
901.03461,2.00000
899.54482,1.94299
898.05503,1.85942
896.56525,1.71279
895.07546,1.58428
893.58567,1.45580
892.09588,1.20345
890.60609,0.88718
889.11630,0.68806
887.62651,0.48160
886.13673,0.42241
884.64694,0.36324
883.15715,0.25021
881.66736,0.15870
880.17757,0.13992
878.68778,0.11946
877.19800,0.09903
875.70821,0.08853
874.21842,0.03533
872.72863,0.04354
871.23884,0.02095
869.74905,0.01775
868.25927,0.01458
866.76948,0.03308
865.27969,0.02642
863.78990,0.00904
862.30011,0.02280
860.81032,0.03390
859.32053,0.04502
857.83075,0.06592
856.34096,0.06818
854.85117,0.06311
853.36138,0.06570
851.87159,0.07002
850.38180,0.07436
848.89202,0.09965
847.40223,0.11337
845.91244,0.15088
844.42265,0.14754
842.93286,0.14422
841.44307,0.14390
839.95329,0.16680
838.46350,0.20047
836.97371,0.18975
835.48392,0.17948
833.99413,0.16924
832.50434,0.20216
831.01455,0.17004
829.52477,0.16765
828.03498,0.13841
826.54519,0.13437
825.05540,0.13036
823.56561,0.09695
822.07582,0.09553
820.58604,0.07660
819.09625,0.08159
817.60646,0.08661
816.11667,0.06634
814.62688,0.06024
813.13709,0.05104
811.64730,0.06111
810.15752,0.06639
808.66773,0.07170
807.17794,0.09967
805.68815,0.09229
804.19836,0.07561
802.70857,0.07691
801.21879,0.07824
799.72900,0.05767
798.23921,0.07900
796.74942,0.06442
795.25963,0.07320
793.76984,0.08200
792.28006,0.07995
790.79027,0.08272
789.30048,0.09033
787.81069,0.11125
786.32090,0.13376
784.83111,0.15629
783.34132,0.18776
781.85154,0.20115
780.36175,0.25162
778.87196,0.26025
777.38217,0.26890
775.89238,0.28634
774.40259,0.30297
772.91281,0.28963
771.42302,0.28452
769.93323,0.27943
768.44344,0.27352
766.95365,0.23737
765.46386,0.22359
763.97407,0.17588
762.48429,0.15437
760.99450,0.13288
759.50471,0.11439
758.01492,0.07273
756.52513,0.06588
755.03534,0.06585
753.54556,0.06584
752.05577,0.06812
750.56598,0.04780
749.07619,0.02523
747.58640,0.02419
746.09661,0.02318
744.60683,0.02275
743.11704,0.01641
741.62725,0.00839
740.13746,0.00762
738.64767,0.00687
737.15788,0.00487
735.66809,0.00630
734.17831,0.00522
732.68852,0.01194
731.19873,0.01869
729.70894,0.01202
728.21915,0.02320
726.72936,0.00894
725.23958,0.03026
723.74979,0.02771
722.26000,0.02518
720.77021,0.01263
719.28042,0.00605
717.79063,0.01548
716.30084,0.02097
714.81106,0.02648
713.32127,0.00487
711.83148,0.02223
710.34169,0.02066
708.85190,0.02350
707.36211,0.02636
705.87233,0.03562
704.38254,0.04489
702.89275,0.06353
701.40296,0.05942
699.91317,0.05534
698.42338,0.06896
696.93360,0.07780
695.44381,0.09571
693.95402,0.10417
692.46423,0.11265
690.97444,0.11706
689.48465,0.15883
687.99486,0.15396
686.50508,0.17937
685.01529,0.20481
683.52550,0.23593
682.03571,0.24501
680.54592,0.26373
679.05613,0.25632
677.56635,0.24892
676.07656,0.24679
674.58677,0.24411
673.09698,0.26352
671.60719,0.25099
670.11740,0.23849
668.62761,0.18499
667.13783,0.16292
665.64804,0.14596
664.15825,0.12903
662.66846,0.10335
661.17867,0.07487
659.68888,0.05122
658.19910,0.04825
656.70931,0.04530
655.21952,0.05511
653.72973,0.05956
652.23994,0.05244
650.75015,0.06034
649.26037,0.06827
647.77058,0.05556
646.28079,0.04091
644.79100,0.03023
643.30121,0.02567
641.81142,0.02113
640.32163,0.03061
638.83185,0.01692
637.34206,0.01514
635.85227,0.00999
634.36248,0.00487
632.87269,0.01500
631.38290,0.00366
629.89312,0.00707
628.40333,0.02012
626.91354,0.03319
625.42375,0.02224
623.93396,0.01528
622.44417,0.01556
620.95438,0.01586
619.46460,0.02764
617.97481,0.05246
616.48502,0.06571
614.99523,0.06681
613.50544,0.06794
612.01565,0.08466
610.52587,0.14694
609.03608,0.17785
607.54629,0.19704
606.05650,0.21625
604.56671,0.24243
603.07692,0.29493
601.58714,0.33869
600.09735,0.38247
598.60756,0.37848
597.11777,0.42118
595.62798,0.41525
594.13819,0.40651
592.64840,0.39780
591.15862,0.37837
589.66883,0.32756
588.17904,0.27621
586.68925,0.23733
585.19946,0.19848
583.70967,0.13221
582.21989,0.14177
580.73010,0.11105
579.24031,0.08036
577.75052,0.05407
576.26073,0.04365
574.77094,0.05759
573.28115,0.04354
571.79137,0.02952
570.30158,0.03900
568.81179,0.04794
567.32200,0.04742
565.83221,0.04693
564.34242,0.05680
562.85264,0.09921
561.36285,0.10120
559.87306,0.11057
558.38327,0.11997
556.89348,0.14607
555.40369,0.12242
553.91391,0.12807
552.42412,0.13374
550.93433,0.16108
549.44454,0.16412
547.95475,0.18188
546.46496,0.17436
544.97517,0.16686
543.48539,0.20535
541.99560,0.22237
540.50581,0.24507
539.01602,0.26780
537.52623,0.27556
536.03644,0.35151
534.54666,0.38308
533.05687,0.41524
531.56708,0.44742
530.07729,0.49971
528.58750,0.56023
527.09771,0.58132
525.60792,0.60243
524.11814,0.70291
522.62835,0.75673
521.13856,0.79560
519.64877,0.82090
518.15898,0.84624
516.66919,0.87866
515.17941,0.88396
513.68962,0.88857
512.19983,0.89321
510.71004,0.89434
509.22025,0.83580
507.73046,0.73062
506.24068,0.67114
504.75089,0.61169
503.26110,0.47574
501.77131,0.38055
500.28152,0.32810
498.79173,0.27568
497.30194,0.21762
495.81216,0.18335
494.32237,0.15745
492.83258,0.13157
491.34279,0.11208
489.85300,0.08414
488.36321,0.06753
486.87343,0.06678
485.38364,0.06606
483.89385,0.07980
482.40406,0.09553
480.91427,0.08654
479.42448,0.07758
477.93469,0.12026
476.44491,0.11460
474.95512,0.13357
473.46533,0.15257
471.97554,0.15263
470.48575,0.15471
468.99596,0.14209
467.50618,0.14506
466.01639,0.14806
464.52660,0.11855
463.03681,0.09132
461.54702,0.08449
460.05723,0.07768
458.56745,0.04770
457.07766,0.04010
455.58787,0.04015
454.09808,0.04023
452.60829,0.02138
451.11850,0.00906
449.62871,0.00695
448.13893,0.00487
446.64914,0.03183
445.15935,0.02403
443.66956,0.04624
442.17977,0.05178
440.68998,0.05735
439.20020,0.06407
437.71041,0.05187
436.22062,0.05355
434.73083,0.05525
433.24104,0.05472
431.75125,0.03893
430.26146,0.04368
428.77168,0.04845
427.28189,0.04830
425.79210,0.02611
424.30231,0.03223
422.81252,0.03837
421.32273,0.04002
419.83295,0.05187
418.34316,0.04635
416.85337,0.04085
415.36358,0.03269
413.87379,0.03672
412.38400,0.03271
410.89422,0.02872
409.40443,0.04923
407.91464,0.04912
406.42485,0.03997
404.93506,0.03241
403.44527,0.02487
401.95548,0.01382
400.46570,0.03815
398.97591,0.04158
397.48612,0.04503
395.99633,0.05218
394.50654,0.05257
393.01675,0.05185
391.52697,0.05115
390.03718,0.03407
388.54739,0.01730
387.05760,0.01827
385.56781,0.01926
384.07802,0.00487
382.58824,0.03614
381.09845,0.04226
379.60866,0.04841
378.11887,0.06420
376.62908,0.03475
375.13929,0.02230
373.64950,0.00987
372.15972,0.01982
370.66993,0.02215
369.18014,0.01350
367.69035,0.00487
366.20056,0.01814
364.71077,0.04076
363.22099,0.02551
361.73120,0.01028
360.24141,0.02902
358.75162,0.05430
357.26183,0.05682
355.77204,0.05937
354.28225,0.04992
352.79247,0.05917
351.30268,0.04864
349.81289,0.03814
348.32310,0.06358
346.83331,0.01663
345.34352,0.01520
343.85374,0.01378
342.36395,0.03573
340.87416,0.03989
339.38437,0.04180
337.89458,0.04374
336.40479,0.04090
334.91501,0.02704
333.42522,0.03104
331.93543,0.03505
330.44564,0.00487
328.95585,0.02613
327.46606,0.01942
325.97627,0.01272
324.48649,0.01932
322.99670,0.05168
321.50691,0.03442
320.01712,0.01719
318.52733,0.04651
317.03754,0.07954
315.54776,0.06902
314.05797,0.05853
312.56818,0.06957
311.07839,0.07441
309.58860,0.07106
308.09881,0.06774
306.60902,0.05738
305.11924,0.05043
303.62945,0.03559
302.13966,0.02077
300.64987,0.00513
299.16008,0.00487
