1778.52000,0.00401
1777.03021,0.00589
1775.54042,0.01034
1774.05063,0.00439
1772.56085,0.01074
1771.07106,0.00391
1769.58127,0.00869
1768.09148,0.00493
1766.60169,0.00489
1765.11190,0.00881
1763.62212,0.00720
1762.13233,0.01141
1760.64254,0.00382
1759.15275,0.01108
1757.66296,0.01258
1756.17317,0.01457
1754.68339,0.00569
1753.19360,0.00842
1751.70381,0.00307
1750.21402,0.00769
1748.72423,0.00702
1747.23444,0.00498
1745.74465,0.01177
1744.25487,0.01163
1742.76508,0.01893
1741.27529,0.02162
1739.78550,0.01576
1738.29571,0.00484
1736.80592,0.00644
1735.31614,0.01988
1733.82635,0.00926
1732.33656,0.00353
1730.84677,0.01588
1729.35698,0.00070
1727.86719,0.00569
1726.37740,0.01858
1724.88762,0.00000
1723.39783,0.01857
1721.90804,0.01980
1720.41825,0.02036
1718.92846,0.01238
1717.43867,0.01530
1715.94889,0.00459
1714.45910,0.01196
1712.96931,0.01542
1711.47952,0.00964
1709.98973,0.00875
1708.49994,0.00649
1707.01016,0.00356
1705.52037,0.00066
1704.03058,0.00056
1702.54079,0.00139
1701.05100,0.00666
1699.56121,0.01565
1698.07142,0.00382
1696.58164,0.00506
1695.09185,0.01720
1693.60206,0.00876
1692.11227,0.01980
1690.62248,0.01233
1689.13269,0.01809
1687.64291,0.00974
1686.15312,0.01833
1684.66333,0.02370
1683.17354,0.03210
1681.68375,0.02385
1680.19396,0.03323
1678.70417,0.01854
1677.21439,0.03492
1675.72460,0.03603
1674.23481,0.04874
1672.74502,0.03462
1671.25523,0.04113
1669.76544,0.05623
1668.27566,0.05284
1666.78587,0.05988
1665.29608,0.06279
1663.80629,0.07451
1662.31650,0.07469
1660.82671,0.07720
1659.33693,0.07695
1657.84714,0.06886
1656.35735,0.06682
1654.86756,0.07336
1653.37777,0.07553
1651.88798,0.07147
1650.39819,0.08133
1648.90841,0.08265
1647.41862,0.07588
1645.92883,0.07586
1644.43904,0.07586
1642.94925,0.07032
1641.45946,0.08172
1639.96968,0.08388
1638.47989,0.08768
1636.99010,0.08664
1635.50031,0.07150
1634.01052,0.06866
1632.52073,0.07001
1631.03094,0.06860
1629.54116,0.05518
1628.05137,0.07467
1626.56158,0.07264
1625.07179,0.08222
1623.58200,0.08001
1622.09221,0.07551
1620.60243,0.08516
1619.11264,0.09229
1617.62285,0.09041
1616.13306,0.07905
1614.64327,0.08139
1613.15348,0.08120
1611.66370,0.08822
1610.17391,0.09526
1608.68412,0.08843
1607.19433,0.08093
1605.70454,0.08063
1604.21475,0.08128
1602.72496,0.08196
1601.23518,0.08474
1599.74539,0.07736
1598.25560,0.07904
1596.76581,0.08375
1595.27602,0.08362
1593.78623,0.07541
1592.29645,0.08367
1590.80666,0.07389
1589.31687,0.08497
1587.82708,0.06922
1586.33729,0.06854
1584.84750,0.07923
1583.35771,0.07142
1581.86793,0.07313
1580.37814,0.06329
1578.88835,0.07362
1577.39856,0.06614
1575.90877,0.06794
1574.41898,0.05912
1572.92920,0.04407
1571.43941,0.03553
1569.94962,0.04010
1568.45983,0.04469
1566.97004,0.03599
1565.48025,0.03982
1563.99047,0.03047
1562.50068,0.03157
1561.01089,0.02320
1559.52110,0.02226
1558.03131,0.02691
1556.54152,0.01861
1555.05173,0.02098
1553.56195,0.02200
1552.07216,0.02350
1550.58237,0.01854
1549.09258,0.01105
1547.60279,0.01517
1546.11300,0.00843
1544.62322,0.00704
1543.13343,0.00382
1541.64364,0.00903
1540.15385,0.01043
1538.66406,0.01186
1537.17427,0.00788
1535.68448,0.01457
1534.19470,0.01642
1532.70491,0.01366
1531.21512,0.02946
1529.72533,0.00382
1528.23554,0.02498
1526.74575,0.01791
1525.25597,0.02708
1523.76618,0.02932
1522.27639,0.04618
1520.78660,0.03318
1519.29681,0.03874
1517.80702,0.04085
1516.31724,0.04321
1514.82745,0.04652
1513.33766,0.04917
1511.84787,0.05183
1510.35808,0.03322
1508.86829,0.03872
1507.37850,0.04562
1505.88872,0.03959
1504.39893,0.04029
1502.90914,0.04612
1501.41935,0.06354
1499.92956,0.06964
1498.43977,0.07647
1496.94999,0.07359
1495.46020,0.06980
1493.97041,0.08179
1492.48062,0.10168
1490.99083,0.08060
1489.50104,0.10818
1488.01125,0.10869
1486.52147,0.10922
1485.03168,0.13270
1483.54189,0.13120
1482.05210,0.16862
1480.56231,0.18731
1479.07252,0.18635
1477.58274,0.20462
1476.09295,0.20417
1474.60316,0.20906
1473.11337,0.21606
1471.62358,0.22147
1470.13379,0.23454
1468.64401,0.24763
1467.15422,0.26469
1465.66443,0.27031
1464.17464,0.27595
1462.68485,0.29076
1461.19506,0.33640
1459.70527,0.36423
1458.21549,0.43400
1456.72570,0.49963
1455.23591,0.55602
1453.74612,0.61776
1452.25633,0.63482
1450.76654,0.65145
1449.27676,0.66556
1447.78697,0.65213
1446.29718,0.63224
1444.80739,0.61781
1443.31760,0.60342
1441.82781,0.56970
1440.33802,0.53741
1438.84824,0.50467
1437.35845,0.47983
1435.86866,0.47308
1434.37887,0.48210
1432.88908,0.49462
1431.39929,0.52708
1429.90951,0.59638
1428.41972,0.66895
1426.92993,0.75475
1425.44014,0.80560
1423.95035,0.83876
1422.46056,0.87194
1420.97078,0.89994
1419.48099,0.89368
1417.99120,0.88375
1416.50141,0.89144
1415.01162,0.87298
1413.52183,0.80036
1412.03204,0.76991
1410.54226,0.69919
1409.05247,0.63151
1407.56268,0.61503
1406.07289,0.54461
1404.58310,0.52042
1403.09331,0.49626
1401.60353,0.44884
1400.11374,0.41743
1398.62395,0.36334
1397.13416,0.29979
1395.64437,0.25733
1394.15458,0.21675
1392.66479,0.17550
1391.17501,0.16369
1389.68522,0.13638
1388.19543,0.10424
1386.70564,0.09701
1385.21585,0.08981
1383.72606,0.06491
1382.23628,0.04537
1380.74649,0.02608
1379.25670,0.03183
1377.76691,0.02347
1376.27712,0.00959
1374.78733,0.01286
1373.29755,0.00990
1371.80776,0.01600
1370.31797,0.01101
1368.82818,0.00871
1367.33839,0.00643
1365.84860,0.00382
1364.35881,0.02906
1362.86903,0.03996
1361.37924,0.04881
1359.88945,0.08407
1358.39966,0.10732
1356.90987,0.15538
1355.42008,0.18238
1353.93030,0.23720
1352.44051,0.26298
1350.95072,0.28878
1349.46093,0.32769
1347.97114,0.39858
1346.48135,0.48131
1344.99156,0.54785
1343.50178,0.62114
1342.01199,0.67499
1340.52220,0.73743
1339.03241,0.79365
1337.54262,0.80914
1336.05283,0.82951
1334.56305,0.84990
1333.07326,0.86453
1331.58347,0.89123
1330.09368,0.88738
1328.60389,0.89814
1327.11410,0.85381
1325.62432,0.83082
1324.13453,0.78237
1322.64474,0.76498
1321.15495,0.72631
1319.66516,0.71105
1318.17537,0.69581
1316.68558,0.64702
1315.19580,0.56607
1313.70601,0.55299
1312.21622,0.49756
1310.72643,0.49426
1309.23664,0.42984
1307.74685,0.39949
1306.25707,0.39418
1304.76728,0.36642
1303.27749,0.33869
1301.78770,0.30960
1300.29791,0.27428
1298.80812,0.21814
1297.31834,0.17383
1295.82855,0.13742
1294.33876,0.11609
1292.84897,0.09710
1291.35918,0.09087
1289.86939,0.09450
1288.37960,0.09816
1286.88982,0.08112
1285.40003,0.06758
1283.91024,0.06703
1282.42045,0.05793
1280.93066,0.04214
1279.44087,0.04143
1277.95109,0.04631
1276.46130,0.03615
1274.97151,0.04234
1273.48172,0.04856
1271.99193,0.03848
1270.50214,0.04532
1269.01235,0.05242
1267.52257,0.03547
1266.03278,0.03544
1264.54299,0.03891
1263.05320,0.02596
1261.56341,0.02461
1260.07362,0.02329
1258.58384,0.01319
1257.09405,0.00590
1255.60426,0.01298
1254.11447,0.01917
1252.62468,0.02260
1251.13489,0.00382
1249.64511,0.02565
1248.15532,0.00907
1246.66553,0.01914
1245.17574,0.02923
1243.68595,0.03356
1242.19616,0.02749
1240.70637,0.00361
1239.21659,0.00222
1237.72680,0.00526
1236.23701,0.02453
1234.74722,0.02900
1233.25743,0.02308
1231.76764,0.01718
1230.27786,0.03168
1228.78807,0.02791
1227.29828,0.01792
1225.80849,0.01929
1224.31870,0.01259
1222.82891,0.00382
1221.33912,0.01352
1219.84934,0.01387
1218.35955,0.01423
1216.86976,0.03003
1215.37997,0.02477
1213.89018,0.03876
1212.40039,0.05115
1210.91061,0.07051
1209.42082,0.08411
1207.93103,0.07029
1206.44124,0.05649
1204.95145,0.06600
1203.46166,0.04866
1201.97188,0.05219
1200.48209,0.03999
1198.99230,0.05330
1197.50251,0.06848
1196.01272,0.05543
1194.52293,0.04716
1193.03314,0.03890
1191.54336,0.02662
1190.05357,0.02456
1188.56378,0.01070
1187.07399,0.00382
1185.58420,0.02322
1184.09441,0.02828
1182.60463,0.02133
1181.11484,0.01440
1179.62505,0.01096
1178.13526,0.02261
1176.64547,0.01644
1175.15568,0.02003
1173.66589,0.02040
1172.17611,0.02658
1170.68632,0.01750
1169.19653,0.00845
1167.70674,0.00382
1166.21695,0.02601
1164.72716,0.02391
1163.23738,0.03411
1161.74759,0.04295
1160.25780,0.06662
1158.76801,0.06647
1157.27822,0.06635
1155.78843,0.09218
1154.29865,0.08354
1152.80886,0.08881
1151.31907,0.09712
1149.82928,0.11217
1148.33949,0.12562
1146.84970,0.12300
1145.35991,0.12040
1143.87013,0.12119
1142.38034,0.12871
1140.89055,0.16683
1139.40076,0.17163
1137.91097,0.17089
1136.42118,0.18847
1134.93140,0.19381
1133.44161,0.19916
1131.95182,0.20014
1130.46203,0.23218
1128.97224,0.24340
1127.48245,0.23727
1125.99266,0.23302
1124.50288,0.22764
1123.01309,0.23467
1121.52330,0.24172
1120.03351,0.22738
1118.54372,0.21978
1117.05393,0.22702
1115.56415,0.23498
1114.07436,0.23764
1112.58457,0.24554
1111.09478,0.25346
1109.60499,0.24693
1108.11520,0.24111
1106.62542,0.21749
1105.13563,0.22285
1103.64584,0.22104
1102.15605,0.21047
1100.66626,0.21624
1099.17647,0.22204
1097.68668,0.19555
1096.19690,0.19433
1094.70711,0.20032
1093.21732,0.18641
1091.72753,0.19453
1090.23774,0.18878
1088.74795,0.18305
1087.25817,0.16067
1085.76838,0.16981
1084.27859,0.18222
1082.78880,0.17728
1081.29901,0.16820
1079.80922,0.16470
1078.31943,0.17581
1076.82965,0.18695
1075.33986,0.17241
1073.85007,0.16252
1072.36028,0.17952
1070.87049,0.16945
1069.38070,0.18280
1067.89092,0.21041
1066.40113,0.23804
1064.91134,0.26512
1063.42155,0.34919
1061.93176,0.40898
1060.44197,0.47920
1058.95219,0.54227
1057.46240,0.60143
1055.97261,0.66062
1054.48282,0.71774
1052.99303,0.83417
1051.50324,0.86425
1050.01345,0.81283
1048.52367,0.80961
1047.03388,0.80363
1045.54409,0.79768
1044.05430,0.77577
1042.56451,0.72077
1041.07472,0.66904
1039.58494,0.63307
1038.09515,0.57074
1036.60536,0.54409
1035.11557,0.51746
1033.62578,0.47742
1032.13599,0.39202
1030.64620,0.35783
1029.15642,0.30490
1027.66663,0.27978
1026.17684,0.25469
1024.68705,0.23958
1023.19726,0.19972
1021.70747,0.16242
1020.21769,0.14669
1018.72790,0.12404
1017.23811,0.12410
1015.74832,0.12419
1014.25853,0.11272
1012.76874,0.09179
1011.27896,0.10607
1009.78917,0.09885
1008.29938,0.09559
1006.80959,0.07729
1005.31980,0.05902
1003.83001,0.04078
1002.34022,0.03275
1000.85044,0.03586
999.36065,0.04988
997.87086,0.04701
996.38107,0.04417
994.89128,0.04831
993.40149,0.06381
991.91171,0.07054
990.42192,0.08679
988.93213,0.09820
987.44234,0.10951
985.95255,0.12085
984.46276,0.11219
982.97297,0.09775
981.48319,0.09400
979.99340,0.09027
978.50361,0.08193
977.01382,0.07362
975.52403,0.07644
974.03424,0.04965
972.54446,0.04095
971.05467,0.01976
969.56488,0.02361
968.07509,0.01370
966.58530,0.00382
965.09551,0.02583
963.60573,0.03142
962.11594,0.04028
960.62615,0.03873
959.13636,0.04023
957.64657,0.04175
956.15678,0.05000
954.66699,0.04323
953.17721,0.05895
951.68742,0.05871
950.19763,0.05792
948.70784,0.05715
947.21805,0.07343
945.72826,0.08649
944.23848,0.10443
942.74869,0.11708
941.25890,0.15730
939.76911,0.16351
938.27932,0.16975
936.78953,0.17253
935.29974,0.18113
933.80996,0.17747
932.32017,0.21368
930.83038,0.21239
929.34059,0.21112
927.85080,0.22957
926.36101,0.25822
924.87123,0.29362
923.38144,0.33923
921.89165,0.37179
920.40186,0.40436
918.91207,0.48664
917.42228,0.59348
915.93250,0.74111
914.44271,0.90613
912.95292,1.02266
911.46313,1.13922
909.97334,1.36638
908.48355,1.60838
906.99376,1.80595
905.50398,1.93476
904.01419,1.96737
902.52440,2.00000
901.03461,1.98623
899.54482,1.92987
898.05503,1.86079
896.56525,1.65465
895.07546,1.55007
893.58567,1.44553
892.09588,1.21421
890.60609,0.96254
889.11630,0.70673
887.62651,0.50559
886.13673,0.43659
884.64694,0.36762
883.15715,0.27100
881.66736,0.17440
880.17757,0.13943
878.68778,0.12046
877.19800,0.10152
875.70821,0.08885
874.21842,0.04865
872.72863,0.04252
871.23884,0.03363
869.74905,0.02685
868.25927,0.02009
866.76948,0.01591
865.27969,0.01267
863.78990,0.04072
862.30011,0.03476
860.81032,0.04190
859.32053,0.04907
857.83075,0.05360
856.34096,0.08687
854.85117,0.06041
853.36138,0.06965
851.87159,0.07717
850.38180,0.08471
848.89202,0.12111
847.40223,0.12558
845.91244,0.13702
844.42265,0.14871
842.93286,0.16043
841.44307,0.16036
839.95329,0.18208
838.46350,0.21101
836.97371,0.20337
835.48392,0.19588
833.99413,0.18840
832.50434,0.19242
831.01455,0.17399
829.52477,0.17805
828.03498,0.16871
826.54519,0.15406
825.05540,0.13944
823.56561,0.12345
822.07582,0.11906
820.58604,0.11424
819.09625,0.10967
817.60646,0.10512
816.11667,0.08115
814.62688,0.08522
813.13709,0.09303
811.64730,0.07908
810.15752,0.08288
808.66773,0.08670
807.17794,0.09923
805.68815,0.11688
804.19836,0.10700
802.70857,0.10351
801.21879,0.10004
799.72900,0.09879
798.23921,0.06654
796.74942,0.08526
795.25963,0.08270
793.76984,0.08017
792.28006,0.08669
790.79027,0.10736
789.30048,0.10698
787.81069,0.12353
786.32090,0.14230
784.83111,0.16110
783.34132,0.19417
781.85154,0.22494
780.36175,0.24902
778.87196,0.26711
777.38217,0.28522
775.89238,0.30196
774.40259,0.29488
772.91281,0.29407
771.42302,0.28657
769.93323,0.27909
768.44344,0.25844
766.95365,0.22392
765.46386,0.17553
763.97407,0.14314
762.48429,0.13810
760.99450,0.13309
759.50471,0.11953
758.01492,0.09302
756.52513,0.07951
755.03534,0.07402
753.54556,0.06854
752.05577,0.06784
750.56598,0.04424
749.07619,0.03386
747.58640,0.03717
746.09661,0.04050
744.60683,0.02997
743.11704,0.02617
741.62725,0.01174
740.13746,0.00892
738.64767,0.00612
737.15788,0.01608
735.66809,0.01472
734.17831,0.00667
732.68852,0.01427
731.19873,0.02190
729.70894,0.01276
728.21915,0.00874
726.72936,0.00382
725.23958,0.01473
723.74979,0.01489
722.26000,0.01508
720.77021,0.01865
719.28042,0.01182
717.79063,0.01103
716.30084,0.01514
714.81106,0.01927
713.32127,0.00420
711.83148,0.00166
710.34169,0.01582
708.85190,0.02271
707.36211,0.02962
705.87233,0.03737
704.38254,0.02221
702.89275,0.03302
701.40296,0.03991
699.91317,0.04683
698.42338,0.05956
696.93360,0.05240
695.44381,0.08880
693.95402,0.09211
692.46423,0.09544
690.97444,0.11131
689.48465,0.12488
687.99486,0.15700
686.50508,0.16842
685.01529,0.17986
683.52550,0.21160
682.03571,0.24682
680.54592,0.27536
679.05613,0.26838
677.56635,0.26142
676.07656,0.26154
674.58677,0.25474
673.09698,0.23107
671.60719,0.21853
670.11740,0.20601
668.62761,0.17245
667.13783,0.15743
665.64804,0.14522
664.15825,0.13304
662.66846,0.10675
661.17867,0.08419
659.68888,0.06559
658.19910,0.05513
656.70931,0.04468
655.21952,0.04214
653.72973,0.02062
652.23994,0.03642
650.75015,0.03337
649.26037,0.03034
647.77058,0.03440
646.28079,0.03385
644.79100,0.02383
643.30121,0.02125
641.81142,0.01869
640.32163,0.01407
638.83185,0.01828
637.34206,0.01370
635.85227,0.00927
634.36248,0.00487
632.87269,0.00827
631.38290,0.00382
629.89312,0.00991
628.40333,0.01464
626.91354,0.01939
625.42375,0.01212
623.93396,0.01252
622.44417,0.01120
620.95438,0.00991
619.46460,0.04396
617.97481,0.05256
616.48502,0.07740
614.99523,0.08280
613.50544,0.08824
612.01565,0.10319
610.52587,0.15382
609.03608,0.19707
607.54629,0.20677
606.05650,0.21649
604.56671,0.23087
603.07692,0.28788
601.58714,0.33044
600.09735,0.37302
598.60756,0.40278
597.11777,0.42585
595.62798,0.40934
594.13819,0.40674
592.64840,0.40418
591.15862,0.36898
589.66883,0.33728
588.17904,0.29496
586.68925,0.25566
585.19946,0.21639
583.70967,0.14913
582.21989,0.13122
580.73010,0.11726
579.24031,0.10333
577.75052,0.05330
576.26073,0.05656
574.77094,0.04641
573.28115,0.03431
571.79137,0.02224
570.30158,0.02930
568.81179,0.04333
567.32200,0.05194
565.83221,0.06058
564.34242,0.09228
562.85264,0.09854
561.36285,0.11060
559.87306,0.11621
558.38327,0.12184
556.89348,0.14950
555.40369,0.13341
553.91391,0.13714
552.42412,0.14090
550.93433,0.15893
549.44454,0.16170
547.95475,0.17421
546.46496,0.17448
544.97517,0.17477
543.48539,0.20033
541.99560,0.21873
540.50581,0.24202
539.01602,0.26534
537.52623,0.28798
536.03644,0.31667
534.54666,0.37873
533.05687,0.39068
531.56708,0.40265
530.07729,0.44302
528.58750,0.53088
527.09771,0.56909
525.60792,0.60733
524.11814,0.66933
522.62835,0.70379
521.13856,0.77163
519.64877,0.79584
518.15898,0.82007
516.66919,0.86089
515.17941,0.84800
513.68962,0.83814
512.19983,0.82832
510.71004,0.78308
509.22025,0.76728
507.73046,0.71190
506.24068,0.66361
504.75089,0.61534
503.26110,0.47782
501.77131,0.36210
500.28152,0.31830
498.79173,0.27453
497.30194,0.19964
495.81216,0.16970
494.32237,0.14511
492.83258,0.12054
491.34279,0.10896
489.85300,0.07842
488.36321,0.07222
486.87343,0.07137
485.38364,0.07055
483.89385,0.07345
482.40406,0.09352
480.91427,0.08385
479.42448,0.07420
477.93469,0.11866
476.44491,0.11960
474.95512,0.12068
473.46533,0.12179
471.97554,0.14804
470.48575,0.13657
468.99596,0.16126
467.50618,0.15366
466.01639,0.14609
464.52660,0.12707
463.03681,0.08006
461.54702,0.07789
460.05723,0.07574
458.56745,0.04385
457.07766,0.01500
455.58787,0.02531
454.09808,0.03565
452.60829,0.02378
451.11850,0.01934
449.62871,0.01157
448.13893,0.00382
446.64914,0.01669
445.15935,0.01406
443.66956,0.02420
442.17977,0.02231
440.68998,0.02046
439.20020,0.03738
437.71041,0.03256
436.22062,0.02950
434.73083,0.02646
433.24104,0.03052
431.75125,0.02510
430.26146,0.02538
428.77168,0.02568
427.28189,0.01547
425.79210,0.03192
424.30231,0.03368
422.81252,0.03547
421.32273,0.02212
419.83295,0.01735
418.34316,0.02223
416.85337,0.02712
415.36358,0.03795
413.87379,0.02356
412.38400,0.02181
410.89422,0.02009
409.40443,0.01480
407.91464,0.04266
406.42485,0.02375
404.93506,0.02120
403.44527,0.01867
401.95548,0.02115
400.46570,0.03523
398.97591,0.03602
397.48612,0.03683
395.99633,0.04149
394.50654,0.04756
393.01675,0.03385
391.52697,0.02017
390.03718,0.01907
388.54739,0.01175
387.05760,0.02252
385.56781,0.03330
384.07802,0.00382
382.58824,0.01970
381.09845,0.02020
379.60866,0.02072
378.11887,0.04154
376.62908,0.02231
375.13929,0.02291
373.64950,0.02353
372.15972,0.02823
370.66993,0.05101
369.18014,0.03422
367.69035,0.01746
366.20056,0.02310
364.71077,0.04313
363.22099,0.03411
361.73120,0.02512
360.24141,0.02600
358.75162,0.04265
357.26183,0.04172
355.77204,0.04081
354.28225,0.03090
352.79247,0.04857
351.30268,0.04601
349.81289,0.04346
348.32310,0.05866
346.83331,0.02872
345.34352,0.01942
343.85374,0.01014
342.36395,0.02729
340.87416,0.02987
339.38437,0.02657
337.89458,0.02329
336.40479,0.01876
334.91501,0.01403
333.42522,0.01094
331.93543,0.00788
330.44564,0.00507
328.95585,0.01780
327.46606,0.01759
325.97627,0.01740
324.48649,0.02835
322.99670,0.03702
321.50691,0.03169
320.01712,0.02639
318.52733,0.06222
317.03754,0.05106
315.54776,0.06285
314.05797,0.07466
312.56818,0.07238
311.07839,0.07776
309.58860,0.07842
308.09881,0.07910
306.60902,0.05746
305.11924,0.04394
303.62945,0.02895
302.13966,0.01398
300.64987,0.00382
299.16008,0.00382
