1778.52000,0.01448
1777.03021,0.00164
1775.54042,0.00827
1774.05063,0.01322
1772.56085,0.01922
1771.07106,0.01467
1769.58127,0.01594
1768.09148,0.00768
1766.60169,0.01788
1765.11190,0.01752
1763.62212,0.01753
1762.13233,0.01244
1760.64254,0.01522
1759.15275,0.02384
1757.66296,0.02360
1756.17317,0.02168
1754.68339,0.02764
1753.19360,0.02816
1751.70381,0.01096
1750.21402,0.02907
1748.72423,0.03662
1747.23444,0.03566
1745.74465,0.03303
1744.25487,0.02837
1742.76508,0.02715
1741.27529,0.02595
1739.78550,0.01966
1738.29571,0.02636
1736.80592,0.02046
1735.31614,0.01561
1733.82635,0.02034
1732.33656,0.01212
1730.84677,0.01553
1729.35698,0.01829
1727.86719,0.02482
1726.37740,0.02592
1724.88762,0.01920
1723.39783,0.01488
1721.90804,0.00855
1720.41825,0.01828
1718.92846,0.01234
1717.43867,0.00164
1715.94889,0.00839
1714.45910,0.01244
1712.96931,0.00560
1711.47952,0.00356
1709.98973,0.00461
1708.49994,0.00364
1707.01016,0.00832
1705.52037,0.01303
1704.03058,0.01862
1702.54079,0.01605
1701.05100,0.01076
1699.56121,0.02189
1698.07142,0.00164
1696.58164,0.00711
1695.09185,0.01602
1693.60206,0.02598
1692.11227,0.01514
1690.62248,0.01764
1689.13269,0.02699
1687.64291,0.01213
1686.15312,0.03450
1684.66333,0.03505
1683.17354,0.04245
1681.68375,0.04339
1680.19396,0.04163
1678.70417,0.03716
1677.21439,0.02725
1675.72460,0.04229
1674.23481,0.04369
1672.74502,0.04103
1671.25523,0.05375
1669.76544,0.06751
1668.27566,0.06663
1666.78587,0.06714
1665.29608,0.08303
1663.80629,0.07812
1662.31650,0.08724
1660.82671,0.08750
1659.33693,0.08984
1657.84714,0.08708
1656.35735,0.09220
1654.86756,0.08165
1653.37777,0.09057
1651.88798,0.10122
1650.39819,0.09756
1648.90841,0.10212
1647.41862,0.06200
1645.92883,0.06490
1644.43904,0.06783
1642.94925,0.09126
1641.45946,0.08878
1639.96968,0.09144
1638.47989,0.08354
1636.99010,0.08796
1635.50031,0.07261
1634.01052,0.07946
1632.52073,0.09214
1631.03094,0.07072
1629.54116,0.07219
1628.05137,0.09928
1626.56158,0.09909
1625.07179,0.09381
1623.58200,0.09675
1622.09221,0.07821
1620.60243,0.09074
1619.11264,0.10979
1617.62285,0.09337
1616.13306,0.07834
1614.64327,0.08689
1613.15348,0.07532
1611.66370,0.09995
1610.17391,0.10686
1608.68412,0.07183
1607.19433,0.07879
1605.70454,0.08475
1604.21475,0.08613
1602.72496,0.08753
1601.23518,0.07548
1599.74539,0.08086
1598.25560,0.07773
1596.76581,0.08111
1595.27602,0.10056
1593.78623,0.07669
1592.29645,0.07946
1590.80666,0.07919
1589.31687,0.07552
1587.82708,0.06779
1586.33729,0.06418
1584.84750,0.08039
1583.35771,0.06010
1581.86793,0.07568
1580.37814,0.07353
1578.88835,0.07448
1577.39856,0.06453
1575.90877,0.05222
1574.41898,0.06723
1572.92920,0.03211
1571.43941,0.04786
1569.94962,0.04588
1568.45983,0.04393
1566.97004,0.04918
1565.48025,0.04728
1563.99047,0.03414
1562.50068,0.03502
1561.01089,0.01409
1559.52110,0.03174
1558.03131,0.03133
1556.54152,0.03538
1555.05173,0.04423
1553.56195,0.01455
1552.07216,0.02550
1550.58237,0.03340
1549.09258,0.01199
1547.60279,0.01892
1546.11300,0.01768
1544.62322,0.00282
1543.13343,0.01767
1541.64364,0.00696
1540.15385,0.00429
1538.66406,0.00164
1537.17427,0.01394
1535.68448,0.00614
1534.19470,0.01269
1532.70491,0.01585
1531.21512,0.00164
1529.72533,0.03023
1528.23554,0.00492
1526.74575,0.04414
1525.25597,0.01922
1523.76618,0.03426
1522.27639,0.02099
1520.78660,0.02618
1519.29681,0.04300
1517.80702,0.03493
1516.31724,0.04361
1514.82745,0.03900
1513.33766,0.03919
1511.84787,0.03941
1510.35808,0.04614
1508.86829,0.03856
1507.37850,0.04534
1505.88872,0.04088
1504.39893,0.02962
1502.90914,0.04023
1501.41935,0.05598
1499.92956,0.08336
1498.43977,0.05957
1496.94999,0.06243
1495.46020,0.07043
1493.97041,0.07231
1492.48062,0.09708
1490.99083,0.09389
1489.50104,0.09210
1488.01125,0.10739
1486.52147,0.12270
1485.03168,0.14009
1483.54189,0.16877
1482.05210,0.16846
1480.56231,0.17261
1479.07252,0.20341
1477.58274,0.21717
1476.09295,0.20672
1474.60316,0.21677
1473.11337,0.22549
1471.62358,0.24685
1470.13379,0.25050
1468.64401,0.25007
1467.15422,0.28346
1465.66443,0.29861
1464.17464,0.31378
1462.68485,0.34485
1461.19506,0.39062
1459.70527,0.41662
1458.21549,0.49656
1456.72570,0.55435
1455.23591,0.59032
1453.74612,0.65020
1452.25633,0.68110
1450.76654,0.69702
1449.27676,0.67883
1447.78697,0.68967
1446.29718,0.66709
1444.80739,0.64966
1443.31760,0.63226
1441.82781,0.61624
1440.33802,0.59035
1438.84824,0.52183
1437.35845,0.52090
1435.86866,0.47393
1434.37887,0.51434
1432.88908,0.52168
1431.39929,0.56180
1429.90951,0.66303
1428.41972,0.74074
1426.92993,0.80585
1425.44014,0.85358
1423.95035,0.87113
1422.46056,0.88871
1420.97078,0.94573
1419.48099,0.93076
1417.99120,0.93528
1416.50141,0.97428
1415.01162,0.95803
1413.52183,0.90563
1412.03204,0.81674
1410.54226,0.77702
1409.05247,0.69705
1407.56268,0.67648
1406.07289,0.64741
1404.58310,0.61751
1403.09331,0.58764
1401.60353,0.51121
1400.11374,0.43856
1398.62395,0.40176
1397.13416,0.36090
1395.64437,0.25760
1394.15458,0.23010
1392.66479,0.19715
1391.17501,0.16390
1389.68522,0.12623
1388.19543,0.11213
1386.70564,0.10863
1385.21585,0.10516
1383.72606,0.07851
1382.23628,0.04676
1380.74649,0.05394
1379.25670,0.03761
1377.76691,0.03085
1376.27712,0.01558
1374.78733,0.00068
1373.29755,0.00729
1371.80776,0.00164
1370.31797,0.01823
1368.82818,0.01165
1367.33839,0.00509
1365.84860,0.01118
1364.35881,0.03504
1362.86903,0.04527
1361.37924,0.05690
1359.88945,0.08322
1358.39966,0.11025
1356.90987,0.13526
1355.42008,0.18623
1353.93030,0.22903
1352.44051,0.26196
1350.95072,0.29492
1349.46093,0.37908
1347.97114,0.42096
1346.48135,0.51064
1344.99156,0.59795
1343.50178,0.69485
1342.01199,0.69758
1340.52220,0.78429
1339.03241,0.80516
1337.54262,0.87724
1336.05283,0.90942
1334.56305,0.94163
1333.07326,0.96362
1331.58347,0.96618
1330.09368,1.01348
1328.60389,0.98470
1327.11410,0.96550
1325.62432,0.93302
1324.13453,0.89988
1322.64474,0.84731
1321.15495,0.85619
1319.66516,0.80896
1318.17537,0.76176
1316.68558,0.72055
1315.19580,0.62887
1313.70601,0.59249
1312.21622,0.55238
1310.72643,0.51264
1309.23664,0.45654
1307.74685,0.43459
1306.25707,0.42563
1304.76728,0.40988
1303.27749,0.39415
1301.78770,0.33852
1300.29791,0.28666
1298.80812,0.22528
1297.31834,0.18269
1295.82855,0.16401
1294.33876,0.13683
1292.84897,0.12468
1291.35918,0.12109
1289.86939,0.11241
1288.37960,0.10375
1286.88982,0.08864
1285.40003,0.07013
1283.91024,0.06530
1282.42045,0.06050
1280.93066,0.04173
1279.44087,0.05984
1277.95109,0.05750
1276.46130,0.06644
1274.97151,0.05715
1273.48172,0.04789
1271.99193,0.03575
1270.50214,0.03831
1269.01235,0.02554
1267.52257,0.01075
1266.03278,0.01407
1264.54299,0.03072
1263.05320,0.04432
1261.56341,0.03253
1260.07362,0.02076
1258.58384,0.03546
1257.09405,0.01743
1255.60426,0.01717
1254.11447,0.02819
1252.62468,0.02286
1251.13489,0.01994
1249.64511,0.02626
1248.15532,0.02886
1246.66553,0.03420
1245.17574,0.03957
1243.68595,0.01631
1242.19616,0.01217
1240.70637,0.01284
1239.21659,0.00910
1237.72680,0.04223
1236.23701,0.03410
1234.74722,0.04852
1233.25743,0.04095
1231.76764,0.03341
1230.27786,0.04244
1228.78807,0.05150
1227.29828,0.03260
1225.80849,0.02874
1224.31870,0.02558
1222.82891,0.00164
1221.33912,0.02519
1219.84934,0.03273
1218.35955,0.04029
1216.86976,0.04515
1215.37997,0.05822
1213.89018,0.08497
1212.40039,0.09741
1210.91061,0.10715
1209.42082,0.12134
1207.93103,0.10588
1206.44124,0.09043
1204.95145,0.07092
1203.46166,0.07327
1201.97188,0.07258
1200.48209,0.05962
1198.99230,0.04976
1197.50251,0.05699
1196.01272,0.02398
1194.52293,0.02630
1193.03314,0.02866
1191.54336,0.01688
1190.05357,0.03140
1188.56378,0.02751
1187.07399,0.02604
1185.58420,0.02562
1184.09441,0.03751
1182.60463,0.01956
1181.11484,0.00164
1179.62505,0.02736
1178.13526,0.02205
1176.64547,0.02462
1175.15568,0.00810
1173.66589,0.01207
1172.17611,0.00175
1170.68632,0.00168
1169.19653,0.00164
1167.70674,0.02073
1166.21695,0.03200
1164.72716,0.02998
1163.23738,0.04982
1161.74759,0.06321
1160.25780,0.07492
1158.76801,0.07658
1157.27822,0.07827
1155.78843,0.08084
1154.29865,0.06705
1152.80886,0.08332
1151.31907,0.09518
1149.82928,0.09989
1148.33949,0.11248
1146.84970,0.11042
1145.35991,0.10838
1143.87013,0.13333
1142.38034,0.16274
1140.89055,0.16282
1139.40076,0.17146
1137.91097,0.16819
1136.42118,0.20452
1134.93140,0.21187
1133.44161,0.21925
1131.95182,0.24507
1130.46203,0.24533
1128.97224,0.24323
1127.48245,0.22477
1125.99266,0.23295
1124.50288,0.22034
1123.01309,0.22670
1121.52330,0.23308
1120.03351,0.24443
1118.54372,0.27117
1117.05393,0.25083
1115.56415,0.26397
1114.07436,0.25938
1112.58457,0.25397
1111.09478,0.24858
1109.60499,0.24646
1108.11520,0.24402
1106.62542,0.25047
1105.13563,0.27709
1103.64584,0.24708
1102.15605,0.25737
1100.66626,0.25574
1099.17647,0.25413
1097.68668,0.21126
1096.19690,0.19093
1094.70711,0.21431
1093.21732,0.22952
1091.72753,0.20244
1090.23774,0.19006
1088.74795,0.17771
1087.25817,0.16538
1085.76838,0.19437
1084.27859,0.17936
1082.78880,0.18280
1081.29901,0.17978
1079.80922,0.18567
1078.31943,0.18151
1076.82965,0.17737
1075.33986,0.17036
1073.85007,0.18760
1072.36028,0.18849
1070.87049,0.20817
1069.38070,0.22071
1067.89092,0.24590
1066.40113,0.27111
1064.91134,0.28031
1063.42155,0.35028
1061.93176,0.41208
1060.44197,0.54250
1058.95219,0.61937
1057.46240,0.66674
1055.97261,0.71414
1054.48282,0.81020
1052.99303,0.86157
1051.50324,0.86690
1050.01345,0.86201
1048.52367,0.83293
1047.03388,0.83714
1045.54409,0.84137
1044.05430,0.78472
1042.56451,0.76016
1041.07472,0.74519
1039.58494,0.69168
1038.09515,0.60851
1036.60536,0.56051
1035.11557,0.51254
1033.62578,0.45299
1032.13599,0.42144
1030.64620,0.34420
1029.15642,0.29939
1027.66663,0.28243
1026.17684,0.26549
1024.68705,0.23168
1023.19726,0.22212
1021.70747,0.18836
1020.21769,0.14644
1018.72790,0.13286
1017.23811,0.13740
1015.74832,0.14196
1014.25853,0.11276
1012.76874,0.11532
1011.27896,0.11996
1009.78917,0.09697
1008.29938,0.11224
1006.80959,0.07941
1005.31980,0.04661
1003.83001,0.04044
1002.34022,0.02578
1000.85044,0.02888
999.36065,0.02040
997.87086,0.03482
996.38107,0.04926
994.89128,0.04222
993.40149,0.06694
991.91171,0.06337
990.42192,0.07825
988.93213,0.09452
987.44234,0.10655
985.95255,0.11860
984.46276,0.12573
982.97297,0.09876
981.48319,0.08853
979.99340,0.06400
978.50361,0.06696
977.01382,0.06995
975.52403,0.03730
974.03424,0.04392
972.54446,0.02634
971.05467,0.01936
969.56488,0.00387
968.07509,0.00274
966.58530,0.00164
965.09551,0.01990
963.60573,0.02624
962.11594,0.02987
960.62615,0.02397
959.13636,0.03295
957.64657,0.04195
956.15678,0.03408
954.66699,0.06889
953.17721,0.02592
951.68742,0.05669
950.19763,0.05915
948.70784,0.06165
947.21805,0.07850
945.72826,0.08889
944.23848,0.09589
942.74869,0.12305
941.25890,0.13420
939.76911,0.15015
938.27932,0.16613
936.78953,0.16882
935.29974,0.19235
933.80996,0.20396
932.32017,0.21082
930.83038,0.21174
929.34059,0.21268
927.85080,0.23804
926.36101,0.27981
924.87123,0.33047
923.38144,0.38764
921.89165,0.42010
920.40186,0.45258
918.91207,0.54191
917.42228,0.64935
915.93250,0.80015
914.44271,1.01410
912.95292,1.11667
911.46313,1.21925
909.97334,1.43909
908.48355,1.62891
906.99376,1.74915
905.50398,1.91514
904.01419,1.94824
902.52440,1.98136
901.03461,2.00000
899.54482,1.98898
898.05503,1.85855
896.56525,1.69060
895.07546,1.58547
893.58567,1.48036
892.09588,1.21387
890.60609,0.93819
889.11630,0.74716
887.62651,0.53295
886.13673,0.47387
884.64694,0.41481
883.15715,0.28087
881.66736,0.21794
880.17757,0.16492
878.68778,0.15681
877.19800,0.14872
875.70821,0.08725
874.21842,0.05106
872.72863,0.04083
871.23884,0.04666
869.74905,0.04893
868.25927,0.05123
866.76948,0.03427
865.27969,0.00164
863.78990,0.01399
862.30011,0.02158
860.81032,0.03346
859.32053,0.04537
857.83075,0.08478
856.34096,0.08087
854.85117,0.08483
853.36138,0.07483
851.87159,0.08959
850.38180,0.10438
848.89202,0.10913
847.40223,0.14120
845.91244,0.16715
844.42265,0.15832
842.93286,0.14952
841.44307,0.17042
839.95329,0.18180
838.46350,0.21163
836.97371,0.20259
835.48392,0.20329
833.99413,0.20402
832.50434,0.22542
831.01455,0.20111
829.52477,0.18127
828.03498,0.16521
826.54519,0.15070
825.05540,0.13623
823.56561,0.13150
822.07582,0.12168
820.58604,0.11393
819.09625,0.09972
817.60646,0.08553
816.11667,0.08366
814.62688,0.09409
813.13709,0.09773
811.64730,0.09593
810.15752,0.10627
808.66773,0.11663
807.17794,0.12822
805.68815,0.10775
804.19836,0.09379
802.70857,0.10186
801.21879,0.10996
799.72900,0.08038
798.23921,0.09280
796.74942,0.09773
795.25963,0.09569
793.76984,0.09368
792.28006,0.11370
790.79027,0.10133
789.30048,0.09342
787.81069,0.13842
786.32090,0.15957
784.83111,0.18074
783.34132,0.21285
781.85154,0.22793
780.36175,0.26317
778.87196,0.28529
777.38217,0.30744
775.89238,0.31203
774.40259,0.32177
772.91281,0.32540
771.42302,0.33263
769.93323,0.33989
768.44344,0.30536
766.95365,0.27223
765.46386,0.23162
763.97407,0.17874
762.48429,0.15012
760.99450,0.12152
759.50471,0.12639
758.01492,0.09375
756.52513,0.09287
755.03534,0.08365
753.54556,0.07446
752.05577,0.08731
750.56598,0.05684
749.07619,0.04243
747.58640,0.03965
746.09661,0.03690
744.60683,0.04099
743.11704,0.03965
741.62725,0.04311
740.13746,0.02322
738.64767,0.00336
737.15788,0.03386
735.66809,0.01592
734.17831,0.01029
732.68852,0.01254
731.19873,0.01481
729.70894,0.00277
728.21915,0.01090
726.72936,0.00164
725.23958,0.02146
723.74979,0.01589
722.26000,0.01034
720.77021,0.01830
719.28042,0.00000
717.79063,0.00698
716.30084,0.00836
714.81106,0.00976
713.32127,0.02705
711.83148,0.03720
710.34169,0.02008
708.85190,0.03506
707.36211,0.05006
705.87233,0.03540
704.38254,0.04636
702.89275,0.04130
701.40296,0.03474
699.91317,0.02819
698.42338,0.03652
696.93360,0.08753
695.44381,0.11297
693.95402,0.12154
692.46423,0.13014
690.97444,0.13382
689.48465,0.13444
687.99486,0.16990
686.50508,0.17365
685.01529,0.17743
683.52550,0.23582
682.03571,0.26592
680.54592,0.26568
679.05613,0.26955
677.56635,0.27345
676.07656,0.28522
674.58677,0.28336
673.09698,0.25287
671.60719,0.24219
670.11740,0.23154
668.62761,0.20624
667.13783,0.16254
665.64804,0.16373
664.15825,0.16495
662.66846,0.12576
661.17867,0.10707
659.68888,0.08396
658.19910,0.06276
656.70931,0.04158
655.21952,0.04142
653.72973,0.04298
652.23994,0.06232
650.75015,0.05864
649.26037,0.05499
647.77058,0.04164
646.28079,0.03685
644.79100,0.02935
643.30121,0.03040
641.81142,0.03149
640.32163,0.03089
638.83185,0.06614
637.34206,0.04273
635.85227,0.03213
634.36248,0.02157
632.87269,0.00164
631.38290,0.01881
629.89312,0.02644
628.40333,0.03837
626.91354,0.05032
625.42375,0.04882
623.93396,0.02346
622.44417,0.02081
620.95438,0.01819
619.46460,0.02839
617.97481,0.05192
616.48502,0.07787
614.99523,0.08968
613.50544,0.10151
612.01565,0.11388
610.52587,0.15324
609.03608,0.18784
607.54629,0.20984
606.05650,0.23187
604.56671,0.24846
603.07692,0.34049
601.58714,0.35440
600.09735,0.36833
598.60756,0.43075
597.11777,0.42255
595.62798,0.42769
594.13819,0.42637
592.64840,0.42507
591.15862,0.42141
589.66883,0.35567
588.17904,0.29950
586.68925,0.26708
585.19946,0.23468
583.70967,0.17893
582.21989,0.13413
580.73010,0.12160
579.24031,0.10909
577.75052,0.07767
576.26073,0.06198
574.77094,0.08486
573.28115,0.06597
571.79137,0.04711
570.30158,0.04072
568.81179,0.04528
567.32200,0.04833
565.83221,0.05141
564.34242,0.07856
562.85264,0.10336
561.36285,0.14524
559.87306,0.13340
558.38327,0.12158
556.89348,0.12020
555.40369,0.14887
553.91391,0.16272
552.42412,0.17659
550.93433,0.19476
549.44454,0.18907
547.95475,0.17520
546.46496,0.17894
544.97517,0.18271
543.48539,0.20714
541.99560,0.22409
540.50581,0.26922
539.01602,0.31437
537.52623,0.32628
536.03644,0.37984
534.54666,0.39043
533.05687,0.42374
531.56708,0.45708
530.07729,0.49743
528.58750,0.54703
527.09771,0.58282
525.60792,0.61864
524.11814,0.70414
522.62835,0.72278
521.13856,0.78001
519.64877,0.80347
518.15898,0.82696
516.66919,0.84843
515.17941,0.86822
513.68962,0.86534
512.19983,0.86248
510.71004,0.84890
509.22025,0.79166
507.73046,0.73172
506.24068,0.69228
504.75089,0.65286
503.26110,0.48106
501.77131,0.36901
500.28152,0.32762
498.79173,0.28625
497.30194,0.21010
495.81216,0.17664
494.32237,0.14507
492.83258,0.11353
491.34279,0.09515
489.85300,0.09284
488.36321,0.08100
486.87343,0.06696
485.38364,0.05295
483.89385,0.07769
482.40406,0.05298
480.91427,0.07470
479.42448,0.09645
477.93469,0.06464
476.44491,0.11681
474.95512,0.11952
473.46533,0.12226
471.97554,0.11342
470.48575,0.13156
468.99596,0.13164
467.50618,0.13619
466.01639,0.14075
464.52660,0.10474
463.03681,0.09024
461.54702,0.07765
460.05723,0.06509
458.56745,0.01825
457.07766,0.01170
455.58787,0.01781
454.09808,0.02394
452.60829,0.02395
451.11850,0.03252
449.62871,0.01859
448.13893,0.00469
446.64914,0.01333
445.15935,0.00255
443.66956,0.03104
442.17977,0.02832
440.68998,0.02563
439.20020,0.03543
437.71041,0.01590
436.22062,0.02011
434.73083,0.02434
433.24104,0.01103
431.75125,0.01344
430.26146,0.01860
428.77168,0.02379
427.28189,0.04777
425.79210,0.04721
424.30231,0.05520
422.81252,0.06321
421.32273,0.00983
419.83295,0.03906
418.34316,0.04203
416.85337,0.04503
415.36358,0.00164
413.87379,0.02075
412.38400,0.02880
410.89422,0.03687
409.40443,0.03046
407.91464,0.02544
406.42485,0.01601
404.93506,0.01991
403.44527,0.02384
401.95548,0.04281
400.46570,0.02699
398.97591,0.04960
397.48612,0.07222
395.99633,0.04283
394.50654,0.03838
393.01675,0.03992
391.52697,0.04149
390.03718,0.01254
388.54739,0.02951
387.05760,0.03371
385.56781,0.03793
384.07802,0.02973
382.58824,0.03792
381.09845,0.04018
379.60866,0.04245
378.11887,0.05448
376.62908,0.02319
375.13929,0.01240
373.64950,0.00164
372.15972,0.03103
370.66993,0.02359
369.18014,0.02674
367.69035,0.02990
366.20056,0.02883
364.71077,0.05167
363.22099,0.04928
361.73120,0.04692
360.24141,0.05754
358.75162,0.10846
357.26183,0.08792
355.77204,0.06740
354.28225,0.05970
352.79247,0.08069
351.30268,0.07491
349.81289,0.06916
348.32310,0.06259
346.83331,0.03249
345.34352,0.05019
343.85374,0.06792
342.36395,0.06963
340.87416,0.06318
339.38437,0.05982
337.89458,0.05649
336.40479,0.03305
334.91501,0.03215
333.42522,0.02634
331.93543,0.02054
330.44564,0.00164
328.95585,0.03406
327.46606,0.03989
325.97627,0.04575
324.48649,0.06323
322.99670,0.04900
321.50691,0.06005
320.01712,0.07112
318.52733,0.09825
317.03754,0.08105
315.54776,0.09083
314.05797,0.10064
312.56818,0.12685
311.07839,0.12715
309.58860,0.10700
308.09881,0.08688
306.60902,0.05211
305.11924,0.04091
303.62945,0.03485
302.13966,0.01874
300.64987,0.00164
299.16008,0.00164
