1778.52000,0.01425
1777.03021,0.01110
1775.54042,0.01287
1774.05063,0.00976
1772.56085,0.01648
1771.07106,0.01641
1769.58127,0.01174
1768.09148,0.01173
1766.60169,0.01010
1765.11190,0.00959
1763.62212,0.01945
1762.13233,0.02062
1760.64254,0.01854
1759.15275,0.00642
1757.66296,0.02019
1756.17317,0.00729
1754.68339,0.00995
1753.19360,0.00745
1751.70381,0.00661
1750.21402,0.01397
1748.72423,0.01236
1747.23444,0.00642
1745.74465,0.00968
1744.25487,0.01677
1742.76508,0.01871
1741.27529,0.01333
1739.78550,0.01450
1738.29571,0.01843
1736.80592,0.01584
1735.31614,0.01763
1733.82635,0.01155
1732.33656,0.01312
1730.84677,0.01853
1729.35698,0.00762
1727.86719,0.00000
1726.37740,0.01766
1724.88762,0.01547
1723.39783,0.02010
1721.90804,0.01333
1720.41825,0.01638
1718.92846,0.02436
1717.43867,0.01902
1715.94889,0.02051
1714.45910,0.01276
1712.96931,0.00722
1711.47952,0.01641
1709.98973,0.01364
1708.49994,0.01198
1707.01016,0.01770
1705.52037,0.02345
1704.03058,0.03439
1702.54079,0.00642
1701.05100,0.01489
1699.56121,0.01711
1698.07142,0.03271
1696.58164,0.02436
1695.09185,0.02394
1693.60206,0.02599
1692.11227,0.02616
1690.62248,0.02826
1689.13269,0.01895
1687.64291,0.02682
1686.15312,0.04697
1684.66333,0.03201
1683.17354,0.03586
1681.68375,0.03865
1680.19396,0.03956
1678.70417,0.04649
1677.21439,0.02756
1675.72460,0.04407
1674.23481,0.05978
1672.74502,0.05264
1671.25523,0.04743
1669.76544,0.06703
1668.27566,0.06459
1666.78587,0.07906
1665.29608,0.07095
1663.80629,0.07267
1662.31650,0.07877
1660.82671,0.07646
1659.33693,0.09295
1657.84714,0.08933
1656.35735,0.09144
1654.86756,0.07942
1653.37777,0.08294
1651.88798,0.07859
1650.39819,0.08216
1648.90841,0.09175
1647.41862,0.09210
1645.92883,0.09207
1644.43904,0.09206
1642.94925,0.09848
1641.45946,0.10465
1639.96968,0.09668
1638.47989,0.09827
1636.99010,0.10614
1635.50031,0.09116
1634.01052,0.10181
1632.52073,0.07844
1631.03094,0.08069
1629.54116,0.08488
1628.05137,0.08963
1626.56158,0.11401
1625.07179,0.11173
1623.58200,0.11901
1622.09221,0.11161
1620.60243,0.11103
1619.11264,0.11402
1617.62285,0.10397
1616.13306,0.12798
1614.64327,0.09319
1613.15348,0.09900
1611.66370,0.08822
1610.17391,0.10879
1608.68412,0.09779
1607.19433,0.11378
1605.70454,0.10473
1604.21475,0.10075
1602.72496,0.09679
1601.23518,0.10933
1599.74539,0.11019
1598.25560,0.08846
1596.76581,0.08229
1595.27602,0.10173
1593.78623,0.10187
1592.29645,0.09849
1590.80666,0.08805
1589.31687,0.09262
1587.82708,0.07815
1586.33729,0.07050
1584.84750,0.08222
1583.35771,0.08280
1581.86793,0.09212
1580.37814,0.08593
1578.88835,0.08032
1577.39856,0.08971
1575.90877,0.08660
1574.41898,0.06880
1572.92920,0.05566
1571.43941,0.05126
1569.94962,0.04620
1568.45983,0.04116
1566.97004,0.03901
1565.48025,0.02654
1563.99047,0.03505
1562.50068,0.03815
1561.01089,0.03746
1559.52110,0.03352
1558.03131,0.03941
1556.54152,0.03008
1555.05173,0.01941
1553.56195,0.03136
1552.07216,0.03517
1550.58237,0.01776
1549.09258,0.02135
1547.60279,0.02441
1546.11300,0.01988
1544.62322,0.01891
1543.13343,0.01960
1541.64364,0.00642
1540.15385,0.00725
1538.66406,0.00811
1537.17427,0.00872
1535.68448,0.01335
1534.19470,0.01202
1532.70491,0.01560
1531.21512,0.00642
1529.72533,0.00934
1528.23554,0.01773
1526.74575,0.02696
1525.25597,0.04548
1523.76618,0.02644
1522.27639,0.03846
1520.78660,0.03445
1519.29681,0.04244
1517.80702,0.04283
1516.31724,0.05332
1514.82745,0.05866
1513.33766,0.06253
1511.84787,0.06642
1510.35808,0.03997
1508.86829,0.03043
1507.37850,0.03862
1505.88872,0.02504
1504.39893,0.04172
1502.90914,0.02574
1501.41935,0.05880
1499.92956,0.07583
1498.43977,0.06945
1496.94999,0.08244
1495.46020,0.07012
1493.97041,0.07852
1492.48062,0.08232
1490.99083,0.10466
1489.50104,0.10878
1488.01125,0.12000
1486.52147,0.13125
1485.03168,0.15069
1483.54189,0.16716
1482.05210,0.18829
1480.56231,0.20290
1479.07252,0.22544
1477.58274,0.23438
1476.09295,0.22646
1474.60316,0.23981
1473.11337,0.24338
1471.62358,0.25487
1470.13379,0.26693
1468.64401,0.27465
1467.15422,0.27777
1465.66443,0.29454
1464.17464,0.31132
1462.68485,0.36135
1461.19506,0.35096
1459.70527,0.41819
1458.21549,0.47538
1456.72570,0.55247
1455.23591,0.62959
1453.74612,0.69638
1452.25633,0.70383
1450.76654,0.70231
1449.27676,0.70382
1447.78697,0.69663
1446.29718,0.68130
1444.80739,0.65333
1443.31760,0.62539
1441.82781,0.59080
1440.33802,0.54425
1438.84824,0.54184
1437.35845,0.49969
1435.86866,0.50822
1434.37887,0.49717
1432.88908,0.53244
1431.39929,0.58843
1429.90951,0.64308
1428.41972,0.76121
1426.92993,0.82925
1425.44014,0.88888
1423.95035,0.90849
1422.46056,0.92814
1420.97078,0.96605
1419.48099,0.97812
1417.99120,0.96107
1416.50141,0.96311
1415.01162,0.96462
1413.52183,0.91061
1412.03204,0.85336
1410.54226,0.76154
1409.05247,0.71033
1407.56268,0.66948
1406.07289,0.58999
1404.58310,0.56826
1403.09331,0.54655
1401.60353,0.46251
1400.11374,0.42070
1398.62395,0.37292
1397.13416,0.33170
1395.64437,0.27852
1394.15458,0.21203
1392.66479,0.17360
1391.17501,0.16053
1389.68522,0.12679
1388.19543,0.10832
1386.70564,0.09627
1385.21585,0.08425
1383.72606,0.07484
1382.23628,0.04884
1380.74649,0.03131
1379.25670,0.03858
1377.76691,0.02764
1376.27712,0.01154
1374.78733,0.00500
1373.29755,0.00692
1371.80776,0.02548
1370.31797,0.00730
1368.82818,0.00685
1367.33839,0.00642
1365.84860,0.02210
1364.35881,0.01874
1362.86903,0.04182
1361.37924,0.06411
1359.88945,0.08180
1358.39966,0.11829
1356.90987,0.14420
1355.42008,0.19164
1353.93030,0.23120
1352.44051,0.26929
1350.95072,0.30741
1349.46093,0.35086
1347.97114,0.43274
1346.48135,0.51845
1344.99156,0.63632
1343.50178,0.70819
1342.01199,0.78499
1340.52220,0.80598
1339.03241,0.87329
1337.54262,0.90414
1336.05283,0.91785
1334.56305,0.93159
1333.07326,0.96387
1331.58347,0.97657
1330.09368,0.96615
1328.60389,0.98080
1327.11410,0.97723
1325.62432,0.88627
1324.13453,0.85061
1322.64474,0.83677
1321.15495,0.80906
1319.66516,0.77388
1318.17537,0.73874
1316.68558,0.71028
1315.19580,0.62412
1313.70601,0.59980
1312.21622,0.55808
1310.72643,0.53625
1309.23664,0.44747
1307.74685,0.42406
1306.25707,0.40803
1304.76728,0.38794
1303.27749,0.36788
1301.78770,0.33177
1300.29791,0.28860
1298.80812,0.21768
1297.31834,0.19881
1295.82855,0.15272
1294.33876,0.14832
1292.84897,0.10337
1291.35918,0.09330
1289.86939,0.09306
1288.37960,0.09285
1286.88982,0.08421
1285.40003,0.07887
1283.91024,0.06729
1282.42045,0.05219
1280.93066,0.05700
1279.44087,0.03433
1277.95109,0.03374
1276.46130,0.04461
1274.97151,0.04202
1273.48172,0.03946
1271.99193,0.03216
1270.50214,0.03033
1269.01235,0.01899
1267.52257,0.03491
1266.03278,0.01191
1264.54299,0.00500
1263.05320,0.02971
1261.56341,0.02053
1260.07362,0.01138
1258.58384,0.02717
1257.09405,0.00622
1255.60426,0.00899
1254.11447,0.01369
1252.62468,0.00806
1251.13489,0.00709
1249.64511,0.00642
1248.15532,0.01058
1246.66553,0.01709
1245.17574,0.02362
1243.68595,0.00907
1242.19616,0.02667
1240.70637,0.01462
1239.21659,0.00395
1237.72680,0.01079
1236.23701,0.03263
1234.74722,0.02834
1233.25743,0.03089
1231.76764,0.03347
1230.27786,0.02654
1228.78807,0.03052
1227.29828,0.04488
1225.80849,0.02658
1224.31870,0.02601
1222.82891,0.01130
1221.33912,0.00642
1219.84934,0.02632
1218.35955,0.04625
1216.86976,0.05095
1215.37997,0.05431
1213.89018,0.06941
1212.40039,0.07473
1210.91061,0.08116
1209.42082,0.08271
1207.93103,0.08184
1206.44124,0.08099
1204.95145,0.08071
1203.46166,0.08182
1201.97188,0.06661
1200.48209,0.05606
1198.99230,0.07058
1197.50251,0.06470
1196.01272,0.06212
1194.52293,0.05506
1193.03314,0.04803
1191.54336,0.02891
1190.05357,0.02969
1188.56378,0.01824
1187.07399,0.02315
1185.58420,0.03327
1184.09441,0.03169
1182.60463,0.02361
1181.11484,0.01554
1179.62505,0.00642
1178.13526,0.01499
1176.64547,0.02168
1175.15568,0.03793
1173.66589,0.01934
1172.17611,0.01466
1170.68632,0.01709
1169.19653,0.01955
1167.70674,0.01849
1166.21695,0.02126
1164.72716,0.05619
1163.23738,0.04050
1161.74759,0.04607
1160.25780,0.08271
1158.76801,0.07485
1157.27822,0.06701
1155.78843,0.07186
1154.29865,0.08573
1152.80886,0.08708
1151.31907,0.10671
1149.82928,0.12310
1148.33949,0.13597
1146.84970,0.13307
1145.35991,0.13019
1143.87013,0.14150
1142.38034,0.17543
1140.89055,0.17917
1139.40076,0.19572
1137.91097,0.18044
1136.42118,0.18887
1134.93140,0.19801
1133.44161,0.20717
1131.95182,0.22385
1130.46203,0.24681
1128.97224,0.26381
1127.48245,0.27375
1125.99266,0.26819
1124.50288,0.24632
1123.01309,0.25347
1121.52330,0.26065
1120.03351,0.25655
1118.54372,0.25602
1117.05393,0.26858
1115.56415,0.27109
1114.07436,0.26709
1112.58457,0.26570
1111.09478,0.26433
1109.60499,0.25577
1108.11520,0.24533
1106.62542,0.24036
1105.13563,0.26809
1103.64584,0.23512
1102.15605,0.24575
1100.66626,0.24659
1099.17647,0.24746
1097.68668,0.20506
1096.19690,0.21306
1094.70711,0.22789
1093.21732,0.21006
1091.72753,0.21378
1090.23774,0.19913
1088.74795,0.18452
1087.25817,0.19375
1085.76838,0.17768
1084.27859,0.20031
1082.78880,0.19681
1081.29901,0.21295
1079.80922,0.20624
1078.31943,0.22270
1076.82965,0.23918
1075.33986,0.21566
1073.85007,0.22239
1072.36028,0.21933
1070.87049,0.22938
1069.38070,0.26532
1067.89092,0.28957
1066.40113,0.31385
1064.91134,0.36375
1063.42155,0.41722
1061.93176,0.52109
1060.44197,0.60755
1058.95219,0.69649
1057.46240,0.74488
1055.97261,0.79329
1054.48282,0.90790
1052.99303,0.99858
1051.50324,1.00703
1050.01345,0.94470
1048.52367,0.92025
1047.03388,0.92279
1045.54409,0.92535
1044.05430,0.89498
1042.56451,0.81371
1041.07472,0.75589
1039.58494,0.68583
1038.09515,0.60382
1036.60536,0.58637
1035.11557,0.56895
1033.62578,0.50689
1032.13599,0.41544
1030.64620,0.36677
1029.15642,0.30206
1027.66663,0.28217
1026.17684,0.26231
1024.68705,0.23770
1023.19726,0.22728
1021.70747,0.16950
1020.21769,0.16730
1018.72790,0.13925
1017.23811,0.12947
1015.74832,0.11971
1014.25853,0.12850
1012.76874,0.11634
1011.27896,0.11619
1009.78917,0.09700
1008.29938,0.08818
1006.80959,0.06931
1005.31980,0.05047
1003.83001,0.04526
1002.34022,0.04199
1000.85044,0.05753
999.36065,0.06520
997.87086,0.06690
996.38107,0.06862
994.89128,0.08617
993.40149,0.10374
991.91171,0.11370
990.42192,0.11335
988.93213,0.13344
987.44234,0.13912
985.95255,0.14483
984.46276,0.15465
982.97297,0.15414
981.48319,0.13350
979.99340,0.08021
978.50361,0.08155
977.01382,0.08291
975.52403,0.07762
974.03424,0.05656
972.54446,0.04206
971.05467,0.03684
969.56488,0.00714
968.07509,0.01273
966.58530,0.01835
965.09551,0.00642
963.60573,0.03095
962.11594,0.02556
960.62615,0.00684
959.13636,0.01756
957.64657,0.02830
956.15678,0.02518
954.66699,0.03597
953.17721,0.03835
951.68742,0.05082
950.19763,0.05338
948.70784,0.05596
947.21805,0.06933
945.72826,0.08435
944.23848,0.09150
942.74869,0.12836
941.25890,0.13474
939.76911,0.13964
938.27932,0.14458
936.78953,0.16982
935.29974,0.17956
933.80996,0.18225
932.32017,0.20457
930.83038,0.20541
929.34059,0.20626
927.85080,0.26378
926.36101,0.28048
924.87123,0.31899
923.38144,0.39538
921.89165,0.43870
920.40186,0.48205
918.91207,0.56477
917.42228,0.69790
915.93250,0.83513
914.44271,1.04184
912.95292,1.14617
911.46313,1.25053
909.97334,1.44587
908.48355,1.67282
906.99376,1.82817
905.50398,1.93181
904.01419,1.96589
902.52440,2.00000
901.03461,1.98879
899.54482,1.93730
898.05503,1.84662
896.56525,1.64431
895.07546,1.53733
893.58567,1.43039
892.09588,1.16061
890.60609,0.90203
889.11630,0.67152
887.62651,0.49141
886.13673,0.43673
884.64694,0.38208
883.15715,0.24916
881.66736,0.20313
880.17757,0.14951
878.68778,0.14302
877.19800,0.13655
875.70821,0.09716
874.21842,0.06541
872.72863,0.05630
871.23884,0.05783
869.74905,0.05693
868.25927,0.05605
866.76948,0.05602
865.27969,0.02224
863.78990,0.03751
862.30011,0.04381
860.81032,0.05300
859.32053,0.06221
857.83075,0.08901
856.34096,0.09950
854.85117,0.12417
853.36138,0.13361
851.87159,0.14022
850.38180,0.14685
848.89202,0.18605
847.40223,0.17571
845.91244,0.17330
844.42265,0.19460
842.93286,0.21592
841.44307,0.22365
839.95329,0.24366
838.46350,0.25689
836.97371,0.26796
835.48392,0.25918
833.99413,0.25042
832.50434,0.24985
831.01455,0.27546
829.52477,0.24335
828.03498,0.21563
826.54519,0.20467
825.05540,0.19375
823.56561,0.16119
822.07582,0.13683
820.58604,0.14518
819.09625,0.13475
817.60646,0.12435
816.11667,0.11779
814.62688,0.10771
813.13709,0.12054
811.64730,0.12685
810.15752,0.13250
808.66773,0.13818
807.17794,0.14592
805.68815,0.14852
804.19836,0.16502
802.70857,0.15405
801.21879,0.14310
799.72900,0.12401
798.23921,0.11501
796.74942,0.11966
795.25963,0.11235
793.76984,0.10506
792.28006,0.12340
790.79027,0.13930
789.30048,0.15115
787.81069,0.17256
786.32090,0.19875
784.83111,0.22497
783.34132,0.26305
781.85154,0.28183
780.36175,0.32433
778.87196,0.34152
777.38217,0.35873
775.89238,0.37842
774.40259,0.37172
772.91281,0.36260
771.42302,0.34355
769.93323,0.32454
768.44344,0.30404
766.95365,0.24681
765.46386,0.21411
763.97407,0.18226
762.48429,0.16554
760.99450,0.14885
759.50471,0.13694
758.01492,0.12642
756.52513,0.11457
755.03534,0.09688
753.54556,0.07922
752.05577,0.06662
750.56598,0.06167
749.07619,0.04448
747.58640,0.04503
746.09661,0.04560
744.60683,0.05191
743.11704,0.03782
741.62725,0.02947
740.13746,0.03000
738.64767,0.03056
737.15788,0.03154
735.66809,0.03065
734.17831,0.02678
732.68852,0.02198
731.19873,0.01721
729.70894,0.01342
728.21915,0.00883
726.72936,0.01419
725.23958,0.00840
723.74979,0.00844
722.26000,0.00851
720.77021,0.02072
719.28042,0.02914
717.79063,0.01335
716.30084,0.01201
714.81106,0.01070
713.32127,0.00642
711.83148,0.02526
710.34169,0.00682
708.85190,0.01564
707.36211,0.02448
705.87233,0.03198
704.38254,0.03951
702.89275,0.04379
701.40296,0.04524
699.91317,0.04672
698.42338,0.05380
696.93360,0.07533
695.44381,0.08491
693.95402,0.09874
692.46423,0.11259
690.97444,0.11053
689.48465,0.13491
687.99486,0.16476
686.50508,0.18647
685.01529,0.20820
683.52550,0.22124
682.03571,0.24248
680.54592,0.26673
679.05613,0.26310
677.56635,0.25949
676.07656,0.26339
674.58677,0.26569
673.09698,0.24268
671.60719,0.23562
670.11740,0.22860
668.62761,0.18306
667.13783,0.17186
665.64804,0.16081
664.15825,0.14980
662.66846,0.11225
661.17867,0.10115
659.68888,0.08244
658.19910,0.06580
656.70931,0.04919
655.21952,0.05234
653.72973,0.04626
652.23994,0.04483
650.75015,0.04534
649.26037,0.04586
647.77058,0.05595
646.28079,0.04971
644.79100,0.03670
643.30121,0.03038
641.81142,0.02408
640.32163,0.03755
638.83185,0.05513
637.34206,0.02944
635.85227,0.02038
634.36248,0.01134
632.87269,0.00642
631.38290,0.00583
629.89312,0.01769
628.40333,0.02127
626.91354,0.02488
625.42375,0.02837
623.93396,0.03053
622.44417,0.02263
620.95438,0.01476
619.46460,0.02162
617.97481,0.06118
616.48502,0.08280
614.99523,0.08469
613.50544,0.08661
612.01565,0.09631
610.52587,0.14770
609.03608,0.18060
607.54629,0.18139
606.05650,0.18221
604.56671,0.24105
603.07692,0.27296
601.58714,0.32490
600.09735,0.37687
598.60756,0.40994
597.11777,0.43214
595.62798,0.42496
594.13819,0.41657
592.64840,0.40820
591.15862,0.38284
589.66883,0.34389
588.17904,0.28318
586.68925,0.24536
585.19946,0.20758
583.70967,0.14721
582.21989,0.12499
580.73010,0.11818
579.24031,0.11140
577.75052,0.06883
576.26073,0.06686
574.77094,0.06110
573.28115,0.04338
571.79137,0.02569
570.30158,0.03798
568.81179,0.05111
567.32200,0.06521
565.83221,0.07934
564.34242,0.07621
562.85264,0.11775
561.36285,0.14026
559.87306,0.15789
558.38327,0.17555
556.89348,0.15647
555.40369,0.14531
553.91391,0.14887
552.42412,0.15247
550.93433,0.19257
549.44454,0.21364
547.95475,0.21785
546.46496,0.21500
544.97517,0.21218
543.48539,0.22817
541.99560,0.23520
540.50581,0.25655
539.01602,0.27793
537.52623,0.32915
536.03644,0.33818
534.54666,0.38319
533.05687,0.39349
531.56708,0.40382
530.07729,0.45407
528.58750,0.54193
527.09771,0.56527
525.60792,0.58863
524.11814,0.65859
522.62835,0.68091
521.13856,0.72395
519.64877,0.75422
518.15898,0.78451
516.66919,0.78733
515.17941,0.76347
513.68962,0.76606
512.19983,0.76867
510.71004,0.78112
509.22025,0.73775
507.73046,0.66037
506.24068,0.61910
504.75089,0.57786
503.26110,0.46706
501.77131,0.33449
500.28152,0.30285
498.79173,0.27123
497.30194,0.19811
495.81216,0.15796
494.32237,0.13499
492.83258,0.11205
491.34279,0.08831
489.85300,0.05588
488.36321,0.07958
486.87343,0.07825
485.38364,0.07694
483.89385,0.07674
482.40406,0.10353
480.91427,0.10747
479.42448,0.11143
477.93469,0.11733
476.44491,0.12079
474.95512,0.14498
473.46533,0.16919
471.97554,0.16729
470.48575,0.16813
468.99596,0.15891
467.50618,0.16484
466.01639,0.17079
464.52660,0.11726
463.03681,0.09399
461.54702,0.08258
460.05723,0.07120
458.56745,0.03248
457.07766,0.02073
455.58787,0.02195
454.09808,0.02320
452.60829,0.03386
451.11850,0.00642
449.62871,0.01256
448.13893,0.01872
446.64914,0.01728
445.15935,0.00362
443.66956,0.01171
442.17977,0.01098
440.68998,0.01027
439.20020,0.01953
437.71041,0.01955
436.22062,0.03008
434.73083,0.04064
433.24104,0.00642
431.75125,0.01651
430.26146,0.01247
428.77168,0.00845
427.28189,0.03441
425.79210,0.04242
424.30231,0.03806
422.81252,0.03373
421.32273,0.01621
419.83295,0.04012
418.34316,0.03804
416.85337,0.03598
415.36358,0.01502
413.87379,0.02214
412.38400,0.02370
410.89422,0.02528
409.40443,0.03737
407.91464,0.02878
406.42485,0.03112
404.93506,0.03538
403.44527,0.03967
401.95548,0.00722
400.46570,0.02000
398.97591,0.02722
397.48612,0.03447
395.99633,0.03371
394.50654,0.04468
393.01675,0.03511
391.52697,0.02557
390.03718,0.02626
388.54739,0.01064
387.05760,0.01380
385.56781,0.01698
384.07802,0.03135
382.58824,0.02015
381.09845,0.01306
379.60866,0.00599
378.11887,0.03520
376.62908,0.03665
375.13929,0.02275
373.64950,0.00887
372.15972,0.00223
370.66993,0.01875
369.18014,0.02114
367.69035,0.02357
366.20056,0.03486
364.71077,0.04319
363.22099,0.03070
361.73120,0.01824
360.24141,0.02528
358.75162,0.04269
357.26183,0.04432
355.77204,0.04599
354.28225,0.04631
352.79247,0.07062
351.30268,0.06759
349.81289,0.06459
348.32310,0.07073
346.83331,0.05701
345.34352,0.05381
343.85374,0.05062
342.36395,0.06857
340.87416,0.04896
339.38437,0.04504
337.89458,0.04113
336.40479,0.04311
334.91501,0.03041
333.42522,0.04087
331.93543,0.05137
330.44564,0.02757
328.95585,0.04819
327.46606,0.03274
325.97627,0.01732
324.48649,0.05979
322.99670,0.06987
321.50691,0.05043
320.01712,0.03101
318.52733,0.06186
317.03754,0.07858
315.54776,0.07966
314.05797,0.08076
312.56818,0.09183
311.07839,0.12144
309.58860,0.10519
308.09881,0.08896
306.60902,0.04784
305.11924,0.04106
303.62945,0.02926
302.13966,0.01749
300.64987,0.00642
299.16008,0.00642
