1778.52000,0.01766
1777.03021,0.00544
1775.54042,0.00614
1774.05063,0.01318
1772.56085,0.00562
1771.07106,0.01615
1769.58127,0.01151
1768.09148,0.00403
1766.60169,0.01090
1765.11190,0.01350
1763.62212,0.00208
1762.13233,0.01362
1760.64254,0.01400
1759.15275,0.00495
1757.66296,0.01398
1756.17317,0.00985
1754.68339,0.00030
1753.19360,0.00826
1751.70381,0.00105
1750.21402,0.00247
1748.72423,0.00792
1747.23444,0.00824
1745.74465,0.00830
1744.25487,0.00982
1742.76508,0.01279
1741.27529,0.00232
1739.78550,0.00849
1738.29571,0.00208
1736.80592,0.00371
1735.31614,0.00937
1733.82635,0.00703
1732.33656,0.00500
1730.84677,0.00041
1729.35698,0.00159
1727.86719,0.00479
1726.37740,0.00086
1724.88762,0.00182
1723.39783,0.00739
1721.90804,0.00124
1720.41825,0.01145
1718.92846,0.00448
1717.43867,0.00557
1715.94889,0.00410
1714.45910,0.00208
1712.96931,0.00719
1711.47952,0.00000
1709.98973,0.00765
1708.49994,0.00386
1707.01016,0.00296
1705.52037,0.00208
1704.03058,0.01323
1702.54079,0.02841
1701.05100,0.03072
1699.56121,0.02703
1698.07142,0.02280
1696.58164,0.02833
1695.09185,0.03418
1693.60206,0.02916
1692.11227,0.02387
1690.62248,0.04528
1689.13269,0.03976
1687.64291,0.04831
1686.15312,0.05144
1684.66333,0.06807
1683.17354,0.07268
1681.68375,0.06757
1680.19396,0.07252
1678.70417,0.07463
1677.21439,0.07677
1675.72460,0.08896
1674.23481,0.07709
1672.74502,0.08962
1671.25523,0.08383
1669.76544,0.10845
1668.27566,0.09955
1666.78587,0.11275
1665.29608,0.10849
1663.80629,0.09966
1662.31650,0.12183
1660.82671,0.13914
1659.33693,0.13670
1657.84714,0.12568
1656.35735,0.10322
1654.86756,0.12350
1653.37777,0.11629
1651.88798,0.11196
1650.39819,0.10939
1648.90841,0.10511
1647.41862,0.08997
1645.92883,0.09621
1644.43904,0.10247
1642.94925,0.09514
1641.45946,0.10504
1639.96968,0.08830
1638.47989,0.11001
1636.99010,0.09819
1635.50031,0.07694
1634.01052,0.08209
1632.52073,0.08755
1631.03094,0.06838
1629.54116,0.08937
1628.05137,0.11067
1626.56158,0.10620
1625.07179,0.09344
1623.58200,0.10994
1622.09221,0.11156
1620.60243,0.10289
1619.11264,0.09739
1617.62285,0.09909
1616.13306,0.09164
1614.64327,0.08220
1613.15348,0.09859
1611.66370,0.09810
1610.17391,0.09963
1608.68412,0.09717
1607.19433,0.09446
1605.70454,0.10581
1604.21475,0.09985
1602.72496,0.09391
1601.23518,0.08556
1599.74539,0.08383
1598.25560,0.08298
1596.76581,0.09191
1595.27602,0.09570
1593.78623,0.08747
1592.29645,0.09017
1590.80666,0.08686
1589.31687,0.07986
1587.82708,0.08119
1586.33729,0.08055
1584.84750,0.08508
1583.35771,0.08707
1581.86793,0.08506
1580.37814,0.09799
1578.88835,0.08026
1577.39856,0.07460
1575.90877,0.07700
1574.41898,0.06709
1572.92920,0.06609
1571.43941,0.05193
1569.94962,0.04712
1568.45983,0.04232
1566.97004,0.05662
1565.48025,0.04744
1563.99047,0.05032
1562.50068,0.04863
1561.01089,0.05185
1559.52110,0.04821
1558.03131,0.04775
1556.54152,0.03069
1555.05173,0.04289
1553.56195,0.04365
1552.07216,0.03813
1550.58237,0.02288
1549.09258,0.01913
1547.60279,0.02573
1546.11300,0.02117
1544.62322,0.01663
1543.13343,0.00208
1541.64364,0.00909
1540.15385,0.00767
1538.66406,0.00627
1537.17427,0.02397
1535.68448,0.01101
1534.19470,0.00553
1532.70491,0.01181
1531.21512,0.01839
1529.72533,0.02185
1528.23554,0.01215
1526.74575,0.02541
1525.25597,0.01231
1523.76618,0.02906
1522.27639,0.01085
1520.78660,0.03195
1519.29681,0.02268
1517.80702,0.02806
1516.31724,0.03375
1514.82745,0.04004
1513.33766,0.03531
1511.84787,0.03061
1510.35808,0.04443
1508.86829,0.03878
1507.37850,0.03802
1505.88872,0.02640
1504.39893,0.04404
1502.90914,0.06831
1501.41935,0.06564
1499.92956,0.07505
1498.43977,0.06498
1496.94999,0.06268
1495.46020,0.07646
1493.97041,0.08167
1492.48062,0.08632
1490.99083,0.08613
1489.50104,0.10603
1488.01125,0.11535
1486.52147,0.12469
1485.03168,0.14552
1483.54189,0.17842
1482.05210,0.19529
1480.56231,0.19011
1479.07252,0.20789
1477.58274,0.21251
1476.09295,0.22977
1474.60316,0.23874
1473.11337,0.25318
1471.62358,0.27481
1470.13379,0.26292
1468.64401,0.26540
1467.15422,0.31205
1465.66443,0.31285
1464.17464,0.31368
1462.68485,0.34291
1461.19506,0.39568
1459.70527,0.45450
1458.21549,0.48352
1456.72570,0.57593
1455.23591,0.61102
1453.74612,0.65962
1452.25633,0.68014
1450.76654,0.70843
1449.27676,0.72298
1447.78697,0.69484
1446.29718,0.68106
1444.80739,0.65942
1443.31760,0.63780
1441.82781,0.59887
1440.33802,0.56598
1438.84824,0.54200
1437.35845,0.47992
1435.86866,0.48925
1434.37887,0.49373
1432.88908,0.50942
1431.39929,0.54090
1429.90951,0.62601
1428.41972,0.72233
1426.92993,0.78170
1425.44014,0.81098
1423.95035,0.83871
1422.46056,0.86647
1420.97078,0.89067
1419.48099,0.88823
1417.99120,0.85801
1416.50141,0.88057
1415.01162,0.81112
1413.52183,0.76979
1412.03204,0.69867
1410.54226,0.63130
1409.05247,0.61241
1407.56268,0.61075
1406.07289,0.54833
1404.58310,0.52335
1403.09331,0.49839
1401.60353,0.43375
1400.11374,0.38519
1398.62395,0.33179
1397.13416,0.29532
1395.64437,0.23910
1394.15458,0.20899
1392.66479,0.17231
1391.17501,0.13365
1389.68522,0.11565
1388.19543,0.10800
1386.70564,0.08289
1385.21585,0.05781
1383.72606,0.04650
1382.23628,0.02061
1380.74649,0.01824
1379.25670,0.02307
1377.76691,0.00987
1376.27712,0.00041
1374.78733,0.00545
1373.29755,0.00908
1371.80776,0.01532
1370.31797,0.00208
1368.82818,0.00280
1367.33839,0.00354
1365.84860,0.01835
1364.35881,0.02200
1362.86903,0.04231
1361.37924,0.05921
1359.88945,0.07326
1358.39966,0.09995
1356.90987,0.12523
1355.42008,0.17548
1353.93030,0.22146
1352.44051,0.25929
1350.95072,0.29714
1349.46093,0.35810
1347.97114,0.43628
1346.48135,0.50273
1344.99156,0.55574
1343.50178,0.61794
1342.01199,0.67616
1340.52220,0.71347
1339.03241,0.76428
1337.54262,0.76236
1336.05283,0.78771
1334.56305,0.81308
1333.07326,0.81381
1331.58347,0.87507
1330.09368,0.84891
1328.60389,0.81532
1327.11410,0.80039
1325.62432,0.76599
1324.13453,0.75799
1322.64474,0.72823
1321.15495,0.70021
1319.66516,0.68742
1318.17537,0.67464
1316.68558,0.61344
1315.19580,0.58983
1313.70601,0.51176
1312.21622,0.48475
1310.72643,0.44057
1309.23664,0.42107
1307.74685,0.41248
1306.25707,0.38672
1304.76728,0.37417
1303.27749,0.36165
1301.78770,0.30299
1300.29791,0.26529
1298.80812,0.21499
1297.31834,0.18910
1295.82855,0.13627
1294.33876,0.12304
1292.84897,0.10152
1291.35918,0.09091
1289.86939,0.09366
1288.37960,0.09644
1286.88982,0.07071
1285.40003,0.05419
1283.91024,0.05690
1282.42045,0.05189
1280.93066,0.03917
1279.44087,0.05256
1277.95109,0.06511
1276.46130,0.05275
1274.97151,0.04228
1273.48172,0.03183
1271.99193,0.05910
1270.50214,0.04312
1269.01235,0.03632
1267.52257,0.02067
1266.03278,0.01192
1264.54299,0.02384
1263.05320,0.02059
1261.56341,0.02124
1260.07362,0.02191
1258.58384,0.02045
1257.09405,0.04024
1255.60426,0.02478
1254.11447,0.03401
1252.62468,0.01574
1251.13489,0.00208
1249.64511,0.00528
1248.15532,0.02800
1246.66553,0.02293
1245.17574,0.01789
1243.68595,0.02090
1242.19616,0.03368
1240.70637,0.03358
1239.21659,0.02061
1237.72680,0.03863
1236.23701,0.03947
1234.74722,0.03374
1233.25743,0.03650
1231.76764,0.03928
1230.27786,0.02961
1228.78807,0.02427
1227.29828,0.02640
1225.80849,0.01194
1224.31870,0.00208
1222.82891,0.00314
1221.33912,0.01713
1219.84934,0.02641
1218.35955,0.03571
1216.86976,0.03486
1215.37997,0.06844
1213.89018,0.04786
1212.40039,0.08436
1210.91061,0.07100
1209.42082,0.06511
1207.93103,0.06800
1206.44124,0.07091
1204.95145,0.06538
1203.46166,0.04842
1201.97188,0.05986
1200.48209,0.05642
1198.99230,0.04813
1197.50251,0.06624
1196.01272,0.03019
1194.52293,0.01968
1193.03314,0.00920
1191.54336,0.01967
1190.05357,0.01870
1188.56378,0.02721
1187.07399,0.01424
1185.58420,0.00446
1184.09441,0.00961
1182.60463,0.01234
1181.11484,0.01510
1179.62505,0.01344
1178.13526,0.01238
1176.64547,0.00590
1175.15568,0.00804
1173.66589,0.00448
1172.17611,0.00208
1170.68632,0.00296
1169.19653,0.00387
1167.70674,0.00924
1166.21695,0.00432
1164.72716,0.02952
1163.23738,0.02235
1161.74759,0.02009
1160.25780,0.03504
1158.76801,0.03985
1157.27822,0.04468
1155.78843,0.06430
1154.29865,0.06445
1152.80886,0.05602
1151.31907,0.08088
1149.82928,0.09057
1148.33949,0.10658
1146.84970,0.09783
1145.35991,0.08910
1143.87013,0.10404
1142.38034,0.14309
1140.89055,0.15264
1139.40076,0.16967
1137.91097,0.17353
1136.42118,0.20380
1134.93140,0.19567
1133.44161,0.18757
1131.95182,0.22049
1130.46203,0.23681
1128.97224,0.23652
1127.48245,0.22164
1125.99266,0.23344
1124.50288,0.22492
1123.01309,0.23663
1121.52330,0.24836
1120.03351,0.23418
1118.54372,0.24467
1117.05393,0.23685
1115.56415,0.23220
1114.07436,0.26341
1112.58457,0.26282
1111.09478,0.26226
1109.60499,0.23936
1108.11520,0.23140
1106.62542,0.21314
1105.13563,0.22816
1103.64584,0.24664
1102.15605,0.24853
1100.66626,0.24914
1099.17647,0.24978
1097.68668,0.20874
1096.19690,0.19065
1094.70711,0.21674
1093.21732,0.21074
1091.72753,0.21223
1090.23774,0.20384
1088.74795,0.19549
1087.25817,0.19475
1085.76838,0.17225
1084.27859,0.18561
1082.78880,0.18237
1081.29901,0.17113
1079.80922,0.18371
1078.31943,0.19072
1076.82965,0.19775
1075.33986,0.19492
1073.85007,0.18065
1072.36028,0.20052
1070.87049,0.21210
1069.38070,0.24721
1067.89092,0.27088
1066.40113,0.29458
1064.91134,0.33722
1063.42155,0.40913
1061.93176,0.48708
1060.44197,0.54299
1058.95219,0.62931
1057.46240,0.67939
1055.97261,0.72949
1054.48282,0.80355
1052.99303,0.89255
1051.50324,0.84712
1050.01345,0.87883
1048.52367,0.86584
1047.03388,0.86563
1045.54409,0.86545
1044.05430,0.80982
1042.56451,0.76711
1041.07472,0.71239
1039.58494,0.65626
1038.09515,0.61048
1036.60536,0.58522
1035.11557,0.55998
1033.62578,0.53090
1032.13599,0.44336
1030.64620,0.38165
1029.15642,0.31107
1027.66663,0.28926
1026.17684,0.26747
1024.68705,0.25488
1023.19726,0.24002
1021.70747,0.19709
1020.21769,0.17941
1018.72790,0.17982
1017.23811,0.17825
1015.74832,0.17670
1014.25853,0.14680
1012.76874,0.15505
1011.27896,0.15817
1009.78917,0.16819
1008.29938,0.15100
1006.80959,0.11964
1005.31980,0.08831
1003.83001,0.04826
1002.34022,0.05124
1000.85044,0.04220
999.36065,0.03863
997.87086,0.03767
996.38107,0.03674
994.89128,0.05618
993.40149,0.05100
991.91171,0.06562
990.42192,0.06707
988.93213,0.10497
987.44234,0.10920
985.95255,0.11345
984.46276,0.09437
982.97297,0.09452
981.48319,0.08552
979.99340,0.03984
978.50361,0.04953
977.01382,0.05924
975.52403,0.05750
974.03424,0.04891
972.54446,0.04064
971.05467,0.02349
969.56488,0.00237
968.07509,0.00301
966.58530,0.00368
965.09551,0.00208
963.60573,0.01196
962.11594,0.02044
960.62615,0.02951
959.13636,0.03345
957.64657,0.03741
956.15678,0.03308
954.66699,0.03852
953.17721,0.05116
951.68742,0.04547
950.19763,0.04168
948.70784,0.03790
947.21805,0.07959
945.72826,0.08576
944.23848,0.10027
942.74869,0.14376
941.25890,0.14799
939.76911,0.15239
938.27932,0.15682
936.78953,0.16773
935.29974,0.16346
933.80996,0.20108
932.32017,0.19199
930.83038,0.20442
929.34059,0.21689
927.85080,0.22823
926.36101,0.27170
924.87123,0.28051
923.38144,0.33034
921.89165,0.37762
920.40186,0.42492
918.91207,0.51267
917.42228,0.62539
915.93250,0.78916
914.44271,0.98507
912.95292,1.08754
911.46313,1.19003
909.97334,1.43561
908.48355,1.64079
906.99376,1.78293
905.50398,1.90043
904.01419,1.93424
902.52440,1.96808
901.03461,1.98188
899.54482,2.00000
898.05503,1.86419
896.56525,1.75335
895.07546,1.62304
893.58567,1.49275
892.09588,1.19191
890.60609,0.93352
889.11630,0.72591
887.62651,0.49222
886.13673,0.43517
884.64694,0.37814
883.15715,0.25634
881.66736,0.21427
880.17757,0.15789
878.68778,0.15084
877.19800,0.14382
875.70821,0.07949
874.21842,0.05617
872.72863,0.01855
871.23884,0.01536
869.74905,0.01204
868.25927,0.00876
866.76948,0.01854
865.27969,0.02949
863.78990,0.02069
862.30011,0.03943
860.81032,0.05075
859.32053,0.06209
857.83075,0.07890
856.34096,0.07882
854.85117,0.06988
853.36138,0.08934
851.87159,0.09378
850.38180,0.09825
848.89202,0.11894
847.40223,0.13248
845.91244,0.14863
844.42265,0.15392
842.93286,0.15922
841.44307,0.15595
839.95329,0.17306
838.46350,0.20367
836.97371,0.21739
835.48392,0.21164
833.99413,0.20592
832.50434,0.20624
831.01455,0.20601
829.52477,0.19950
828.03498,0.17008
826.54519,0.16004
825.05540,0.15002
823.56561,0.11064
822.07582,0.10998
820.58604,0.08585
819.09625,0.08611
817.60646,0.08639
816.11667,0.05631
814.62688,0.07585
813.13709,0.08423
811.64730,0.07716
810.15752,0.08488
808.66773,0.09262
807.17794,0.08907
805.68815,0.09442
804.19836,0.10066
802.70857,0.09460
801.21879,0.08856
799.72900,0.09058
798.23921,0.06510
796.74942,0.06315
795.25963,0.06295
793.76984,0.06277
792.28006,0.08440
790.79027,0.09259
789.30048,0.09076
787.81069,0.12136
786.32090,0.14467
784.83111,0.16801
783.34132,0.18721
781.85154,0.22651
780.36175,0.26153
778.87196,0.28268
777.38217,0.30384
775.89238,0.34238
774.40259,0.34998
772.91281,0.33811
771.42302,0.32956
769.93323,0.32104
768.44344,0.31383
766.95365,0.28141
765.46386,0.26250
763.97407,0.20806
762.48429,0.18189
760.99450,0.15574
759.50471,0.13406
758.01492,0.10667
756.52513,0.08991
755.03534,0.09196
753.54556,0.09403
752.05577,0.07993
750.56598,0.05581
749.07619,0.03345
747.58640,0.03376
746.09661,0.03409
744.60683,0.02498
743.11704,0.02909
741.62725,0.01373
740.13746,0.01345
738.64767,0.01319
737.15788,0.00994
735.66809,0.01991
734.17831,0.02560
732.68852,0.01383
731.19873,0.00208
729.70894,0.01466
728.21915,0.00806
726.72936,0.00778
725.23958,0.02330
723.74979,0.01978
722.26000,0.01629
720.77021,0.02242
719.28042,0.01683
717.79063,0.00208
716.30084,0.00641
714.81106,0.01076
713.32127,0.00682
711.83148,0.02958
710.34169,0.04690
708.85190,0.04906
707.36211,0.05124
705.87233,0.05087
704.38254,0.03390
702.89275,0.04447
701.40296,0.04303
699.91317,0.04161
698.42338,0.04365
696.93360,0.08156
695.44381,0.09971
693.95402,0.10040
692.46423,0.10111
690.97444,0.12335
689.48465,0.12841
687.99486,0.15529
686.50508,0.17531
685.01529,0.19535
683.52550,0.19707
682.03571,0.24383
680.54592,0.25248
679.05613,0.24826
677.56635,0.24406
676.07656,0.25107
674.58677,0.25867
673.09698,0.24423
671.60719,0.22622
670.11740,0.20825
668.62761,0.17037
667.13783,0.16691
665.64804,0.15145
664.15825,0.13600
662.66846,0.12661
661.17867,0.07624
659.68888,0.07119
658.19910,0.06187
656.70931,0.05257
655.21952,0.04703
653.72973,0.04982
652.23994,0.04461
650.75015,0.04559
649.26037,0.04660
647.77058,0.05752
646.28079,0.05556
644.79100,0.03356
643.30121,0.02549
641.81142,0.01745
640.32163,0.01444
638.83185,0.01003
637.34206,0.00393
635.85227,0.00597
634.36248,0.00805
632.87269,0.00255
631.38290,0.00208
629.89312,0.01121
628.40333,0.01204
626.91354,0.01290
625.42375,0.01035
623.93396,0.00495
622.44417,0.01205
620.95438,0.01917
619.46460,0.01958
617.97481,0.04009
616.48502,0.04428
614.99523,0.05910
613.50544,0.07394
612.01565,0.10573
610.52587,0.13152
609.03608,0.16536
607.54629,0.18418
606.05650,0.20302
604.56671,0.21629
603.07692,0.28578
601.58714,0.31086
600.09735,0.33597
598.60756,0.36224
597.11777,0.38682
595.62798,0.38534
594.13819,0.37628
592.64840,0.36725
591.15862,0.33402
589.66883,0.30167
588.17904,0.27595
586.68925,0.24365
585.19946,0.21138
583.70967,0.15792
582.21989,0.11881
580.73010,0.09694
579.24031,0.07509
577.75052,0.04867
576.26073,0.05210
574.77094,0.02803
573.28115,0.02663
571.79137,0.02526
570.30158,0.04054
568.81179,0.03836
567.32200,0.04638
565.83221,0.05443
564.34242,0.07669
562.85264,0.08034
561.36285,0.09921
559.87306,0.10836
558.38327,0.11754
556.89348,0.10724
555.40369,0.12879
553.91391,0.13890
552.42412,0.14903
550.93433,0.14170
549.44454,0.14902
547.95475,0.17070
546.46496,0.16487
544.97517,0.15908
543.48539,0.20090
541.99560,0.19945
540.50581,0.21394
539.01602,0.22845
537.52623,0.27353
536.03644,0.31633
534.54666,0.33766
533.05687,0.36818
531.56708,0.39873
530.07729,0.43992
528.58750,0.49632
527.09771,0.53096
525.60792,0.56562
524.11814,0.62554
522.62835,0.67688
521.13856,0.72424
519.64877,0.73133
518.15898,0.73846
516.66919,0.81828
515.17941,0.79349
513.68962,0.79810
512.19983,0.80275
510.71004,0.77831
509.22025,0.72897
507.73046,0.66273
506.24068,0.60382
504.75089,0.54494
503.26110,0.44982
501.77131,0.34813
500.28152,0.31212
498.79173,0.27614
497.30194,0.19602
495.81216,0.15148
494.32237,0.13220
492.83258,0.11294
491.34279,0.08941
489.85300,0.06360
488.36321,0.03811
486.87343,0.04905
485.38364,0.06002
483.89385,0.03862
482.40406,0.06999
480.91427,0.07845
479.42448,0.08694
477.93469,0.06765
476.44491,0.09539
474.95512,0.10754
473.46533,0.11971
471.97554,0.12058
470.48575,0.14154
468.99596,0.15508
467.50618,0.14441
466.01639,0.13377
464.52660,0.10008
463.03681,0.08361
461.54702,0.08050
460.05723,0.07742
458.56745,0.04153
457.07766,0.01627
455.58787,0.01713
454.09808,0.01802
452.60829,0.02208
451.11850,0.00208
449.62871,0.00657
448.13893,0.01108
446.64914,0.00486
445.15935,0.02218
443.66956,0.02748
442.17977,0.01804
440.68998,0.00863
439.20020,0.01801
437.71041,0.03804
436.22062,0.03429
434.73083,0.03056
433.24104,0.02171
431.75125,0.05157
430.26146,0.04334
428.77168,0.03513
427.28189,0.02063
425.79210,0.04516
424.30231,0.04820
422.81252,0.05127
421.32273,0.03028
419.83295,0.03914
418.34316,0.03970
416.85337,0.04029
415.36358,0.02399
413.87379,0.02377
412.38400,0.02185
410.89422,0.01996
409.40443,0.05823
407.91464,0.05381
406.42485,0.02447
404.93506,0.01494
403.44527,0.00543
401.95548,0.03841
400.46570,0.03099
398.97591,0.04681
397.48612,0.06266
395.99633,0.04729
394.50654,0.02736
393.01675,0.02436
391.52697,0.02139
390.03718,0.02074
388.54739,0.02269
387.05760,0.02037
385.56781,0.01807
384.07802,0.01924
382.58824,0.00208
381.09845,0.00377
379.60866,0.00548
378.11887,0.01237
376.62908,0.01700
375.13929,0.01735
373.64950,0.01773
372.15972,0.01956
370.66993,0.01684
369.18014,0.01507
367.69035,0.01334
366.20056,0.02524
364.71077,0.02456
363.22099,0.01630
361.73120,0.00807
360.24141,0.02323
358.75162,0.02322
357.26183,0.02266
355.77204,0.02213
354.28225,0.06462
352.79247,0.04980
351.30268,0.04561
349.81289,0.04145
348.32310,0.03646
346.83331,0.00712
345.34352,0.01667
343.85374,0.02625
342.36395,0.04201
340.87416,0.03286
339.38437,0.05327
337.89458,0.07369
336.40479,0.03538
334.91501,0.03177
333.42522,0.02361
331.93543,0.01547
330.44564,0.01165
328.95585,0.00671
327.46606,0.00839
325.97627,0.01010
324.48649,0.00208
322.99670,0.02840
321.50691,0.04442
320.01712,0.06046
318.52733,0.08885
317.03754,0.07570
315.54776,0.07749
314.05797,0.07930
312.56818,0.05963
311.07839,0.07783
309.58860,0.08559
308.09881,0.09337
306.60902,0.09674
305.11924,0.06544
303.62945,0.04793
302.13966,0.03044
300.64987,0.00208
299.16008,0.00208
