1778.52000,0.00871
1777.03021,-0.00000
1775.54042,0.00962
1774.05063,0.01215
1772.56085,0.00952
1771.07106,0.00937
1769.58127,0.02100
1768.09148,0.00615
1766.60169,0.00580
1765.11190,0.01176
1763.62212,0.00927
1762.13233,0.01064
1760.64254,0.01011
1759.15275,0.00879
1757.66296,0.00722
1756.17317,0.00568
1754.68339,0.00033
1753.19360,0.00703
1751.70381,0.01594
1750.21402,0.00821
1748.72423,0.00624
1747.23444,0.01249
1745.74465,0.01576
1744.25487,0.01905
1742.76508,0.01472
1741.27529,0.01096
1739.78550,0.00722
1738.29571,0.01681
1736.80592,0.01740
1735.31614,0.01775
1733.82635,0.01183
1732.33656,0.00567
1730.84677,0.01128
1729.35698,0.00708
1727.86719,0.01082
1726.37740,0.01240
1724.88762,0.01647
1723.39783,0.01018
1721.90804,0.01156
1720.41825,0.02417
1718.92846,0.02396
1717.43867,0.02022
1715.94889,0.00722
1714.45910,0.01277
1712.96931,0.01015
1711.47952,0.01083
1709.98973,0.01808
1708.49994,0.01499
1707.01016,0.01109
1705.52037,0.00722
1704.03058,0.01714
1702.54079,0.01561
1701.05100,0.02421
1699.56121,0.02190
1698.07142,0.01197
1696.58164,0.01382
1695.09185,0.01923
1693.60206,0.01566
1692.11227,0.01430
1690.62248,0.02006
1689.13269,0.01793
1687.64291,0.01800
1686.15312,0.03176
1684.66333,0.02915
1683.17354,0.02957
1681.68375,0.02783
1680.19396,0.03322
1678.70417,0.03481
1677.21439,0.04379
1675.72460,0.04433
1674.23481,0.04954
1672.74502,0.03101
1671.25523,0.04911
1669.76544,0.05248
1668.27566,0.04959
1666.78587,0.07077
1665.29608,0.06301
1663.80629,0.08560
1662.31650,0.08308
1660.82671,0.08441
1659.33693,0.09150
1657.84714,0.07731
1656.35735,0.09046
1654.86756,0.07495
1653.37777,0.06848
1651.88798,0.07869
1650.39819,0.09058
1648.90841,0.08445
1647.41862,0.08217
1645.92883,0.08716
1644.43904,0.09217
1642.94925,0.09406
1641.45946,0.08997
1639.96968,0.08017
1638.47989,0.09525
1636.99010,0.09287
1635.50031,0.08177
1634.01052,0.07397
1632.52073,0.07986
1631.03094,0.09123
1629.54116,0.07149
1628.05137,0.08264
1626.56158,0.10283
1625.07179,0.08944
1623.58200,0.09466
1622.09221,0.09197
1620.60243,0.10051
1619.11264,0.09623
1617.62285,0.09253
1616.13306,0.08858
1614.64327,0.09366
1613.15348,0.07582
1611.66370,0.10500
1610.17391,0.10087
1608.68412,0.08255
1607.19433,0.09186
1605.70454,0.08151
1604.21475,0.08281
1602.72496,0.08413
1601.23518,0.07905
1599.74539,0.07946
1598.25560,0.08481
1596.76581,0.10685
1595.27602,0.09121
1593.78623,0.09063
1592.29645,0.07832
1590.80666,0.07996
1589.31687,0.08628
1587.82708,0.08060
1586.33729,0.08314
1584.84750,0.08297
1583.35771,0.07381
1581.86793,0.08189
1580.37814,0.08972
1578.88835,0.08910
1577.39856,0.08222
1575.90877,0.06335
1574.41898,0.06772
1572.92920,0.06037
1571.43941,0.06124
1569.94962,0.05926
1568.45983,0.05731
1566.97004,0.05498
1565.48025,0.04884
1563.99047,0.05202
1562.50068,0.03992
1561.01089,0.03631
1559.52110,0.04065
1558.03131,0.03764
1556.54152,0.03438
1555.05173,0.03360
1553.56195,0.03012
1552.07216,0.03704
1550.58237,0.02596
1549.09258,0.01872
1547.60279,0.02954
1546.11300,0.02508
1544.62322,0.01955
1543.13343,0.00722
1541.64364,0.01869
1540.15385,0.02280
1538.66406,0.02693
1537.17427,0.02317
1535.68448,0.02353
1534.19470,0.02118
1532.70491,0.02542
1531.21512,0.01028
1529.72533,0.02330
1528.23554,0.03334
1526.74575,0.03849
1525.25597,0.04585
1523.76618,0.02919
1522.27639,0.04370
1520.78660,0.04048
1519.29681,0.04657
1517.80702,0.05049
1516.31724,0.05854
1514.82745,0.05952
1513.33766,0.06283
1511.84787,0.06617
1510.35808,0.05547
1508.86829,0.05818
1507.37850,0.05435
1505.88872,0.05356
1504.39893,0.06453
1502.90914,0.06460
1501.41935,0.07973
1499.92956,0.08367
1498.43977,0.09365
1496.94999,0.09191
1495.46020,0.09456
1493.97041,0.09587
1492.48062,0.11032
1490.99083,0.11250
1489.50104,0.14693
1488.01125,0.14096
1486.52147,0.13502
1485.03168,0.18428
1483.54189,0.18931
1482.05210,0.23125
1480.56231,0.25463
1479.07252,0.25154
1477.58274,0.24875
1476.09295,0.27220
1474.60316,0.27847
1473.11337,0.27930
1471.62358,0.29245
1470.13379,0.29223
1468.64401,0.30707
1467.15422,0.32029
1465.66443,0.33326
1464.17464,0.34625
1462.68485,0.37211
1461.19506,0.42668
1459.70527,0.44439
1458.21549,0.53753
1456.72570,0.62850
1455.23591,0.64519
1453.74612,0.70289
1452.25633,0.73657
1450.76654,0.73448
1449.27676,0.79716
1447.78697,0.76972
1446.29718,0.72399
1444.80739,0.71313
1443.31760,0.70228
1441.82781,0.66182
1440.33802,0.59570
1438.84824,0.58124
1437.35845,0.54823
1435.86866,0.54065
1434.37887,0.57161
1432.88908,0.59741
1431.39929,0.63115
1429.90951,0.68049
1428.41972,0.76674
1426.92993,0.82623
1425.44014,0.90023
1423.95035,0.91607
1422.46056,0.93192
1420.97078,1.00381
1419.48099,0.97573
1417.99120,0.98429
1416.50141,0.97019
1415.01162,0.93453
1413.52183,0.90163
1412.03204,0.82778
1410.54226,0.74931
1409.05247,0.69271
1407.56268,0.65964
1406.07289,0.59353
1404.58310,0.56583
1403.09331,0.53816
1401.60353,0.48633
1400.11374,0.42032
1398.62395,0.38220
1397.13416,0.34874
1395.64437,0.27871
1394.15458,0.24640
1392.66479,0.20947
1391.17501,0.18813
1389.68522,0.14988
1388.19543,0.13106
1386.70564,0.12605
1385.21585,0.12106
1383.72606,0.07144
1382.23628,0.06391
1380.74649,0.04684
1379.25670,0.03635
1377.76691,0.03026
1376.27712,0.02939
1374.78733,0.00722
1373.29755,0.02418
1371.80776,0.01985
1370.31797,0.01445
1368.82818,0.01167
1367.33839,0.00892
1365.84860,0.01956
1364.35881,0.04280
1362.86903,0.03793
1361.37924,0.05875
1359.88945,0.09436
1358.39966,0.09693
1356.90987,0.13777
1355.42008,0.19012
1353.93030,0.24303
1352.44051,0.27479
1350.95072,0.30658
1349.46093,0.37404
1347.97114,0.42350
1346.48135,0.51478
1344.99156,0.58232
1343.50178,0.66026
1342.01199,0.70681
1340.52220,0.76786
1339.03241,0.83714
1337.54262,0.85453
1336.05283,0.87440
1334.56305,0.89430
1333.07326,0.94400
1331.58347,0.95793
1330.09368,0.96561
1328.60389,0.93424
1327.11410,0.87858
1325.62432,0.84372
1324.13453,0.81379
1322.64474,0.79153
1321.15495,0.75920
1319.66516,0.74901
1318.17537,0.73885
1316.68558,0.68883
1315.19580,0.63091
1313.70601,0.57875
1312.21622,0.54819
1310.72643,0.50373
1309.23664,0.44918
1307.74685,0.44302
1306.25707,0.40737
1304.76728,0.39319
1303.27749,0.37904
1301.78770,0.33062
1300.29791,0.27977
1298.80812,0.23304
1297.31834,0.18716
1295.82855,0.15851
1294.33876,0.13644
1292.84897,0.11850
1291.35918,0.10194
1289.86939,0.10413
1288.37960,0.10633
1286.88982,0.09695
1285.40003,0.07776
1283.91024,0.07772
1282.42045,0.05311
1280.93066,0.04656
1279.44087,0.05588
1277.95109,0.05430
1276.46130,0.03798
1274.97151,0.03972
1273.48172,0.04149
1271.99193,0.03782
1270.50214,0.04646
1269.01235,0.03737
1267.52257,0.03568
1266.03278,0.01762
1264.54299,0.02992
1263.05320,0.03213
1261.56341,0.03149
1260.07362,0.03088
1258.58384,0.02250
1257.09405,0.01060
1255.60426,0.01676
1254.11447,0.02130
1252.62468,0.01602
1251.13489,0.00722
1249.64511,0.01126
1248.15532,0.02981
1246.66553,0.02488
1245.17574,0.01998
1243.68595,0.02493
1242.19616,0.01899
1240.70637,0.00432
1239.21659,0.01276
1237.72680,0.01768
1236.23701,0.02289
1234.74722,0.04616
1233.25743,0.03844
1231.76764,0.03075
1230.27786,0.03770
1228.78807,0.03948
1227.29828,0.02517
1225.80849,0.02645
1224.31870,0.01546
1222.82891,0.02991
1221.33912,0.00722
1219.84934,0.01350
1218.35955,0.01980
1216.86976,0.05030
1215.37997,0.06170
1213.89018,0.07969
1212.40039,0.08567
1210.91061,0.07529
1209.42082,0.08980
1207.93103,0.09026
1206.44124,0.09074
1204.95145,0.06598
1203.46166,0.06091
1201.97188,0.05231
1200.48209,0.07816
1198.99230,0.07371
1197.50251,0.07693
1196.01272,0.06160
1194.52293,0.04398
1193.03314,0.02637
1191.54336,0.01986
1190.05357,0.02484
1188.56378,0.03149
1187.07399,0.02805
1185.58420,0.02027
1184.09441,0.02590
1182.60463,0.03264
1181.11484,0.03941
1179.62505,0.02216
1178.13526,0.02187
1176.64547,0.01669
1175.15568,0.01044
1173.66589,0.00722
1172.17611,0.03083
1170.68632,0.01963
1169.19653,0.00845
1167.70674,0.01437
1166.21695,0.02961
1164.72716,0.03557
1163.23738,0.04676
1161.74759,0.04076
1160.25780,0.05800
1158.76801,0.06953
1157.27822,0.08108
1155.78843,0.08009
1154.29865,0.09197
1152.80886,0.10196
1151.31907,0.10487
1149.82928,0.10452
1148.33949,0.12305
1146.84970,0.12262
1145.35991,0.12221
1143.87013,0.12797
1142.38034,0.17036
1140.89055,0.18710
1139.40076,0.21206
1137.91097,0.18923
1136.42118,0.18801
1134.93140,0.19733
1133.44161,0.20668
1131.95182,0.22220
1130.46203,0.24348
1128.97224,0.24975
1127.48245,0.24185
1125.99266,0.22058
1124.50288,0.23786
1123.01309,0.24368
1121.52330,0.24954
1120.03351,0.24175
1118.54372,0.24629
1117.05393,0.25002
1115.56415,0.25952
1114.07436,0.25867
1112.58457,0.25865
1111.09478,0.25866
1109.60499,0.26935
1108.11520,0.26176
1106.62542,0.22250
1105.13563,0.24064
1103.64584,0.26072
1102.15605,0.26306
1100.66626,0.24903
1099.17647,0.23503
1097.68668,0.23499
1096.19690,0.23032
1094.70711,0.22349
1093.21732,0.22216
1091.72753,0.20964
1090.23774,0.20316
1088.74795,0.19670
1087.25817,0.19574
1085.76838,0.20790
1084.27859,0.21354
1082.78880,0.20281
1081.29901,0.19893
1079.80922,0.22021
1078.31943,0.21844
1076.82965,0.21668
1075.33986,0.22000
1073.85007,0.21980
1072.36028,0.20405
1070.87049,0.24186
1069.38070,0.28599
1067.89092,0.31115
1066.40113,0.33634
1064.91134,0.38327
1063.42155,0.45754
1061.93176,0.52255
1060.44197,0.62037
1058.95219,0.72340
1057.46240,0.77018
1055.97261,0.81698
1054.48282,0.91599
1052.99303,0.98278
1051.50324,0.94360
1050.01345,0.90499
1048.52367,0.93470
1047.03388,0.92646
1045.54409,0.91825
1044.05430,0.86116
1042.56451,0.79672
1041.07472,0.74295
1039.58494,0.68839
1038.09515,0.56938
1036.60536,0.55790
1035.11557,0.54644
1033.62578,0.48897
1032.13599,0.41650
1030.64620,0.35635
1029.15642,0.30032
1027.66663,0.27901
1026.17684,0.25773
1024.68705,0.22526
1023.19726,0.19501
1021.70747,0.18199
1020.21769,0.15698
1018.72790,0.14920
1017.23811,0.14459
1015.74832,0.14000
1014.25853,0.12246
1012.76874,0.10522
1011.27896,0.10712
1009.78917,0.10468
1008.29938,0.08724
1006.80959,0.06804
1005.31980,0.04887
1003.83001,0.04133
1002.34022,0.03737
1000.85044,0.05584
999.36065,0.05056
997.87086,0.05583
996.38107,0.06111
994.89128,0.10262
993.40149,0.09335
991.91171,0.10239
990.42192,0.12622
988.93213,0.14242
987.44234,0.15742
985.95255,0.17243
984.46276,0.16439
982.97297,0.15474
981.48319,0.14374
979.99340,0.10517
978.50361,0.10092
977.01382,0.09668
975.52403,0.07322
974.03424,0.06452
972.54446,0.06706
971.05467,0.04694
969.56488,0.02330
968.07509,0.01525
966.58530,0.00722
965.09551,0.02910
963.60573,0.03325
962.11594,0.02211
960.62615,0.03396
959.13636,0.03216
957.64657,0.03039
956.15678,0.04777
954.66699,0.03731
953.17721,0.04244
951.68742,0.04131
950.19763,0.04048
948.70784,0.03968
947.21805,0.07086
945.72826,0.09032
944.23848,0.11035
942.74869,0.14379
941.25890,0.14775
939.76911,0.15338
938.27932,0.15903
936.78953,0.17426
935.29974,0.17586
933.80996,0.19524
932.32017,0.19607
930.83038,0.20989
929.34059,0.22375
927.85080,0.25142
926.36101,0.30616
924.87123,0.33088
923.38144,0.40506
921.89165,0.45701
920.40186,0.50898
918.91207,0.60346
917.42228,0.73320
915.93250,0.85177
914.44271,1.08975
912.95292,1.19497
911.46313,1.30023
909.97334,1.51942
908.48355,1.70859
906.99376,1.82102
905.50398,1.93047
904.01419,1.96522
902.52440,2.00000
901.03461,1.98986
899.54482,1.93904
898.05503,1.85737
896.56525,1.66536
895.07546,1.55219
893.58567,1.43904
892.09588,1.18181
890.60609,0.92105
889.11630,0.71959
887.62651,0.52554
886.13673,0.44379
884.64694,0.36207
883.15715,0.27518
881.66736,0.20744
880.17757,0.15147
878.68778,0.14374
877.19800,0.13604
875.70821,0.11593
874.21842,0.10514
872.72863,0.07579
871.23884,0.05766
869.74905,0.05199
868.25927,0.04635
866.76948,0.04851
865.27969,0.05343
863.78990,0.05182
862.30011,0.05870
860.81032,0.07230
859.32053,0.08593
857.83075,0.10490
856.34096,0.11434
854.85117,0.12161
853.36138,0.12919
851.87159,0.14266
850.38180,0.15615
848.89202,0.19221
847.40223,0.18540
845.91244,0.22424
844.42265,0.23428
842.93286,0.24435
841.44307,0.24747
839.95329,0.27165
838.46350,0.28930
836.97371,0.29250
835.48392,0.28943
833.99413,0.28639
832.50434,0.29075
831.01455,0.28312
829.52477,0.25747
828.03498,0.23951
826.54519,0.21555
825.05540,0.19162
823.56561,0.19694
822.07582,0.16978
820.58604,0.16423
819.09625,0.16034
817.60646,0.15647
816.11667,0.13597
814.62688,0.13679
813.13709,0.13928
811.64730,0.14261
810.15752,0.14788
808.66773,0.15318
807.17794,0.17161
805.68815,0.17695
804.19836,0.16046
802.70857,0.15916
801.21879,0.15788
799.72900,0.14556
798.23921,0.14884
796.74942,0.14914
795.25963,0.14550
793.76984,0.14188
792.28006,0.12804
790.79027,0.16040
789.30048,0.17175
787.81069,0.21016
786.32090,0.22675
784.83111,0.24336
783.34132,0.27365
781.85154,0.29085
780.36175,0.36081
778.87196,0.35743
777.38217,0.35408
775.89238,0.39761
774.40259,0.39718
772.91281,0.39321
771.42302,0.38272
769.93323,0.37225
768.44344,0.33039
766.95365,0.28937
765.46386,0.26204
763.97407,0.20550
762.48429,0.17985
760.99450,0.15423
759.50471,0.15185
758.01492,0.13830
756.52513,0.10291
755.03534,0.11099
753.54556,0.11909
752.05577,0.09334
750.56598,0.09412
749.07619,0.04410
747.58640,0.05435
746.09661,0.06462
744.60683,0.04828
743.11704,0.03852
741.62725,0.03425
740.13746,0.03041
738.64767,0.02659
737.15788,0.02458
735.66809,0.04281
734.17831,0.02062
732.68852,0.01609
731.19873,0.01158
729.70894,0.00722
728.21915,0.02869
726.72936,0.01575
725.23958,0.01677
723.74979,0.01768
722.26000,0.01861
720.77021,0.03008
719.28042,0.01891
717.79063,0.01404
716.30084,0.01206
714.81106,0.01011
713.32127,0.00722
711.83148,0.02102
710.34169,0.00806
708.85190,0.02614
707.36211,0.04424
705.87233,0.04720
704.38254,0.05101
702.89275,0.05730
701.40296,0.05460
699.91317,0.05192
698.42338,0.04844
696.93360,0.06029
695.44381,0.08719
693.95402,0.09513
692.46423,0.10309
690.97444,0.11777
689.48465,0.12510
687.99486,0.16332
686.50508,0.16687
685.01529,0.17044
683.52550,0.19945
682.03571,0.25006
680.54592,0.27010
679.05613,0.26694
677.56635,0.26381
676.07656,0.25141
674.58677,0.26581
673.09698,0.23952
671.60719,0.23908
670.11740,0.23866
668.62761,0.17967
667.13783,0.16031
665.64804,0.14959
664.15825,0.13888
662.66846,0.12097
661.17867,0.09187
659.68888,0.06389
658.19910,0.05315
656.70931,0.04243
655.21952,0.04021
653.72973,0.05221
652.23994,0.05413
650.75015,0.05936
649.26037,0.06460
647.77058,0.04474
646.28079,0.04949
644.79100,0.04716
643.30121,0.03325
641.81142,0.01936
640.32163,0.02885
638.83185,0.03263
637.34206,0.02523
635.85227,0.01621
634.36248,0.00722
632.87269,0.01794
631.38290,0.02294
629.89312,0.02086
628.40333,0.01935
626.91354,0.01787
625.42375,0.01586
623.93396,0.02508
622.44417,0.03187
620.95438,0.03868
619.46460,0.05316
617.97481,0.05455
616.48502,0.07073
614.99523,0.07517
613.50544,0.07964
612.01565,0.11283
610.52587,0.14849
609.03608,0.19429
607.54629,0.20145
606.05650,0.20864
604.56671,0.25013
603.07692,0.32280
601.58714,0.35451
600.09735,0.38625
598.60756,0.45243
597.11777,0.43832
595.62798,0.43106
594.13819,0.43024
592.64840,0.42945
591.15862,0.40451
589.66883,0.34517
588.17904,0.28885
586.68925,0.25838
585.19946,0.22794
583.70967,0.18672
582.21989,0.17777
580.73010,0.14630
579.24031,0.11486
577.75052,0.08958
576.26073,0.07144
574.77094,0.05796
573.28115,0.05585
571.79137,0.05376
570.30158,0.08680
568.81179,0.09336
567.32200,0.09407
565.83221,0.09481
564.34242,0.13505
562.85264,0.14499
561.36285,0.16397
559.87306,0.16289
558.38327,0.16184
556.89348,0.18061
555.40369,0.18411
553.91391,0.19625
552.42412,0.20840
550.93433,0.23657
549.44454,0.24208
547.95475,0.28122
546.46496,0.27366
544.97517,0.26614
543.48539,0.29223
541.99560,0.30497
540.50581,0.31513
539.01602,0.32532
537.52623,0.38184
536.03644,0.45997
534.54666,0.49878
533.05687,0.52559
531.56708,0.55243
530.07729,0.57246
528.58750,0.61601
527.09771,0.63732
525.60792,0.65866
524.11814,0.70255
522.62835,0.72680
521.13856,0.81391
519.64877,0.82210
518.15898,0.83030
516.66919,0.84263
515.17941,0.85443
513.68962,0.86394
512.19983,0.87347
510.71004,0.86568
509.22025,0.80409
507.73046,0.75564
506.24068,0.68905
504.75089,0.62248
503.26110,0.49324
501.77131,0.39735
500.28152,0.35039
498.79173,0.30345
497.30194,0.25244
495.81216,0.18233
494.32237,0.16196
492.83258,0.14162
491.34279,0.10409
489.85300,0.09199
488.36321,0.09358
486.87343,0.09383
485.38364,0.09409
483.89385,0.08401
482.40406,0.12011
480.91427,0.12551
479.42448,0.13093
477.93469,0.13268
476.44491,0.16451
474.95512,0.16891
473.46533,0.17333
471.97554,0.19212
470.48575,0.20274
468.99596,0.18361
467.50618,0.18198
466.01639,0.18038
464.52660,0.13099
463.03681,0.11878
461.54702,0.09936
460.05723,0.07996
458.56745,0.05826
457.07766,0.05872
455.58787,0.04718
454.09808,0.03566
452.60829,0.02089
451.11850,0.01516
449.62871,0.01409
448.13893,0.01305
446.64914,0.02788
445.15935,0.00722
443.66956,0.03350
442.17977,0.02634
440.68998,0.01921
439.20020,0.02179
437.71041,0.03697
436.22062,0.03946
434.73083,0.04199
433.24104,0.03784
431.75125,0.04983
430.26146,0.05898
428.77168,0.06816
427.28189,0.03979
425.79210,0.04123
424.30231,0.04351
422.81252,0.04582
421.32273,0.03011
419.83295,0.02728
418.34316,0.03375
416.85337,0.04025
415.36358,0.02519
413.87379,0.01562
412.38400,0.03258
410.89422,0.04955
409.40443,0.03896
407.91464,0.05271
406.42485,0.02632
404.93506,0.01676
403.44527,0.00722
401.95548,0.02801
400.46570,0.02532
398.97591,0.03672
397.48612,0.04815
395.99633,0.03325
394.50654,0.03202
393.01675,0.03533
391.52697,0.03866
390.03718,0.03833
388.54739,0.02354
387.05760,0.02024
385.56781,0.01697
384.07802,0.02178
382.58824,0.00722
381.09845,0.01326
379.60866,0.01932
378.11887,0.04357
376.62908,0.03451
375.13929,0.02739
373.64950,0.02029
372.15972,0.03890
370.66993,0.02858
369.18014,0.02084
367.69035,0.01314
366.20056,0.04725
364.71077,0.05434
363.22099,0.04042
361.73120,0.02652
360.24141,0.06292
358.75162,0.09060
357.26183,0.06585
355.77204,0.04112
354.28225,0.05466
352.79247,0.09692
351.30268,0.09330
349.81289,0.08970
348.32310,0.05936
346.83331,0.05882
345.34352,0.05666
343.85374,0.05453
342.36395,0.03794
340.87416,0.04761
339.38437,0.03981
337.89458,0.03204
336.40479,0.03959
334.91501,0.04771
333.42522,0.03865
331.93543,0.02961
330.44564,0.03070
328.95585,0.00722
327.46606,0.02272
325.97627,0.03824
324.48649,0.03984
322.99670,0.06057
321.50691,0.04746
320.01712,0.03437
318.52733,0.06966
317.03754,0.06182
315.54776,0.06915
314.05797,0.07651
312.56818,0.05453
311.07839,0.10224
309.58860,0.08249
308.09881,0.06276
306.60902,0.05645
305.11924,0.05262
303.62945,0.03556
302.13966,0.01853
300.64987,0.00722
299.16008,0.00722
