1778.52000,0.00789
1777.03021,0.01025
1775.54042,0.01242
1774.05063,0.00874
1772.56085,0.00704
1771.07106,0.00841
1769.58127,0.01154
1768.09148,0.00817
1766.60169,0.00504
1765.11190,0.00934
1763.62212,0.01104
1762.13233,0.01473
1760.64254,0.00539
1759.15275,0.00477
1757.66296,0.01202
1756.17317,0.00666
1754.68339,0.00285
1753.19360,0.00778
1751.70381,0.00184
1750.21402,0.00485
1748.72423,0.00462
1747.23444,0.00376
1745.74465,0.00858
1744.25487,0.00843
1742.76508,0.00960
1741.27529,0.00753
1739.78550,0.01136
1738.29571,0.00390
1736.80592,0.00593
1735.31614,0.00560
1733.82635,0.01465
1732.33656,0.00000
1730.84677,0.00518
1729.35698,0.00189
1727.86719,0.00451
1726.37740,0.00367
1724.88762,0.00524
1723.39783,0.01076
1721.90804,0.00759
1720.41825,0.00772
1718.92846,0.00373
1717.43867,0.00651
1715.94889,0.00453
1714.45910,0.00605
1712.96931,0.00477
1711.47952,0.00647
1709.98973,0.00797
1708.49994,0.00079
1707.01016,0.00368
1705.52037,0.00659
1704.03058,0.00735
1702.54079,0.00858
1701.05100,0.01417
1699.56121,0.01588
1698.07142,0.00912
1696.58164,0.00477
1695.09185,0.00900
1693.60206,0.01587
1692.11227,0.00839
1690.62248,0.01160
1689.13269,0.01223
1687.64291,0.01027
1686.15312,0.02291
1684.66333,0.02034
1683.17354,0.02237
1681.68375,0.02159
1680.19396,0.02192
1678.70417,0.02903
1677.21439,0.01548
1675.72460,0.02568
1674.23481,0.03329
1672.74502,0.03744
1671.25523,0.03139
1669.76544,0.04016
1668.27566,0.04678
1666.78587,0.04994
1665.29608,0.05530
1663.80629,0.06699
1662.31650,0.06152
1660.82671,0.06804
1659.33693,0.07458
1657.84714,0.08355
1656.35735,0.07773
1654.86756,0.07804
1653.37777,0.06531
1651.88798,0.06740
1650.39819,0.07583
1648.90841,0.07623
1647.41862,0.07709
1645.92883,0.07232
1644.43904,0.06757
1642.94925,0.08634
1641.45946,0.08534
1639.96968,0.07239
1638.47989,0.09080
1636.99010,0.08160
1635.50031,0.07895
1634.01052,0.07785
1632.52073,0.07808
1631.03094,0.07507
1629.54116,0.07818
1628.05137,0.07804
1626.56158,0.08794
1625.07179,0.08524
1623.58200,0.08540
1622.09221,0.09123
1620.60243,0.08599
1619.11264,0.09384
1617.62285,0.09801
1616.13306,0.08152
1614.64327,0.08117
1613.15348,0.08236
1611.66370,0.08641
1610.17391,0.08112
1608.68412,0.08826
1607.19433,0.08389
1605.70454,0.08476
1604.21475,0.08197
1602.72496,0.07919
1601.23518,0.08601
1599.74539,0.08351
1598.25560,0.08820
1596.76581,0.07943
1595.27602,0.08091
1593.78623,0.07654
1592.29645,0.07806
1590.80666,0.07352
1589.31687,0.07510
1587.82708,0.07822
1586.33729,0.07353
1584.84750,0.07540
1583.35771,0.07511
1581.86793,0.07136
1580.37814,0.07787
1578.88835,0.06677
1577.39856,0.06658
1575.90877,0.05814
1574.41898,0.05038
1572.92920,0.04743
1571.43941,0.03624
1569.94962,0.03747
1568.45983,0.03873
1566.97004,0.03457
1565.48025,0.03675
1563.99047,0.03938
1562.50068,0.03986
1561.01089,0.02731
1559.52110,0.02393
1558.03131,0.02840
1556.54152,0.03746
1555.05173,0.02914
1553.56195,0.02781
1552.07216,0.03086
1550.58237,0.02152
1549.09258,0.00416
1547.60279,0.00510
1546.11300,0.01368
1544.62322,0.00748
1543.13343,0.00283
1541.64364,0.00868
1540.15385,0.00672
1538.66406,0.00477
1537.17427,0.00983
1535.68448,0.01752
1534.19470,0.01305
1532.70491,0.01557
1531.21512,0.01006
1529.72533,0.02024
1528.23554,0.01608
1526.74575,0.02501
1525.25597,0.03091
1523.76618,0.02508
1522.27639,0.02646
1520.78660,0.03069
1519.29681,0.02603
1517.80702,0.03727
1516.31724,0.04484
1514.82745,0.05265
1513.33766,0.05286
1511.84787,0.05310
1510.35808,0.04031
1508.86829,0.05235
1507.37850,0.04461
1505.88872,0.06040
1504.39893,0.04792
1502.90914,0.05418
1501.41935,0.07047
1499.92956,0.07700
1498.43977,0.07289
1496.94999,0.07554
1495.46020,0.08170
1493.97041,0.09572
1492.48062,0.10542
1490.99083,0.12188
1489.50104,0.12291
1488.01125,0.12930
1486.52147,0.13572
1485.03168,0.17317
1483.54189,0.21761
1482.05210,0.21484
1480.56231,0.23604
1479.07252,0.24747
1477.58274,0.25915
1476.09295,0.27041
1474.60316,0.26972
1473.11337,0.26297
1471.62358,0.27583
1470.13379,0.28522
1468.64401,0.29334
1467.15422,0.33499
1465.66443,0.33434
1464.17464,0.33372
1462.68485,0.35434
1461.19506,0.40566
1459.70527,0.45048
1458.21549,0.52362
1456.72570,0.60331
1455.23591,0.64472
1453.74612,0.67288
1452.25633,0.72348
1450.76654,0.72100
1449.27676,0.75184
1447.78697,0.72656
1446.29718,0.71284
1444.80739,0.69892
1443.31760,0.68503
1441.82781,0.63068
1440.33802,0.59508
1438.84824,0.56667
1437.35845,0.54483
1435.86866,0.53192
1434.37887,0.53515
1432.88908,0.55167
1431.39929,0.60914
1429.90951,0.68752
1428.41972,0.76309
1426.92993,0.83455
1425.44014,0.86795
1423.95035,0.89637
1422.46056,0.92482
1420.97078,0.98005
1419.48099,0.97460
1417.99120,0.94805
1416.50141,0.96397
1415.01162,0.92616
1413.52183,0.84855
1412.03204,0.79598
1410.54226,0.73801
1409.05247,0.69028
1407.56268,0.64410
1406.07289,0.59446
1404.58310,0.56520
1403.09331,0.53595
1401.60353,0.47964
1400.11374,0.42314
1398.62395,0.37471
1397.13416,0.32086
1395.64437,0.28184
1394.15458,0.23261
1392.66479,0.18253
1391.17501,0.16774
1389.68522,0.14013
1388.19543,0.10666
1386.70564,0.09292
1385.21585,0.07920
1383.72606,0.05843
1382.23628,0.04747
1380.74649,0.03481
1379.25670,0.02259
1377.76691,0.01737
1376.27712,0.00477
1374.78733,0.00797
1373.29755,0.00553
1371.80776,0.00744
1370.31797,0.00916
1368.82818,0.00992
1367.33839,0.01071
1365.84860,0.01859
1364.35881,0.01649
1362.86903,0.03051
1361.37924,0.05153
1359.88945,0.06016
1358.39966,0.08971
1356.90987,0.12145
1355.42008,0.17717
1353.93030,0.22594
1352.44051,0.25819
1350.95072,0.29047
1349.46093,0.34454
1347.97114,0.42931
1346.48135,0.48647
1344.99156,0.59589
1343.50178,0.64047
1342.01199,0.70663
1340.52220,0.75605
1339.03241,0.80920
1337.54262,0.85279
1336.05283,0.86757
1334.56305,0.88238
1333.07326,0.90798
1331.58347,0.90118
1330.09368,0.90877
1328.60389,0.90942
1327.11410,0.88593
1325.62432,0.85333
1324.13453,0.84338
1322.64474,0.80234
1321.15495,0.76220
1319.66516,0.74166
1318.17537,0.72115
1316.68558,0.68543
1315.19580,0.62644
1313.70601,0.57358
1312.21622,0.54271
1310.72643,0.51296
1309.23664,0.45451
1307.74685,0.42720
1306.25707,0.42581
1304.76728,0.40606
1303.27749,0.38633
1301.78770,0.33409
1300.29791,0.30821
1298.80812,0.24274
1297.31834,0.20232
1295.82855,0.16128
1294.33876,0.14746
1292.84897,0.13127
1291.35918,0.11293
1289.86939,0.11257
1288.37960,0.11223
1286.88982,0.09657
1285.40003,0.08965
1283.91024,0.05837
1282.42045,0.06411
1280.93066,0.06443
1279.44087,0.05216
1277.95109,0.06037
1276.46130,0.05489
1274.97151,0.05792
1273.48172,0.06098
1271.99193,0.04600
1270.50214,0.04366
1269.01235,0.04722
1267.52257,0.03275
1266.03278,0.02657
1264.54299,0.01997
1263.05320,0.03604
1261.56341,0.03145
1260.07362,0.02689
1258.58384,0.01582
1257.09405,0.00477
1255.60426,0.01905
1254.11447,0.00963
1252.62468,0.01329
1251.13489,0.00870
1249.64511,0.00610
1248.15532,0.02127
1246.66553,0.01611
1245.17574,0.01098
1243.68595,0.00815
1242.19616,0.01993
1240.70637,0.02565
1239.21659,0.01158
1237.72680,0.01951
1236.23701,0.02943
1234.74722,0.04525
1233.25743,0.02953
1231.76764,0.01384
1230.27786,0.02038
1228.78807,0.02693
1227.29828,0.03721
1225.80849,0.01639
1224.31870,0.00561
1222.82891,0.00747
1221.33912,0.02568
1219.84934,0.02749
1218.35955,0.02931
1216.86976,0.03149
1215.37997,0.04675
1213.89018,0.05986
1212.40039,0.07777
1210.91061,0.07373
1209.42082,0.08082
1207.93103,0.07781
1206.44124,0.07482
1204.95145,0.07762
1203.46166,0.06935
1201.97188,0.06938
1200.48209,0.07508
1198.99230,0.07232
1197.50251,0.06262
1196.01272,0.04381
1194.52293,0.03720
1193.03314,0.03062
1191.54336,0.03038
1190.05357,0.03016
1188.56378,0.02060
1187.07399,0.02021
1185.58420,0.02724
1184.09441,0.02755
1182.60463,0.02234
1181.11484,0.01714
1179.62505,0.01078
1178.13526,0.02032
1176.64547,0.01684
1175.15568,0.01968
1173.66589,0.01167
1172.17611,0.00477
1170.68632,0.00529
1169.19653,0.00583
1167.70674,0.01966
1166.21695,0.01916
1164.72716,0.02739
1163.23738,0.03934
1161.74759,0.04653
1160.25780,0.05330
1158.76801,0.06239
1157.27822,0.07150
1155.78843,0.08248
1154.29865,0.09370
1152.80886,0.10081
1151.31907,0.12623
1149.82928,0.12926
1148.33949,0.13818
1146.84970,0.13495
1145.35991,0.13173
1143.87013,0.13681
1142.38034,0.16477
1140.89055,0.18622
1139.40076,0.17418
1137.91097,0.18283
1136.42118,0.19065
1134.93140,0.19685
1133.44161,0.20308
1131.95182,0.22380
1130.46203,0.23084
1128.97224,0.24921
1127.48245,0.23323
1125.99266,0.24556
1124.50288,0.23550
1123.01309,0.23526
1121.52330,0.23504
1120.03351,0.23441
1118.54372,0.24185
1117.05393,0.23844
1115.56415,0.23636
1114.07436,0.24845
1112.58457,0.24391
1111.09478,0.23940
1109.60499,0.23371
1108.11520,0.22457
1106.62542,0.22894
1105.13563,0.23377
1103.64584,0.23210
1102.15605,0.23763
1100.66626,0.23720
1099.17647,0.23680
1097.68668,0.21063
1096.19690,0.20864
1094.70711,0.21408
1093.21732,0.20582
1091.72753,0.19825
1090.23774,0.19429
1088.74795,0.19035
1087.25817,0.19504
1085.76838,0.18603
1084.27859,0.19251
1082.78880,0.18834
1081.29901,0.21031
1079.80922,0.20946
1078.31943,0.21385
1076.82965,0.21826
1075.33986,0.22053
1073.85007,0.20258
1072.36028,0.23057
1070.87049,0.23834
1069.38070,0.28727
1067.89092,0.30979
1066.40113,0.33233
1064.91134,0.39678
1063.42155,0.47192
1061.93176,0.56210
1060.44197,0.66580
1058.95219,0.75299
1057.46240,0.80733
1055.97261,0.86170
1054.48282,0.97834
1052.99303,1.08564
1051.50324,1.03823
1050.01345,1.04830
1048.52367,1.02706
1047.03388,1.01639
1045.54409,1.00575
1044.05430,0.93931
1042.56451,0.87485
1041.07472,0.80737
1039.58494,0.71141
1038.09515,0.63919
1036.60536,0.61128
1035.11557,0.58340
1033.62578,0.50864
1032.13599,0.43848
1030.64620,0.37661
1029.15642,0.31672
1027.66663,0.29777
1026.17684,0.27884
1024.68705,0.24492
1023.19726,0.22256
1021.70747,0.18913
1020.21769,0.15615
1018.72790,0.14169
1017.23811,0.14511
1015.74832,0.14855
1014.25853,0.12437
1012.76874,0.11262
1011.27896,0.10177
1009.78917,0.07897
1008.29938,0.06621
1006.80959,0.05913
1005.31980,0.05207
1003.83001,0.04003
1002.34022,0.03737
1000.85044,0.04540
999.36065,0.04845
997.87086,0.05686
996.38107,0.06529
994.89128,0.08625
993.40149,0.09549
991.91171,0.10976
990.42192,0.13101
988.93213,0.15512
987.44234,0.15673
985.95255,0.15836
984.46276,0.16600
982.97297,0.14995
981.48319,0.14436
979.99340,0.11029
978.50361,0.09659
977.01382,0.08291
975.52403,0.06959
974.03424,0.05346
972.54446,0.03191
971.05467,0.03150
969.56488,0.00477
968.07509,0.00992
966.58530,0.01509
965.09551,0.00527
963.60573,0.00396
962.11594,0.00470
960.62615,0.00873
959.13636,0.01148
957.64657,0.01425
956.15678,0.01661
954.66699,0.02792
953.17721,0.03794
951.68742,0.03472
950.19763,0.03837
948.70784,0.04205
947.21805,0.05304
945.72826,0.05165
944.23848,0.09142
942.74869,0.10749
941.25890,0.10835
939.76911,0.11086
938.27932,0.11340
936.78953,0.12652
935.29974,0.15185
933.80996,0.17307
932.32017,0.19366
930.83038,0.19479
929.34059,0.19595
927.85080,0.22510
926.36101,0.26602
924.87123,0.27019
923.38144,0.32814
921.89165,0.35804
920.40186,0.38796
918.91207,0.48493
917.42228,0.62436
915.93250,0.75076
914.44271,0.99057
912.95292,1.10190
911.46313,1.21324
909.97334,1.45965
908.48355,1.67300
906.99376,1.81108
905.50398,1.96420
904.01419,1.98209
902.52440,2.00000
901.03461,1.99367
899.54482,1.93622
898.05503,1.83092
896.56525,1.66928
895.07546,1.54281
893.58567,1.41636
892.09588,1.16339
890.60609,0.89717
889.11630,0.68537
887.62651,0.50537
886.13673,0.42834
884.64694,0.35133
883.15715,0.25671
881.66736,0.19607
880.17757,0.14176
878.68778,0.12676
877.19800,0.11178
875.70821,0.07605
874.21842,0.04425
872.72863,0.03228
871.23884,0.03165
869.74905,0.02583
868.25927,0.02003
866.76948,0.02208
865.27969,0.01546
863.78990,0.03366
862.30011,0.03666
860.81032,0.04404
859.32053,0.05143
857.83075,0.08671
856.34096,0.08175
854.85117,0.10250
853.36138,0.11674
851.87159,0.12818
850.38180,0.13963
848.89202,0.15656
847.40223,0.17895
845.91244,0.20223
844.42265,0.20584
842.93286,0.20948
841.44307,0.21847
839.95329,0.23532
838.46350,0.27439
836.97371,0.27692
835.48392,0.26849
833.99413,0.26008
832.50434,0.28489
831.01455,0.27316
829.52477,0.23729
828.03498,0.22343
826.54519,0.21318
825.05540,0.20296
823.56561,0.18416
822.07582,0.17040
820.58604,0.15165
819.09625,0.14109
817.60646,0.13055
816.11667,0.14691
814.62688,0.12978
813.13709,0.13466
811.64730,0.14108
810.15752,0.14601
808.66773,0.15095
807.17794,0.15462
805.68815,0.15526
804.19836,0.15114
802.70857,0.15216
801.21879,0.15320
799.72900,0.16308
798.23921,0.15035
796.74942,0.13503
795.25963,0.12855
793.76984,0.12209
792.28006,0.14297
790.79027,0.16910
789.30048,0.16848
787.81069,0.21555
786.32090,0.22978
784.83111,0.24403
783.34132,0.29313
781.85154,0.31701
780.36175,0.37355
778.87196,0.38932
777.38217,0.40510
775.89238,0.43038
774.40259,0.43958
772.91281,0.40745
771.42302,0.39483
769.93323,0.38222
768.44344,0.34560
766.95365,0.30878
765.46386,0.26415
763.97407,0.21650
762.48429,0.19651
760.99450,0.17654
759.50471,0.15551
758.01492,0.14234
756.52513,0.11635
755.03534,0.10899
753.54556,0.10166
752.05577,0.09119
750.56598,0.06378
749.07619,0.04683
747.58640,0.04776
746.09661,0.04870
744.60683,0.03466
743.11704,0.02651
741.62725,0.03276
740.13746,0.02085
738.64767,0.00897
737.15788,0.01485
735.66809,0.01770
734.17831,0.01079
732.68852,0.01032
731.19873,0.00987
729.70894,0.00477
728.21915,0.01092
726.72936,0.00555
725.23958,0.01117
723.74979,0.01137
722.26000,0.01160
720.77021,0.01141
719.28042,0.02061
717.79063,0.00763
716.30084,0.00567
714.81106,0.00373
713.32127,0.01237
711.83148,0.00231
710.34169,0.02251
708.85190,0.02924
707.36211,0.03599
705.87233,0.03884
704.38254,0.04216
702.89275,0.05268
701.40296,0.05050
699.91317,0.04833
698.42338,0.04565
696.93360,0.08173
695.44381,0.09738
693.95402,0.10946
692.46423,0.12156
690.97444,0.11987
689.48465,0.14345
687.99486,0.17271
686.50508,0.19329
685.01529,0.21389
683.52550,0.22733
682.03571,0.24885
680.54592,0.26626
679.05613,0.26237
677.56635,0.25850
676.07656,0.26684
674.58677,0.26911
673.09698,0.24964
671.60719,0.22258
670.11740,0.19555
668.62761,0.17354
667.13783,0.16178
665.64804,0.14516
664.15825,0.12855
662.66846,0.11078
661.17867,0.07888
659.68888,0.06746
658.19910,0.05890
656.70931,0.05036
655.21952,0.04772
653.72973,0.04140
652.23994,0.03815
650.75015,0.04386
649.26037,0.04958
647.77058,0.04750
646.28079,0.05066
644.79100,0.03447
643.30121,0.03039
641.81142,0.02633
640.32163,0.03394
638.83185,0.03374
637.34206,0.00963
635.85227,0.00719
634.36248,0.00477
632.87269,0.01585
631.38290,0.00541
629.89312,0.00871
628.40333,0.00680
626.91354,0.00492
625.42375,0.00676
623.93396,0.01276
622.44417,0.01487
620.95438,0.01700
619.46460,0.04027
617.97481,0.04440
616.48502,0.06663
614.99523,0.07549
613.50544,0.08438
612.01565,0.10885
610.52587,0.15446
609.03608,0.19726
607.54629,0.21364
606.05650,0.23005
604.56671,0.25421
603.07692,0.31778
601.58714,0.34481
600.09735,0.37187
598.60756,0.41114
597.11777,0.43019
595.62798,0.41010
594.13819,0.40221
592.64840,0.39435
591.15862,0.38369
589.66883,0.32169
588.17904,0.27429
586.68925,0.24324
585.19946,0.21222
583.70967,0.15858
582.21989,0.13827
580.73010,0.10611
579.24031,0.07399
577.75052,0.08138
576.26073,0.05507
574.77094,0.04184
573.28115,0.04201
571.79137,0.04222
570.30158,0.04842
568.81179,0.08208
567.32200,0.08474
565.83221,0.08743
564.34242,0.10854
562.85264,0.13010
561.36285,0.13798
559.87306,0.15034
558.38327,0.16272
556.89348,0.14369
555.40369,0.17603
553.91391,0.18022
552.42412,0.18443
550.93433,0.20227
549.44454,0.20294
547.95475,0.20820
546.46496,0.20957
544.97517,0.21096
543.48539,0.24219
541.99560,0.24777
540.50581,0.27208
539.01602,0.29642
537.52623,0.35104
536.03644,0.38522
534.54666,0.42834
533.05687,0.44038
531.56708,0.45243
530.07729,0.51260
528.58750,0.56040
527.09771,0.58841
525.60792,0.61645
524.11814,0.67476
522.62835,0.71307
521.13856,0.79602
519.64877,0.80892
518.15898,0.82184
516.66919,0.84567
515.17941,0.85603
513.68962,0.87827
512.19983,0.90054
510.71004,0.89117
509.22025,0.82545
507.73046,0.74975
506.24068,0.69812
504.75089,0.64652
503.26110,0.52214
501.77131,0.40344
500.28152,0.35289
498.79173,0.30236
497.30194,0.25185
495.81216,0.18244
494.32237,0.15559
492.83258,0.12877
491.34279,0.10883
489.85300,0.09326
488.36321,0.09404
486.87343,0.09767
485.38364,0.10133
483.89385,0.08934
482.40406,0.10196
480.91427,0.10809
479.42448,0.11423
477.93469,0.14064
476.44491,0.17143
474.95512,0.18374
473.46533,0.19607
471.97554,0.20800
470.48575,0.19774
468.99596,0.21320
467.50618,0.20278
466.01639,0.19238
464.52660,0.16286
463.03681,0.11682
461.54702,0.11074
460.05723,0.10468
458.56745,0.06568
457.07766,0.05760
455.58787,0.04563
454.09808,0.03369
452.60829,0.02220
451.11850,0.00682
449.62871,0.01062
448.13893,0.01444
446.64914,0.02655
445.15935,0.01823
443.66956,0.02473
442.17977,0.03006
440.68998,0.03541
439.20020,0.04003
437.71041,0.03901
436.22062,0.03823
434.73083,0.03748
433.24104,0.04676
431.75125,0.06064
430.26146,0.06115
428.77168,0.06169
427.28189,0.05061
425.79210,0.05196
424.30231,0.04387
422.81252,0.03580
421.32273,0.03113
419.83295,0.04606
418.34316,0.04546
416.85337,0.04489
415.36358,0.03204
413.87379,0.02227
412.38400,0.02546
410.89422,0.02868
409.40443,0.03682
407.91464,0.04434
406.42485,0.04534
404.93506,0.02505
403.44527,0.00477
401.95548,0.04286
400.46570,0.03940
398.97591,0.04021
397.48612,0.04104
395.99633,0.02656
394.50654,0.03343
393.01675,0.02748
391.52697,0.02155
390.03718,0.01456
388.54739,0.01599
387.05760,0.01364
385.56781,0.01132
384.07802,0.00673
382.58824,0.02429
381.09845,0.02523
379.60866,0.02619
378.11887,0.02380
376.62908,0.01838
375.13929,0.01028
373.64950,0.00219
372.15972,0.01630
370.66993,0.01846
369.18014,0.02206
367.69035,0.02568
366.20056,0.03281
364.71077,0.02713
363.22099,0.02223
361.73120,0.01735
360.24141,0.02088
358.75162,0.04097
357.26183,0.04432
355.77204,0.04770
354.28225,0.04589
352.79247,0.06520
351.30268,0.05636
349.81289,0.04754
348.32310,0.05125
346.83331,0.04194
345.34352,0.04113
343.85374,0.04035
342.36395,0.04243
340.87416,0.04626
339.38437,0.04251
337.89458,0.03878
336.40479,0.04486
334.91501,0.04466
333.42522,0.03861
331.93543,0.03258
330.44564,0.00503
328.95585,0.01450
327.46606,0.01496
325.97627,0.01545
324.48649,0.02620
322.99670,0.05787
321.50691,0.05311
320.01712,0.04838
318.52733,0.03986
317.03754,0.06423
315.54776,0.04510
314.05797,0.02599
312.56818,0.04825
311.07839,0.07206
309.58860,0.06586
308.09881,0.05969
306.60902,0.05115
305.11924,0.03675
303.62945,0.02118
302.13966,0.00564
300.64987,0.01368
299.16008,0.00477
