1778.52000,0.01939
1777.03021,0.00948
1775.54042,0.00809
1774.05063,0.02010
1772.56085,0.00000
1771.07106,0.01206
1769.58127,0.00228
1768.09148,0.01438
1766.60169,0.02116
1765.11190,0.01591
1763.62212,0.01559
1762.13233,0.02913
1760.64254,0.00788
1759.15275,0.01120
1757.66296,0.01097
1756.17317,0.00452
1754.68339,0.01282
1753.19360,0.01356
1751.70381,0.01477
1750.21402,0.02046
1748.72423,0.00788
1747.23444,0.02532
1745.74465,0.02493
1744.25487,0.02367
1742.76508,0.01351
1741.27529,0.02971
1739.78550,0.02718
1738.29571,0.01486
1736.80592,0.02621
1735.31614,0.01527
1733.82635,0.00168
1732.33656,0.01656
1730.84677,0.01628
1729.35698,0.01871
1727.86719,0.02071
1726.37740,0.01203
1724.88762,0.02256
1723.39783,0.02195
1721.90804,0.01870
1720.41825,0.01903
1718.92846,0.01091
1717.43867,0.01307
1715.94889,0.01705
1714.45910,0.02641
1712.96931,0.00900
1711.47952,0.00144
1709.98973,0.00998
1708.49994,0.01496
1707.01016,0.01796
1705.52037,0.02099
1704.03058,0.01489
1702.54079,0.01014
1701.05100,0.02462
1699.56121,0.02841
1698.07142,0.01883
1696.58164,0.01820
1695.09185,0.01982
1693.60206,0.02013
1692.11227,0.02181
1690.62248,0.00788
1689.13269,0.03144
1687.64291,0.03539
1686.15312,0.02463
1684.66333,0.03354
1683.17354,0.02104
1681.68375,0.03848
1680.19396,0.02692
1678.70417,0.04485
1677.21439,0.04137
1675.72460,0.03390
1674.23481,0.05725
1672.74502,0.03599
1671.25523,0.06475
1669.76544,0.05871
1668.27566,0.07502
1666.78587,0.06456
1665.29608,0.07556
1663.80629,0.07229
1662.31650,0.09182
1660.82671,0.07744
1659.33693,0.07156
1657.84714,0.10009
1656.35735,0.08355
1654.86756,0.10363
1653.37777,0.08937
1651.88798,0.08897
1650.39819,0.09484
1648.90841,0.09672
1647.41862,0.08523
1645.92883,0.09586
1644.43904,0.10652
1642.94925,0.09733
1641.45946,0.11182
1639.96968,0.10402
1638.47989,0.12303
1636.99010,0.11081
1635.50031,0.10442
1634.01052,0.09314
1632.52073,0.09483
1631.03094,0.09431
1629.54116,0.12149
1628.05137,0.10763
1626.56158,0.11075
1625.07179,0.10675
1623.58200,0.11483
1622.09221,0.10686
1620.60243,0.11990
1619.11264,0.10752
1617.62285,0.10274
1616.13306,0.11853
1614.64327,0.09461
1613.15348,0.10821
1611.66370,0.11603
1610.17391,0.12343
1608.68412,0.11612
1607.19433,0.10928
1605.70454,0.11898
1604.21475,0.11575
1602.72496,0.11255
1601.23518,0.10983
1599.74539,0.10042
1598.25560,0.10533
1596.76581,0.12276
1595.27602,0.11030
1593.78623,0.11126
1592.29645,0.10331
1590.80666,0.11012
1589.31687,0.09285
1587.82708,0.09613
1586.33729,0.10792
1584.84750,0.08804
1583.35771,0.09765
1581.86793,0.08495
1580.37814,0.09237
1578.88835,0.08866
1577.39856,0.09701
1575.90877,0.09334
1574.41898,0.07809
1572.92920,0.08473
1571.43941,0.08470
1569.94962,0.07175
1568.45983,0.05882
1566.97004,0.07315
1565.48025,0.05536
1563.99047,0.05544
1562.50068,0.04395
1561.01089,0.04364
1559.52110,0.04960
1558.03131,0.04576
1556.54152,0.04061
1555.05173,0.04664
1553.56195,0.03662
1552.07216,0.02886
1550.58237,0.01890
1549.09258,0.04645
1547.60279,0.03295
1546.11300,0.00788
1544.62322,0.03101
1543.13343,0.01935
1541.64364,0.01531
1540.15385,0.02735
1538.66406,0.03942
1537.17427,0.04035
1535.68448,0.01855
1534.19470,0.01372
1532.70491,0.00892
1531.21512,0.02870
1529.72533,0.02484
1528.23554,0.03350
1526.74575,0.03772
1525.25597,0.04420
1523.76618,0.05204
1522.27639,0.02508
1520.78660,0.05886
1519.29681,0.05829
1517.80702,0.07872
1516.31724,0.06168
1514.82745,0.05136
1513.33766,0.05981
1511.84787,0.06828
1510.35808,0.07053
1508.86829,0.06699
1507.37850,0.05724
1505.88872,0.05866
1504.39893,0.07528
1502.90914,0.07274
1501.41935,0.09834
1499.92956,0.09048
1498.43977,0.09515
1496.94999,0.06770
1495.46020,0.08402
1493.97041,0.10839
1492.48062,0.13056
1490.99083,0.13668
1489.50104,0.13792
1488.01125,0.14476
1486.52147,0.15162
1485.03168,0.18060
1483.54189,0.22523
1482.05210,0.20873
1480.56231,0.22573
1479.07252,0.23472
1477.58274,0.26739
1476.09295,0.27954
1474.60316,0.27967
1473.11337,0.27760
1471.62358,0.26126
1470.13379,0.29761
1468.64401,0.28712
1467.15422,0.33558
1465.66443,0.34233
1464.17464,0.34909
1462.68485,0.38244
1461.19506,0.41805
1459.70527,0.47600
1458.21549,0.52593
1456.72570,0.60357
1455.23591,0.62632
1453.74612,0.71383
1452.25633,0.73975
1450.76654,0.74784
1449.27676,0.80685
1447.78697,0.77392
1446.29718,0.70575
1444.80739,0.71148
1443.31760,0.71724
1441.82781,0.66253
1440.33802,0.61142
1438.84824,0.59961
1437.35845,0.56372
1435.86866,0.53991
1434.37887,0.54826
1432.88908,0.58610
1431.39929,0.62529
1429.90951,0.71362
1428.41972,0.78813
1426.92993,0.84213
1425.44014,0.90686
1423.95035,0.94127
1422.46056,0.97569
1420.97078,1.00033
1419.48099,0.98882
1417.99120,0.99207
1416.50141,0.96723
1415.01162,0.94419
1413.52183,0.84752
1412.03204,0.81649
1410.54226,0.76093
1409.05247,0.70987
1407.56268,0.70212
1406.07289,0.63949
1404.58310,0.60345
1403.09331,0.56743
1401.60353,0.49371
1400.11374,0.41868
1398.62395,0.37358
1397.13416,0.33341
1395.64437,0.26872
1394.15458,0.25493
1392.66479,0.19966
1391.17501,0.19172
1389.68522,0.14275
1388.19543,0.14111
1386.70564,0.12365
1385.21585,0.10621
1383.72606,0.09393
1382.23628,0.05578
1380.74649,0.04221
1379.25670,0.01705
1377.76691,0.03522
1376.27712,0.00788
1374.78733,0.02311
1373.29755,0.02721
1371.80776,0.01660
1370.31797,0.01584
1368.82818,0.01599
1367.33839,0.01617
1365.84860,0.03154
1364.35881,0.03400
1362.86903,0.04005
1361.37924,0.06174
1359.88945,0.08927
1358.39966,0.10030
1356.90987,0.14081
1355.42008,0.17421
1353.93030,0.25807
1352.44051,0.29329
1350.95072,0.32855
1349.46093,0.39909
1347.97114,0.46295
1346.48135,0.55452
1344.99156,0.64031
1343.50178,0.69219
1342.01199,0.71642
1340.52220,0.78666
1339.03241,0.81495
1337.54262,0.86291
1336.05283,0.89215
1334.56305,0.92141
1333.07326,0.90650
1331.58347,0.93848
1330.09368,0.93880
1328.60389,0.90476
1327.11410,0.87388
1325.62432,0.88631
1324.13453,0.86306
1322.64474,0.78359
1321.15495,0.73896
1319.66516,0.72024
1318.17537,0.70155
1316.68558,0.68645
1315.19580,0.62629
1313.70601,0.58535
1312.21622,0.50827
1310.72643,0.49773
1309.23664,0.44436
1307.74685,0.43386
1306.25707,0.42518
1304.76728,0.42009
1303.27749,0.41502
1301.78770,0.33989
1300.29791,0.27059
1298.80812,0.23970
1297.31834,0.21017
1295.82855,0.18514
1294.33876,0.15923
1292.84897,0.14049
1291.35918,0.12623
1289.86939,0.12048
1288.37960,0.11476
1286.88982,0.11218
1285.40003,0.07391
1283.91024,0.08298
1282.42045,0.07423
1280.93066,0.06147
1279.44087,0.06794
1277.95109,0.07131
1276.46130,0.06532
1274.97151,0.06784
1273.48172,0.07038
1271.99193,0.05241
1270.50214,0.06839
1269.01235,0.05270
1267.52257,0.04150
1266.03278,0.04416
1264.54299,0.03167
1263.05320,0.04464
1261.56341,0.03465
1260.07362,0.02468
1258.58384,0.03995
1257.09405,0.01061
1255.60426,0.03352
1254.11447,0.02878
1252.62468,0.03478
1251.13489,0.00642
1249.64511,0.01631
1248.15532,0.01238
1246.66553,0.01941
1245.17574,0.02647
1243.68595,0.00788
1242.19616,0.02717
1240.70637,0.02819
1239.21659,0.03369
1237.72680,0.03208
1236.23701,0.03495
1234.74722,0.01999
1233.25743,0.01889
1231.76764,0.01782
1230.27786,0.03775
1228.78807,0.01931
1227.29828,0.03080
1225.80849,0.02179
1224.31870,0.02708
1222.82891,0.02257
1221.33912,0.01809
1219.84934,0.02881
1218.35955,0.03955
1216.86976,0.07353
1215.37997,0.04057
1213.89018,0.06790
1212.40039,0.06043
1210.91061,0.07798
1209.42082,0.07012
1207.93103,0.06741
1206.44124,0.06472
1204.95145,0.08237
1203.46166,0.08933
1201.97188,0.09899
1200.48209,0.06760
1198.99230,0.08445
1197.50251,0.05535
1196.01272,0.03519
1194.52293,0.03805
1193.03314,0.04093
1191.54336,0.03111
1190.05357,0.02980
1188.56378,0.03253
1187.07399,0.02546
1185.58420,0.01707
1184.09441,0.02076
1182.60463,0.01979
1181.11484,0.01884
1179.62505,0.02260
1178.13526,0.02103
1176.64547,0.00788
1175.15568,0.01106
1173.66589,0.01248
1172.17611,0.01750
1170.68632,0.01428
1169.19653,0.01108
1167.70674,0.02644
1166.21695,0.01503
1164.72716,0.03043
1163.23738,0.03871
1161.74759,0.04836
1160.25780,0.05891
1158.76801,0.06035
1157.27822,0.06180
1155.78843,0.07600
1154.29865,0.07550
1152.80886,0.09198
1151.31907,0.12455
1149.82928,0.12188
1148.33949,0.12593
1146.84970,0.11907
1145.35991,0.11223
1143.87013,0.14805
1142.38034,0.19505
1140.89055,0.18047
1139.40076,0.19492
1137.91097,0.19735
1136.42118,0.20784
1134.93140,0.21255
1133.44161,0.21728
1131.95182,0.23587
1130.46203,0.24958
1128.97224,0.24545
1127.48245,0.23912
1125.99266,0.23459
1124.50288,0.25196
1123.01309,0.25552
1121.52330,0.25910
1120.03351,0.24976
1118.54372,0.25071
1117.05393,0.25302
1115.56415,0.25535
1114.07436,0.27110
1112.58457,0.25875
1111.09478,0.24642
1109.60499,0.22608
1108.11520,0.26246
1106.62542,0.27386
1105.13563,0.27636
1103.64584,0.25835
1102.15605,0.24259
1100.66626,0.23355
1099.17647,0.22454
1097.68668,0.21644
1096.19690,0.23336
1094.70711,0.23200
1093.21732,0.21103
1091.72753,0.20347
1090.23774,0.20308
1088.74795,0.20271
1087.25817,0.19924
1085.76838,0.20784
1084.27859,0.19906
1082.78880,0.20012
1081.29901,0.20880
1079.80922,0.22553
1078.31943,0.22867
1076.82965,0.23184
1075.33986,0.20177
1073.85007,0.22976
1072.36028,0.23366
1070.87049,0.26304
1069.38070,0.27101
1067.89092,0.30422
1066.40113,0.33746
1064.91134,0.39148
1063.42155,0.46337
1061.93176,0.54065
1060.44197,0.63848
1058.95219,0.70599
1057.46240,0.77641
1055.97261,0.84686
1054.48282,0.91444
1052.99303,0.97132
1051.50324,0.95502
1050.01345,0.93472
1048.52367,0.93990
1047.03388,0.91675
1045.54409,0.89362
1044.05430,0.85422
1042.56451,0.76575
1041.07472,0.75452
1039.58494,0.64332
1038.09515,0.58527
1036.60536,0.57479
1035.11557,0.56432
1033.62578,0.50589
1032.13599,0.43946
1030.64620,0.37304
1029.15642,0.31066
1027.66663,0.28335
1026.17684,0.25607
1024.68705,0.23885
1023.19726,0.18728
1021.70747,0.16832
1020.21769,0.16457
1018.72790,0.14431
1017.23811,0.13302
1015.74832,0.12174
1014.25853,0.11272
1012.76874,0.08274
1011.27896,0.06573
1009.78917,0.05455
1008.29938,0.03402
1006.80959,0.03181
1005.31980,0.02963
1003.83001,0.01720
1002.34022,0.03336
1000.85044,0.02812
999.36065,0.01219
997.87086,0.02999
996.38107,0.04781
994.89128,0.06945
993.40149,0.08397
991.91171,0.11369
990.42192,0.12825
988.93213,0.15713
987.44234,0.15857
985.95255,0.16004
984.46276,0.20461
982.97297,0.13849
981.48319,0.11124
979.99340,0.08312
978.50361,0.07577
977.01382,0.06845
975.52403,0.06897
974.03424,0.04987
972.54446,0.01874
971.05467,0.01486
969.56488,0.00788
968.07509,0.01181
966.58530,0.01577
965.09551,0.01931
963.60573,0.00724
962.11594,0.01823
960.62615,0.00826
959.13636,0.00747
957.64657,0.00669
956.15678,0.02715
954.66699,0.02755
953.17721,0.03511
951.68742,0.02617
950.19763,0.03132
948.70784,0.03650
947.21805,0.03656
945.72826,0.06433
944.23848,0.08497
942.74869,0.10609
941.25890,0.12142
939.76911,0.10754
938.27932,0.09369
936.78953,0.14614
935.29974,0.18345
933.80996,0.18149
932.32017,0.19250
930.83038,0.19148
929.34059,0.19049
927.85080,0.23416
926.36101,0.26267
924.87123,0.27871
923.38144,0.34656
921.89165,0.38184
920.40186,0.41714
918.91207,0.54175
917.42228,0.68468
915.93250,0.82629
914.44271,1.02284
912.95292,1.13749
911.46313,1.25217
909.97334,1.42736
908.48355,1.64230
906.99376,1.79477
905.50398,1.98967
904.01419,1.98706
902.52440,1.98448
901.03461,2.00000
899.54482,1.96466
898.05503,1.84541
896.56525,1.68647
895.07546,1.55499
893.58567,1.42355
892.09588,1.12272
890.60609,0.90985
889.11630,0.65192
887.62651,0.46098
886.13673,0.40776
884.64694,0.35457
883.15715,0.26949
881.66736,0.20497
880.17757,0.15386
878.68778,0.13714
877.19800,0.12045
875.70821,0.07700
874.21842,0.05321
872.72863,0.04463
871.23884,0.05169
869.74905,0.04984
868.25927,0.04802
866.76948,0.03551
865.27969,0.02883
863.78990,0.03958
862.30011,0.05347
860.81032,0.06092
859.32053,0.06839
857.83075,0.06674
856.34096,0.08742
854.85117,0.10233
853.36138,0.14047
851.87159,0.14070
850.38180,0.14094
848.89202,0.17514
847.40223,0.17811
845.91244,0.19092
844.42265,0.19171
842.93286,0.19252
841.44307,0.19960
839.95329,0.23617
838.46350,0.23303
836.97371,0.23527
835.48392,0.24468
833.99413,0.25411
832.50434,0.29437
831.01455,0.24180
829.52477,0.22764
828.03498,0.21351
826.54519,0.20230
825.05540,0.19111
823.56561,0.14937
822.07582,0.16301
820.58604,0.11417
819.09625,0.10844
817.60646,0.10273
816.11667,0.11110
814.62688,0.09985
813.13709,0.12211
811.64730,0.12163
810.15752,0.12585
808.66773,0.13010
807.17794,0.14040
805.68815,0.14715
804.19836,0.14366
802.70857,0.14130
801.21879,0.13898
799.72900,0.13421
798.23921,0.10760
796.74942,0.12074
795.25963,0.12208
793.76984,0.12344
792.28006,0.13308
790.79027,0.13292
789.30048,0.14930
787.81069,0.21079
786.32090,0.21472
784.83111,0.21868
783.34132,0.24096
781.85154,0.26326
780.36175,0.35656
778.87196,0.36306
777.38217,0.36959
775.89238,0.35538
774.40259,0.39075
772.91281,0.36498
771.42302,0.36200
769.93323,0.35905
768.44344,0.33826
766.95365,0.29161
765.46386,0.25881
763.97407,0.18810
762.48429,0.17477
760.99450,0.16147
759.50471,0.11940
758.01492,0.11350
756.52513,0.10094
755.03534,0.10201
753.54556,0.10311
752.05577,0.07455
750.56598,0.07011
749.07619,0.06347
747.58640,0.05908
746.09661,0.05471
744.60683,0.04680
743.11704,0.02150
741.62725,0.03327
740.13746,0.02811
738.64767,0.02297
737.15788,0.02276
735.66809,0.01275
734.17831,0.02866
732.68852,0.01826
731.19873,0.00788
729.70894,0.01368
728.21915,0.03425
726.72936,0.02269
725.23958,0.01786
723.74979,0.01684
722.26000,0.01585
720.77021,0.01599
719.28042,0.01214
717.79063,0.01858
716.30084,0.01322
714.81106,0.00788
713.32127,0.01883
711.83148,0.01953
710.34169,0.03053
708.85190,0.03597
707.36211,0.04144
705.87233,0.05072
704.38254,0.06984
702.89275,0.05105
701.40296,0.05415
699.91317,0.05728
698.42338,0.06980
696.93360,0.09440
695.44381,0.09492
693.95402,0.10818
692.46423,0.12147
690.97444,0.12116
689.48465,0.14320
687.99486,0.17374
686.50508,0.18132
685.01529,0.18892
683.52550,0.24185
682.03571,0.24927
680.54592,0.24199
679.05613,0.24567
677.56635,0.24937
676.07656,0.27429
674.58677,0.27648
673.09698,0.25369
671.60719,0.23940
670.11740,0.22514
668.62761,0.19751
667.13783,0.17258
665.64804,0.15549
664.15825,0.13842
662.66846,0.13052
661.17867,0.08605
659.68888,0.08221
658.19910,0.07461
656.70931,0.06703
655.21952,0.08068
653.72973,0.08141
652.23994,0.06162
650.75015,0.05883
649.26037,0.05605
647.77058,0.05776
646.28079,0.06530
644.79100,0.04206
643.30121,0.04072
641.81142,0.03940
640.32163,0.04436
638.83185,0.06719
637.34206,0.03068
635.85227,0.03124
634.36248,0.03182
632.87269,0.00788
631.38290,0.04835
629.89312,0.03529
628.40333,0.03095
626.91354,0.02663
625.42375,0.01140
623.93396,0.01405
622.44417,0.02074
620.95438,0.02746
619.46460,0.06544
617.97481,0.06506
616.48502,0.07095
614.99523,0.08959
613.50544,0.10825
612.01565,0.11020
610.52587,0.14654
609.03608,0.16728
607.54629,0.18938
606.05650,0.21150
604.56671,0.24347
603.07692,0.31341
601.58714,0.35391
600.09735,0.39443
598.60756,0.41087
597.11777,0.41081
595.62798,0.42775
594.13819,0.42461
592.64840,0.42151
591.15862,0.40458
589.66883,0.35331
588.17904,0.31367
586.68925,0.28320
585.19946,0.25276
583.70967,0.18596
582.21989,0.14953
580.73010,0.12898
579.24031,0.10845
577.75052,0.07924
576.26073,0.07103
574.77094,0.06062
573.28115,0.05937
571.79137,0.05816
570.30158,0.07906
568.81179,0.07365
567.32200,0.08611
565.83221,0.09860
564.34242,0.11647
562.85264,0.12098
561.36285,0.14246
559.87306,0.14902
558.38327,0.15560
556.89348,0.16064
555.40369,0.16214
553.91391,0.18240
552.42412,0.20269
550.93433,0.20515
549.44454,0.20361
547.95475,0.24094
546.46496,0.23096
544.97517,0.22102
543.48539,0.24680
541.99560,0.26413
540.50581,0.29019
539.01602,0.31627
537.52623,0.35018
536.03644,0.36894
534.54666,0.39309
533.05687,0.42216
531.56708,0.45126
530.07729,0.47815
528.58750,0.58452
527.09771,0.60052
525.60792,0.61654
524.11814,0.66138
522.62835,0.72812
521.13856,0.77523
519.64877,0.79046
518.15898,0.80571
516.66919,0.83995
515.17941,0.82601
513.68962,0.83731
512.19983,0.84863
510.71004,0.83163
509.22025,0.79635
507.73046,0.73655
506.24068,0.68056
504.75089,0.62460
503.26110,0.49790
501.77131,0.39489
500.28152,0.35551
498.79173,0.31616
497.30194,0.23241
495.81216,0.18887
494.32237,0.17346
492.83258,0.15808
491.34279,0.10523
489.85300,0.09794
488.36321,0.09423
486.87343,0.08966
485.38364,0.08511
483.89385,0.08505
482.40406,0.10867
480.91427,0.12428
479.42448,0.13991
477.93469,0.14039
476.44491,0.17348
474.95512,0.18204
473.46533,0.19063
471.97554,0.21084
470.48575,0.18421
468.99596,0.20045
467.50618,0.19373
466.01639,0.18703
464.52660,0.12790
463.03681,0.10406
461.54702,0.09877
460.05723,0.09350
458.56745,0.06259
457.07766,0.05760
455.58787,0.04504
454.09808,0.03250
452.60829,0.04677
451.11850,0.03026
449.62871,0.03564
448.13893,0.04105
446.64914,0.03622
445.15935,0.02829
443.66956,0.00788
442.17977,0.02214
440.68998,0.03642
439.20020,0.03890
437.71041,0.04453
436.22062,0.04236
434.73083,0.04022
433.24104,0.02583
431.75125,0.03200
430.26146,0.03596
428.77168,0.03994
427.28189,0.06314
425.79210,0.06136
424.30231,0.04956
422.81252,0.03779
421.32273,0.05171
419.83295,0.03083
418.34316,0.03721
416.85337,0.04361
415.36358,0.02057
413.87379,0.03595
412.38400,0.03929
410.89422,0.04266
409.40443,0.04605
407.91464,0.05572
406.42485,0.03996
404.93506,0.02735
403.44527,0.01477
401.95548,0.03122
400.46570,0.02404
398.97591,0.04054
397.48612,0.05707
395.99633,0.03478
394.50654,0.03751
393.01675,0.02889
391.52697,0.02028
390.03718,0.04715
388.54739,0.01690
387.05760,0.01480
385.56781,0.01272
384.07802,0.03343
382.58824,0.01934
381.09845,0.03653
379.60866,0.05374
378.11887,0.02901
376.62908,0.00788
375.13929,0.01470
373.64950,0.02155
372.15972,0.04984
370.66993,0.02861
369.18014,0.02517
367.69035,0.02175
366.20056,0.03554
364.71077,0.02302
363.22099,0.02793
361.73120,0.03286
360.24141,0.01104
358.75162,0.04967
357.26183,0.05307
355.77204,0.05649
354.28225,0.06528
352.79247,0.07589
351.30268,0.06465
349.81289,0.05343
348.32310,0.05384
346.83331,0.04713
345.34352,0.04402
343.85374,0.04092
342.36395,0.05973
340.87416,0.06338
339.38437,0.06929
337.89458,0.07522
336.40479,0.04100
334.91501,0.03269
333.42522,0.02619
331.93543,0.01972
330.44564,0.03960
328.95585,0.03541
327.46606,0.02320
325.97627,0.01102
324.48649,0.04055
322.99670,0.05761
321.50691,0.06733
320.01712,0.07708
318.52733,0.09778
317.03754,0.06047
315.54776,0.05064
314.05797,0.04084
312.56818,0.06967
311.07839,0.10210
309.58860,0.09125
308.09881,0.08042
306.60902,0.08479
305.11924,0.06865
303.62945,0.05031
302.13966,0.03199
300.64987,0.00788
299.16008,0.00788
