1778.52000,0.01922
1777.03021,0.01734
1775.54042,0.01702
1774.05063,0.01635
1772.56085,0.01240
1771.07106,0.01119
1769.58127,0.01523
1768.09148,0.00864
1766.60169,0.02243
1765.11190,0.00988
1763.62212,0.01073
1762.13233,0.01547
1760.64254,0.01424
1759.15275,0.01264
1757.66296,0.00699
1756.17317,0.01300
1754.68339,0.00623
1753.19360,0.01365
1751.70381,0.01216
1750.21402,0.01420
1748.72423,0.01082
1747.23444,0.01271
1745.74465,0.01927
1744.25487,0.02373
1742.76508,0.01870
1741.27529,0.01313
1739.78550,0.00699
1738.29571,0.01329
1736.80592,0.00895
1735.31614,0.01666
1733.82635,0.01392
1732.33656,0.00869
1730.84677,0.01259
1729.35698,0.01167
1727.86719,0.00825
1726.37740,0.00660
1724.88762,0.00653
1723.39783,0.00997
1721.90804,0.00626
1720.41825,0.00548
1718.92846,0.00977
1717.43867,0.00787
1715.94889,0.00736
1714.45910,0.00745
1712.96931,0.00699
1711.47952,0.01079
1709.98973,0.00821
1708.49994,0.00430
1707.01016,0.00835
1705.52037,0.01242
1704.03058,0.00537
1702.54079,0.00648
1701.05100,0.01324
1699.56121,0.01207
1698.07142,0.00996
1696.58164,0.00865
1695.09185,0.00911
1693.60206,0.01540
1692.11227,0.00699
1690.62248,0.00979
1689.13269,0.01164
1687.64291,0.01758
1686.15312,0.01773
1684.66333,0.02082
1683.17354,0.03052
1681.68375,0.02086
1680.19396,0.02247
1678.70417,0.02119
1677.21439,0.02575
1675.72460,0.02685
1674.23481,0.03766
1672.74502,0.03803
1671.25523,0.03571
1669.76544,0.04950
1668.27566,0.05769
1666.78587,0.04536
1665.29608,0.05050
1663.80629,0.05625
1662.31650,0.06900
1660.82671,0.05754
1659.33693,0.07092
1657.84714,0.06145
1656.35735,0.06615
1654.86756,0.08018
1653.37777,0.07117
1651.88798,0.07924
1650.39819,0.06969
1648.90841,0.07664
1647.41862,0.07025
1645.92883,0.07870
1644.43904,0.08718
1642.94925,0.08551
1641.45946,0.08522
1639.96968,0.07952
1638.47989,0.08219
1636.99010,0.07809
1635.50031,0.08700
1634.01052,0.08257
1632.52073,0.07718
1631.03094,0.08190
1629.54116,0.09072
1628.05137,0.08774
1626.56158,0.08497
1625.07179,0.08630
1623.58200,0.08978
1622.09221,0.10027
1620.60243,0.09372
1619.11264,0.09999
1617.62285,0.09736
1616.13306,0.09224
1614.64327,0.08986
1613.15348,0.08750
1611.66370,0.09292
1610.17391,0.09856
1608.68412,0.08813
1607.19433,0.08917
1605.70454,0.10282
1604.21475,0.09789
1602.72496,0.09299
1601.23518,0.09858
1599.74539,0.07918
1598.25560,0.08559
1596.76581,0.09241
1595.27602,0.08685
1593.78623,0.08830
1592.29645,0.08259
1590.80666,0.08389
1589.31687,0.07125
1587.82708,0.08035
1586.33729,0.08985
1584.84750,0.08756
1583.35771,0.08723
1581.86793,0.08111
1580.37814,0.07444
1578.88835,0.07689
1577.39856,0.07142
1575.90877,0.06753
1574.41898,0.05998
1572.92920,0.04644
1571.43941,0.05425
1569.94962,0.05569
1568.45983,0.05715
1566.97004,0.04623
1565.48025,0.03436
1563.99047,0.03861
1562.50068,0.02950
1561.01089,0.03748
1559.52110,0.03967
1558.03131,0.02734
1556.54152,0.01658
1555.05173,0.02640
1553.56195,0.01879
1552.07216,0.02420
1550.58237,0.01819
1549.09258,0.00000
1547.60279,0.00542
1546.11300,0.00892
1544.62322,0.02098
1543.13343,0.00398
1541.64364,0.00736
1540.15385,0.00844
1538.66406,0.00955
1537.17427,0.00951
1535.68448,0.01415
1534.19470,0.00699
1532.70491,0.01079
1531.21512,0.01152
1529.72533,0.01905
1528.23554,0.02913
1526.74575,0.03245
1525.25597,0.02765
1523.76618,0.03431
1522.27639,0.03537
1520.78660,0.02890
1519.29681,0.04280
1517.80702,0.04200
1516.31724,0.05014
1514.82745,0.03271
1513.33766,0.03963
1511.84787,0.04658
1510.35808,0.04377
1508.86829,0.05551
1507.37850,0.04383
1505.88872,0.05484
1504.39893,0.04922
1502.90914,0.05912
1501.41935,0.07137
1499.92956,0.06232
1498.43977,0.05253
1496.94999,0.05497
1495.46020,0.07933
1493.97041,0.07329
1492.48062,0.09848
1490.99083,0.10101
1489.50104,0.11288
1488.01125,0.12195
1486.52147,0.13105
1485.03168,0.16063
1483.54189,0.18771
1482.05210,0.22605
1480.56231,0.21596
1479.07252,0.23322
1477.58274,0.24198
1476.09295,0.23991
1474.60316,0.24930
1473.11337,0.24863
1471.62358,0.25593
1470.13379,0.27489
1468.64401,0.28689
1467.15422,0.31986
1465.66443,0.32474
1464.17464,0.32964
1462.68485,0.35880
1461.19506,0.39302
1459.70527,0.44452
1458.21549,0.49352
1456.72570,0.54584
1455.23591,0.62571
1453.74612,0.65055
1452.25633,0.69131
1450.76654,0.71756
1449.27676,0.71495
1447.78697,0.70771
1446.29718,0.69003
1444.80739,0.67440
1443.31760,0.65880
1441.82781,0.60785
1440.33802,0.59607
1438.84824,0.53315
1437.35845,0.49312
1435.86866,0.48782
1434.37887,0.50735
1432.88908,0.53563
1431.39929,0.59107
1429.90951,0.66301
1428.41972,0.74855
1426.92993,0.79262
1425.44014,0.86968
1423.95035,0.89742
1422.46056,0.92519
1420.97078,0.95191
1419.48099,0.95598
1417.99120,0.93934
1416.50141,0.94287
1415.01162,0.86734
1413.52183,0.82440
1412.03204,0.80572
1410.54226,0.74518
1409.05247,0.72267
1407.56268,0.68894
1406.07289,0.61316
1404.58310,0.57792
1403.09331,0.54271
1401.60353,0.46798
1400.11374,0.42041
1398.62395,0.37596
1397.13416,0.31506
1395.64437,0.26020
1394.15458,0.23831
1392.66479,0.19202
1391.17501,0.17522
1389.68522,0.13887
1388.19543,0.12425
1386.70564,0.10956
1385.21585,0.09489
1383.72606,0.06037
1382.23628,0.05399
1380.74649,0.03561
1379.25670,0.01707
1377.76691,0.01715
1376.27712,0.00699
1374.78733,0.01153
1373.29755,0.01861
1371.80776,0.01874
1370.31797,0.01772
1368.82818,0.01490
1367.33839,0.01209
1365.84860,0.01503
1364.35881,0.01159
1362.86903,0.03241
1361.37924,0.06139
1359.88945,0.06384
1358.39966,0.10703
1356.90987,0.13337
1355.42008,0.18377
1353.93030,0.24777
1352.44051,0.26759
1350.95072,0.28744
1349.46093,0.37535
1347.97114,0.43789
1346.48135,0.53573
1344.99156,0.61461
1343.50178,0.65241
1342.01199,0.70070
1340.52220,0.76336
1339.03241,0.80646
1337.54262,0.84184
1336.05283,0.86561
1334.56305,0.88940
1333.07326,0.91632
1331.58347,0.92407
1330.09368,0.95491
1328.60389,0.94178
1327.11410,0.93894
1325.62432,0.86750
1324.13453,0.84339
1322.64474,0.79623
1321.15495,0.77856
1319.66516,0.75413
1318.17537,0.72972
1316.68558,0.67219
1315.19580,0.62729
1313.70601,0.57543
1312.21622,0.53716
1310.72643,0.49581
1309.23664,0.48318
1307.74685,0.45274
1306.25707,0.42678
1304.76728,0.40647
1303.27749,0.38618
1301.78770,0.33586
1300.29791,0.27143
1298.80812,0.23667
1297.31834,0.19942
1295.82855,0.16393
1294.33876,0.15193
1292.84897,0.11920
1291.35918,0.10918
1289.86939,0.09628
1288.37960,0.08340
1286.88982,0.08509
1285.40003,0.07671
1283.91024,0.07709
1282.42045,0.05927
1280.93066,0.05445
1279.44087,0.06595
1277.95109,0.05692
1276.46130,0.05606
1274.97151,0.05503
1273.48172,0.05402
1271.99193,0.04916
1270.50214,0.05071
1269.01235,0.03156
1267.52257,0.02386
1266.03278,0.03169
1264.54299,0.02152
1263.05320,0.02785
1261.56341,0.02694
1260.07362,0.02605
1258.58384,0.02179
1257.09405,0.02337
1255.60426,0.02478
1254.11447,0.02583
1252.62468,0.02166
1251.13489,0.01520
1249.64511,0.01089
1248.15532,0.00699
1246.66553,0.01241
1245.17574,0.01785
1243.68595,0.01780
1242.19616,0.02048
1240.70637,0.01718
1239.21659,0.03212
1237.72680,0.03158
1236.23701,0.02776
1234.74722,0.02184
1233.25743,0.01779
1231.76764,0.01375
1230.27786,0.02244
1228.78807,0.02534
1227.29828,0.02361
1225.80849,0.01919
1224.31870,0.02254
1222.82891,0.02011
1221.33912,0.03475
1219.84934,0.03741
1218.35955,0.04008
1216.86976,0.04336
1215.37997,0.06586
1213.89018,0.07481
1212.40039,0.08166
1210.91061,0.08465
1209.42082,0.08553
1207.93103,0.07800
1206.44124,0.07050
1204.95145,0.09665
1203.46166,0.07902
1201.97188,0.07285
1200.48209,0.06728
1198.99230,0.07705
1197.50251,0.06650
1196.01272,0.05092
1194.52293,0.04361
1193.03314,0.03632
1191.54336,0.04117
1190.05357,0.04392
1188.56378,0.03292
1187.07399,0.03048
1185.58420,0.02554
1184.09441,0.02062
1182.60463,0.01583
1181.11484,0.01106
1179.62505,0.00699
1178.13526,0.01604
1176.64547,0.01872
1175.15568,0.00805
1173.66589,0.01930
1172.17611,0.01294
1170.68632,0.01581
1169.19653,0.01871
1167.70674,0.01494
1166.21695,0.02729
1164.72716,0.04276
1163.23738,0.03479
1161.74759,0.04857
1160.25780,0.04608
1158.76801,0.05525
1157.27822,0.06444
1155.78843,0.08994
1154.29865,0.09085
1152.80886,0.11097
1151.31907,0.10397
1149.82928,0.11833
1148.33949,0.12243
1146.84970,0.11812
1145.35991,0.11384
1143.87013,0.13003
1142.38034,0.17106
1140.89055,0.17587
1139.40076,0.17100
1137.91097,0.18341
1136.42118,0.17569
1134.93140,0.19037
1133.44161,0.20509
1131.95182,0.20616
1130.46203,0.22295
1128.97224,0.23822
1127.48245,0.24014
1125.99266,0.22735
1124.50288,0.24695
1123.01309,0.24264
1121.52330,0.23835
1120.03351,0.23496
1118.54372,0.24574
1117.05393,0.23542
1115.56415,0.24199
1114.07436,0.22047
1112.58457,0.22902
1111.09478,0.23760
1109.60499,0.22876
1108.11520,0.20985
1106.62542,0.23517
1105.13563,0.23512
1103.64584,0.21920
1102.15605,0.21571
1100.66626,0.21234
1099.17647,0.20899
1097.68668,0.20189
1096.19690,0.20198
1094.70711,0.21334
1093.21732,0.19351
1091.72753,0.19135
1090.23774,0.18369
1088.74795,0.17605
1087.25817,0.18869
1085.76838,0.17577
1084.27859,0.17140
1082.78880,0.18548
1081.29901,0.19414
1079.80922,0.20768
1078.31943,0.21291
1076.82965,0.21816
1075.33986,0.19707
1073.85007,0.21477
1072.36028,0.22765
1070.87049,0.23726
1069.38070,0.27326
1067.89092,0.29300
1066.40113,0.31276
1064.91134,0.35561
1063.42155,0.44152
1061.93176,0.53735
1060.44197,0.62757
1058.95219,0.75038
1057.46240,0.80722
1055.97261,0.86407
1054.48282,0.95439
1052.99303,1.01644
1051.50324,1.02170
1050.01345,1.02874
1048.52367,1.04162
1047.03388,1.01914
1045.54409,0.99669
1044.05430,0.92609
1042.56451,0.88730
1041.07472,0.81287
1039.58494,0.71462
1038.09515,0.63423
1036.60536,0.59777
1035.11557,0.56134
1033.62578,0.50079
1032.13599,0.41487
1030.64620,0.34934
1029.15642,0.31542
1027.66663,0.29286
1026.17684,0.27033
1024.68705,0.23455
1023.19726,0.21003
1021.70747,0.18457
1020.21769,0.16708
1018.72790,0.13216
1017.23811,0.13314
1015.74832,0.13413
1014.25853,0.09871
1012.76874,0.09878
1011.27896,0.10043
1009.78917,0.06915
1008.29938,0.06852
1006.80959,0.06191
1005.31980,0.05532
1003.83001,0.03286
1002.34022,0.03155
1000.85044,0.02987
999.36065,0.04451
997.87086,0.04521
996.38107,0.04594
994.89128,0.06878
993.40149,0.09689
991.91171,0.10970
990.42192,0.12991
988.93213,0.13560
987.44234,0.15207
985.95255,0.16857
984.46276,0.15185
982.97297,0.14213
981.48319,0.13340
979.99340,0.10705
978.50361,0.09295
977.01382,0.07886
975.52403,0.06500
974.03424,0.04495
972.54446,0.03462
971.05467,0.01850
969.56488,0.00725
968.07509,0.00775
966.58530,0.00828
965.09551,0.01920
963.60573,0.01366
962.11594,0.00699
960.62615,0.01319
959.13636,0.01408
957.64657,0.01500
956.15678,0.02670
954.66699,0.02543
953.17721,0.03059
951.68742,0.02782
950.19763,0.03225
948.70784,0.03670
947.21805,0.04544
945.72826,0.06467
944.23848,0.06784
942.74869,0.09739
941.25890,0.11476
939.76911,0.11470
938.27932,0.11467
936.78953,0.16409
935.29974,0.17225
933.80996,0.18586
932.32017,0.19309
930.83038,0.19996
929.34059,0.20686
927.85080,0.22231
926.36101,0.24825
924.87123,0.26975
923.38144,0.32928
921.89165,0.36392
920.40186,0.39858
918.91207,0.49306
917.42228,0.61026
915.93250,0.75732
914.44271,0.96509
912.95292,1.07935
911.46313,1.19363
909.97334,1.39546
908.48355,1.61592
906.99376,1.76255
905.50398,1.90630
904.01419,1.93686
902.52440,1.96745
901.03461,2.00000
899.54482,1.94457
898.05503,1.82577
896.56525,1.66416
895.07546,1.54134
893.58567,1.41854
892.09588,1.11995
890.60609,0.90221
889.11630,0.66454
887.62651,0.50287
886.13673,0.43738
884.64694,0.37191
883.15715,0.29503
881.66736,0.20965
880.17757,0.14619
878.68778,0.12763
877.19800,0.10910
875.70821,0.07207
874.21842,0.06144
872.72863,0.04307
871.23884,0.03500
869.74905,0.02386
868.25927,0.01274
866.76948,0.02258
865.27969,0.02158
863.78990,0.04252
862.30011,0.05999
860.81032,0.06527
859.32053,0.07057
857.83075,0.08230
856.34096,0.10161
854.85117,0.10698
853.36138,0.12130
851.87159,0.13874
850.38180,0.15621
848.89202,0.15587
847.40223,0.17959
845.91244,0.20158
844.42265,0.20965
842.93286,0.21774
841.44307,0.23011
839.95329,0.25298
838.46350,0.28111
836.97371,0.29782
835.48392,0.29323
833.99413,0.28867
832.50434,0.29460
831.01455,0.27380
829.52477,0.26194
828.03498,0.24507
826.54519,0.22745
825.05540,0.20985
823.56561,0.19460
822.07582,0.18480
820.58604,0.15932
819.09625,0.15131
817.60646,0.14333
816.11667,0.14099
814.62688,0.15535
813.13709,0.15558
811.64730,0.16107
810.15752,0.16968
808.66773,0.17832
807.17794,0.18078
805.68815,0.17590
804.19836,0.15999
802.70857,0.16543
801.21879,0.17089
799.72900,0.16377
798.23921,0.15436
796.74942,0.13275
795.25963,0.13647
793.76984,0.14021
792.28006,0.16365
790.79027,0.15706
789.30048,0.19296
787.81069,0.24748
786.32090,0.24902
784.83111,0.25057
783.34132,0.27997
781.85154,0.32665
780.36175,0.37587
778.87196,0.39215
777.38217,0.40847
775.89238,0.45485
774.40259,0.43690
772.91281,0.41994
771.42302,0.41008
769.93323,0.40025
768.44344,0.36107
766.95365,0.30834
765.46386,0.25700
763.97407,0.20840
762.48429,0.19054
760.99450,0.17271
759.50471,0.15713
758.01492,0.13168
756.52513,0.10704
755.03534,0.10549
753.54556,0.10396
752.05577,0.09122
750.56598,0.07249
749.07619,0.05746
747.58640,0.05225
746.09661,0.04706
744.60683,0.03657
743.11704,0.04820
741.62725,0.01914
740.13746,0.02054
738.64767,0.02197
737.15788,0.02594
735.66809,0.01714
734.17831,0.00914
732.68852,0.01580
731.19873,0.02248
729.70894,0.00699
728.21915,0.01290
726.72936,0.02271
725.23958,0.02188
723.74979,0.02370
722.26000,0.02553
720.77021,0.01703
719.28042,0.00699
717.79063,0.01274
716.30084,0.01697
714.81106,0.02122
713.32127,0.03577
711.83148,0.03910
710.34169,0.03897
708.85190,0.04651
707.36211,0.05408
705.87233,0.04123
704.38254,0.04584
702.89275,0.04951
701.40296,0.04758
699.91317,0.04567
698.42338,0.06996
696.93360,0.08419
695.44381,0.09341
693.95402,0.10100
692.46423,0.10861
690.97444,0.12488
689.48465,0.16501
687.99486,0.16853
686.50508,0.17827
685.01529,0.18804
683.52550,0.23118
682.03571,0.22200
680.54592,0.24037
679.05613,0.24791
677.56635,0.25547
676.07656,0.26326
674.58677,0.25458
673.09698,0.24264
671.60719,0.21957
670.11740,0.19653
668.62761,0.18292
667.13783,0.15323
665.64804,0.14412
664.15825,0.13504
662.66846,0.12675
661.17867,0.09406
659.68888,0.07361
658.19910,0.06588
656.70931,0.05817
655.21952,0.04768
653.72973,0.03314
652.23994,0.04499
650.75015,0.04445
649.26037,0.04394
647.77058,0.05954
646.28079,0.05210
644.79100,0.02956
643.30121,0.03903
641.81142,0.04852
640.32163,0.03963
638.83185,0.04956
637.34206,0.02966
635.85227,0.01831
634.36248,0.00699
632.87269,0.00783
631.38290,0.00966
629.89312,0.01036
628.40333,0.01185
626.91354,0.01337
625.42375,0.01452
623.93396,0.01589
622.44417,0.02436
620.95438,0.03286
619.46460,0.04302
617.97481,0.04565
616.48502,0.06614
614.99523,0.07822
613.50544,0.09032
612.01565,0.13182
610.52587,0.16190
609.03608,0.17262
607.54629,0.20091
606.05650,0.22922
604.56671,0.27723
603.07692,0.33806
601.58714,0.36683
600.09735,0.39563
598.60756,0.42028
597.11777,0.43759
595.62798,0.44058
594.13819,0.43729
592.64840,0.43402
591.15862,0.39502
589.66883,0.33491
588.17904,0.27385
586.68925,0.24733
585.19946,0.22082
583.70967,0.18019
582.21989,0.13804
580.73010,0.12314
579.24031,0.10827
577.75052,0.09254
576.26073,0.06948
574.77094,0.05206
573.28115,0.05764
571.79137,0.06324
570.30158,0.05675
568.81179,0.07684
567.32200,0.08377
565.83221,0.09072
564.34242,0.09964
562.85264,0.11227
561.36285,0.13984
559.87306,0.15067
558.38327,0.16153
556.89348,0.16940
555.40369,0.19320
553.91391,0.18522
552.42412,0.17727
550.93433,0.18583
549.44454,0.20293
547.95475,0.20824
546.46496,0.21066
544.97517,0.21310
543.48539,0.25705
541.99560,0.27505
540.50581,0.29511
539.01602,0.31519
537.52623,0.34683
536.03644,0.39769
534.54666,0.41077
533.05687,0.42581
531.56708,0.44088
530.07729,0.47632
528.58750,0.54183
527.09771,0.57306
525.60792,0.60431
524.11814,0.63733
522.62835,0.69538
521.13856,0.75403
519.64877,0.78247
518.15898,0.81094
516.66919,0.82236
515.17941,0.84874
513.68962,0.85983
512.19983,0.87094
510.71004,0.83885
509.22025,0.77538
507.73046,0.71387
506.24068,0.65510
504.75089,0.59635
503.26110,0.45989
501.77131,0.37522
500.28152,0.34193
498.79173,0.30868
497.30194,0.24152
495.81216,0.16547
494.32237,0.14101
492.83258,0.11657
491.34279,0.11134
489.85300,0.07648
488.36321,0.07383
486.87343,0.06295
485.38364,0.05211
483.89385,0.05825
482.40406,0.08108
480.91427,0.09667
479.42448,0.11228
477.93469,0.13673
476.44491,0.18331
474.95512,0.18959
473.46533,0.19590
471.97554,0.20824
470.48575,0.20761
468.99596,0.19208
467.50618,0.18123
466.01639,0.17041
464.52660,0.15611
463.03681,0.10327
461.54702,0.09406
460.05723,0.08488
458.56745,0.05654
457.07766,0.03345
455.58787,0.03810
454.09808,0.04278
452.60829,0.03914
451.11850,0.02739
449.62871,0.02448
448.13893,0.02160
446.64914,0.01671
445.15935,0.00699
443.66956,0.01834
442.17977,0.01934
440.68998,0.02037
439.20020,0.02714
437.71041,0.03549
436.22062,0.03368
434.73083,0.03190
433.24104,0.04497
431.75125,0.04139
430.26146,0.04559
428.77168,0.04981
427.28189,0.04786
425.79210,0.04011
424.30231,0.03791
422.81252,0.03574
421.32273,0.01295
419.83295,0.02817
418.34316,0.02519
416.85337,0.02224
415.36358,0.01583
413.87379,0.03987
412.38400,0.03786
410.89422,0.03588
409.40443,0.04507
407.91464,0.01958
406.42485,0.02319
404.93506,0.02198
403.44527,0.02080
401.95548,0.02720
400.46570,0.03789
398.97591,0.03590
397.48612,0.03394
395.99633,0.05013
394.50654,0.03358
393.01675,0.03266
391.52697,0.03176
390.03718,0.01838
388.54739,0.01608
387.05760,0.02049
385.56781,0.02492
384.07802,0.00699
382.58824,0.02567
381.09845,0.02383
379.60866,0.02202
378.11887,0.02081
376.62908,0.00547
375.13929,0.01002
373.64950,0.01460
372.15972,0.02648
370.66993,0.02655
369.18014,0.01860
367.69035,0.01068
366.20056,0.01314
364.71077,0.02067
363.22099,0.02134
361.73120,0.02204
360.24141,0.04418
358.75162,0.06402
357.26183,0.06750
355.77204,0.07100
354.28225,0.05815
352.79247,0.07886
351.30268,0.06654
349.81289,0.05425
348.32310,0.06960
346.83331,0.07102
345.34352,0.05792
343.85374,0.04485
342.36395,0.06825
340.87416,0.05484
339.38437,0.05618
337.89458,0.05755
336.40479,0.03762
334.91501,0.02838
333.42522,0.02042
331.93543,0.01248
330.44564,0.00699
328.95585,0.01505
327.46606,0.02004
325.97627,0.02505
324.48649,0.04113
322.99670,0.05646
321.50691,0.06406
320.01712,0.07169
318.52733,0.08302
317.03754,0.05735
315.54776,0.05119
314.05797,0.04505
312.56818,0.07276
311.07839,0.08247
309.58860,0.07407
308.09881,0.06570
306.60902,0.06773
305.11924,0.04884
303.62945,0.02872
302.13966,0.00862
300.64987,0.00896
299.16008,0.00699
