1778.52000,0.01333
1777.03021,0.00949
1775.54042,0.02404
1774.05063,0.01433
1772.56085,0.02115
1771.07106,0.01522
1769.58127,0.01524
1768.09148,0.01902
1766.60169,0.02095
1765.11190,0.02042
1763.62212,0.02801
1762.13233,0.02442
1760.64254,0.03143
1759.15275,0.01200
1757.66296,0.01128
1756.17317,0.00000
1754.68339,0.00618
1753.19360,0.00834
1751.70381,0.00990
1750.21402,0.01211
1748.72423,0.01558
1747.23444,0.01566
1745.74465,0.01888
1744.25487,0.03208
1742.76508,0.02912
1741.27529,0.01621
1739.78550,0.01984
1738.29571,0.01975
1736.80592,0.01128
1735.31614,0.01599
1733.82635,0.01045
1732.33656,0.01739
1730.84677,0.01066
1729.35698,0.01515
1727.86719,0.01158
1726.37740,0.02921
1724.88762,0.02226
1723.39783,0.02686
1721.90804,0.02494
1720.41825,0.02024
1718.92846,0.03052
1717.43867,0.01653
1715.94889,0.01969
1714.45910,0.01821
1712.96931,0.02952
1711.47952,0.02529
1709.98973,0.01672
1708.49994,0.01128
1707.01016,0.01422
1705.52037,0.01719
1704.03058,0.02501
1702.54079,0.02538
1701.05100,0.02453
1699.56121,0.02401
1698.07142,0.02134
1696.58164,0.03177
1695.09185,0.05157
1693.60206,0.02531
1692.11227,0.03021
1690.62248,0.03669
1689.13269,0.02016
1687.64291,0.04538
1686.15312,0.03979
1684.66333,0.04357
1683.17354,0.05391
1681.68375,0.04217
1680.19396,0.04852
1678.70417,0.07575
1677.21439,0.05848
1675.72460,0.08608
1674.23481,0.07726
1672.74502,0.05695
1671.25523,0.07559
1669.76544,0.08491
1668.27566,0.08118
1666.78587,0.09460
1665.29608,0.09216
1663.80629,0.08072
1662.31650,0.10355
1660.82671,0.11302
1659.33693,0.11473
1657.84714,0.09778
1656.35735,0.10577
1654.86756,0.09790
1653.37777,0.10687
1651.88798,0.07445
1650.39819,0.10776
1648.90841,0.10404
1647.41862,0.10314
1645.92883,0.09869
1644.43904,0.09426
1642.94925,0.10154
1641.45946,0.10822
1639.96968,0.09343
1638.47989,0.10732
1636.99010,0.09258
1635.50031,0.08535
1634.01052,0.07782
1632.52073,0.08403
1631.03094,0.10458
1629.54116,0.07377
1628.05137,0.09282
1626.56158,0.07795
1625.07179,0.10265
1623.58200,0.09841
1622.09221,0.10416
1620.60243,0.11337
1619.11264,0.11294
1617.62285,0.10787
1616.13306,0.10750
1614.64327,0.07102
1613.15348,0.08377
1611.66370,0.07849
1610.17391,0.08039
1608.68412,0.08014
1607.19433,0.07836
1605.70454,0.09279
1604.21475,0.08685
1602.72496,0.08094
1601.23518,0.08237
1599.74539,0.08631
1598.25560,0.07534
1596.76581,0.07902
1595.27602,0.09643
1593.78623,0.08522
1592.29645,0.07963
1590.80666,0.09089
1589.31687,0.07757
1587.82708,0.07423
1586.33729,0.08681
1584.84750,0.09723
1583.35771,0.09086
1581.86793,0.07455
1580.37814,0.09532
1578.88835,0.10148
1577.39856,0.10113
1575.90877,0.10329
1574.41898,0.09458
1572.92920,0.09056
1571.43941,0.07722
1569.94962,0.07076
1568.45983,0.06433
1566.97004,0.06352
1565.48025,0.05465
1563.99047,0.05483
1562.50068,0.04164
1561.01089,0.04062
1559.52110,0.03278
1558.03131,0.03835
1556.54152,0.04738
1555.05173,0.03338
1553.56195,0.04183
1552.07216,0.03566
1550.58237,0.02828
1549.09258,0.01407
1547.60279,0.02698
1546.11300,0.01282
1544.62322,0.02235
1543.13343,0.01758
1541.64364,0.01128
1540.15385,0.01818
1538.66406,0.02509
1537.17427,0.02456
1535.68448,0.02468
1534.19470,0.03447
1532.70491,0.01128
1531.21512,0.01333
1529.72533,0.01695
1528.23554,0.03804
1526.74575,0.03798
1525.25597,0.03607
1523.76618,0.04914
1522.27639,0.03950
1520.78660,0.04234
1519.29681,0.06825
1517.80702,0.06398
1516.31724,0.05506
1514.82745,0.06578
1513.33766,0.06189
1511.84787,0.05803
1510.35808,0.06353
1508.86829,0.05411
1507.37850,0.05251
1505.88872,0.05404
1504.39893,0.06306
1502.90914,0.06900
1501.41935,0.06905
1499.92956,0.11864
1498.43977,0.09258
1496.94999,0.08865
1495.46020,0.08631
1493.97041,0.08897
1492.48062,0.09975
1490.99083,0.09343
1489.50104,0.13167
1488.01125,0.13101
1486.52147,0.13037
1485.03168,0.15903
1483.54189,0.17027
1482.05210,0.19151
1480.56231,0.20498
1479.07252,0.21910
1477.58274,0.22795
1476.09295,0.22904
1474.60316,0.22673
1473.11337,0.22569
1471.62358,0.25115
1470.13379,0.27850
1468.64401,0.27816
1467.15422,0.30805
1465.66443,0.31834
1464.17464,0.32866
1462.68485,0.33932
1461.19506,0.39547
1459.70527,0.46067
1458.21549,0.52372
1456.72570,0.57341
1455.23591,0.65145
1453.74612,0.67316
1452.25633,0.68928
1450.76654,0.68893
1449.27676,0.74122
1447.78697,0.73967
1446.29718,0.73067
1444.80739,0.70908
1443.31760,0.68751
1441.82781,0.60976
1440.33802,0.56006
1438.84824,0.53841
1437.35845,0.52209
1435.86866,0.50703
1434.37887,0.51847
1432.88908,0.53117
1431.39929,0.56976
1429.90951,0.64511
1428.41972,0.73699
1426.92993,0.83015
1425.44014,0.89499
1423.95035,0.91018
1422.46056,0.92540
1420.97078,0.99810
1419.48099,1.01383
1417.99120,1.01932
1416.50141,1.05939
1415.01162,1.04281
1413.52183,0.98172
1412.03204,0.90073
1410.54226,0.81477
1409.05247,0.77649
1407.56268,0.73917
1406.07289,0.65859
1404.58310,0.63331
1403.09331,0.60805
1401.60353,0.52972
1400.11374,0.46574
1398.62395,0.40521
1397.13416,0.35810
1395.64437,0.31070
1394.15458,0.27079
1392.66479,0.24680
1391.17501,0.20134
1389.68522,0.16525
1388.19543,0.14819
1386.70564,0.13472
1385.21585,0.12129
1383.72606,0.08125
1382.23628,0.05992
1380.74649,0.06290
1379.25670,0.05377
1377.76691,0.02442
1376.27712,0.01128
1374.78733,0.02040
1373.29755,0.03329
1371.80776,0.01349
1370.31797,0.01988
1368.82818,0.02801
1367.33839,0.03617
1365.84860,0.03204
1364.35881,0.04103
1362.86903,0.03664
1361.37924,0.06592
1359.88945,0.07964
1358.39966,0.09962
1356.90987,0.14112
1355.42008,0.17672
1353.93030,0.24255
1352.44051,0.26575
1350.95072,0.28897
1349.46093,0.35301
1347.97114,0.41707
1346.48135,0.50078
1344.99156,0.58483
1343.50178,0.66173
1342.01199,0.67732
1340.52220,0.77919
1339.03241,0.81724
1337.54262,0.90390
1336.05283,0.95368
1334.56305,1.00349
1333.07326,1.10611
1331.58347,1.17449
1330.09368,1.18404
1328.60389,1.14815
1327.11410,1.06651
1325.62432,0.96900
1324.13453,0.94097
1322.64474,0.87341
1321.15495,0.84387
1319.66516,0.81327
1318.17537,0.78269
1316.68558,0.72862
1315.19580,0.64748
1313.70601,0.59346
1312.21622,0.54912
1310.72643,0.51540
1309.23664,0.46986
1307.74685,0.41750
1306.25707,0.40067
1304.76728,0.38276
1303.27749,0.36489
1301.78770,0.32041
1300.29791,0.27035
1298.80812,0.22250
1297.31834,0.17654
1295.82855,0.14867
1294.33876,0.13172
1292.84897,0.11853
1291.35918,0.11035
1289.86939,0.10671
1288.37960,0.10310
1286.88982,0.10340
1285.40003,0.08131
1283.91024,0.07481
1282.42045,0.05121
1280.93066,0.05192
1279.44087,0.06418
1277.95109,0.06837
1276.46130,0.05016
1274.97151,0.04989
1273.48172,0.04964
1271.99193,0.04956
1270.50214,0.06197
1269.01235,0.03019
1267.52257,0.04763
1266.03278,0.04298
1264.54299,0.04864
1263.05320,0.02816
1261.56341,0.02531
1260.07362,0.02247
1258.58384,0.01951
1257.09405,0.01377
1255.60426,0.03920
1254.11447,0.04222
1252.62468,0.02784
1251.13489,0.01597
1249.64511,0.01128
1248.15532,0.03965
1246.66553,0.04392
1245.17574,0.04820
1243.68595,0.03305
1242.19616,0.01761
1240.70637,0.02897
1239.21659,0.02448
1237.72680,0.02811
1236.23701,0.03955
1234.74722,0.05320
1233.25743,0.04632
1231.76764,0.03946
1230.27786,0.05847
1228.78807,0.04326
1227.29828,0.05609
1225.80849,0.03625
1224.31870,0.02017
1222.82891,0.01128
1221.33912,0.02916
1219.84934,0.02651
1218.35955,0.02388
1216.86976,0.06177
1215.37997,0.07258
1213.89018,0.06006
1212.40039,0.07778
1210.91061,0.09178
1209.42082,0.08806
1207.93103,0.08358
1206.44124,0.07913
1204.95145,0.08980
1203.46166,0.08462
1201.97188,0.07760
1200.48209,0.06374
1198.99230,0.07483
1197.50251,0.07442
1196.01272,0.06033
1194.52293,0.03926
1193.03314,0.01821
1191.54336,0.02413
1190.05357,0.01138
1188.56378,0.03012
1187.07399,0.02303
1185.58420,0.03434
1184.09441,0.02480
1182.60463,0.02994
1181.11484,0.03509
1179.62505,0.01816
1178.13526,0.01558
1176.64547,0.02859
1175.15568,0.01734
1173.66589,0.02262
1172.17611,0.01080
1170.68632,0.01426
1169.19653,0.01774
1167.70674,0.01128
1166.21695,0.02422
1164.72716,0.02285
1163.23738,0.03926
1161.74759,0.05196
1160.25780,0.04693
1158.76801,0.05781
1157.27822,0.06871
1155.78843,0.06811
1154.29865,0.08934
1152.80886,0.10686
1151.31907,0.11350
1149.82928,0.15442
1148.33949,0.16267
1146.84970,0.15584
1145.35991,0.14903
1143.87013,0.15237
1142.38034,0.19591
1140.89055,0.19930
1139.40076,0.20614
1137.91097,0.19245
1136.42118,0.20619
1134.93140,0.20314
1133.44161,0.20011
1131.95182,0.22358
1130.46203,0.24770
1128.97224,0.23540
1127.48245,0.23870
1125.99266,0.22552
1124.50288,0.23292
1123.01309,0.21933
1121.52330,0.20575
1120.03351,0.22350
1118.54372,0.21917
1117.05393,0.23261
1115.56415,0.24046
1114.07436,0.22748
1112.58457,0.23056
1111.09478,0.23367
1109.60499,0.25315
1108.11520,0.23435
1106.62542,0.21277
1105.13563,0.22298
1103.64584,0.23447
1102.15605,0.23476
1100.66626,0.22403
1099.17647,0.21332
1097.68668,0.20185
1096.19690,0.17764
1094.70711,0.18772
1093.21732,0.17571
1091.72753,0.19673
1090.23774,0.18944
1088.74795,0.18217
1087.25817,0.17804
1085.76838,0.16491
1084.27859,0.15273
1082.78880,0.16051
1081.29901,0.17205
1079.80922,0.16992
1078.31943,0.17824
1076.82965,0.18659
1075.33986,0.17985
1073.85007,0.14730
1072.36028,0.17207
1070.87049,0.20340
1069.38070,0.23227
1067.89092,0.26288
1066.40113,0.29351
1064.91134,0.32183
1063.42155,0.40623
1061.93176,0.46854
1060.44197,0.54240
1058.95219,0.61287
1057.46240,0.64754
1055.97261,0.68224
1054.48282,0.80758
1052.99303,0.86413
1051.50324,0.86402
1050.01345,0.82220
1048.52367,0.85391
1047.03388,0.83939
1045.54409,0.82490
1044.05430,0.81994
1042.56451,0.76579
1041.07472,0.73565
1039.58494,0.66847
1038.09515,0.57422
1036.60536,0.54882
1035.11557,0.52345
1033.62578,0.47630
1032.13599,0.40738
1030.64620,0.33319
1029.15642,0.30449
1027.66663,0.27208
1026.17684,0.23969
1024.68705,0.20608
1023.19726,0.19305
1021.70747,0.17226
1020.21769,0.12970
1018.72790,0.13543
1017.23811,0.13464
1015.74832,0.13388
1014.25853,0.12879
1012.76874,0.12808
1011.27896,0.11182
1009.78917,0.12175
1008.29938,0.09277
1006.80959,0.07721
1005.31980,0.06168
1003.83001,0.05053
1002.34022,0.04750
1000.85044,0.06723
999.36065,0.07266
997.87086,0.07126
996.38107,0.06989
994.89128,0.09875
993.40149,0.11580
991.91171,0.11637
990.42192,0.11354
988.93213,0.15215
987.44234,0.15498
985.95255,0.15783
984.46276,0.17191
982.97297,0.15675
981.48319,0.15064
979.99340,0.12183
978.50361,0.11686
977.01382,0.11191
975.52403,0.07881
974.03424,0.07874
972.54446,0.05379
971.05467,0.07183
969.56488,0.04070
968.07509,0.03808
966.58530,0.03549
965.09551,0.01128
963.60573,0.04664
962.11594,0.03002
960.62615,0.06325
959.13636,0.06567
957.64657,0.06811
956.15678,0.04318
954.66699,0.05689
953.17721,0.06065
951.68742,0.06818
950.19763,0.06795
948.70784,0.06774
947.21805,0.09590
945.72826,0.07675
944.23848,0.11087
942.74869,0.13069
941.25890,0.15708
939.76911,0.14534
938.27932,0.13363
936.78953,0.16725
935.29974,0.19125
933.80996,0.21278
932.32017,0.21097
930.83038,0.22087
929.34059,0.23079
927.85080,0.25896
926.36101,0.33293
924.87123,0.33904
923.38144,0.40216
921.89165,0.44164
920.40186,0.48114
918.91207,0.57330
917.42228,0.69070
915.93250,0.85547
914.44271,1.07663
912.95292,1.17154
911.46313,1.26646
909.97334,1.43164
908.48355,1.64730
906.99376,1.73405
905.50398,1.84325
904.01419,1.88629
902.52440,1.92936
901.03461,1.99410
899.54482,2.00000
898.05503,1.91468
896.56525,1.72070
895.07546,1.58763
893.58567,1.45458
892.09588,1.14046
890.60609,0.88118
889.11630,0.67549
887.62651,0.44896
886.13673,0.39529
884.64694,0.34165
883.15715,0.25938
881.66736,0.19240
880.17757,0.15627
878.68778,0.13885
877.19800,0.12146
875.70821,0.09443
874.21842,0.05747
872.72863,0.03610
871.23884,0.01943
869.74905,0.02676
868.25927,0.03412
866.76948,0.04462
865.27969,0.03116
863.78990,0.02302
862.30011,0.03608
860.81032,0.04668
859.32053,0.05730
857.83075,0.08165
856.34096,0.09792
854.85117,0.07934
853.36138,0.07791
851.87159,0.08913
850.38180,0.10036
848.89202,0.14012
847.40223,0.13661
845.91244,0.14278
844.42265,0.15116
842.93286,0.15956
841.44307,0.16518
839.95329,0.19606
838.46350,0.21792
836.97371,0.21365
835.48392,0.21097
833.99413,0.20831
832.50434,0.21875
831.01455,0.20711
829.52477,0.18833
828.03498,0.18950
826.54519,0.16314
825.05540,0.13680
823.56561,0.12248
822.07582,0.11908
820.58604,0.10138
819.09625,0.09414
817.60646,0.08692
816.11667,0.09110
814.62688,0.08409
813.13709,0.07305
811.64730,0.08851
810.15752,0.09248
808.66773,0.09647
807.17794,0.11947
805.68815,0.09860
804.19836,0.09301
802.70857,0.10223
801.21879,0.11148
799.72900,0.10316
798.23921,0.07867
796.74942,0.08971
795.25963,0.09267
793.76984,0.09566
792.28006,0.09930
790.79027,0.09455
789.30048,0.12097
787.81069,0.15147
786.32090,0.16205
784.83111,0.17267
783.34132,0.21912
781.85154,0.23663
780.36175,0.26195
778.87196,0.27827
777.38217,0.29461
775.89238,0.31378
774.40259,0.32643
772.91281,0.30486
771.42302,0.29187
769.93323,0.27890
768.44344,0.27577
766.95365,0.23374
765.46386,0.24654
763.97407,0.18183
762.48429,0.16743
760.99450,0.15306
759.50471,0.13014
758.01492,0.10570
756.52513,0.09436
755.03534,0.08522
753.54556,0.07611
752.05577,0.08011
750.56598,0.06824
749.07619,0.04021
747.58640,0.04879
746.09661,0.05740
744.60683,0.05000
743.11704,0.03141
741.62725,0.01128
740.13746,0.01725
738.64767,0.02324
737.15788,0.01447
735.66809,0.01194
734.17831,0.02408
732.68852,0.02067
731.19873,0.01729
729.70894,0.02577
728.21915,0.01590
726.72936,0.01928
725.23958,0.02892
723.74979,0.02768
722.26000,0.02647
720.77021,0.01843
719.28042,0.02973
717.79063,0.01209
716.30084,0.01169
714.81106,0.01128
713.32127,0.01629
711.83148,0.04124
710.34169,0.04910
708.85190,0.05791
707.36211,0.06675
705.87233,0.06285
704.38254,0.08513
702.89275,0.08065
701.40296,0.07541
699.91317,0.07021
698.42338,0.09009
696.93360,0.09879
695.44381,0.11219
693.95402,0.11658
692.46423,0.12100
690.97444,0.12917
689.48465,0.12990
687.99486,0.16429
686.50508,0.16646
685.01529,0.16867
683.52550,0.20593
682.03571,0.22266
680.54592,0.23880
679.05613,0.23814
677.56635,0.23751
676.07656,0.25310
674.58677,0.24504
673.09698,0.23109
671.60719,0.21421
670.11740,0.19735
668.62761,0.16510
667.13783,0.15032
665.64804,0.14303
664.15825,0.13577
662.66846,0.11795
661.17867,0.08644
659.68888,0.06524
658.19910,0.06057
656.70931,0.05593
655.21952,0.06221
653.72973,0.05886
652.23994,0.04152
650.75015,0.06080
649.26037,0.08010
647.77058,0.06408
646.28079,0.04871
644.79100,0.04270
643.30121,0.03096
641.81142,0.01925
640.32163,0.03574
638.83185,0.01644
637.34206,0.02516
635.85227,0.03125
634.36248,0.03737
632.87269,0.01128
631.38290,0.03884
629.89312,0.02657
628.40333,0.01992
626.91354,0.01330
625.42375,0.05186
623.93396,0.02255
622.44417,0.03189
620.95438,0.04125
619.46460,0.06932
617.97481,0.08309
616.48502,0.07072
614.99523,0.07208
613.50544,0.07347
612.01565,0.09793
610.52587,0.13455
609.03608,0.17245
607.54629,0.18966
606.05650,0.20690
604.56671,0.22743
603.07692,0.28194
601.58714,0.30781
600.09735,0.33371
598.60756,0.35715
597.11777,0.36410
595.62798,0.37419
594.13819,0.36749
592.64840,0.36082
591.15862,0.31586
589.66883,0.28432
588.17904,0.23007
586.68925,0.21478
585.19946,0.19950
583.70967,0.14346
582.21989,0.13821
580.73010,0.11476
579.24031,0.09133
577.75052,0.08646
576.26073,0.05577
574.77094,0.03849
573.28115,0.03556
571.79137,0.03266
570.30158,0.03663
568.81179,0.06866
567.32200,0.07081
565.83221,0.07299
564.34242,0.07986
562.85264,0.09517
561.36285,0.11549
559.87306,0.11995
558.38327,0.12443
556.89348,0.13734
555.40369,0.13471
553.91391,0.14955
552.42412,0.16441
550.93433,0.17213
549.44454,0.17333
547.95475,0.18297
546.46496,0.18376
544.97517,0.18457
543.48539,0.19646
541.99560,0.22115
540.50581,0.24259
539.01602,0.26405
537.52623,0.31809
536.03644,0.35876
534.54666,0.40910
533.05687,0.41432
531.56708,0.41956
530.07729,0.46967
528.58750,0.53288
527.09771,0.54162
525.60792,0.55038
524.11814,0.58284
522.62835,0.60691
521.13856,0.69454
519.64877,0.71913
518.15898,0.74375
516.66919,0.76138
515.17941,0.75007
513.68962,0.77616
512.19983,0.80228
510.71004,0.75524
509.22025,0.71569
507.73046,0.64347
506.24068,0.61425
504.75089,0.58506
503.26110,0.45779
501.77131,0.38411
500.28152,0.34876
498.79173,0.31344
497.30194,0.26911
495.81216,0.20394
494.32237,0.18940
492.83258,0.17488
491.34279,0.12504
489.85300,0.10201
488.36321,0.09520
486.87343,0.08437
485.38364,0.07356
483.89385,0.08146
482.40406,0.11118
480.91427,0.10185
479.42448,0.09254
477.93469,0.12389
476.44491,0.11977
474.95512,0.13561
473.46533,0.15146
471.97554,0.15863
470.48575,0.12876
468.99596,0.16338
467.50618,0.15131
466.01639,0.13926
464.52660,0.11696
463.03681,0.10559
461.54702,0.10872
460.05723,0.11188
458.56745,0.04982
457.07766,0.05412
455.58787,0.05501
454.09808,0.05593
452.60829,0.04380
451.11850,0.02141
449.62871,0.01634
448.13893,0.01128
446.64914,0.02026
445.15935,0.02802
443.66956,0.03674
442.17977,0.03209
440.68998,0.02746
439.20020,0.04279
437.71041,0.05161
436.22062,0.04986
434.73083,0.04814
433.24104,0.04862
431.75125,0.04290
430.26146,0.04358
428.77168,0.04429
427.28189,0.04487
425.79210,0.03551
424.30231,0.02929
422.81252,0.02310
421.32273,0.02658
419.83295,0.06777
418.34316,0.05806
416.85337,0.04838
415.36358,0.03172
413.87379,0.05588
412.38400,0.04861
410.89422,0.04137
409.40443,0.05626
407.91464,0.05654
406.42485,0.02975
404.93506,0.02463
403.44527,0.01953
401.95548,0.03299
400.46570,0.01128
398.97591,0.03102
397.48612,0.05078
395.99633,0.05640
394.50654,0.05176
393.01675,0.04731
391.52697,0.04288
390.03718,0.04018
388.54739,0.03907
387.05760,0.03067
385.56781,0.02229
384.07802,0.01128
382.58824,0.02956
381.09845,0.03166
379.60866,0.03379
378.11887,0.03750
376.62908,0.04249
375.13929,0.03301
373.64950,0.02356
372.15972,0.04637
370.66993,0.05114
369.18014,0.05126
367.69035,0.05141
366.20056,0.05002
364.71077,0.07420
363.22099,0.07193
361.73120,0.06969
360.24141,0.07214
358.75162,0.07866
357.26183,0.07011
355.77204,0.06158
354.28225,0.09060
352.79247,0.07106
351.30268,0.06775
349.81289,0.06446
348.32310,0.06928
346.83331,0.04051
345.34352,0.02794
343.85374,0.01541
342.36395,0.04868
340.87416,0.02840
339.38437,0.02544
337.89458,0.02250
336.40479,0.04435
334.91501,0.02324
333.42522,0.01960
331.93543,0.01598
330.44564,0.01550
328.95585,0.02376
327.46606,0.01820
325.97627,0.01265
324.48649,0.01128
322.99670,0.02343
321.50691,0.03234
320.01712,0.04127
318.52733,0.03356
317.03754,0.07882
315.54776,0.06119
314.05797,0.04359
312.56818,0.05187
311.07839,0.07480
309.58860,0.06802
308.09881,0.06127
306.60902,0.06497
305.11924,0.06153
303.62945,0.06077
302.13966,0.06003
300.64987,0.03144
299.16008,0.01128
