1778.52000,0.01587
1777.03021,0.02187
1775.54042,0.01610
1774.05063,0.01626
1772.56085,0.01165
1771.07106,0.02770
1769.58127,0.01872
1768.09148,0.02008
1766.60169,0.00415
1765.11190,0.02177
1763.62212,0.01768
1762.13233,0.00809
1760.64254,0.02357
1759.15275,0.01918
1757.66296,0.02330
1756.17317,0.01086
1754.68339,0.01870
1753.19360,0.00852
1751.70381,0.01126
1750.21402,0.00629
1748.72423,0.00981
1747.23444,0.00084
1745.74465,0.00515
1744.25487,0.00911
1742.76508,0.01458
1741.27529,0.01859
1739.78550,0.01674
1738.29571,0.02191
1736.80592,0.01347
1735.31614,0.00433
1733.82635,0.01477
1732.33656,0.01014
1730.84677,0.00000
1729.35698,0.01383
1727.86719,0.00485
1726.37740,0.01284
1724.88762,0.01201
1723.39783,0.00863
1721.90804,0.00895
1720.41825,0.00746
1718.92846,0.00415
1717.43867,0.00577
1715.94889,0.01147
1714.45910,0.00908
1712.96931,0.01151
1711.47952,0.01102
1709.98973,0.01313
1708.49994,0.00679
1707.01016,0.01318
1705.52037,0.01960
1704.03058,0.01629
1702.54079,0.00415
1701.05100,0.00634
1699.56121,0.01077
1698.07142,0.02332
1696.58164,0.01675
1695.09185,0.02677
1693.60206,0.04308
1692.11227,0.02663
1690.62248,0.03378
1689.13269,0.02660
1687.64291,0.02496
1686.15312,0.03992
1684.66333,0.03943
1683.17354,0.04597
1681.68375,0.04185
1680.19396,0.05396
1678.70417,0.02706
1677.21439,0.05874
1675.72460,0.05399
1674.23481,0.05699
1672.74502,0.06628
1671.25523,0.06123
1669.76544,0.09377
1668.27566,0.08656
1666.78587,0.07753
1665.29608,0.08916
1663.80629,0.08644
1662.31650,0.08927
1660.82671,0.09729
1659.33693,0.10680
1657.84714,0.10602
1656.35735,0.11374
1654.86756,0.10160
1653.37777,0.09537
1651.88798,0.10758
1650.39819,0.08925
1648.90841,0.10594
1647.41862,0.09170
1645.92883,0.09168
1644.43904,0.09168
1642.94925,0.09483
1641.45946,0.10206
1639.96968,0.10563
1638.47989,0.10592
1636.99010,0.12206
1635.50031,0.09035
1634.01052,0.08555
1632.52073,0.08961
1631.03094,0.07897
1629.54116,0.09376
1628.05137,0.09090
1626.56158,0.09727
1625.07179,0.10993
1623.58200,0.10088
1622.09221,0.11875
1620.60243,0.11049
1619.11264,0.09820
1617.62285,0.11614
1616.13306,0.09285
1614.64327,0.09869
1613.15348,0.10528
1611.66370,0.10085
1610.17391,0.10639
1608.68412,0.07991
1607.19433,0.11423
1605.70454,0.09332
1604.21475,0.09933
1602.72496,0.10536
1601.23518,0.07753
1599.74539,0.08951
1598.25560,0.08125
1596.76581,0.07707
1595.27602,0.07659
1593.78623,0.08277
1592.29645,0.09008
1590.80666,0.09705
1589.31687,0.08525
1587.82708,0.07791
1586.33729,0.08973
1584.84750,0.09422
1583.35771,0.09431
1581.86793,0.07675
1580.37814,0.09015
1578.88835,0.06453
1577.39856,0.07062
1575.90877,0.05647
1574.41898,0.05708
1572.92920,0.07760
1571.43941,0.05947
1569.94962,0.05850
1568.45983,0.05755
1566.97004,0.03876
1565.48025,0.03436
1563.99047,0.05466
1562.50068,0.04626
1561.01089,0.02499
1559.52110,0.02990
1558.03131,0.05030
1556.54152,0.02468
1555.05173,0.04145
1553.56195,0.04277
1552.07216,0.04191
1550.58237,0.04439
1549.09258,0.02516
1547.60279,0.02695
1546.11300,0.01661
1544.62322,0.01550
1543.13343,0.01994
1541.64364,0.00415
1540.15385,0.00848
1538.66406,0.01283
1537.17427,0.03635
1535.68448,0.02823
1534.19470,0.02455
1532.70491,0.02715
1531.21512,0.00474
1529.72533,0.02433
1528.23554,0.02259
1526.74575,0.02235
1525.25597,0.03061
1523.76618,0.03557
1522.27639,0.05235
1520.78660,0.04115
1519.29681,0.03477
1517.80702,0.03652
1516.31724,0.04419
1514.82745,0.04672
1513.33766,0.04670
1511.84787,0.04671
1510.35808,0.05079
1508.86829,0.04163
1507.37850,0.03435
1505.88872,0.02709
1504.39893,0.03090
1502.90914,0.05168
1501.41935,0.05443
1499.92956,0.07747
1498.43977,0.08101
1496.94999,0.07685
1495.46020,0.08523
1493.97041,0.09290
1492.48062,0.07849
1490.99083,0.08805
1489.50104,0.09395
1488.01125,0.09196
1486.52147,0.08999
1485.03168,0.11990
1483.54189,0.13916
1482.05210,0.16508
1480.56231,0.19359
1479.07252,0.17941
1477.58274,0.21792
1476.09295,0.23988
1474.60316,0.20330
1473.11337,0.21942
1471.62358,0.22341
1470.13379,0.25063
1468.64401,0.25135
1467.15422,0.28009
1465.66443,0.29191
1464.17464,0.30375
1462.68485,0.31857
1461.19506,0.34520
1459.70527,0.39469
1458.21549,0.46740
1456.72570,0.51731
1455.23591,0.61033
1453.74612,0.67171
1452.25633,0.70143
1450.76654,0.68919
1449.27676,0.66556
1447.78697,0.65926
1446.29718,0.65372
1444.80739,0.64103
1443.31760,0.62836
1441.82781,0.57980
1440.33802,0.55374
1438.84824,0.53138
1437.35845,0.50463
1435.86866,0.47827
1434.37887,0.49945
1432.88908,0.53134
1431.39929,0.55588
1429.90951,0.61102
1428.41972,0.70191
1426.92993,0.77589
1425.44014,0.81342
1423.95035,0.83809
1422.46056,0.86278
1420.97078,0.90776
1419.48099,0.97596
1417.99120,0.92448
1416.50141,0.90434
1415.01162,0.90116
1413.52183,0.85050
1412.03204,0.81275
1410.54226,0.74409
1409.05247,0.68650
1407.56268,0.65730
1406.07289,0.56735
1404.58310,0.54520
1403.09331,0.52306
1401.60353,0.46413
1400.11374,0.42510
1398.62395,0.35627
1397.13416,0.32466
1395.64437,0.26509
1394.15458,0.23721
1392.66479,0.18284
1391.17501,0.15833
1389.68522,0.12169
1388.19543,0.10386
1386.70564,0.08918
1385.21585,0.07453
1383.72606,0.06709
1382.23628,0.04604
1380.74649,0.03128
1379.25670,0.02464
1377.76691,0.01619
1376.27712,0.00887
1374.78733,0.00415
1373.29755,0.02793
1371.80776,0.02153
1370.31797,0.01846
1368.82818,0.01542
1367.33839,0.01241
1365.84860,0.03078
1364.35881,0.02598
1362.86903,0.02414
1361.37924,0.06653
1359.88945,0.07542
1358.39966,0.11234
1356.90987,0.12312
1355.42008,0.19802
1353.93030,0.25121
1352.44051,0.26539
1350.95072,0.27959
1349.46093,0.34280
1347.97114,0.40788
1346.48135,0.48882
1344.99156,0.58930
1343.50178,0.64193
1342.01199,0.68464
1340.52220,0.73401
1339.03241,0.84454
1337.54262,0.86190
1336.05283,0.88685
1334.56305,0.91182
1333.07326,0.95615
1331.58347,0.95041
1330.09368,0.96533
1328.60389,0.98764
1327.11410,0.95656
1325.62432,0.91225
1324.13453,0.85250
1322.64474,0.80639
1321.15495,0.81188
1319.66516,0.77319
1318.17537,0.73453
1316.68558,0.71910
1315.19580,0.62303
1313.70601,0.56492
1312.21622,0.55730
1310.72643,0.49740
1309.23664,0.44931
1307.74685,0.42666
1306.25707,0.40440
1304.76728,0.38438
1303.27749,0.36438
1301.78770,0.33667
1300.29791,0.26221
1298.80812,0.21614
1297.31834,0.18335
1295.82855,0.15795
1294.33876,0.11710
1292.84897,0.10428
1291.35918,0.06606
1289.86939,0.07372
1288.37960,0.08141
1286.88982,0.06242
1285.40003,0.07440
1283.91024,0.06282
1282.42045,0.04243
1280.93066,0.06590
1279.44087,0.04703
1277.95109,0.05103
1276.46130,0.02153
1274.97151,0.03183
1273.48172,0.04216
1271.99193,0.03263
1270.50214,0.03638
1269.01235,0.04347
1267.52257,0.03843
1266.03278,0.02531
1264.54299,0.02768
1263.05320,0.02566
1261.56341,0.02551
1260.07362,0.02538
1258.58384,0.03006
1257.09405,0.01415
1255.60426,0.02072
1254.11447,0.03211
1252.62468,0.01074
1251.13489,0.01002
1249.64511,0.04432
1248.15532,0.01198
1246.66553,0.02146
1245.17574,0.03097
1243.68595,0.03701
1242.19616,0.03202
1240.70637,0.01159
1239.21659,0.03096
1237.72680,0.01720
1236.23701,0.02152
1234.74722,0.04133
1233.25743,0.03907
1231.76764,0.03683
1230.27786,0.02541
1228.78807,0.05379
1227.29828,0.04795
1225.80849,0.03771
1224.31870,0.00355
1222.82891,0.01728
1221.33912,0.00415
1219.84934,0.01574
1218.35955,0.02735
1216.86976,0.04230
1215.37997,0.06684
1213.89018,0.05348
1212.40039,0.08029
1210.91061,0.07876
1209.42082,0.09678
1207.93103,0.08352
1206.44124,0.07028
1204.95145,0.07106
1203.46166,0.05087
1201.97188,0.04949
1200.48209,0.05698
1198.99230,0.05012
1197.50251,0.08234
1196.01272,0.04680
1194.52293,0.04592
1193.03314,0.04505
1191.54336,0.00665
1190.05357,0.01946
1188.56378,0.01131
1187.07399,0.01423
1185.58420,0.01018
1184.09441,0.03230
1182.60463,0.02166
1181.11484,0.01106
1179.62505,0.00415
1178.13526,0.03982
1176.64547,0.01622
1175.15568,0.01510
1173.66589,0.02285
1172.17611,0.02732
1170.68632,0.02020
1169.19653,0.01311
1167.70674,0.00586
1166.21695,0.00415
1164.72716,0.02902
1163.23738,0.04987
1161.74759,0.03722
1160.25780,0.05738
1158.76801,0.06154
1157.27822,0.06572
1155.78843,0.06827
1154.29865,0.08116
1152.80886,0.07934
1151.31907,0.10333
1149.82928,0.11445
1148.33949,0.13886
1146.84970,0.13308
1145.35991,0.12734
1143.87013,0.12383
1142.38034,0.14722
1140.89055,0.15665
1139.40076,0.16721
1137.91097,0.18037
1136.42118,0.17588
1134.93140,0.19480
1133.44161,0.21374
1131.95182,0.21706
1130.46203,0.23255
1128.97224,0.25654
1127.48245,0.25919
1125.99266,0.21399
1124.50288,0.23990
1123.01309,0.23194
1121.52330,0.22401
1120.03351,0.23416
1118.54372,0.21007
1117.05393,0.26078
1115.56415,0.25773
1114.07436,0.24882
1112.58457,0.24804
1111.09478,0.24728
1109.60499,0.23660
1108.11520,0.27162
1106.62542,0.22895
1105.13563,0.23124
1103.64584,0.24460
1102.15605,0.23146
1100.66626,0.23217
1099.17647,0.23290
1097.68668,0.21431
1096.19690,0.21086
1094.70711,0.20116
1093.21732,0.23164
1091.72753,0.21610
1090.23774,0.21016
1088.74795,0.20425
1087.25817,0.16448
1085.76838,0.16046
1084.27859,0.18224
1082.78880,0.19705
1081.29901,0.16659
1079.80922,0.18366
1078.31943,0.17645
1076.82965,0.16926
1075.33986,0.18788
1073.85007,0.16343
1072.36028,0.17768
1070.87049,0.14775
1069.38070,0.23130
1067.89092,0.24322
1066.40113,0.25518
1064.91134,0.31154
1063.42155,0.36903
1061.93176,0.40408
1060.44197,0.52791
1058.95219,0.56448
1057.46240,0.62133
1055.97261,0.67821
1054.48282,0.75979
1052.99303,0.88854
1051.50324,0.88582
1050.01345,0.88718
1048.52367,0.85947
1047.03388,0.86033
1045.54409,0.86121
1044.05430,0.83873
1042.56451,0.75182
1041.07472,0.71023
1039.58494,0.66241
1038.09515,0.60246
1036.60536,0.57200
1035.11557,0.54156
1033.62578,0.48095
1032.13599,0.42368
1030.64620,0.32628
1029.15642,0.31988
1027.66663,0.28552
1026.17684,0.25118
1024.68705,0.25333
1023.19726,0.22014
1021.70747,0.16599
1020.21769,0.13617
1018.72790,0.14468
1017.23811,0.13848
1015.74832,0.13231
1014.25853,0.12358
1012.76874,0.11930
1011.27896,0.14303
1009.78917,0.13327
1008.29938,0.09223
1006.80959,0.09320
1005.31980,0.09420
1003.83001,0.02856
1002.34022,0.02702
1000.85044,0.00415
999.36065,0.04379
997.87086,0.04017
996.38107,0.03658
994.89128,0.04756
993.40149,0.05230
991.91171,0.07585
990.42192,0.08506
988.93213,0.07257
987.44234,0.08975
985.95255,0.10696
984.46276,0.07981
982.97297,0.08619
981.48319,0.10439
979.99340,0.06295
978.50361,0.05376
977.01382,0.04460
975.52403,0.03932
974.03424,0.02929
972.54446,0.02775
971.05467,0.01408
969.56488,0.01185
968.07509,0.00799
966.58530,0.00415
965.09551,0.01414
963.60573,0.00795
962.11594,0.01173
960.62615,0.03137
959.13636,0.03133
957.64657,0.03131
956.15678,0.02009
954.66699,0.01552
953.17721,0.03712
951.68742,0.03960
950.19763,0.04431
948.70784,0.04905
947.21805,0.06375
945.72826,0.08622
944.23848,0.10650
942.74869,0.15185
941.25890,0.13166
939.76911,0.14336
938.27932,0.15509
936.78953,0.14529
935.29974,0.18524
933.80996,0.17217
932.32017,0.19965
930.83038,0.21499
929.34059,0.23036
927.85080,0.21887
926.36101,0.27775
924.87123,0.28841
923.38144,0.35176
921.89165,0.36836
920.40186,0.38499
918.91207,0.49040
917.42228,0.63893
915.93250,0.78380
914.44271,0.97363
912.95292,1.07399
911.46313,1.17437
909.97334,1.37790
908.48355,1.64002
906.99376,1.77804
905.50398,1.92640
904.01419,1.93980
902.52440,1.95322
901.03461,2.00000
899.54482,1.92894
898.05503,1.80303
896.56525,1.67825
895.07546,1.55073
893.58567,1.42323
892.09588,1.20866
890.60609,0.94107
889.11630,0.70555
887.62651,0.50799
886.13673,0.45060
884.64694,0.39323
883.15715,0.23994
881.66736,0.18170
880.17757,0.13343
878.68778,0.12276
877.19800,0.11211
875.70821,0.09485
874.21842,0.04079
872.72863,0.01843
871.23884,0.02076
869.74905,0.01245
868.25927,0.00415
866.76948,0.01053
865.27969,0.01104
863.78990,0.03956
862.30011,0.02391
860.81032,0.04107
859.32053,0.05825
857.83075,0.05446
856.34096,0.06027
854.85117,0.07053
853.36138,0.07455
851.87159,0.08375
850.38180,0.09297
848.89202,0.10112
847.40223,0.12439
845.91244,0.15469
844.42265,0.14909
842.93286,0.14353
841.44307,0.16616
839.95329,0.18182
838.46350,0.18498
836.97371,0.20069
835.48392,0.19635
833.99413,0.19204
832.50434,0.19383
831.01455,0.18606
829.52477,0.18090
828.03498,0.15477
826.54519,0.13843
825.05540,0.12211
823.56561,0.12404
822.07582,0.09175
820.58604,0.08968
819.09625,0.07825
817.60646,0.06684
816.11667,0.08585
814.62688,0.07651
813.13709,0.07052
811.64730,0.07634
810.15752,0.07592
808.66773,0.07552
807.17794,0.09504
805.68815,0.11016
804.19836,0.11316
802.70857,0.09923
801.21879,0.08534
799.72900,0.09135
798.23921,0.07124
796.74942,0.07252
795.25963,0.07511
793.76984,0.07772
792.28006,0.10817
790.79027,0.09555
789.30048,0.10358
787.81069,0.16246
786.32090,0.16207
784.83111,0.16170
783.34132,0.19377
781.85154,0.21444
780.36175,0.26866
778.87196,0.28405
777.38217,0.29946
775.89238,0.29703
774.40259,0.31267
772.91281,0.30255
771.42302,0.29836
769.93323,0.29419
768.44344,0.26573
766.95365,0.23988
765.46386,0.18090
763.97407,0.18088
762.48429,0.16063
760.99450,0.14040
759.50471,0.11061
758.01492,0.09228
756.52513,0.09496
755.03534,0.08219
753.54556,0.06945
752.05577,0.07073
750.56598,0.03374
749.07619,0.04391
747.58640,0.04839
746.09661,0.05290
744.60683,0.03368
743.11704,0.02590
741.62725,0.00415
740.13746,0.00544
738.64767,0.00674
737.15788,0.01471
735.66809,0.01754
734.17831,0.00382
732.68852,0.01738
731.19873,0.03096
729.70894,0.00811
728.21915,0.02580
726.72936,0.00704
725.23958,0.00415
723.74979,0.00683
722.26000,0.00953
720.77021,0.02405
719.28042,0.01354
717.79063,0.01816
716.30084,0.01838
714.81106,0.01862
713.32127,0.00822
711.83148,0.00409
710.34169,0.03130
708.85190,0.02299
707.36211,0.01471
705.87233,0.03241
704.38254,0.03504
702.89275,0.05169
701.40296,0.05548
699.91317,0.05929
698.42338,0.06533
696.93360,0.06919
695.44381,0.09038
693.95402,0.10055
692.46423,0.11075
690.97444,0.11692
689.48465,0.13821
687.99486,0.17463
686.50508,0.18511
685.01529,0.19561
683.52550,0.20963
682.03571,0.24910
680.54592,0.25875
679.05613,0.25628
677.56635,0.25383
676.07656,0.26798
674.58677,0.27810
673.09698,0.24773
671.60719,0.23415
670.11740,0.22059
668.62761,0.17925
667.13783,0.16887
665.64804,0.15151
664.15825,0.13419
662.66846,0.11762
661.17867,0.08119
659.68888,0.07830
658.19910,0.07120
656.70931,0.06412
655.21952,0.04400
653.72973,0.04084
652.23994,0.05023
650.75015,0.05596
649.26037,0.06171
647.77058,0.06491
646.28079,0.04641
644.79100,0.03087
643.30121,0.03028
641.81142,0.02972
640.32163,0.02236
638.83185,0.01945
637.34206,0.02393
635.85227,0.02070
634.36248,0.01749
632.87269,0.01689
631.38290,0.00415
629.89312,0.03121
628.40333,0.02865
626.91354,0.02611
625.42375,0.04845
623.93396,0.03326
622.44417,0.03318
620.95438,0.03314
619.46460,0.03864
617.97481,0.05632
616.48502,0.10423
614.99523,0.10833
613.50544,0.11246
612.01565,0.11035
610.52587,0.15210
609.03608,0.19092
607.54629,0.18907
606.05650,0.18724
604.56671,0.24161
603.07692,0.29711
601.58714,0.34287
600.09735,0.38865
598.60756,0.44864
597.11777,0.44089
595.62798,0.43095
594.13819,0.41625
592.64840,0.40157
591.15862,0.37365
589.66883,0.35497
588.17904,0.29359
586.68925,0.26262
585.19946,0.23168
583.70967,0.18879
582.21989,0.14850
580.73010,0.13568
579.24031,0.12288
577.75052,0.10071
576.26073,0.10619
574.77094,0.09218
573.28115,0.08022
571.79137,0.06828
570.30158,0.04587
568.81179,0.05921
567.32200,0.06742
565.83221,0.07565
564.34242,0.06697
562.85264,0.09624
561.36285,0.16017
559.87306,0.16519
558.38327,0.17023
556.89348,0.14915
555.40369,0.17118
553.91391,0.17353
552.42412,0.17591
550.93433,0.18734
549.44454,0.19179
547.95475,0.22316
546.46496,0.22103
544.97517,0.21893
543.48539,0.25295
541.99560,0.26784
540.50581,0.29399
539.01602,0.32016
537.52623,0.33255
536.03644,0.38143
534.54666,0.39202
533.05687,0.42953
531.56708,0.46706
530.07729,0.51493
528.58750,0.60518
527.09771,0.63173
525.60792,0.65831
524.11814,0.72064
522.62835,0.75317
521.13856,0.78792
519.64877,0.82013
518.15898,0.85236
516.66919,0.89529
515.17941,0.85538
513.68962,0.86079
512.19983,0.86624
510.71004,0.84408
509.22025,0.79506
507.73046,0.75785
506.24068,0.69727
504.75089,0.63672
503.26110,0.52187
501.77131,0.39232
500.28152,0.35670
498.79173,0.32111
497.30194,0.26529
495.81216,0.19366
494.32237,0.17104
492.83258,0.14844
491.34279,0.13028
489.85300,0.10405
488.36321,0.08448
486.87343,0.09715
485.38364,0.10985
483.89385,0.09661
482.40406,0.09960
480.91427,0.10371
479.42448,0.10786
477.93469,0.10834
476.44491,0.13279
474.95512,0.14548
473.46533,0.15819
471.97554,0.12636
470.48575,0.16712
468.99596,0.16628
467.50618,0.15975
466.01639,0.15325
464.52660,0.12818
463.03681,0.11160
461.54702,0.09136
460.05723,0.07115
458.56745,0.07048
457.07766,0.05437
455.58787,0.05486
454.09808,0.05537
452.60829,0.04449
451.11850,0.06494
449.62871,0.06018
448.13893,0.05545
446.64914,0.00415
445.15935,0.05111
443.66956,0.03621
442.17977,0.04343
440.68998,0.05068
439.20020,0.04654
437.71041,0.03542
436.22062,0.04606
434.73083,0.05672
433.24104,0.02616
431.75125,0.03724
430.26146,0.04466
428.77168,0.05211
427.28189,0.03491
425.79210,0.03504
424.30231,0.04035
422.81252,0.04568
421.32273,0.06025
419.83295,0.01997
418.34316,0.04048
416.85337,0.06101
415.36358,0.05064
413.87379,0.04544
412.38400,0.05445
410.89422,0.06348
409.40443,0.05099
407.91464,0.04479
406.42485,0.03198
404.93506,0.02214
403.44527,0.01233
401.95548,0.00927
400.46570,0.01066
398.97591,0.02441
397.48612,0.03818
395.99633,0.03706
394.50654,0.06138
393.01675,0.04908
391.52697,0.03680
390.03718,0.04278
388.54739,0.03037
387.05760,0.02609
385.56781,0.02183
384.07802,0.05076
382.58824,0.01122
381.09845,0.02128
379.60866,0.03136
378.11887,0.06908
376.62908,0.04533
375.13929,0.02473
373.64950,0.00415
372.15972,0.04166
370.66993,0.02283
369.18014,0.03451
367.69035,0.04622
366.20056,0.03695
364.71077,0.06086
363.22099,0.05073
361.73120,0.04062
360.24141,0.01709
358.75162,0.05362
357.26183,0.05408
355.77204,0.05456
354.28225,0.05692
352.79247,0.05487
351.30268,0.04770
349.81289,0.04055
348.32310,0.03342
346.83331,0.02706
345.34352,0.03674
343.85374,0.04645
342.36395,0.02542
340.87416,0.02247
339.38437,0.01384
337.89458,0.00523
336.40479,0.01880
334.91501,0.04492
333.42522,0.03755
331.93543,0.03020
330.44564,0.03871
328.95585,0.01410
327.46606,0.01033
325.97627,0.00658
324.48649,0.02658
322.99670,0.04182
321.50691,0.03738
320.01712,0.03297
318.52733,0.05970
317.03754,0.06104
315.54776,0.07972
314.05797,0.09842
312.56818,0.05086
311.07839,0.06740
309.58860,0.07236
308.09881,0.07736
306.60902,0.03725
305.11924,0.03695
303.62945,0.03465
302.13966,0.03237
300.64987,0.00415
299.16008,0.00415
