1778.52000,0.01216
1777.03021,0.00000
1775.54042,0.00603
1774.05063,0.00354
1772.56085,0.00454
1771.07106,0.00236
1769.58127,0.00395
1768.09148,0.01117
1766.60169,0.00906
1765.11190,0.01633
1763.62212,0.00492
1762.13233,0.01010
1760.64254,0.01317
1759.15275,0.01439
1757.66296,0.01563
1756.17317,0.01717
1754.68339,0.01819
1753.19360,0.01577
1751.70381,0.01444
1750.21402,0.01446
1748.72423,0.01505
1747.23444,0.01406
1745.74465,0.01977
1744.25487,0.02524
1742.76508,0.02085
1741.27529,0.01888
1739.78550,0.00492
1738.29571,0.02647
1736.80592,0.01704
1735.31614,0.02314
1733.82635,0.01136
1732.33656,0.00788
1730.84677,0.00924
1729.35698,0.00768
1727.86719,0.01470
1726.37740,0.01106
1724.88762,0.00583
1723.39783,0.00811
1721.90804,0.01122
1720.41825,0.01168
1718.92846,0.00922
1717.43867,0.01561
1715.94889,0.00492
1714.45910,0.00851
1712.96931,0.01720
1711.47952,0.00747
1709.98973,0.00445
1708.49994,0.01401
1707.01016,0.00944
1705.52037,0.00489
1704.03058,0.00276
1702.54079,0.01210
1701.05100,0.01318
1699.56121,0.01188
1698.07142,0.00526
1696.58164,0.00774
1695.09185,0.01025
1693.60206,0.00851
1692.11227,0.02176
1690.62248,0.01606
1689.13269,0.02027
1687.64291,0.02263
1686.15312,0.02155
1684.66333,0.01381
1683.17354,0.03441
1681.68375,0.02431
1680.19396,0.03481
1678.70417,0.03839
1677.21439,0.02917
1675.72460,0.06112
1674.23481,0.03805
1672.74502,0.03878
1671.25523,0.05210
1669.76544,0.04780
1668.27566,0.07052
1666.78587,0.07830
1665.29608,0.07435
1663.80629,0.07309
1662.31650,0.09029
1660.82671,0.07438
1659.33693,0.07213
1657.84714,0.07444
1656.35735,0.06876
1654.86756,0.07192
1653.37777,0.06415
1651.88798,0.07965
1650.39819,0.07915
1648.90841,0.07786
1647.41862,0.06645
1645.92883,0.06869
1644.43904,0.07095
1642.94925,0.07804
1641.45946,0.08489
1639.96968,0.08589
1638.47989,0.08344
1636.99010,0.08556
1635.50031,0.06284
1634.01052,0.06768
1632.52073,0.06666
1631.03094,0.08090
1629.54116,0.06843
1628.05137,0.08299
1626.56158,0.08874
1625.07179,0.09292
1623.58200,0.08644
1622.09221,0.08345
1620.60243,0.07861
1619.11264,0.09358
1617.62285,0.06902
1616.13306,0.07948
1614.64327,0.06299
1613.15348,0.08366
1611.66370,0.08752
1610.17391,0.08232
1608.68412,0.09238
1607.19433,0.08135
1605.70454,0.08183
1604.21475,0.08300
1602.72496,0.08420
1601.23518,0.07434
1599.74539,0.08347
1598.25560,0.07793
1596.76581,0.07535
1595.27602,0.08295
1593.78623,0.08015
1592.29645,0.07257
1590.80666,0.07249
1589.31687,0.06843
1587.82708,0.07508
1586.33729,0.06947
1584.84750,0.07216
1583.35771,0.06365
1581.86793,0.07280
1580.37814,0.08358
1578.88835,0.07381
1577.39856,0.06166
1575.90877,0.05488
1574.41898,0.04812
1572.92920,0.04806
1571.43941,0.04349
1569.94962,0.04121
1568.45983,0.03896
1566.97004,0.04274
1565.48025,0.03827
1563.99047,0.04129
1562.50068,0.04809
1561.01089,0.02364
1559.52110,0.02942
1558.03131,0.03869
1556.54152,0.03623
1555.05173,0.03406
1553.56195,0.03966
1552.07216,0.03059
1550.58237,0.02128
1549.09258,0.01626
1547.60279,0.01689
1546.11300,0.01914
1544.62322,0.00751
1543.13343,0.01623
1541.64364,0.00492
1540.15385,0.00569
1538.66406,0.00648
1537.17427,0.01824
1535.68448,0.01668
1534.19470,0.00872
1532.70491,0.01362
1531.21512,0.00731
1529.72533,0.00932
1528.23554,0.02711
1526.74575,0.02969
1525.25597,0.03417
1523.76618,0.03013
1522.27639,0.04214
1520.78660,0.02612
1519.29681,0.02535
1517.80702,0.01632
1516.31724,0.03484
1514.82745,0.03468
1513.33766,0.03668
1511.84787,0.03871
1510.35808,0.04904
1508.86829,0.05272
1507.37850,0.03478
1505.88872,0.03396
1504.39893,0.04813
1502.90914,0.04549
1501.41935,0.05570
1499.92956,0.06941
1498.43977,0.06550
1496.94999,0.05949
1495.46020,0.05670
1493.97041,0.05821
1492.48062,0.08460
1490.99083,0.07761
1489.50104,0.11928
1488.01125,0.11755
1486.52147,0.11584
1485.03168,0.13407
1483.54189,0.15258
1482.05210,0.16685
1480.56231,0.16216
1479.07252,0.16472
1477.58274,0.19188
1476.09295,0.19555
1474.60316,0.19417
1473.11337,0.20698
1471.62358,0.21607
1470.13379,0.20701
1468.64401,0.21802
1467.15422,0.24749
1465.66443,0.25668
1464.17464,0.26589
1462.68485,0.29810
1461.19506,0.33328
1459.70527,0.37622
1458.21549,0.43122
1456.72570,0.49480
1455.23591,0.53514
1453.74612,0.57205
1452.25633,0.61298
1450.76654,0.62080
1449.27676,0.65751
1447.78697,0.65362
1446.29718,0.62064
1444.80739,0.61145
1443.31760,0.60230
1441.82781,0.54400
1440.33802,0.51378
1438.84824,0.48466
1437.35845,0.44914
1435.86866,0.45561
1434.37887,0.47652
1432.88908,0.48837
1431.39929,0.50853
1429.90951,0.56586
1428.41972,0.64833
1426.92993,0.73483
1425.44014,0.77058
1423.95035,0.80476
1422.46056,0.83896
1420.97078,0.87719
1419.48099,0.86815
1417.99120,0.87223
1416.50141,0.85068
1415.01162,0.78587
1413.52183,0.75823
1412.03204,0.68278
1410.54226,0.64315
1409.05247,0.61451
1407.56268,0.61154
1406.07289,0.56318
1404.58310,0.53567
1403.09331,0.50820
1401.60353,0.44681
1400.11374,0.39213
1398.62395,0.34201
1397.13416,0.30608
1395.64437,0.25040
1394.15458,0.20329
1392.66479,0.18480
1391.17501,0.16473
1389.68522,0.14522
1388.19543,0.11611
1386.70564,0.09879
1385.21585,0.08148
1383.72606,0.07142
1382.23628,0.04856
1380.74649,0.05324
1379.25670,0.03096
1377.76691,0.03061
1376.27712,0.01773
1374.78733,0.03400
1373.29755,0.02089
1371.80776,0.03106
1370.31797,0.00492
1368.82818,0.00948
1367.33839,0.01407
1365.84860,0.04206
1364.35881,0.04015
1362.86903,0.04922
1361.37924,0.07033
1359.88945,0.07865
1358.39966,0.10756
1356.90987,0.12848
1355.42008,0.17214
1353.93030,0.22945
1352.44051,0.26153
1350.95072,0.29364
1349.46093,0.34915
1347.97114,0.41511
1346.48135,0.50139
1344.99156,0.58503
1343.50178,0.64866
1342.01199,0.67409
1340.52220,0.71746
1339.03241,0.76806
1337.54262,0.80773
1336.05283,0.83073
1334.56305,0.85375
1333.07326,0.86303
1331.58347,0.86459
1330.09368,0.84373
1328.60389,0.86350
1327.11410,0.85365
1325.62432,0.83125
1324.13453,0.82465
1322.64474,0.76917
1321.15495,0.73295
1319.66516,0.70585
1318.17537,0.67876
1316.68558,0.64609
1315.19580,0.59581
1313.70601,0.54556
1312.21622,0.51456
1310.72643,0.45473
1309.23664,0.41925
1307.74685,0.40623
1306.25707,0.38709
1304.76728,0.36329
1303.27749,0.33952
1301.78770,0.29828
1300.29791,0.27255
1298.80812,0.21292
1297.31834,0.17548
1295.82855,0.16506
1294.33876,0.12928
1292.84897,0.10875
1291.35918,0.09921
1289.86939,0.09850
1288.37960,0.09782
1286.88982,0.07391
1285.40003,0.06901
1283.91024,0.04702
1282.42045,0.04884
1280.93066,0.05335
1279.44087,0.05629
1277.95109,0.05337
1276.46130,0.05395
1274.97151,0.05001
1273.48172,0.04610
1271.99193,0.04381
1270.50214,0.04850
1269.01235,0.02755
1267.52257,0.03229
1266.03278,0.01433
1264.54299,0.03514
1263.05320,0.02231
1261.56341,0.02541
1260.07362,0.02852
1258.58384,0.01924
1257.09405,0.01238
1255.60426,0.01838
1254.11447,0.03241
1252.62468,0.00986
1251.13489,0.01887
1249.64511,0.00492
1248.15532,0.01626
1246.66553,0.01935
1245.17574,0.02246
1243.68595,0.00902
1242.19616,0.02848
1240.70637,0.00788
1239.21659,0.00280
1237.72680,0.02928
1236.23701,0.03921
1234.74722,0.04623
1233.25743,0.04218
1231.76764,0.03816
1230.27786,0.02575
1228.78807,0.02779
1227.29828,0.02905
1225.80849,0.01537
1224.31870,0.00492
1222.82891,0.00512
1221.33912,0.02329
1219.84934,0.02746
1218.35955,0.03165
1216.86976,0.04669
1215.37997,0.06042
1213.89018,0.07016
1212.40039,0.06897
1210.91061,0.07930
1209.42082,0.07068
1207.93103,0.07210
1206.44124,0.07355
1204.95145,0.04950
1203.46166,0.04338
1201.97188,0.06480
1200.48209,0.06007
1198.99230,0.06845
1197.50251,0.04693
1196.01272,0.04707
1194.52293,0.03188
1193.03314,0.01671
1191.54336,0.02574
1190.05357,0.02919
1188.56378,0.01690
1187.07399,0.01746
1185.58420,0.03060
1184.09441,0.01116
1182.60463,0.01366
1181.11484,0.01619
1179.62505,0.01099
1178.13526,0.02826
1176.64547,0.01669
1175.15568,0.01611
1173.66589,0.01661
1172.17611,0.00753
1170.68632,0.00621
1169.19653,0.00492
1167.70674,0.02319
1166.21695,0.01050
1164.72716,0.03443
1163.23738,0.04342
1161.74759,0.03908
1160.25780,0.05133
1158.76801,0.04998
1157.27822,0.04865
1155.78843,0.06604
1154.29865,0.07759
1152.80886,0.07847
1151.31907,0.09540
1149.82928,0.11023
1148.33949,0.10770
1146.84970,0.10815
1145.35991,0.10861
1143.87013,0.11471
1142.38034,0.15932
1140.89055,0.17936
1139.40076,0.16897
1137.91097,0.18184
1136.42118,0.20490
1134.93140,0.20433
1133.44161,0.20379
1131.95182,0.22371
1130.46203,0.23403
1128.97224,0.24626
1127.48245,0.22590
1125.99266,0.21653
1124.50288,0.22187
1123.01309,0.23459
1121.52330,0.24733
1120.03351,0.25890
1118.54372,0.25205
1117.05393,0.26473
1115.56415,0.24911
1114.07436,0.23378
1112.58457,0.23665
1111.09478,0.23954
1109.60499,0.23791
1108.11520,0.24379
1106.62542,0.22698
1105.13563,0.25482
1103.64584,0.25596
1102.15605,0.26835
1100.66626,0.25778
1099.17647,0.24723
1097.68668,0.21935
1096.19690,0.20725
1094.70711,0.21441
1093.21732,0.20316
1091.72753,0.20263
1090.23774,0.18902
1088.74795,0.17544
1087.25817,0.15707
1085.76838,0.16839
1084.27859,0.17171
1082.78880,0.15182
1081.29901,0.18458
1079.80922,0.17275
1078.31943,0.16936
1076.82965,0.16599
1075.33986,0.16411
1073.85007,0.16173
1072.36028,0.19036
1070.87049,0.21608
1069.38070,0.22472
1067.89092,0.24916
1066.40113,0.27361
1064.91134,0.31145
1063.42155,0.36909
1061.93176,0.43450
1060.44197,0.50848
1058.95219,0.59398
1057.46240,0.63862
1055.97261,0.68329
1054.48282,0.77073
1052.99303,0.84350
1051.50324,0.82117
1050.01345,0.79485
1048.52367,0.80544
1047.03388,0.81003
1045.54409,0.81465
1044.05430,0.78977
1042.56451,0.72857
1041.07472,0.69839
1039.58494,0.59690
1038.09515,0.58093
1036.60536,0.55737
1035.11557,0.53383
1033.62578,0.49763
1032.13599,0.41362
1030.64620,0.37854
1029.15642,0.29351
1027.66663,0.26889
1026.17684,0.24430
1024.68705,0.22721
1023.19726,0.20854
1021.70747,0.16104
1020.21769,0.14911
1018.72790,0.13238
1017.23811,0.13265
1015.74832,0.13294
1014.25853,0.10453
1012.76874,0.10848
1011.27896,0.09535
1009.78917,0.07664
1008.29938,0.08199
1006.80959,0.06720
1005.31980,0.05243
1003.83001,0.04049
1002.34022,0.02750
1000.85044,0.03378
999.36065,0.04276
997.87086,0.04080
996.38107,0.03887
994.89128,0.05780
993.40149,0.06473
991.91171,0.04630
990.42192,0.05943
988.93213,0.09369
987.44234,0.10687
985.95255,0.12007
984.46276,0.11512
982.97297,0.10084
981.48319,0.10289
979.99340,0.05607
978.50361,0.04815
977.01382,0.04025
975.52403,0.04159
974.03424,0.05151
972.54446,0.03072
971.05467,0.02332
969.56488,0.00953
968.07509,0.00725
966.58530,0.00500
965.09551,0.00492
963.60573,0.00728
962.11594,0.01420
960.62615,0.01206
959.13636,0.02317
957.64657,0.03431
956.15678,0.03358
954.66699,0.03127
953.17721,0.03272
951.68742,0.04061
950.19763,0.04386
948.70784,0.04712
947.21805,0.05989
945.72826,0.07563
944.23848,0.09914
942.74869,0.11707
941.25890,0.12940
939.76911,0.13401
938.27932,0.13865
936.78953,0.16121
935.29974,0.17605
933.80996,0.19492
932.32017,0.20179
930.83038,0.21309
929.34059,0.22442
927.85080,0.24018
926.36101,0.25623
924.87123,0.28326
923.38144,0.33837
921.89165,0.36024
920.40186,0.38213
918.91207,0.50706
917.42228,0.61170
915.93250,0.78450
914.44271,0.99152
912.95292,1.10359
911.46313,1.21567
909.97334,1.42330
908.48355,1.62481
906.99376,1.79188
905.50398,1.93118
904.01419,1.96096
902.52440,1.99075
901.03461,2.00000
899.54482,1.98629
898.05503,1.86011
896.56525,1.71285
895.07546,1.59474
893.58567,1.47665
892.09588,1.20628
890.60609,0.93727
889.11630,0.68913
887.62651,0.50033
886.13673,0.43607
884.64694,0.37183
883.15715,0.26754
881.66736,0.19988
880.17757,0.16003
878.68778,0.13383
877.19800,0.10766
875.70821,0.07964
874.21842,0.05939
872.72863,0.03677
871.23884,0.02619
869.74905,0.01951
868.25927,0.01285
866.76948,0.02319
865.27969,0.00656
863.78990,0.00492
862.30011,0.03091
860.81032,0.04236
859.32053,0.05384
857.83075,0.07803
856.34096,0.08515
854.85117,0.07385
853.36138,0.07407
851.87159,0.09061
850.38180,0.10717
848.89202,0.12857
847.40223,0.13423
845.91244,0.13323
844.42265,0.13973
842.93286,0.14627
841.44307,0.16137
839.95329,0.17971
838.46350,0.20181
836.97371,0.18145
835.48392,0.18676
833.99413,0.19210
832.50434,0.19987
831.01455,0.18549
829.52477,0.15616
828.03498,0.16320
826.54519,0.15049
825.05540,0.13781
823.56561,0.12702
822.07582,0.11839
820.58604,0.10497
819.09625,0.09946
817.60646,0.09398
816.11667,0.09239
814.62688,0.08175
813.13709,0.07941
811.64730,0.08912
810.15752,0.09698
808.66773,0.10487
807.17794,0.10102
805.68815,0.09881
804.19836,0.08993
802.70857,0.09097
801.21879,0.09203
799.72900,0.08723
798.23921,0.08487
796.74942,0.06997
795.25963,0.08021
793.76984,0.09048
792.28006,0.08233
790.79027,0.09104
789.30048,0.11100
787.81069,0.13579
786.32090,0.15286
784.83111,0.16995
783.34132,0.20256
781.85154,0.20099
780.36175,0.26572
778.87196,0.26340
777.38217,0.26111
775.89238,0.29598
774.40259,0.31457
772.91281,0.30059
771.42302,0.28958
769.93323,0.27859
768.44344,0.23742
766.95365,0.20778
765.46386,0.19739
763.97407,0.14161
762.48429,0.13755
760.99450,0.13351
759.50471,0.13017
758.01492,0.08704
756.52513,0.07680
755.03534,0.07367
753.54556,0.07056
752.05577,0.07188
750.56598,0.05666
749.07619,0.04974
747.58640,0.04753
746.09661,0.04534
744.60683,0.02541
743.11704,0.02500
741.62725,0.02542
740.13746,0.01732
738.64767,0.00924
737.15788,0.00947
735.66809,0.01506
734.17831,0.01774
732.68852,0.01938
731.19873,0.02103
729.70894,0.01711
728.21915,0.00492
726.72936,0.00697
725.23958,0.02373
723.74979,0.01687
722.26000,0.01004
720.77021,0.02821
719.28042,0.01515
717.79063,0.01226
716.30084,0.00673
714.81106,0.00122
713.32127,0.01057
711.83148,0.02235
710.34169,0.02747
708.85190,0.03623
707.36211,0.04501
705.87233,0.05608
704.38254,0.05195
702.89275,0.06387
701.40296,0.05391
699.91317,0.04397
698.42338,0.07441
696.93360,0.08776
695.44381,0.10221
693.95402,0.10466
692.46423,0.10714
690.97444,0.11658
689.48465,0.13460
687.99486,0.14303
686.50508,0.16791
685.01529,0.19281
683.52550,0.22135
682.03571,0.24457
680.54592,0.25632
679.05613,0.25353
677.56635,0.25077
676.07656,0.26153
674.58677,0.25654
673.09698,0.24570
671.60719,0.22673
670.11740,0.20779
668.62761,0.17511
667.13783,0.14700
665.64804,0.14657
664.15825,0.14616
662.66846,0.12373
661.17867,0.07381
659.68888,0.06425
658.19910,0.05352
656.70931,0.04281
655.21952,0.05097
653.72973,0.04578
652.23994,0.03020
650.75015,0.03616
649.26037,0.04214
647.77058,0.05201
646.28079,0.02985
644.79100,0.02214
643.30121,0.02621
641.81142,0.03031
640.32163,0.02133
638.83185,0.01239
637.34206,0.01816
635.85227,0.01153
634.36248,0.00492
632.87269,0.01867
631.38290,0.00840
629.89312,0.01685
628.40333,0.01906
626.91354,0.02128
625.42375,0.02767
623.93396,0.00256
622.44417,0.01447
620.95438,0.02641
619.46460,0.04599
617.97481,0.06533
616.48502,0.05236
614.99523,0.05985
613.50544,0.06737
612.01565,0.10097
610.52587,0.14581
609.03608,0.18426
607.54629,0.19161
606.05650,0.19898
604.56671,0.25861
603.07692,0.30678
601.58714,0.33988
600.09735,0.37300
598.60756,0.38730
597.11777,0.38827
595.62798,0.38767
594.13819,0.37840
592.64840,0.36915
591.15862,0.37343
589.66883,0.31279
588.17904,0.26047
586.68925,0.22273
585.19946,0.18501
583.70967,0.16937
582.21989,0.10992
580.73010,0.10381
579.24031,0.09772
577.75052,0.07095
576.26073,0.04340
574.77094,0.04232
573.28115,0.03740
571.79137,0.03250
570.30158,0.05368
568.81179,0.04362
567.32200,0.04627
565.83221,0.04895
564.34242,0.08733
562.85264,0.08671
561.36285,0.12273
559.87306,0.11402
558.38327,0.10533
556.89348,0.12111
555.40369,0.13985
553.91391,0.13164
552.42412,0.12344
550.93433,0.14681
549.44454,0.13225
547.95475,0.16741
546.46496,0.16773
544.97517,0.16808
543.48539,0.19263
541.99560,0.20117
540.50581,0.21321
539.01602,0.22527
537.52623,0.27344
536.03644,0.32803
534.54666,0.37384
533.05687,0.39375
531.56708,0.41368
530.07729,0.45956
528.58750,0.52336
527.09771,0.55178
525.60792,0.58023
524.11814,0.64250
522.62835,0.70239
521.13856,0.73024
519.64877,0.75652
518.15898,0.78281
516.66919,0.80726
515.17941,0.80288
513.68962,0.81388
512.19983,0.82491
510.71004,0.80697
509.22025,0.74951
507.73046,0.69234
506.24068,0.63333
504.75089,0.57433
503.26110,0.45257
501.77131,0.33137
500.28152,0.29850
498.79173,0.26566
497.30194,0.22202
495.81216,0.17573
494.32237,0.16447
492.83258,0.15323
491.34279,0.10996
489.85300,0.09075
488.36321,0.07211
486.87343,0.07219
485.38364,0.07230
483.89385,0.06681
482.40406,0.08327
480.91427,0.08826
479.42448,0.09327
477.93469,0.10739
476.44491,0.13810
474.95512,0.13530
473.46533,0.13253
471.97554,0.13927
470.48575,0.14042
468.99596,0.13972
467.50618,0.13958
466.01639,0.13947
464.52660,0.09742
463.03681,0.08026
461.54702,0.06819
460.05723,0.05615
458.56745,0.04520
457.07766,0.03695
455.58787,0.03312
454.09808,0.02933
452.60829,0.02649
451.11850,0.02154
449.62871,0.01661
448.13893,0.01171
446.64914,0.01512
445.15935,0.00492
443.66956,0.02161
442.17977,0.03124
440.68998,0.04089
439.20020,0.05551
437.71041,0.03595
436.22062,0.03593
434.73083,0.03592
433.24104,0.04236
431.75125,0.05042
430.26146,0.05437
428.77168,0.05833
427.28189,0.07288
425.79210,0.05646
424.30231,0.05034
422.81252,0.04425
421.32273,0.04874
419.83295,0.04043
418.34316,0.03602
416.85337,0.03163
415.36358,0.03408
413.87379,0.01998
412.38400,0.02566
410.89422,0.03136
409.40443,0.06434
407.91464,0.04738
406.42485,0.02830
404.93506,0.01660
403.44527,0.00492
401.95548,0.03883
400.46570,0.04044
398.97591,0.04808
397.48612,0.05574
395.99633,0.05983
394.50654,0.03828
393.01675,0.03065
391.52697,0.02305
390.03718,0.02705
388.54739,0.02359
387.05760,0.01748
385.56781,0.01140
384.07802,0.00882
382.58824,0.00492
381.09845,0.02210
379.60866,0.03930
378.11887,0.05533
376.62908,0.04492
375.13929,0.03441
373.64950,0.02392
372.15972,0.03122
370.66993,0.01423
369.18014,0.01089
367.69035,0.00757
366.20056,0.01376
364.71077,0.02024
363.22099,0.01820
361.73120,0.01618
360.24141,0.02674
358.75162,0.05389
357.26183,0.05608
355.77204,0.05830
354.28225,0.03663
352.79247,0.05453
351.30268,0.04746
349.81289,0.04043
348.32310,0.05332
346.83331,0.05074
345.34352,0.03575
343.85374,0.02080
342.36395,0.01161
340.87416,0.02168
339.38437,0.03298
337.89458,0.04431
336.40479,0.02747
334.91501,0.03683
333.42522,0.03180
331.93543,0.02679
330.44564,0.02153
328.95585,0.03447
327.46606,0.03287
325.97627,0.03129
324.48649,0.04912
322.99670,0.03917
321.50691,0.04582
320.01712,0.05249
318.52733,0.08350
317.03754,0.08728
315.54776,0.07011
314.05797,0.05296
312.56818,0.05307
311.07839,0.05775
309.58860,0.05483
308.09881,0.05194
306.60902,0.07219
305.11924,0.06494
303.62945,0.04436
302.13966,0.02379
300.64987,0.00994
299.16008,0.00492
