1778.52000,0.00823
1777.03021,0.00288
1775.54042,0.01155
1774.05063,0.01335
1772.56085,0.00741
1771.07106,0.00437
1769.58127,0.00891
1768.09148,0.01348
1766.60169,0.00918
1765.11190,0.01379
1763.62212,0.01421
1762.13233,0.01843
1760.64254,0.01800
1759.15275,0.02227
1757.66296,0.01767
1756.17317,0.00933
1754.68339,0.01588
1753.19360,0.02424
1751.70381,0.01197
1750.21402,0.00838
1748.72423,0.00993
1747.23444,0.01771
1745.74465,0.01175
1744.25487,0.01837
1742.76508,0.01569
1741.27529,0.01437
1739.78550,0.02198
1738.29571,0.01940
1736.80592,0.01884
1735.31614,0.01808
1733.82635,0.01402
1732.33656,0.01598
1730.84677,0.01241
1729.35698,0.01108
1727.86719,0.01067
1726.37740,0.00628
1724.88762,0.01575
1723.39783,0.01326
1721.90804,0.00790
1720.41825,0.00634
1718.92846,0.01303
1717.43867,0.00574
1715.94889,0.00670
1714.45910,0.00701
1712.96931,0.00735
1711.47952,0.00127
1709.98973,0.00121
1708.49994,0.00762
1707.01016,0.00439
1705.52037,0.00118
1704.03058,0.00722
1702.54079,0.00705
1701.05100,0.00114
1699.56121,0.00458
1698.07142,0.01515
1696.58164,0.00643
1695.09185,0.00750
1693.60206,0.00437
1692.11227,0.01479
1690.62248,0.01902
1689.13269,0.01129
1687.64291,0.01867
1686.15312,0.01587
1684.66333,0.02352
1683.17354,0.01632
1681.68375,0.02247
1680.19396,0.01466
1678.70417,0.01752
1677.21439,0.02641
1675.72460,0.02910
1674.23481,0.03603
1672.74502,0.03633
1671.25523,0.03932
1669.76544,0.04321
1668.27566,0.05868
1666.78587,0.05908
1665.29608,0.05594
1663.80629,0.04861
1662.31650,0.06106
1660.82671,0.06377
1659.33693,0.07006
1657.84714,0.07259
1656.35735,0.07404
1654.86756,0.06530
1653.37777,0.07013
1651.88798,0.06188
1650.39819,0.08652
1648.90841,0.07565
1647.41862,0.08190
1645.92883,0.07386
1644.43904,0.06584
1642.94925,0.06728
1641.45946,0.08807
1639.96968,0.08578
1638.47989,0.08197
1636.99010,0.07995
1635.50031,0.07085
1634.01052,0.06977
1632.52073,0.06761
1631.03094,0.07457
1629.54116,0.07778
1628.05137,0.07547
1626.56158,0.08361
1625.07179,0.08845
1623.58200,0.08709
1622.09221,0.08088
1620.60243,0.08645
1619.11264,0.09982
1617.62285,0.08324
1616.13306,0.07468
1614.64327,0.07946
1613.15348,0.08138
1611.66370,0.08110
1610.17391,0.07819
1608.68412,0.08551
1607.19433,0.09352
1605.70454,0.09401
1604.21475,0.08652
1602.72496,0.07906
1601.23518,0.07118
1599.74539,0.07975
1598.25560,0.07747
1596.76581,0.07788
1595.27602,0.07587
1593.78623,0.08010
1592.29645,0.07436
1590.80666,0.07264
1589.31687,0.06562
1587.82708,0.06151
1586.33729,0.06164
1584.84750,0.07623
1583.35771,0.06974
1581.86793,0.06750
1580.37814,0.05884
1578.88835,0.06620
1577.39856,0.06337
1575.90877,0.06011
1574.41898,0.04533
1572.92920,0.03724
1571.43941,0.04138
1569.94962,0.03967
1568.45983,0.03798
1566.97004,0.02998
1565.48025,0.02667
1563.99047,0.03760
1562.50068,0.02967
1561.01089,0.02221
1559.52110,0.01922
1558.03131,0.01625
1556.54152,0.01509
1555.05173,0.01883
1553.56195,0.01815
1552.07216,0.01684
1550.58237,0.01199
1549.09258,0.00517
1547.60279,0.00859
1546.11300,0.01136
1544.62322,0.01283
1543.13343,0.00255
1541.64364,0.01572
1540.15385,0.01003
1538.66406,0.00437
1537.17427,0.01241
1535.68448,0.02381
1534.19470,0.00814
1532.70491,0.01203
1531.21512,0.00973
1529.72533,0.00545
1528.23554,0.01253
1526.74575,0.02229
1525.25597,0.02963
1523.76618,0.02523
1522.27639,0.03396
1520.78660,0.03249
1519.29681,0.03971
1517.80702,0.03585
1516.31724,0.05355
1514.82745,0.04307
1513.33766,0.04927
1511.84787,0.05550
1510.35808,0.05398
1508.86829,0.03783
1507.37850,0.03946
1505.88872,0.04245
1504.39893,0.04280
1502.90914,0.05606
1501.41935,0.06134
1499.92956,0.07176
1498.43977,0.08109
1496.94999,0.08134
1495.46020,0.08960
1493.97041,0.09434
1492.48062,0.09666
1490.99083,0.10344
1489.50104,0.12935
1488.01125,0.14240
1486.52147,0.15547
1485.03168,0.15191
1483.54189,0.19057
1482.05210,0.21926
1480.56231,0.24354
1479.07252,0.23963
1477.58274,0.26728
1476.09295,0.27186
1474.60316,0.27358
1473.11337,0.27444
1471.62358,0.27598
1470.13379,0.29820
1468.64401,0.29757
1467.15422,0.32650
1465.66443,0.32958
1464.17464,0.33269
1462.68485,0.36902
1461.19506,0.39227
1459.70527,0.43686
1458.21549,0.51701
1456.72570,0.57742
1455.23591,0.65895
1453.74612,0.70319
1452.25633,0.72237
1450.76654,0.73402
1449.27676,0.72837
1447.78697,0.71253
1446.29718,0.68872
1444.80739,0.67671
1443.31760,0.66472
1441.82781,0.61921
1440.33802,0.56952
1438.84824,0.55071
1437.35845,0.53882
1435.86866,0.50829
1434.37887,0.53553
1432.88908,0.57256
1431.39929,0.60517
1429.90951,0.64713
1428.41972,0.74197
1426.92993,0.79576
1425.44014,0.84445
1423.95035,0.87596
1422.46056,0.90750
1420.97078,0.95538
1419.48099,0.96442
1417.99120,0.93352
1416.50141,0.92240
1415.01162,0.92463
1413.52183,0.85427
1412.03204,0.78327
1410.54226,0.72072
1409.05247,0.65954
1407.56268,0.63080
1406.07289,0.57633
1404.58310,0.54708
1403.09331,0.51786
1401.60353,0.45124
1400.11374,0.39397
1398.62395,0.34895
1397.13416,0.30039
1395.64437,0.25829
1394.15458,0.22400
1392.66479,0.20105
1391.17501,0.17413
1389.68522,0.12946
1388.19543,0.10415
1386.70564,0.09961
1385.21585,0.09511
1383.72606,0.06631
1382.23628,0.05685
1380.74649,0.03254
1379.25670,0.03290
1377.76691,0.01930
1376.27712,0.01882
1374.78733,0.00837
1373.29755,0.00661
1371.80776,0.00909
1370.31797,0.00893
1368.82818,0.00946
1367.33839,0.01001
1365.84860,0.00437
1364.35881,0.02836
1362.86903,0.02461
1361.37924,0.05753
1359.88945,0.07560
1358.39966,0.08436
1356.90987,0.14022
1355.42008,0.18056
1353.93030,0.21738
1352.44051,0.25310
1350.95072,0.28886
1349.46093,0.34995
1347.97114,0.40507
1346.48135,0.49530
1344.99156,0.54757
1343.50178,0.62253
1342.01199,0.66797
1340.52220,0.74742
1339.03241,0.79535
1337.54262,0.83598
1336.05283,0.84466
1334.56305,0.85336
1333.07326,0.87385
1331.58347,0.90059
1330.09368,0.90048
1328.60389,0.88062
1327.11410,0.86102
1325.62432,0.81834
1324.13453,0.78635
1322.64474,0.75882
1321.15495,0.74220
1319.66516,0.72205
1318.17537,0.70192
1316.68558,0.65739
1315.19580,0.60777
1313.70601,0.56507
1312.21622,0.54215
1310.72643,0.49594
1309.23664,0.44198
1307.74685,0.40625
1306.25707,0.40164
1304.76728,0.38383
1303.27749,0.36605
1301.78770,0.32998
1300.29791,0.28660
1298.80812,0.24102
1297.31834,0.19591
1295.82855,0.16105
1294.33876,0.14707
1292.84897,0.12669
1291.35918,0.11943
1289.86939,0.11041
1288.37960,0.10142
1286.88982,0.10134
1285.40003,0.08285
1283.91024,0.07393
1282.42045,0.05882
1280.93066,0.06438
1279.44087,0.04599
1277.95109,0.05138
1276.46130,0.04569
1274.97151,0.04502
1273.48172,0.04437
1271.99193,0.04675
1270.50214,0.04471
1269.01235,0.04580
1267.52257,0.04292
1266.03278,0.03762
1264.54299,0.02968
1263.05320,0.03198
1261.56341,0.02453
1260.07362,0.01711
1258.58384,0.01770
1257.09405,0.00832
1255.60426,0.00652
1254.11447,0.02140
1252.62468,0.02387
1251.13489,0.00437
1249.64511,0.01554
1248.15532,0.02829
1246.66553,0.02541
1245.17574,0.02255
1243.68595,0.01850
1242.19616,0.01380
1240.70637,0.00757
1239.21659,0.00958
1237.72680,0.01339
1236.23701,0.02411
1234.74722,0.02486
1233.25743,0.02586
1231.76764,0.02688
1230.27786,0.02348
1228.78807,0.03655
1227.29828,0.01588
1225.80849,0.01566
1224.31870,0.02657
1222.82891,0.01441
1221.33912,0.01071
1219.84934,0.02336
1218.35955,0.03604
1216.86976,0.06128
1215.37997,0.05102
1213.89018,0.05832
1212.40039,0.08275
1210.91061,0.06767
1209.42082,0.09414
1207.93103,0.08744
1206.44124,0.08076
1204.95145,0.08755
1203.46166,0.08258
1201.97188,0.08119
1200.48209,0.07628
1198.99230,0.08116
1197.50251,0.08450
1196.01272,0.06389
1194.52293,0.05441
1193.03314,0.04495
1191.54336,0.03640
1190.05357,0.02921
1188.56378,0.01960
1187.07399,0.02511
1185.58420,0.02976
1184.09441,0.03421
1182.60463,0.02115
1181.11484,0.00810
1179.62505,0.02040
1178.13526,0.03338
1176.64547,0.01286
1175.15568,0.03011
1173.66589,0.02185
1172.17611,0.02516
1170.68632,0.02228
1169.19653,0.01942
1167.70674,0.00437
1166.21695,0.01498
1164.72716,0.04626
1163.23738,0.05247
1161.74759,0.05382
1160.25780,0.07229
1158.76801,0.07924
1157.27822,0.08621
1155.78843,0.09543
1154.29865,0.10001
1152.80886,0.09373
1151.31907,0.10502
1149.82928,0.11878
1148.33949,0.13100
1146.84970,0.13059
1145.35991,0.13021
1143.87013,0.13695
1142.38034,0.15260
1140.89055,0.16961
1139.40076,0.19175
1137.91097,0.17638
1136.42118,0.20123
1134.93140,0.20546
1133.44161,0.20970
1131.95182,0.22908
1130.46203,0.23426
1128.97224,0.24258
1127.48245,0.24092
1125.99266,0.23885
1124.50288,0.24013
1123.01309,0.23933
1121.52330,0.23855
1120.03351,0.21836
1118.54372,0.22707
1117.05393,0.24090
1115.56415,0.23922
1114.07436,0.23667
1112.58457,0.24370
1111.09478,0.25075
1109.60499,0.22895
1108.11520,0.23671
1106.62542,0.21808
1105.13563,0.21700
1103.64584,0.22306
1102.15605,0.22359
1100.66626,0.22470
1099.17647,0.22584
1097.68668,0.19846
1096.19690,0.21219
1094.70711,0.21706
1093.21732,0.19574
1091.72753,0.20488
1090.23774,0.20283
1088.74795,0.20080
1087.25817,0.19113
1085.76838,0.18793
1084.27859,0.20118
1082.78880,0.19492
1081.29901,0.20089
1079.80922,0.21133
1078.31943,0.21457
1076.82965,0.21784
1075.33986,0.22547
1073.85007,0.19869
1072.36028,0.21058
1070.87049,0.23094
1069.38070,0.27618
1067.89092,0.29459
1066.40113,0.31301
1064.91134,0.38431
1063.42155,0.44609
1061.93176,0.56918
1060.44197,0.63723
1058.95219,0.73239
1057.46240,0.79282
1055.97261,0.85327
1054.48282,0.94828
1052.99303,1.05375
1051.50324,1.05532
1050.01345,0.99584
1048.52367,0.99345
1047.03388,0.98732
1045.54409,0.98121
1044.05430,0.91317
1042.56451,0.83959
1041.07472,0.79003
1039.58494,0.70207
1038.09515,0.63346
1036.60536,0.59030
1035.11557,0.54716
1033.62578,0.48417
1032.13599,0.41321
1030.64620,0.34627
1029.15642,0.29956
1027.66663,0.27497
1026.17684,0.25041
1024.68705,0.22642
1023.19726,0.19980
1021.70747,0.17519
1020.21769,0.13440
1018.72790,0.12828
1017.23811,0.12673
1015.74832,0.12521
1014.25853,0.11094
1012.76874,0.09425
1011.27896,0.07803
1009.78917,0.09071
1008.29938,0.07720
1006.80959,0.05850
1005.31980,0.03982
1003.83001,0.01084
1002.34022,0.02608
1000.85044,0.04422
999.36065,0.04041
997.87086,0.05361
996.38107,0.06683
994.89128,0.08263
993.40149,0.09579
991.91171,0.11630
990.42192,0.11774
988.93213,0.12941
987.44234,0.13789
985.95255,0.14640
984.46276,0.14593
982.97297,0.13772
981.48319,0.12731
979.99340,0.09604
978.50361,0.09290
977.01382,0.08978
975.52403,0.07835
974.03424,0.04830
972.54446,0.02826
971.05467,0.02801
969.56488,0.00957
968.07509,0.01348
966.58530,0.01741
965.09551,0.00437
963.60573,0.01136
962.11594,0.01549
960.62615,0.01475
959.13636,0.01615
957.64657,0.01757
956.15678,0.01868
954.66699,0.03003
953.17721,0.03297
951.68742,0.01994
950.19763,0.03003
948.70784,0.04015
947.21805,0.04318
945.72826,0.05801
944.23848,0.07774
942.74869,0.10394
941.25890,0.11884
939.76911,0.12632
938.27932,0.13383
936.78953,0.16634
935.29974,0.16424
933.80996,0.16504
932.32017,0.17609
930.83038,0.18249
929.34059,0.18892
927.85080,0.21802
926.36101,0.25226
924.87123,0.28741
923.38144,0.33435
921.89165,0.36943
920.40186,0.40454
918.91207,0.51329
917.42228,0.62028
915.93250,0.75084
914.44271,0.96870
912.95292,1.08742
911.46313,1.20617
909.97334,1.42077
908.48355,1.61473
906.99376,1.79962
905.50398,1.93390
904.01419,1.96694
902.52440,2.00000
901.03461,1.95736
899.54482,1.87367
898.05503,1.78977
896.56525,1.61596
895.07546,1.51269
893.58567,1.40943
892.09588,1.16552
890.60609,0.89921
889.11630,0.66911
887.62651,0.48990
886.13673,0.42663
884.64694,0.36338
883.15715,0.24908
881.66736,0.17655
880.17757,0.14402
878.68778,0.12450
877.19800,0.10501
875.70821,0.09098
874.21842,0.06965
872.72863,0.05122
871.23884,0.03638
869.74905,0.03710
868.25927,0.03785
866.76948,0.03951
865.27969,0.03031
863.78990,0.03336
862.30011,0.03753
860.81032,0.05539
859.32053,0.07327
857.83075,0.09639
856.34096,0.09377
854.85117,0.12094
853.36138,0.12704
851.87159,0.13682
850.38180,0.14663
848.89202,0.18455
847.40223,0.17808
845.91244,0.20983
844.42265,0.22351
842.93286,0.23721
841.44307,0.23617
839.95329,0.25158
838.46350,0.27457
836.97371,0.28671
835.48392,0.28631
833.99413,0.28595
832.50434,0.30193
831.01455,0.27440
829.52477,0.26178
828.03498,0.23120
826.54519,0.21774
825.05540,0.20430
823.56561,0.19311
822.07582,0.16862
820.58604,0.16236
819.09625,0.15579
817.60646,0.14925
816.11667,0.12796
814.62688,0.13201
813.13709,0.14542
811.64730,0.14685
810.15752,0.15086
808.66773,0.15490
807.17794,0.15863
805.68815,0.17304
804.19836,0.17393
802.70857,0.16418
801.21879,0.15446
799.72900,0.15120
798.23921,0.14197
796.74942,0.12788
795.25963,0.13135
793.76984,0.13485
792.28006,0.14703
790.79027,0.16057
789.30048,0.18036
787.81069,0.22170
786.32090,0.23209
784.83111,0.24251
783.34132,0.28637
781.85154,0.33803
780.36175,0.34796
778.87196,0.37013
777.38217,0.39232
775.89238,0.42986
774.40259,0.42368
772.91281,0.41441
771.42302,0.39806
769.93323,0.38174
768.44344,0.32590
766.95365,0.28831
765.46386,0.24629
763.97407,0.18321
762.48429,0.17344
760.99450,0.16370
759.50471,0.13266
758.01492,0.12674
756.52513,0.11396
755.03534,0.11086
753.54556,0.10779
752.05577,0.09175
750.56598,0.07329
749.07619,0.04975
747.58640,0.04478
746.09661,0.03983
744.60683,0.03657
743.11704,0.01534
741.62725,0.01768
740.13746,0.01471
738.64767,0.01177
737.15788,0.01928
735.66809,0.01927
734.17831,0.02173
732.68852,0.01988
731.19873,0.01806
729.70894,0.00460
728.21915,0.01714
726.72936,0.00661
725.23958,0.00770
723.74979,0.00714
722.26000,0.00661
720.77021,0.01177
719.28042,0.02428
717.79063,0.01593
716.30084,0.01250
714.81106,0.00909
713.32127,0.00437
711.83148,0.01789
710.34169,0.02410
708.85190,0.02679
707.36211,0.02950
705.87233,0.03157
704.38254,0.03788
702.89275,0.04265
701.40296,0.04868
699.91317,0.05473
698.42338,0.06202
696.93360,0.07889
695.44381,0.09445
693.95402,0.10337
692.46423,0.11231
690.97444,0.11928
689.48465,0.14626
687.99486,0.16549
686.50508,0.17964
685.01529,0.19381
683.52550,0.21844
682.03571,0.23488
680.54592,0.25201
679.05613,0.24718
677.56635,0.24238
676.07656,0.25847
674.58677,0.26503
673.09698,0.23476
671.60719,0.22239
670.11740,0.21004
668.62761,0.16940
667.13783,0.15366
665.64804,0.14727
664.15825,0.14090
662.66846,0.10169
661.17867,0.08604
659.68888,0.07109
658.19910,0.06104
656.70931,0.05101
655.21952,0.04745
653.72973,0.03570
652.23994,0.03752
650.75015,0.04136
649.26037,0.04523
647.77058,0.05022
646.28079,0.05591
644.79100,0.04430
643.30121,0.02872
641.81142,0.01316
640.32163,0.03405
638.83185,0.03586
637.34206,0.03503
635.85227,0.02512
634.36248,0.01523
632.87269,0.01181
631.38290,0.00730
629.89312,0.00437
628.40333,0.00454
626.91354,0.00474
625.42375,0.01295
623.93396,0.02119
622.44417,0.02746
620.95438,0.03375
619.46460,0.05893
617.97481,0.06083
616.48502,0.07984
614.99523,0.08978
613.50544,0.09974
612.01565,0.13238
610.52587,0.16282
609.03608,0.19017
607.54629,0.20178
606.05650,0.21341
604.56671,0.26305
603.07692,0.31626
601.58714,0.35206
600.09735,0.38788
598.60756,0.42184
597.11777,0.44295
595.62798,0.43210
594.13819,0.41206
592.64840,0.39204
591.15862,0.40147
589.66883,0.33387
588.17904,0.26940
586.68925,0.22838
585.19946,0.18739
583.70967,0.15564
582.21989,0.13945
580.73010,0.12518
579.24031,0.11093
577.75052,0.07905
576.26073,0.06718
574.77094,0.06999
573.28115,0.06094
571.79137,0.05192
570.30158,0.04525
568.81179,0.08147
567.32200,0.08651
565.83221,0.09157
564.34242,0.11209
562.85264,0.15862
561.36285,0.14743
559.87306,0.15914
558.38327,0.17088
556.89348,0.20151
555.40369,0.18842
553.91391,0.19335
552.42412,0.19829
550.93433,0.21148
549.44454,0.21092
547.95475,0.22238
546.46496,0.22287
544.97517,0.22338
543.48539,0.25001
541.99560,0.25845
540.50581,0.28613
539.01602,0.31383
537.52623,0.34678
536.03644,0.37131
534.54666,0.40741
533.05687,0.42621
531.56708,0.44504
530.07729,0.46833
528.58750,0.52873
527.09771,0.56029
525.60792,0.59187
524.11814,0.64901
522.62835,0.65466
521.13856,0.74405
519.64877,0.76840
518.15898,0.79277
516.66919,0.79607
515.17941,0.79362
513.68962,0.78897
512.19983,0.78435
510.71004,0.78508
509.22025,0.74875
507.73046,0.69911
506.24068,0.65062
504.75089,0.60214
503.26110,0.48863
501.77131,0.35538
500.28152,0.31352
498.79173,0.27170
497.30194,0.18737
495.81216,0.16613
494.32237,0.14714
492.83258,0.12817
491.34279,0.08591
489.85300,0.07610
488.36321,0.07452
486.87343,0.06775
485.38364,0.06100
483.89385,0.08148
482.40406,0.08445
480.91427,0.09965
479.42448,0.11487
477.93469,0.13744
476.44491,0.16426
474.95512,0.17634
473.46533,0.18844
471.97554,0.19468
470.48575,0.19117
468.99596,0.20456
467.50618,0.19621
466.01639,0.18789
464.52660,0.14095
463.03681,0.10625
461.54702,0.09889
460.05723,0.09155
458.56745,0.06958
457.07766,0.03497
455.58787,0.03548
454.09808,0.03601
452.60829,0.02990
451.11850,0.02182
449.62871,0.01975
448.13893,0.01771
446.64914,0.00437
445.15935,0.00735
443.66956,0.02522
442.17977,0.02214
440.68998,0.01908
439.20020,0.04591
437.71041,0.02458
436.22062,0.03080
434.73083,0.03705
433.24104,0.03289
431.75125,0.03364
430.26146,0.03963
428.77168,0.04564
427.28189,0.02337
425.79210,0.04308
424.30231,0.04062
422.81252,0.03818
421.32273,0.03043
419.83295,0.03515
418.34316,0.02934
416.85337,0.02355
415.36358,0.01968
413.87379,0.03181
412.38400,0.03509
410.89422,0.03839
409.40443,0.04217
407.91464,0.05396
406.42485,0.03690
404.93506,0.04152
403.44527,0.04616
401.95548,0.03762
400.46570,0.04220
398.97591,0.04147
397.48612,0.04077
395.99633,0.05697
394.50654,0.05432
393.01675,0.05347
391.52697,0.05264
390.03718,0.05006
388.54739,0.02530
387.05760,0.03630
385.56781,0.04732
384.07802,0.02572
382.58824,0.00437
381.09845,0.00873
379.60866,0.01311
378.11887,0.02828
376.62908,0.02616
375.13929,0.01307
373.64950,0.00000
372.15972,0.01072
370.66993,0.02724
369.18014,0.02446
367.69035,0.02171
366.20056,0.02342
364.71077,0.03070
363.22099,0.02125
361.73120,0.01182
360.24141,0.01829
358.75162,0.05032
357.26183,0.04407
355.77204,0.03784
354.28225,0.02375
352.79247,0.03967
351.30268,0.04251
349.81289,0.04537
348.32310,0.06580
346.83331,0.03695
345.34352,0.04322
343.85374,0.04951
342.36395,0.04650
340.87416,0.02641
339.38437,0.02722
337.89458,0.02805
336.40479,0.03246
334.91501,0.03001
333.42522,0.02936
331.93543,0.02873
330.44564,0.00437
328.95585,0.01485
327.46606,0.01347
325.97627,0.01211
324.48649,0.03367
322.99670,0.04438
321.50691,0.03801
320.01712,0.03166
318.52733,0.07242
317.03754,0.07811
315.54776,0.07228
314.05797,0.06647
312.56818,0.07024
311.07839,0.09091
309.58860,0.07485
308.09881,0.05881
306.60902,0.04713
305.11924,0.05834
303.62945,0.04049
302.13966,0.02266
300.64987,0.00463
299.16008,0.00437
