1778.52000,0.01538
1777.03021,0.02458
1775.54042,0.00944
1774.05063,0.01765
1772.56085,0.00989
1771.07106,0.00505
1769.58127,0.01254
1768.09148,0.00564
1766.60169,0.00218
1765.11190,0.00764
1763.62212,0.00894
1762.13233,0.01262
1760.64254,0.00192
1759.15275,0.00460
1757.66296,0.00364
1756.17317,0.00060
1754.68339,0.00519
1753.19360,0.01085
1751.70381,0.00893
1750.21402,0.00809
1748.72423,0.00937
1747.23444,0.00674
1745.74465,0.00937
1744.25487,0.01911
1742.76508,0.01419
1741.27529,0.01402
1739.78550,0.01046
1738.29571,0.00273
1736.80592,0.02198
1735.31614,0.01373
1733.82635,0.01259
1732.33656,0.01225
1730.84677,0.00382
1729.35698,0.01427
1727.86719,0.00641
1726.37740,0.00197
1724.88762,0.00936
1723.39783,0.00681
1721.90804,0.01528
1720.41825,0.01095
1718.92846,0.00742
1717.43867,0.01361
1715.94889,0.00752
1714.45910,0.01061
1712.96931,0.02002
1711.47952,0.00875
1709.98973,0.00904
1708.49994,0.01564
1707.01016,0.00877
1705.52037,0.00192
1704.03058,0.02296
1702.54079,0.01757
1701.05100,0.02216
1699.56121,0.02362
1698.07142,0.01961
1696.58164,0.02060
1695.09185,0.02161
1693.60206,0.01767
1692.11227,0.01611
1690.62248,0.02532
1689.13269,0.02748
1687.64291,0.02416
1686.15312,0.03003
1684.66333,0.02309
1683.17354,0.02692
1681.68375,0.03470
1680.19396,0.04408
1678.70417,0.04142
1677.21439,0.03827
1675.72460,0.04457
1674.23481,0.03571
1672.74502,0.04704
1671.25523,0.04346
1669.76544,0.05641
1668.27566,0.06807
1666.78587,0.05906
1665.29608,0.07575
1663.80629,0.06915
1662.31650,0.07541
1660.82671,0.07619
1659.33693,0.08800
1657.84714,0.07756
1656.35735,0.08077
1654.86756,0.08086
1653.37777,0.08228
1651.88798,0.09002
1650.39819,0.08887
1648.90841,0.07753
1647.41862,0.08245
1645.92883,0.08518
1644.43904,0.08793
1642.94925,0.09397
1641.45946,0.10004
1639.96968,0.08177
1638.47989,0.09261
1636.99010,0.09613
1635.50031,0.07085
1634.01052,0.06630
1632.52073,0.08483
1631.03094,0.08530
1629.54116,0.08187
1628.05137,0.09314
1626.56158,0.09866
1625.07179,0.10133
1623.58200,0.10009
1622.09221,0.09678
1620.60243,0.10345
1619.11264,0.09180
1617.62285,0.09852
1616.13306,0.09556
1614.64327,0.08399
1613.15348,0.08108
1611.66370,0.08658
1610.17391,0.08582
1608.68412,0.09216
1607.19433,0.08830
1605.70454,0.10386
1604.21475,0.09703
1602.72496,0.09024
1601.23518,0.07783
1599.74539,0.07461
1598.25560,0.08793
1596.76581,0.08477
1595.27602,0.09918
1593.78623,0.09030
1592.29645,0.09926
1590.80666,0.08911
1589.31687,0.08817
1587.82708,0.08121
1586.33729,0.07586
1584.84750,0.07734
1583.35771,0.09037
1581.86793,0.07199
1580.37814,0.09005
1578.88835,0.08717
1577.39856,0.06572
1575.90877,0.06184
1574.41898,0.05379
1572.92920,0.05023
1571.43941,0.05952
1569.94962,0.06373
1568.45983,0.06797
1566.97004,0.05506
1565.48025,0.06183
1563.99047,0.03902
1562.50068,0.04008
1561.01089,0.04587
1559.52110,0.03754
1558.03131,0.05203
1556.54152,0.04218
1555.05173,0.03209
1553.56195,0.02910
1552.07216,0.03163
1550.58237,0.02633
1549.09258,0.00192
1547.60279,0.01305
1546.11300,0.01006
1544.62322,0.02518
1543.13343,0.02747
1541.64364,0.01748
1540.15385,0.01668
1538.66406,0.01591
1537.17427,0.01647
1535.68448,0.01339
1534.19470,0.02054
1532.70491,0.00860
1531.21512,0.00192
1529.72533,0.01741
1528.23554,0.02585
1526.74575,0.03065
1525.25597,0.03259
1523.76618,0.03927
1522.27639,0.05016
1520.78660,0.04484
1519.29681,0.04661
1517.80702,0.04552
1516.31724,0.05311
1514.82745,0.04997
1513.33766,0.04490
1511.84787,0.03985
1510.35808,0.04491
1508.86829,0.04161
1507.37850,0.02549
1505.88872,0.05211
1504.39893,0.05334
1502.90914,0.04752
1501.41935,0.06897
1499.92956,0.08834
1498.43977,0.07552
1496.94999,0.06455
1495.46020,0.06225
1493.97041,0.09168
1492.48062,0.07136
1490.99083,0.08800
1489.50104,0.09261
1488.01125,0.10798
1486.52147,0.12339
1485.03168,0.14458
1483.54189,0.16684
1482.05210,0.17576
1480.56231,0.17161
1479.07252,0.20600
1477.58274,0.20032
1476.09295,0.19624
1474.60316,0.20948
1473.11337,0.20597
1471.62358,0.21349
1470.13379,0.22286
1468.64401,0.23829
1467.15422,0.24379
1465.66443,0.25324
1464.17464,0.26271
1462.68485,0.28557
1461.19506,0.33728
1459.70527,0.37146
1458.21549,0.43474
1456.72570,0.49307
1455.23591,0.53203
1453.74612,0.58491
1452.25633,0.59798
1450.76654,0.63728
1449.27676,0.64752
1447.78697,0.64180
1446.29718,0.61069
1444.80739,0.59623
1443.31760,0.58181
1441.82781,0.55496
1440.33802,0.51320
1438.84824,0.49504
1437.35845,0.46460
1435.86866,0.45095
1434.37887,0.47033
1432.88908,0.48503
1431.39929,0.51521
1429.90951,0.56532
1428.41972,0.64350
1426.92993,0.71436
1425.44014,0.75119
1423.95035,0.78411
1422.46056,0.81705
1420.97078,0.85080
1419.48099,0.83741
1417.99120,0.84370
1416.50141,0.82774
1415.01162,0.83277
1413.52183,0.74847
1412.03204,0.70716
1410.54226,0.65567
1409.05247,0.61886
1407.56268,0.58183
1406.07289,0.55817
1404.58310,0.52747
1403.09331,0.49679
1401.60353,0.44649
1400.11374,0.38860
1398.62395,0.33808
1397.13416,0.29126
1395.64437,0.24733
1394.15458,0.21601
1392.66479,0.19022
1391.17501,0.16026
1389.68522,0.13765
1388.19543,0.10014
1386.70564,0.08885
1385.21585,0.07759
1383.72606,0.04225
1382.23628,0.03156
1380.74649,0.03111
1379.25670,0.01758
1377.76691,0.01614
1376.27712,0.01052
1374.78733,0.01436
1373.29755,0.00145
1371.80776,0.00192
1370.31797,0.00630
1368.82818,0.00508
1367.33839,0.00388
1365.84860,0.01436
1364.35881,0.02828
1362.86903,0.03147
1361.37924,0.04229
1359.88945,0.06781
1358.39966,0.08182
1356.90987,0.09769
1355.42008,0.16520
1353.93030,0.20994
1352.44051,0.23466
1350.95072,0.25940
1349.46093,0.33644
1347.97114,0.38520
1346.48135,0.45260
1344.99156,0.54071
1343.50178,0.60422
1342.01199,0.63763
1340.52220,0.68075
1339.03241,0.71053
1337.54262,0.75108
1336.05283,0.76610
1334.56305,0.78115
1333.07326,0.79453
1331.58347,0.83858
1330.09368,0.85304
1328.60389,0.82299
1327.11410,0.78458
1325.62432,0.76505
1324.13453,0.76494
1322.64474,0.72582
1321.15495,0.69510
1319.66516,0.67475
1318.17537,0.65443
1316.68558,0.61750
1315.19580,0.56539
1313.70601,0.50911
1312.21622,0.48299
1310.72643,0.43305
1309.23664,0.39912
1307.74685,0.38669
1306.25707,0.38242
1304.76728,0.35733
1303.27749,0.33227
1301.78770,0.29165
1300.29791,0.24240
1298.80812,0.20575
1297.31834,0.15603
1295.82855,0.14354
1294.33876,0.11404
1292.84897,0.09111
1291.35918,0.10411
1289.86939,0.09603
1288.37960,0.08798
1286.88982,0.08349
1285.40003,0.07091
1283.91024,0.06568
1282.42045,0.05681
1280.93066,0.02779
1279.44087,0.04019
1277.95109,0.04030
1276.46130,0.03729
1274.97151,0.04033
1273.48172,0.04340
1271.99193,0.04413
1270.50214,0.03073
1269.01235,0.01841
1267.52257,0.01633
1266.03278,0.01925
1264.54299,0.01224
1263.05320,0.01914
1261.56341,0.01755
1260.07362,0.01598
1258.58384,0.02191
1257.09405,0.00192
1255.60426,0.02109
1254.11447,0.02012
1252.62468,0.01628
1251.13489,0.00330
1249.64511,0.00449
1248.15532,0.01016
1246.66553,0.01127
1245.17574,0.01240
1243.68595,0.00399
1242.19616,0.01208
1240.70637,0.02412
1239.21659,0.02884
1237.72680,0.02600
1236.23701,0.01636
1234.74722,0.01330
1233.25743,0.01720
1231.76764,0.02113
1230.27786,0.01709
1228.78807,0.02015
1227.29828,0.02376
1225.80849,0.00381
1224.31870,0.00301
1222.82891,0.00729
1221.33912,0.00400
1219.84934,0.01802
1218.35955,0.03207
1216.86976,0.02046
1215.37997,0.03115
1213.89018,0.05522
1212.40039,0.06203
1210.91061,0.06519
1209.42082,0.06078
1207.93103,0.05757
1206.44124,0.05439
1204.95145,0.06079
1203.46166,0.05254
1201.97188,0.05061
1200.48209,0.04791
1198.99230,0.05782
1197.50251,0.04442
1196.01272,0.03420
1194.52293,0.02099
1193.03314,0.00780
1191.54336,0.01547
1190.05357,0.02761
1188.56378,0.01437
1187.07399,0.01477
1185.58420,0.01022
1184.09441,0.01145
1182.60463,0.00669
1181.11484,0.00194
1179.62505,0.00976
1178.13526,0.00817
1176.64547,0.01892
1175.15568,0.00192
1173.66589,0.00613
1172.17611,0.01036
1170.68632,0.00938
1169.19653,0.00842
1167.70674,0.01063
1166.21695,0.02413
1164.72716,0.01670
1163.23738,0.02920
1161.74759,0.02417
1160.25780,0.04117
1158.76801,0.05021
1157.27822,0.05927
1155.78843,0.05564
1154.29865,0.06776
1152.80886,0.08934
1151.31907,0.09627
1149.82928,0.10087
1148.33949,0.10548
1146.84970,0.10227
1145.35991,0.09907
1143.87013,0.10691
1142.38034,0.14280
1140.89055,0.16615
1139.40076,0.15571
1137.91097,0.16286
1136.42118,0.18627
1134.93140,0.18115
1133.44161,0.17605
1131.95182,0.19456
1130.46203,0.22803
1128.97224,0.23086
1127.48245,0.21302
1125.99266,0.20961
1124.50288,0.21121
1123.01309,0.21021
1121.52330,0.20923
1120.03351,0.21876
1118.54372,0.20316
1117.05393,0.22951
1115.56415,0.22182
1114.07436,0.20708
1112.58457,0.21293
1111.09478,0.21880
1109.60499,0.22116
1108.11520,0.20861
1106.62542,0.20997
1105.13563,0.21136
1103.64584,0.21145
1102.15605,0.23647
1100.66626,0.23007
1099.17647,0.22369
1097.68668,0.19873
1096.19690,0.20471
1094.70711,0.17613
1093.21732,0.18400
1091.72753,0.17250
1090.23774,0.16705
1088.74795,0.16162
1087.25817,0.16356
1085.76838,0.15923
1084.27859,0.15780
1082.78880,0.15929
1081.29901,0.16420
1079.80922,0.15394
1078.31943,0.16401
1076.82965,0.17411
1075.33986,0.16916
1073.85007,0.15297
1072.36028,0.18056
1070.87049,0.20346
1069.38070,0.22140
1067.89092,0.24396
1066.40113,0.26654
1064.91134,0.29949
1063.42155,0.36600
1061.93176,0.44538
1060.44197,0.49308
1058.95219,0.59163
1057.46240,0.63911
1055.97261,0.68662
1054.48282,0.76848
1052.99303,0.82651
1051.50324,0.79994
1050.01345,0.80850
1048.52367,0.82050
1047.03388,0.81286
1045.54409,0.80525
1044.05430,0.79819
1042.56451,0.74713
1041.07472,0.68954
1039.58494,0.64927
1038.09515,0.55689
1036.60536,0.53200
1035.11557,0.50713
1033.62578,0.47429
1032.13599,0.41266
1030.64620,0.34476
1029.15642,0.28894
1027.66663,0.26577
1026.17684,0.24261
1024.68705,0.21543
1023.19726,0.21525
1021.70747,0.16138
1020.21769,0.14501
1018.72790,0.12499
1017.23811,0.12033
1015.74832,0.11568
1014.25853,0.10150
1012.76874,0.09232
1011.27896,0.09391
1009.78917,0.07823
1008.29938,0.07672
1006.80959,0.06423
1005.31980,0.05177
1003.83001,0.03985
1002.34022,0.03608
1000.85044,0.03364
999.36065,0.03490
997.87086,0.04208
996.38107,0.04928
994.89128,0.04038
993.40149,0.06322
991.91171,0.07036
990.42192,0.07438
988.93213,0.10306
987.44234,0.11250
985.95255,0.12196
984.46276,0.10381
982.97297,0.11162
981.48319,0.08303
979.99340,0.06128
978.50361,0.05972
977.01382,0.05820
975.52403,0.04543
974.03424,0.03608
972.54446,0.03804
971.05467,0.01250
969.56488,0.00192
968.07509,0.00336
966.58530,0.00482
965.09551,0.00657
963.60573,0.00704
962.11594,0.00857
960.62615,0.00332
959.13636,0.00674
957.64657,0.01018
956.15678,0.00631
954.66699,0.03338
953.17721,0.05000
951.68742,0.03048
950.19763,0.03364
948.70784,0.03684
947.21805,0.05564
945.72826,0.07448
944.23848,0.09202
942.74869,0.12086
941.25890,0.12299
939.76911,0.13642
938.27932,0.14987
936.78953,0.15967
935.29974,0.16400
933.80996,0.19507
932.32017,0.18844
930.83038,0.19559
929.34059,0.20277
927.85080,0.23106
926.36101,0.24444
924.87123,0.26413
923.38144,0.30585
921.89165,0.35730
920.40186,0.40877
918.91207,0.49537
917.42228,0.60532
915.93250,0.72341
914.44271,0.96809
912.95292,1.07260
911.46313,1.17714
909.97334,1.38049
908.48355,1.59696
906.99376,1.72359
905.50398,1.88168
904.01419,1.91651
902.52440,1.95136
901.03461,2.00000
899.54482,1.99730
898.05503,1.81829
896.56525,1.68070
895.07546,1.57104
893.58567,1.46141
892.09588,1.20808
890.60609,0.96263
889.11630,0.72009
887.62651,0.52028
886.13673,0.44509
884.64694,0.36993
883.15715,0.25011
881.66736,0.19425
880.17757,0.14942
878.68778,0.13068
877.19800,0.11197
875.70821,0.07402
874.21842,0.05104
872.72863,0.02703
871.23884,0.02741
869.74905,0.01759
868.25927,0.00780
866.76948,0.02424
865.27969,0.00192
863.78990,0.01454
862.30011,0.00937
860.81032,0.03370
859.32053,0.05805
857.83075,0.07077
856.34096,0.07801
854.85117,0.07558
853.36138,0.08522
851.87159,0.08402
850.38180,0.08284
848.89202,0.10225
847.40223,0.12037
845.91244,0.16080
844.42265,0.16364
842.93286,0.16651
841.44307,0.15932
839.95329,0.17101
838.46350,0.20474
836.97371,0.19500
835.48392,0.20297
833.99413,0.21096
832.50434,0.20915
831.01455,0.19977
829.52477,0.17783
828.03498,0.16666
826.54519,0.15971
825.05540,0.15278
823.56561,0.12884
822.07582,0.09707
820.58604,0.10226
819.09625,0.09936
817.60646,0.09648
816.11667,0.10410
814.62688,0.09420
813.13709,0.08772
811.64730,0.08389
810.15752,0.09174
808.66773,0.09962
807.17794,0.11237
805.68815,0.10575
804.19836,0.10911
802.70857,0.10359
801.21879,0.09810
799.72900,0.10022
798.23921,0.09844
796.74942,0.08096
795.25963,0.08801
793.76984,0.09507
792.28006,0.09968
790.79027,0.10090
789.30048,0.10608
787.81069,0.12071
786.32090,0.14401
784.83111,0.16734
783.34132,0.20038
781.85154,0.23424
780.36175,0.25476
778.87196,0.27569
777.38217,0.29665
775.89238,0.30912
774.40259,0.29829
772.91281,0.31185
771.42302,0.29308
769.93323,0.27433
768.44344,0.26071
766.95365,0.22983
765.46386,0.20525
763.97407,0.16708
762.48429,0.14596
760.99450,0.12487
759.50471,0.10956
758.01492,0.09402
756.52513,0.08269
755.03534,0.07846
753.54556,0.07426
752.05577,0.07034
750.56598,0.05754
749.07619,0.02903
747.58640,0.02768
746.09661,0.02634
744.60683,0.01757
743.11704,0.02087
741.62725,0.00192
740.13746,0.00670
738.64767,0.01151
737.15788,0.00285
735.66809,0.00286
734.17831,0.00578
732.68852,0.00309
731.19873,0.00042
729.70894,0.00000
728.21915,0.00564
726.72936,0.00606
725.23958,0.00625
723.74979,0.01314
722.26000,0.02005
720.77021,0.01035
719.28042,0.02137
717.79063,0.01958
716.30084,0.01074
714.81106,0.00192
713.32127,0.01279
711.83148,0.03260
710.34169,0.02885
708.85190,0.03494
707.36211,0.04107
705.87233,0.05468
704.38254,0.05548
702.89275,0.06704
701.40296,0.06055
699.91317,0.05409
698.42338,0.04817
696.93360,0.08367
695.44381,0.09614
693.95402,0.10943
692.46423,0.12273
690.97444,0.11248
689.48465,0.14365
687.99486,0.17720
686.50508,0.17030
685.01529,0.16342
683.52550,0.22141
682.03571,0.25401
680.54592,0.24760
679.05613,0.25077
677.56635,0.25396
676.07656,0.26282
674.58677,0.23658
673.09698,0.23841
671.60719,0.21236
670.11740,0.18633
668.62761,0.18325
667.13783,0.16185
665.64804,0.15135
664.15825,0.14088
662.66846,0.10068
661.17867,0.08174
659.68888,0.05863
658.19910,0.05166
656.70931,0.04471
655.21952,0.01879
653.72973,0.03717
652.23994,0.04929
650.75015,0.04886
649.26037,0.04845
647.77058,0.04125
646.28079,0.03932
644.79100,0.01566
643.30121,0.02151
641.81142,0.02738
640.32163,0.02344
638.83185,0.01822
637.34206,0.01067
635.85227,0.00799
634.36248,0.00533
632.87269,0.00597
631.38290,0.00192
629.89312,0.01812
628.40333,0.01234
626.91354,0.00658
625.42375,0.01369
623.93396,0.02029
622.44417,0.01670
620.95438,0.01313
619.46460,0.04208
617.97481,0.03856
616.48502,0.05944
614.99523,0.06763
613.50544,0.07584
612.01565,0.09390
610.52587,0.13531
609.03608,0.18015
607.54629,0.18400
606.05650,0.18788
604.56671,0.23463
603.07692,0.28035
601.58714,0.30919
600.09735,0.33806
598.60756,0.36158
597.11777,0.38145
595.62798,0.39873
594.13819,0.38446
592.64840,0.37022
591.15862,0.33071
589.66883,0.28258
588.17904,0.24469
586.68925,0.22164
585.19946,0.19860
583.70967,0.15162
582.21989,0.12562
580.73010,0.09977
579.24031,0.07395
577.75052,0.04829
576.26073,0.04780
574.77094,0.03450
573.28115,0.02606
571.79137,0.01766
570.30158,0.03246
568.81179,0.03996
567.32200,0.04695
565.83221,0.05397
564.34242,0.08590
562.85264,0.08353
561.36285,0.09665
559.87306,0.10573
558.38327,0.11483
556.89348,0.11308
555.40369,0.11503
553.91391,0.11621
552.42412,0.11742
550.93433,0.15664
549.44454,0.14872
547.95475,0.14869
546.46496,0.14842
544.97517,0.14818
543.48539,0.16839
541.99560,0.20698
540.50581,0.22017
539.01602,0.23338
537.52623,0.27963
536.03644,0.33456
534.54666,0.36487
533.05687,0.38906
531.56708,0.41327
530.07729,0.44444
528.58750,0.51652
527.09771,0.54145
525.60792,0.56641
524.11814,0.62441
522.62835,0.65282
521.13856,0.70668
519.64877,0.72112
518.15898,0.73559
516.66919,0.77432
515.17941,0.80468
513.68962,0.81883
512.19983,0.83300
510.71004,0.77199
509.22025,0.73066
507.73046,0.67599
506.24068,0.61309
504.75089,0.55022
503.26110,0.42619
501.77131,0.33729
500.28152,0.30881
498.79173,0.28036
497.30194,0.20856
495.81216,0.16247
494.32237,0.14404
492.83258,0.12564
491.34279,0.09377
489.85300,0.08184
488.36321,0.06364
486.87343,0.06433
485.38364,0.06505
483.89385,0.05452
482.40406,0.05817
480.91427,0.07009
479.42448,0.08204
477.93469,0.08995
476.44491,0.12906
474.95512,0.12955
473.46533,0.13007
471.97554,0.12890
470.48575,0.13536
468.99596,0.14184
467.50618,0.13761
466.01639,0.13340
464.52660,0.09017
463.03681,0.06530
461.54702,0.06693
460.05723,0.06857
458.56745,0.03016
457.07766,0.01639
455.58787,0.02401
454.09808,0.03165
452.60829,0.01010
451.11850,0.00403
449.62871,0.00296
448.13893,0.00192
446.64914,0.01548
445.15935,0.00390
443.66956,0.01777
442.17977,0.01725
440.68998,0.01675
439.20020,0.03016
437.71041,0.03181
436.22062,0.02877
434.73083,0.02575
433.24104,0.01961
431.75125,0.01978
430.26146,0.02403
428.77168,0.02831
427.28189,0.01624
425.79210,0.03721
424.30231,0.03488
422.81252,0.03258
421.32273,0.03475
419.83295,0.03773
418.34316,0.03616
416.85337,0.03460
415.36358,0.02665
413.87379,0.02318
412.38400,0.02275
410.89422,0.02234
409.40443,0.04436
407.91464,0.03181
406.42485,0.02741
404.93506,0.01465
403.44527,0.00192
401.95548,0.01385
400.46570,0.04283
398.97591,0.05245
397.48612,0.06209
395.99633,0.04189
394.50654,0.02512
393.01675,0.02474
391.52697,0.02440
390.03718,0.02263
388.54739,0.02875
387.05760,0.02231
385.56781,0.01590
384.07802,0.00192
382.58824,0.02522
381.09845,0.02784
379.60866,0.03048
378.11887,0.06014
376.62908,0.01776
375.13929,0.02179
373.64950,0.02584
372.15972,0.01210
370.66993,0.02170
369.18014,0.01220
367.69035,0.00272
366.20056,0.03102
364.71077,0.01350
363.22099,0.01997
361.73120,0.02647
360.24141,0.02368
358.75162,0.03770
357.26183,0.02985
355.77204,0.02203
354.28225,0.07594
352.79247,0.06385
351.30268,0.05951
349.81289,0.05519
348.32310,0.04396
346.83331,0.02148
345.34352,0.02247
343.85374,0.02349
342.36395,0.04118
340.87416,0.03451
339.38437,0.03168
337.89458,0.02886
336.40479,0.02646
334.91501,0.02357
333.42522,0.02292
331.93543,0.02230
330.44564,0.00192
328.95585,0.02045
327.46606,0.01594
325.97627,0.01146
324.48649,0.04707
322.99670,0.02769
321.50691,0.04081
320.01712,0.05397
318.52733,0.08182
317.03754,0.06698
315.54776,0.05715
314.05797,0.04734
312.56818,0.03939
311.07839,0.04220
309.58860,0.04688
308.09881,0.05157
306.60902,0.07464
305.11924,0.01728
303.62945,0.01223
302.13966,0.00719
300.64987,0.01935
299.16008,0.00192
