1778.52000,0.01824
1777.03021,0.01983
1775.54042,0.02476
1774.05063,0.02278
1772.56085,0.01631
1771.07106,0.00896
1769.58127,0.02695
1768.09148,0.01573
1766.60169,0.01749
1765.11190,0.02139
1763.62212,0.00542
1762.13233,0.02836
1760.64254,0.01907
1759.15275,0.02487
1757.66296,0.01805
1756.17317,0.00763
1754.68339,0.02918
1753.19360,0.01097
1751.70381,0.01720
1750.21402,0.01110
1748.72423,0.01075
1747.23444,0.00470
1745.74465,0.02308
1744.25487,0.02341
1742.76508,0.02044
1741.27529,0.01720
1739.78550,0.00615
1738.29571,0.02253
1736.80592,0.01242
1735.31614,0.01016
1733.82635,0.01999
1732.33656,0.00000
1730.84677,0.01314
1729.35698,0.01394
1727.86719,0.02140
1726.37740,0.00899
1724.88762,0.02705
1723.39783,0.00595
1721.90804,0.01321
1720.41825,0.00542
1718.92846,0.00847
1717.43867,0.02330
1715.94889,0.01344
1714.45910,0.01445
1712.96931,0.01278
1711.47952,0.01625
1709.98973,0.00378
1708.49994,0.00897
1707.01016,0.00937
1705.52037,0.00980
1704.03058,0.00542
1702.54079,0.01106
1701.05100,0.01641
1699.56121,0.01727
1698.07142,0.01967
1696.58164,0.01154
1695.09185,0.02091
1693.60206,0.03031
1692.11227,0.01773
1690.62248,0.01693
1689.13269,0.02942
1687.64291,0.02626
1686.15312,0.02403
1684.66333,0.02363
1683.17354,0.04646
1681.68375,0.02833
1680.19396,0.04036
1678.70417,0.03403
1677.21439,0.05516
1675.72460,0.04978
1674.23481,0.05830
1672.74502,0.04694
1671.25523,0.05189
1669.76544,0.07284
1668.27566,0.06126
1666.78587,0.07231
1665.29608,0.07735
1663.80629,0.07790
1662.31650,0.08059
1660.82671,0.08209
1659.33693,0.10050
1657.84714,0.08547
1656.35735,0.09067
1654.86756,0.07840
1653.37777,0.09058
1651.88798,0.09042
1650.39819,0.08065
1648.90841,0.09018
1647.41862,0.08166
1645.92883,0.08884
1644.43904,0.09604
1642.94925,0.08849
1641.45946,0.11111
1639.96968,0.08855
1638.47989,0.10097
1636.99010,0.08539
1635.50031,0.08430
1634.01052,0.08082
1632.52073,0.07797
1631.03094,0.08389
1629.54116,0.08892
1628.05137,0.08042
1626.56158,0.08581
1625.07179,0.09755
1623.58200,0.09997
1622.09221,0.10151
1620.60243,0.11905
1619.11264,0.11130
1617.62285,0.09574
1616.13306,0.08713
1614.64327,0.09091
1613.15348,0.09410
1611.66370,0.10094
1610.17391,0.10419
1608.68412,0.10385
1607.19433,0.11196
1605.70454,0.10112
1604.21475,0.09663
1602.72496,0.09216
1601.23518,0.08260
1599.74539,0.08903
1598.25560,0.08163
1596.76581,0.08238
1595.27602,0.09492
1593.78623,0.08337
1592.29645,0.07697
1590.80666,0.07541
1589.31687,0.07388
1587.82708,0.06936
1586.33729,0.08054
1584.84750,0.07576
1583.35771,0.08518
1581.86793,0.06479
1580.37814,0.07335
1578.88835,0.08375
1577.39856,0.07759
1575.90877,0.06453
1574.41898,0.07319
1572.92920,0.05113
1571.43941,0.04749
1569.94962,0.03965
1568.45983,0.03183
1566.97004,0.04242
1565.48025,0.02923
1563.99047,0.03204
1562.50068,0.02553
1561.01089,0.03381
1559.52110,0.03127
1558.03131,0.02543
1556.54152,0.02022
1555.05173,0.03192
1553.56195,0.02646
1552.07216,0.03248
1550.58237,0.02405
1549.09258,0.00872
1547.60279,0.01632
1546.11300,0.00225
1544.62322,0.01737
1543.13343,0.00358
1541.64364,0.01050
1540.15385,0.00795
1538.66406,0.00542
1537.17427,0.02452
1535.68448,0.01321
1534.19470,0.01488
1532.70491,0.01778
1531.21512,0.00925
1529.72533,0.01853
1528.23554,0.01728
1526.74575,0.02932
1525.25597,0.03627
1523.76618,0.03148
1522.27639,0.03244
1520.78660,0.04428
1519.29681,0.03565
1517.80702,0.03819
1516.31724,0.04980
1514.82745,0.06325
1513.33766,0.05637
1511.84787,0.04952
1510.35808,0.05189
1508.86829,0.03499
1507.37850,0.04343
1505.88872,0.03653
1504.39893,0.03749
1502.90914,0.04992
1501.41935,0.05877
1499.92956,0.09325
1498.43977,0.09732
1496.94999,0.05500
1495.46020,0.05219
1493.97041,0.08346
1492.48062,0.08582
1490.99083,0.10027
1489.50104,0.10660
1488.01125,0.11641
1486.52147,0.12626
1485.03168,0.16431
1483.54189,0.17526
1482.05210,0.19256
1480.56231,0.20446
1479.07252,0.22091
1477.58274,0.24070
1476.09295,0.22917
1474.60316,0.24388
1473.11337,0.25410
1471.62358,0.21461
1470.13379,0.28093
1468.64401,0.27224
1467.15422,0.30878
1465.66443,0.32123
1464.17464,0.33370
1462.68485,0.32872
1461.19506,0.37169
1459.70527,0.40985
1458.21549,0.48572
1456.72570,0.56373
1455.23591,0.65984
1453.74612,0.68906
1452.25633,0.71922
1450.76654,0.72920
1449.27676,0.72655
1447.78697,0.76401
1446.29718,0.68817
1444.80739,0.66134
1443.31760,0.63452
1441.82781,0.59854
1440.33802,0.56801
1438.84824,0.53057
1437.35845,0.52360
1435.86866,0.50670
1434.37887,0.50008
1432.88908,0.53026
1431.39929,0.58818
1429.90951,0.65668
1428.41972,0.75173
1426.92993,0.82390
1425.44014,0.90815
1423.95035,0.93817
1422.46056,0.96821
1420.97078,0.99768
1419.48099,1.01150
1417.99120,0.95090
1416.50141,0.97200
1415.01162,0.95756
1413.52183,0.90306
1412.03204,0.84768
1410.54226,0.77093
1409.05247,0.68455
1407.56268,0.64160
1406.07289,0.59386
1404.58310,0.56723
1403.09331,0.54064
1401.60353,0.46946
1400.11374,0.41578
1398.62395,0.36092
1397.13416,0.31483
1395.64437,0.26153
1394.15458,0.21097
1392.66479,0.20112
1391.17501,0.15483
1389.68522,0.11881
1388.19543,0.09638
1386.70564,0.09115
1385.21585,0.08594
1383.72606,0.04309
1382.23628,0.06265
1380.74649,0.04998
1379.25670,0.03101
1377.76691,0.02443
1376.27712,0.03414
1374.78733,0.00711
1373.29755,0.01868
1371.80776,0.01400
1370.31797,0.00542
1368.82818,0.00599
1367.33839,0.00658
1365.84860,0.02874
1364.35881,0.03737
1362.86903,0.04873
1361.37924,0.05921
1359.88945,0.08208
1358.39966,0.11220
1356.90987,0.14296
1355.42008,0.20357
1353.93030,0.27084
1352.44051,0.28735
1350.95072,0.30388
1349.46093,0.35917
1347.97114,0.45005
1346.48135,0.52558
1344.99156,0.61922
1343.50178,0.71018
1342.01199,0.79603
1340.52220,0.84544
1339.03241,0.89367
1337.54262,0.94493
1336.05283,0.95011
1334.56305,0.95531
1333.07326,0.97380
1331.58347,1.01763
1330.09368,1.00271
1328.60389,1.02941
1327.11410,0.98682
1325.62432,0.92947
1324.13453,0.88873
1322.64474,0.86490
1321.15495,0.85043
1319.66516,0.81896
1318.17537,0.78751
1316.68558,0.74719
1315.19580,0.67224
1313.70601,0.65428
1312.21622,0.59023
1310.72643,0.53585
1309.23664,0.48722
1307.74685,0.46544
1306.25707,0.43826
1304.76728,0.41381
1303.27749,0.38939
1301.78770,0.33727
1300.29791,0.30777
1298.80812,0.26504
1297.31834,0.20938
1295.82855,0.18779
1294.33876,0.14363
1292.84897,0.12692
1291.35918,0.11957
1289.86939,0.11331
1288.37960,0.10707
1286.88982,0.09076
1285.40003,0.09858
1283.91024,0.06936
1282.42045,0.07241
1280.93066,0.04505
1279.44087,0.05388
1277.95109,0.05760
1276.46130,0.06980
1274.97151,0.06408
1273.48172,0.05839
1271.99193,0.04474
1270.50214,0.04075
1269.01235,0.03830
1267.52257,0.03708
1266.03278,0.03227
1264.54299,0.02024
1263.05320,0.03959
1261.56341,0.03817
1260.07362,0.03677
1258.58384,0.01821
1257.09405,0.00691
1255.60426,0.02699
1254.11447,0.03051
1252.62468,0.00542
1251.13489,0.00675
1249.64511,0.00599
1248.15532,0.01168
1246.66553,0.02508
1245.17574,0.03851
1243.68595,0.03403
1242.19616,0.03018
1240.70637,0.00314
1239.21659,0.01664
1237.72680,0.01057
1236.23701,0.04070
1234.74722,0.04492
1233.25743,0.03938
1231.76764,0.03386
1230.27786,0.03184
1228.78807,0.03496
1227.29828,0.02454
1225.80849,0.03404
1224.31870,0.01131
1222.82891,0.00579
1221.33912,0.00542
1219.84934,0.01153
1218.35955,0.01767
1216.86976,0.03694
1215.37997,0.07040
1213.89018,0.06682
1212.40039,0.07019
1210.91061,0.09528
1209.42082,0.07670
1207.93103,0.07518
1206.44124,0.07367
1204.95145,0.05999
1203.46166,0.08039
1201.97188,0.07429
1200.48209,0.04982
1198.99230,0.06095
1197.50251,0.06186
1196.01272,0.04561
1194.52293,0.03315
1193.03314,0.02072
1191.54336,0.02504
1190.05357,0.02577
1188.56378,0.00542
1187.07399,0.03336
1185.58420,0.04444
1184.09441,0.02389
1182.60463,0.01920
1181.11484,0.01453
1179.62505,0.01456
1178.13526,0.02637
1176.64547,0.02283
1175.15568,0.02233
1173.66589,0.01431
1172.17611,0.02471
1170.68632,0.02172
1169.19653,0.01876
1167.70674,0.00542
1166.21695,0.01414
1164.72716,0.04458
1163.23738,0.04943
1161.74759,0.06938
1160.25780,0.07247
1158.76801,0.07558
1157.27822,0.07872
1155.78843,0.08731
1154.29865,0.08779
1152.80886,0.11330
1151.31907,0.12137
1149.82928,0.13066
1148.33949,0.13063
1146.84970,0.13349
1145.35991,0.13637
1143.87013,0.14607
1142.38034,0.17839
1140.89055,0.18481
1139.40076,0.19397
1137.91097,0.21009
1136.42118,0.21448
1134.93140,0.21408
1133.44161,0.21369
1131.95182,0.23624
1130.46203,0.24736
1128.97224,0.27237
1127.48245,0.26696
1125.99266,0.26067
1124.50288,0.23120
1123.01309,0.23913
1121.52330,0.24708
1120.03351,0.26048
1118.54372,0.26215
1117.05393,0.26596
1115.56415,0.26828
1114.07436,0.28208
1112.58457,0.27466
1111.09478,0.26727
1109.60499,0.26758
1108.11520,0.27244
1106.62542,0.25894
1105.13563,0.24968
1103.64584,0.25883
1102.15605,0.27825
1100.66626,0.26771
1099.17647,0.25720
1097.68668,0.23209
1096.19690,0.24468
1094.70711,0.23680
1093.21732,0.22925
1091.72753,0.22896
1090.23774,0.22401
1088.74795,0.21910
1087.25817,0.19687
1085.76838,0.18281
1084.27859,0.21881
1082.78880,0.20751
1081.29901,0.20528
1079.80922,0.20398
1078.31943,0.21189
1076.82965,0.21983
1075.33986,0.22403
1073.85007,0.21529
1072.36028,0.22677
1070.87049,0.24400
1069.38070,0.29019
1067.89092,0.30898
1066.40113,0.32779
1064.91134,0.39394
1063.42155,0.44686
1061.93176,0.54833
1060.44197,0.62993
1058.95219,0.70252
1057.46240,0.75463
1055.97261,0.80677
1054.48282,0.90927
1052.99303,1.00456
1051.50324,1.01699
1050.01345,0.98242
1048.52367,0.97139
1047.03388,0.94787
1045.54409,0.92438
1044.05430,0.88991
1042.56451,0.80333
1041.07472,0.75324
1039.58494,0.70378
1038.09515,0.64138
1036.60536,0.60824
1035.11557,0.57513
1033.62578,0.52275
1032.13599,0.45292
1030.64620,0.36984
1029.15642,0.32417
1027.66663,0.28485
1026.17684,0.24556
1024.68705,0.25270
1023.19726,0.21798
1021.70747,0.18991
1020.21769,0.14951
1018.72790,0.15193
1017.23811,0.14699
1015.74832,0.14208
1014.25853,0.13403
1012.76874,0.11756
1011.27896,0.10353
1009.78917,0.11032
1008.29938,0.09272
1006.80959,0.07349
1005.31980,0.05428
1003.83001,0.03194
1002.34022,0.04488
1000.85044,0.04157
999.36065,0.05667
997.87086,0.06667
996.38107,0.07670
994.89128,0.09549
993.40149,0.11280
991.91171,0.12440
990.42192,0.13212
988.93213,0.13172
987.44234,0.14054
985.95255,0.14938
984.46276,0.14875
982.97297,0.14664
981.48319,0.13823
979.99340,0.08132
978.50361,0.08441
977.01382,0.08752
975.52403,0.05600
974.03424,0.05584
972.54446,0.05542
971.05467,0.03331
969.56488,0.00550
968.07509,0.00545
966.58530,0.00542
965.09551,0.02932
963.60573,0.02009
962.11594,0.00576
960.62615,0.04209
959.13636,0.03686
957.64657,0.03164
956.15678,0.02555
954.66699,0.04420
953.17721,0.03575
951.68742,0.04058
950.19763,0.04724
948.70784,0.05393
947.21805,0.07843
945.72826,0.07583
944.23848,0.09495
942.74869,0.11108
941.25890,0.11850
939.76911,0.13604
938.27932,0.15360
936.78953,0.15657
935.29974,0.17373
933.80996,0.18911
932.32017,0.19245
930.83038,0.20200
929.34059,0.21157
927.85080,0.23790
926.36101,0.27359
924.87123,0.31775
923.38144,0.40292
921.89165,0.44502
920.40186,0.48714
918.91207,0.58746
917.42228,0.68810
915.93250,0.86352
914.44271,1.05613
912.95292,1.16243
911.46313,1.26874
909.97334,1.48404
908.48355,1.70509
906.99376,1.85775
905.50398,1.94744
904.01419,1.97371
902.52440,2.00000
901.03461,1.99121
899.54482,1.93090
898.05503,1.81786
896.56525,1.66568
895.07546,1.53416
893.58567,1.40267
892.09588,1.19600
890.60609,0.91521
889.11630,0.65103
887.62651,0.48121
886.13673,0.42067
884.64694,0.36015
883.15715,0.23351
881.66736,0.16445
880.17757,0.12134
878.68778,0.12286
877.19800,0.12441
875.70821,0.06871
874.21842,0.06096
872.72863,0.04028
871.23884,0.03982
869.74905,0.03923
868.25927,0.03866
866.76948,0.03586
865.27969,0.02675
863.78990,0.04027
862.30011,0.03935
860.81032,0.04554
859.32053,0.05175
857.83075,0.06568
856.34096,0.10585
854.85117,0.09722
853.36138,0.11182
851.87159,0.12478
850.38180,0.13777
848.89202,0.14793
847.40223,0.15479
845.91244,0.17645
844.42265,0.18984
842.93286,0.20325
841.44307,0.19484
839.95329,0.24704
838.46350,0.24923
836.97371,0.24782
835.48392,0.25036
833.99413,0.25293
832.50434,0.25491
831.01455,0.23613
829.52477,0.22219
828.03498,0.19561
826.54519,0.18308
825.05540,0.17057
823.56561,0.13744
822.07582,0.13930
820.58604,0.12973
819.09625,0.11717
817.60646,0.10463
816.11667,0.10568
814.62688,0.10254
813.13709,0.09611
811.64730,0.10899
810.15752,0.11782
808.66773,0.12668
807.17794,0.11854
805.68815,0.14629
804.19836,0.14452
802.70857,0.14369
801.21879,0.14288
799.72900,0.12943
798.23921,0.10335
796.74942,0.09749
795.25963,0.09678
793.76984,0.09609
792.28006,0.11683
790.79027,0.13246
789.30048,0.15174
787.81069,0.16291
786.32090,0.17289
784.83111,0.18290
783.34132,0.24659
781.85154,0.26267
780.36175,0.28692
778.87196,0.31150
777.38217,0.33610
775.89238,0.37609
774.40259,0.36759
772.91281,0.35157
771.42302,0.33438
769.93323,0.31721
768.44344,0.29192
766.95365,0.26877
765.46386,0.20014
763.97407,0.18578
762.48429,0.17250
760.99450,0.15924
759.50471,0.12567
758.01492,0.10538
756.52513,0.09687
755.03534,0.09728
753.54556,0.09771
752.05577,0.05461
750.56598,0.06157
749.07619,0.03209
747.58640,0.02704
746.09661,0.02202
744.60683,0.01160
743.11704,0.03556
741.62725,0.00861
740.13746,0.00700
738.64767,0.00542
737.15788,0.01927
735.66809,0.01808
734.17831,0.01661
732.68852,0.01652
731.19873,0.01645
729.70894,0.00420
728.21915,0.00542
726.72936,0.01092
725.23958,0.00468
723.74979,0.00560
722.26000,0.00655
720.77021,0.03269
719.28042,0.01394
717.79063,0.00246
716.30084,0.00578
714.81106,0.00912
713.32127,0.00450
711.83148,0.03427
710.34169,0.02397
708.85190,0.02952
707.36211,0.03510
705.87233,0.03272
704.38254,0.02734
702.89275,0.03977
701.40296,0.03942
699.91317,0.03909
698.42338,0.05522
696.93360,0.06232
695.44381,0.08633
693.95402,0.09921
692.46423,0.11212
690.97444,0.11932
689.48465,0.13379
687.99486,0.13441
686.50508,0.15299
685.01529,0.17160
683.52550,0.19189
682.03571,0.23481
680.54592,0.25936
679.05613,0.25592
677.56635,0.25249
676.07656,0.25512
674.58677,0.24331
673.09698,0.24267
671.60719,0.23241
670.11740,0.22218
668.62761,0.19691
667.13783,0.14844
665.64804,0.14793
664.15825,0.14744
662.66846,0.11081
661.17867,0.09289
659.68888,0.06897
658.19910,0.05893
656.70931,0.04892
655.21952,0.04286
653.72973,0.04103
652.23994,0.02477
650.75015,0.04063
649.26037,0.05651
647.77058,0.04454
646.28079,0.03651
644.79100,0.03212
643.30121,0.03078
641.81142,0.02945
640.32163,0.04021
638.83185,0.03230
637.34206,0.02683
635.85227,0.01612
634.36248,0.00542
632.87269,0.03171
631.38290,0.02156
629.89312,0.02409
628.40333,0.02002
626.91354,0.01597
625.42375,0.03485
623.93396,0.01458
622.44417,0.02371
620.95438,0.03287
619.46460,0.05607
617.97481,0.07206
616.48502,0.07994
614.99523,0.08649
613.50544,0.09306
612.01565,0.10583
610.52587,0.17409
609.03608,0.17154
607.54629,0.18650
606.05650,0.20148
604.56671,0.23759
603.07692,0.31380
601.58714,0.33805
600.09735,0.36233
598.60756,0.42295
597.11777,0.43778
595.62798,0.40682
594.13819,0.40874
592.64840,0.41068
591.15862,0.36714
589.66883,0.34652
588.17904,0.29730
586.68925,0.27388
585.19946,0.25048
583.70967,0.19289
582.21989,0.17662
580.73010,0.16415
579.24031,0.15169
577.75052,0.11711
576.26073,0.08045
574.77094,0.08570
573.28115,0.07425
571.79137,0.06283
570.30158,0.03982
568.81179,0.05904
567.32200,0.06246
565.83221,0.06590
564.34242,0.09996
562.85264,0.11777
561.36285,0.16454
559.87306,0.16477
558.38327,0.16502
556.89348,0.16424
555.40369,0.14691
553.91391,0.16290
552.42412,0.17893
550.93433,0.19030
549.44454,0.21647
547.95475,0.24598
546.46496,0.24221
544.97517,0.23846
543.48539,0.23218
541.99560,0.25606
540.50581,0.27032
539.01602,0.28461
537.52623,0.32032
536.03644,0.34822
534.54666,0.40477
533.05687,0.42503
531.56708,0.44532
530.07729,0.49231
528.58750,0.57066
527.09771,0.58439
525.60792,0.59815
524.11814,0.65397
522.62835,0.69535
521.13856,0.74972
519.64877,0.77427
518.15898,0.79885
516.66919,0.82014
515.17941,0.80920
513.68962,0.78939
512.19983,0.76961
510.71004,0.77382
509.22025,0.75394
507.73046,0.72805
506.24068,0.65909
504.75089,0.59016
503.26110,0.48026
501.77131,0.39299
500.28152,0.32834
498.79173,0.26373
497.30194,0.22717
495.81216,0.16832
494.32237,0.14492
492.83258,0.12154
491.34279,0.08418
489.85300,0.06552
488.36321,0.10144
486.87343,0.09354
485.38364,0.08565
483.89385,0.09000
482.40406,0.10071
480.91427,0.09441
479.42448,0.08813
477.93469,0.10704
476.44491,0.10308
474.95512,0.12370
473.46533,0.14435
471.97554,0.15311
470.48575,0.17607
468.99596,0.18247
467.50618,0.17127
466.01639,0.16009
464.52660,0.12558
463.03681,0.08778
461.54702,0.08240
460.05723,0.07705
458.56745,0.06283
457.07766,0.03598
455.58787,0.03100
454.09808,0.02605
452.60829,0.03574
451.11850,0.03400
449.62871,0.02942
448.13893,0.02487
446.64914,0.00542
445.15935,0.02041
443.66956,0.03271
442.17977,0.02982
440.68998,0.02695
439.20020,0.02877
437.71041,0.02851
436.22062,0.02225
434.73083,0.01601
433.24104,0.02005
431.75125,0.00542
430.26146,0.02098
428.77168,0.03657
427.28189,0.05234
425.79210,0.02683
424.30231,0.02622
422.81252,0.02563
421.32273,0.04089
419.83295,0.04442
418.34316,0.03742
416.85337,0.03045
415.36358,0.04973
413.87379,0.05004
412.38400,0.03516
410.89422,0.02030
409.40443,0.03515
407.91464,0.07023
406.42485,0.03178
404.93506,0.02034
403.44527,0.00892
401.95548,0.01757
400.46570,0.02473
398.97591,0.02077
397.48612,0.01683
395.99633,0.03070
394.50654,0.03375
393.01675,0.04601
391.52697,0.05830
390.03718,0.01591
388.54739,0.03322
387.05760,0.03111
385.56781,0.02903
384.07802,0.00542
382.58824,0.00728
381.09845,0.01474
379.60866,0.02222
378.11887,0.03440
376.62908,0.03636
375.13929,0.02749
373.64950,0.01864
372.15972,0.05503
370.66993,0.03298
369.18014,0.02104
367.69035,0.00913
366.20056,0.04035
364.71077,0.07009
363.22099,0.06368
361.73120,0.05730
360.24141,0.04642
358.75162,0.06872
357.26183,0.05186
355.77204,0.03503
354.28225,0.05198
352.79247,0.07046
351.30268,0.07359
349.81289,0.07675
348.32310,0.07722
346.83331,0.03733
345.34352,0.03604
343.85374,0.03478
342.36395,0.02239
340.87416,0.04710
339.38437,0.04199
337.89458,0.03691
336.40479,0.03968
334.91501,0.01928
333.42522,0.02241
331.93543,0.02556
330.44564,0.00975
328.95585,0.00542
327.46606,0.01580
325.97627,0.02619
324.48649,0.03016
322.99670,0.04500
321.50691,0.04660
320.01712,0.04823
318.52733,0.06344
317.03754,0.07597
315.54776,0.07390
314.05797,0.07186
312.56818,0.08718
311.07839,0.12633
309.58860,0.09120
308.09881,0.05611
306.60902,0.05042
305.11924,0.07309
303.62945,0.04410
302.13966,0.01513
300.64987,0.00542
299.16008,0.00542
