1778.52000,0.02663
1777.03021,0.01425
1775.54042,0.02111
1774.05063,0.02375
1772.56085,0.00353
1771.07106,0.00905
1769.58127,0.01008
1768.09148,0.01169
1766.60169,0.01729
1765.11190,0.01867
1763.62212,0.01216
1762.13233,0.01698
1760.64254,0.00883
1759.15275,0.01088
1757.66296,0.01238
1756.17317,0.00685
1754.68339,0.01010
1753.19360,0.00150
1751.70381,0.00000
1750.21402,0.00276
1748.72423,0.00667
1747.23444,0.01514
1745.74465,0.00497
1744.25487,0.01829
1742.76508,0.01778
1741.27529,0.02012
1739.78550,0.01316
1738.29571,0.02319
1736.80592,0.02080
1735.31614,0.00883
1733.82635,0.01559
1732.33656,0.00768
1730.84677,0.00997
1729.35698,0.01822
1727.86719,0.01491
1726.37740,0.01162
1724.88762,0.01909
1723.39783,0.01077
1721.90804,0.02423
1720.41825,0.02923
1718.92846,0.00883
1717.43867,0.02084
1715.94889,0.01818
1714.45910,0.01413
1712.96931,0.01660
1711.47952,0.01006
1709.98973,0.01823
1708.49994,0.01400
1707.01016,0.01092
1705.52037,0.00787
1704.03058,0.02427
1702.54079,0.00933
1701.05100,0.02409
1699.56121,0.01513
1698.07142,0.03051
1696.58164,0.01595
1695.09185,0.03278
1693.60206,0.02308
1692.11227,0.03403
1690.62248,0.02691
1689.13269,0.03481
1687.64291,0.03933
1686.15312,0.03681
1684.66333,0.03969
1683.17354,0.03299
1681.68375,0.04185
1680.19396,0.05356
1678.70417,0.05089
1677.21439,0.06463
1675.72460,0.06935
1674.23481,0.06110
1672.74502,0.05626
1671.25523,0.07858
1669.76544,0.08058
1668.27566,0.07751
1666.78587,0.07984
1665.29608,0.08869
1663.80629,0.10322
1662.31650,0.11212
1660.82671,0.11370
1659.33693,0.10711
1657.84714,0.11213
1656.35735,0.09824
1654.86756,0.10501
1653.37777,0.10784
1651.88798,0.11042
1650.39819,0.11019
1648.90841,0.09925
1647.41862,0.11095
1645.92883,0.10642
1644.43904,0.10191
1642.94925,0.10803
1641.45946,0.11558
1639.96968,0.10592
1638.47989,0.10448
1636.99010,0.12426
1635.50031,0.10224
1634.01052,0.10059
1632.52073,0.10151
1631.03094,0.09765
1629.54116,0.10117
1628.05137,0.11375
1626.56158,0.11675
1625.07179,0.12033
1623.58200,0.11490
1622.09221,0.11910
1620.60243,0.11118
1619.11264,0.12024
1617.62285,0.11406
1616.13306,0.11695
1614.64327,0.10940
1613.15348,0.09454
1611.66370,0.11587
1610.17391,0.11829
1608.68412,0.10576
1607.19433,0.10823
1605.70454,0.10140
1604.21475,0.10209
1602.72496,0.10280
1601.23518,0.10509
1599.74539,0.10627
1598.25560,0.10889
1596.76581,0.11267
1595.27602,0.11082
1593.78623,0.11153
1592.29645,0.11736
1590.80666,0.09665
1589.31687,0.08783
1587.82708,0.08752
1586.33729,0.09317
1584.84750,0.10251
1583.35771,0.08927
1581.86793,0.08199
1580.37814,0.09565
1578.88835,0.09153
1577.39856,0.08121
1575.90877,0.08194
1574.41898,0.07677
1572.92920,0.05833
1571.43941,0.04246
1569.94962,0.04895
1568.45983,0.05546
1566.97004,0.04079
1565.48025,0.04029
1563.99047,0.03641
1562.50068,0.04613
1561.01089,0.04428
1559.52110,0.04077
1558.03131,0.04434
1556.54152,0.02702
1555.05173,0.04478
1553.56195,0.04673
1552.07216,0.04334
1550.58237,0.02612
1549.09258,0.01741
1547.60279,0.01098
1546.11300,0.02888
1544.62322,0.01657
1543.13343,0.02237
1541.64364,0.01237
1540.15385,0.01059
1538.66406,0.00883
1537.17427,0.01993
1535.68448,0.01806
1534.19470,0.01057
1532.70491,0.01806
1531.21512,0.01963
1529.72533,0.02802
1528.23554,0.03982
1526.74575,0.03215
1525.25597,0.03326
1523.76618,0.03044
1522.27639,0.04121
1520.78660,0.05964
1519.29681,0.03711
1517.80702,0.04202
1516.31724,0.04752
1514.82745,0.04881
1513.33766,0.05026
1511.84787,0.05174
1510.35808,0.05027
1508.86829,0.03470
1507.37850,0.04544
1505.88872,0.04715
1504.39893,0.04861
1502.90914,0.06507
1501.41935,0.07110
1499.92956,0.10090
1498.43977,0.05668
1496.94999,0.06674
1495.46020,0.06693
1493.97041,0.09372
1492.48062,0.10696
1490.99083,0.11684
1489.50104,0.12109
1488.01125,0.13017
1486.52147,0.13928
1485.03168,0.17158
1483.54189,0.19967
1482.05210,0.21478
1480.56231,0.22427
1479.07252,0.24367
1477.58274,0.26507
1476.09295,0.27379
1474.60316,0.27376
1473.11337,0.27744
1471.62358,0.27634
1470.13379,0.30521
1468.64401,0.30727
1467.15422,0.31556
1465.66443,0.33858
1464.17464,0.36162
1462.68485,0.37395
1461.19506,0.43010
1459.70527,0.48487
1458.21549,0.52977
1456.72570,0.60465
1455.23591,0.68182
1453.74612,0.71690
1452.25633,0.74410
1450.76654,0.75832
1449.27676,0.78161
1447.78697,0.76818
1446.29718,0.72766
1444.80739,0.70807
1443.31760,0.68850
1441.82781,0.64776
1440.33802,0.61722
1438.84824,0.57626
1437.35845,0.52853
1435.86866,0.52887
1434.37887,0.55438
1432.88908,0.57879
1431.39929,0.61566
1429.90951,0.69240
1428.41972,0.79149
1426.92993,0.86828
1425.44014,0.92136
1423.95035,0.95157
1422.46056,0.98180
1420.97078,1.01235
1419.48099,1.01691
1417.99120,1.01105
1416.50141,0.99024
1415.01162,0.96549
1413.52183,0.91844
1412.03204,0.82620
1410.54226,0.79305
1409.05247,0.73901
1407.56268,0.71015
1406.07289,0.66012
1404.58310,0.62834
1403.09331,0.59658
1401.60353,0.52006
1400.11374,0.45487
1398.62395,0.40609
1397.13416,0.33332
1395.64437,0.30211
1394.15458,0.25002
1392.66479,0.22197
1391.17501,0.18321
1389.68522,0.15549
1388.19543,0.11904
1386.70564,0.10536
1385.21585,0.09170
1383.72606,0.08161
1382.23628,0.03791
1380.74649,0.04284
1379.25670,0.04355
1377.76691,0.01208
1376.27712,0.02047
1374.78733,0.00629
1373.29755,0.01652
1371.80776,0.01068
1370.31797,0.01079
1368.82818,0.00980
1367.33839,0.00883
1365.84860,0.02413
1364.35881,0.03437
1362.86903,0.05566
1361.37924,0.08149
1359.88945,0.10226
1358.39966,0.11825
1356.90987,0.16112
1355.42008,0.21276
1353.93030,0.26924
1352.44051,0.29324
1350.95072,0.31727
1349.46093,0.40604
1347.97114,0.49879
1346.48135,0.57121
1344.99156,0.66712
1343.50178,0.75655
1342.01199,0.82086
1340.52220,0.85014
1339.03241,0.92467
1337.54262,0.96249
1336.05283,0.98351
1334.56305,1.00457
1333.07326,1.00996
1331.58347,1.00916
1330.09368,1.02929
1328.60389,1.04719
1327.11410,1.01312
1325.62432,0.91492
1324.13453,0.94307
1322.64474,0.91585
1321.15495,0.88273
1319.66516,0.85952
1318.17537,0.83633
1316.68558,0.78434
1315.19580,0.70836
1313.70601,0.65360
1312.21622,0.61186
1310.72643,0.56591
1309.23664,0.50698
1307.74685,0.48849
1306.25707,0.46918
1304.76728,0.44608
1303.27749,0.42300
1301.78770,0.36956
1300.29791,0.31587
1298.80812,0.26588
1297.31834,0.21083
1295.82855,0.17727
1294.33876,0.16720
1292.84897,0.12946
1291.35918,0.12481
1289.86939,0.11862
1288.37960,0.11247
1286.88982,0.11580
1285.40003,0.09062
1283.91024,0.08128
1282.42045,0.08921
1280.93066,0.06721
1279.44087,0.06474
1277.95109,0.06568
1276.46130,0.07145
1274.97151,0.06311
1273.48172,0.05480
1271.99193,0.06573
1270.50214,0.05718
1269.01235,0.05601
1267.52257,0.04525
1266.03278,0.04215
1264.54299,0.03484
1263.05320,0.03913
1261.56341,0.03031
1260.07362,0.02152
1258.58384,0.01374
1257.09405,0.01304
1255.60426,0.02933
1254.11447,0.02530
1252.62468,0.02044
1251.13489,0.00883
1249.64511,0.01727
1248.15532,0.02065
1246.66553,0.02504
1245.17574,0.02946
1243.68595,0.02471
1242.19616,0.03356
1240.70637,0.01474
1239.21659,0.02589
1237.72680,0.03029
1236.23701,0.04235
1234.74722,0.04369
1233.25743,0.04053
1231.76764,0.03740
1230.27786,0.04475
1228.78807,0.03912
1227.29828,0.03607
1225.80849,0.03586
1224.31870,0.00883
1222.82891,0.01289
1221.33912,0.01443
1219.84934,0.02970
1218.35955,0.04500
1216.86976,0.06103
1215.37997,0.06832
1213.89018,0.08440
1212.40039,0.09259
1210.91061,0.09995
1209.42082,0.09971
1207.93103,0.08565
1206.44124,0.07162
1204.95145,0.09830
1203.46166,0.06707
1201.97188,0.06555
1200.48209,0.07478
1198.99230,0.07217
1197.50251,0.06253
1196.01272,0.05092
1194.52293,0.04542
1193.03314,0.03994
1191.54336,0.02842
1190.05357,0.03133
1188.56378,0.02296
1187.07399,0.03157
1185.58420,0.03229
1184.09441,0.02287
1182.60463,0.02166
1181.11484,0.02048
1179.62505,0.01735
1178.13526,0.01932
1176.64547,0.01907
1175.15568,0.02674
1173.66589,0.01495
1172.17611,0.00883
1170.68632,0.01371
1169.19653,0.01862
1167.70674,0.01761
1166.21695,0.01635
1164.72716,0.04733
1163.23738,0.05064
1161.74759,0.03674
1160.25780,0.07203
1158.76801,0.07301
1157.27822,0.07402
1155.78843,0.07180
1154.29865,0.09504
1152.80886,0.09626
1151.31907,0.10966
1149.82928,0.11489
1148.33949,0.12636
1146.84970,0.12245
1145.35991,0.11857
1143.87013,0.10496
1142.38034,0.16203
1140.89055,0.17447
1139.40076,0.21237
1137.91097,0.17767
1136.42118,0.21619
1134.93140,0.21700
1133.44161,0.21784
1131.95182,0.22930
1130.46203,0.26283
1128.97224,0.27886
1127.48245,0.25083
1125.99266,0.24458
1124.50288,0.24204
1123.01309,0.24588
1121.52330,0.24974
1120.03351,0.25659
1118.54372,0.25895
1117.05393,0.25766
1115.56415,0.25385
1114.07436,0.26589
1112.58457,0.26213
1111.09478,0.25839
1109.60499,0.24592
1108.11520,0.25637
1106.62542,0.23264
1105.13563,0.26376
1103.64584,0.27061
1102.15605,0.25346
1100.66626,0.24707
1099.17647,0.24071
1097.68668,0.22165
1096.19690,0.24049
1094.70711,0.24240
1093.21732,0.23839
1091.72753,0.20616
1090.23774,0.20545
1088.74795,0.20477
1087.25817,0.19409
1085.76838,0.22808
1084.27859,0.20388
1082.78880,0.22322
1081.29901,0.21150
1079.80922,0.22920
1078.31943,0.23505
1076.82965,0.24093
1075.33986,0.21857
1073.85007,0.21404
1072.36028,0.24430
1070.87049,0.26384
1069.38070,0.30715
1067.89092,0.33069
1066.40113,0.35427
1064.91134,0.40273
1063.42155,0.49503
1061.93176,0.59102
1060.44197,0.69721
1058.95219,0.75849
1057.46240,0.81471
1055.97261,0.87096
1054.48282,0.99307
1052.99303,1.08384
1051.50324,1.09834
1050.01345,1.02045
1048.52367,1.01436
1047.03388,1.01466
1045.54409,1.01498
1044.05430,0.97789
1042.56451,0.91877
1041.07472,0.83312
1039.58494,0.74890
1038.09515,0.68336
1036.60536,0.65190
1035.11557,0.62046
1033.62578,0.54793
1032.13599,0.45056
1030.64620,0.40917
1029.15642,0.34547
1027.66663,0.31133
1026.17684,0.27722
1024.68705,0.27068
1023.19726,0.23478
1021.70747,0.21529
1020.21769,0.18736
1018.72790,0.14588
1017.23811,0.15388
1015.74832,0.16190
1014.25853,0.17080
1012.76874,0.13535
1011.27896,0.14317
1009.78917,0.11738
1008.29938,0.11197
1006.80959,0.09358
1005.31980,0.07521
1003.83001,0.05857
1002.34022,0.07388
1000.85044,0.05389
999.36065,0.04806
997.87086,0.05525
996.38107,0.06247
994.89128,0.08299
993.40149,0.11089
991.91171,0.12355
990.42192,0.13765
988.93213,0.14075
987.44234,0.14755
985.95255,0.15438
984.46276,0.18468
982.97297,0.17178
981.48319,0.14816
979.99340,0.10930
978.50361,0.09633
977.01382,0.08338
975.52403,0.06070
974.03424,0.06716
972.54446,0.04482
971.05467,0.03353
969.56488,0.01575
968.07509,0.01228
966.58530,0.00883
965.09551,0.01917
963.60573,0.01907
962.11594,0.01731
960.62615,0.02263
959.13636,0.01809
957.64657,0.01357
956.15678,0.01642
954.66699,0.03965
953.17721,0.03464
951.68742,0.05792
950.19763,0.04589
948.70784,0.03390
947.21805,0.04114
945.72826,0.07949
944.23848,0.09526
942.74869,0.13649
941.25890,0.13903
939.76911,0.14512
938.27932,0.15124
936.78953,0.16572
935.29974,0.16723
933.80996,0.17413
932.32017,0.18105
930.83038,0.20425
929.34059,0.22748
927.85080,0.26161
926.36101,0.31046
924.87123,0.33135
923.38144,0.38477
921.89165,0.42988
920.40186,0.47501
918.91207,0.58672
917.42228,0.70778
915.93250,0.84328
914.44271,1.09382
912.95292,1.21947
911.46313,1.34515
909.97334,1.52031
908.48355,1.70595
906.99376,1.87466
905.50398,1.94110
904.01419,1.97054
902.52440,2.00000
901.03461,1.97777
899.54482,1.93607
898.05503,1.84975
896.56525,1.64419
895.07546,1.53347
893.58567,1.42277
892.09588,1.14635
890.60609,0.89596
889.11630,0.67894
887.62651,0.45234
886.13673,0.39320
884.64694,0.33408
883.15715,0.25620
881.66736,0.18597
880.17757,0.13753
878.68778,0.12457
877.19800,0.11165
875.70821,0.09154
874.21842,0.04658
872.72863,0.02200
871.23884,0.01468
869.74905,0.01559
868.25927,0.01651
866.76948,0.02933
865.27969,0.00883
863.78990,0.02137
862.30011,0.04524
860.81032,0.05019
859.32053,0.05517
857.83075,0.08420
856.34096,0.09630
854.85117,0.09909
853.36138,0.11407
851.87159,0.11352
850.38180,0.11300
848.89202,0.15546
847.40223,0.17109
845.91244,0.19326
844.42265,0.20287
842.93286,0.21250
841.44307,0.21608
839.95329,0.23382
838.46350,0.25752
836.97371,0.24875
835.48392,0.25596
833.99413,0.26320
832.50434,0.25224
831.01455,0.26419
829.52477,0.22700
828.03498,0.19746
826.54519,0.18970
825.05540,0.18197
823.56561,0.14884
822.07582,0.15924
820.58604,0.13746
819.09625,0.14353
817.60646,0.14963
816.11667,0.12877
814.62688,0.10087
813.13709,0.12414
811.64730,0.11155
810.15752,0.12144
808.66773,0.13137
807.17794,0.15587
805.68815,0.15270
804.19836,0.13938
802.70857,0.13838
801.21879,0.13741
799.72900,0.13067
798.23921,0.12253
796.74942,0.12291
795.25963,0.11920
793.76984,0.11553
792.28006,0.13039
790.79027,0.13877
789.30048,0.15961
787.81069,0.18444
786.32090,0.21070
784.83111,0.23698
783.34132,0.25538
781.85154,0.30348
780.36175,0.33379
778.87196,0.35001
777.38217,0.36624
775.89238,0.39494
774.40259,0.41631
772.91281,0.40549
771.42302,0.39244
769.93323,0.37941
768.44344,0.34069
766.95365,0.30369
765.46386,0.27124
763.97407,0.21394
762.48429,0.20089
760.99450,0.18787
759.50471,0.16343
758.01492,0.12686
756.52513,0.12168
755.03534,0.11300
753.54556,0.10434
752.05577,0.09811
750.56598,0.06816
749.07619,0.04276
747.58640,0.04734
746.09661,0.05195
744.60683,0.05093
743.11704,0.02648
741.62725,0.03031
740.13746,0.02244
738.64767,0.01459
737.15788,0.01850
735.66809,0.02723
734.17831,0.01339
732.68852,0.01214
731.19873,0.01092
729.70894,0.01664
728.21915,0.00883
726.72936,0.01794
725.23958,0.01944
723.74979,0.02139
722.26000,0.02337
720.77021,0.01873
719.28042,0.02344
717.79063,0.01602
716.30084,0.01118
714.81106,0.00635
713.32127,0.00816
711.83148,0.03288
710.34169,0.02428
708.85190,0.03803
707.36211,0.05180
705.87233,0.04497
704.38254,0.06869
702.89275,0.05399
701.40296,0.05515
699.91317,0.05633
698.42338,0.06799
696.93360,0.08307
695.44381,0.11683
693.95402,0.11839
692.46423,0.11998
690.97444,0.11255
689.48465,0.14555
687.99486,0.15428
686.50508,0.17433
685.01529,0.19441
683.52550,0.23317
682.03571,0.26008
680.54592,0.27572
679.05613,0.27244
677.56635,0.26919
676.07656,0.27896
674.58677,0.28509
673.09698,0.25026
671.60719,0.23679
670.11740,0.22335
668.62761,0.21601
667.13783,0.18439
665.64804,0.17399
664.15825,0.16362
662.66846,0.14055
661.17867,0.09801
659.68888,0.08403
658.19910,0.07475
656.70931,0.06548
655.21952,0.04819
653.72973,0.04336
652.23994,0.05918
650.75015,0.07121
649.26037,0.08327
647.77058,0.06073
646.28079,0.05772
644.79100,0.04230
643.30121,0.04287
641.81142,0.04346
640.32163,0.05213
638.83185,0.03059
637.34206,0.05147
635.85227,0.03577
634.36248,0.02010
632.87269,0.00883
631.38290,0.03836
629.89312,0.03344
628.40333,0.03519
626.91354,0.03696
625.42375,0.02448
623.93396,0.03605
622.44417,0.04030
620.95438,0.04457
619.46460,0.06413
617.97481,0.07326
616.48502,0.08891
614.99523,0.09243
613.50544,0.09598
612.01565,0.11849
610.52587,0.19471
609.03608,0.20822
607.54629,0.21710
606.05650,0.22600
604.56671,0.26135
603.07692,0.32102
601.58714,0.35501
600.09735,0.38902
598.60756,0.42249
597.11777,0.43083
595.62798,0.45587
594.13819,0.44349
592.64840,0.43114
591.15862,0.38532
589.66883,0.34801
588.17904,0.31043
586.68925,0.27077
585.19946,0.23113
583.70967,0.19137
582.21989,0.14768
580.73010,0.12577
579.24031,0.10389
577.75052,0.08175
576.26073,0.07490
574.77094,0.04575
573.28115,0.04587
571.79137,0.04601
570.30158,0.05876
568.81179,0.06927
567.32200,0.07754
565.83221,0.08584
564.34242,0.12327
562.85264,0.11523
561.36285,0.15921
559.87306,0.16350
558.38327,0.16783
556.89348,0.16893
555.40369,0.16384
553.91391,0.18731
552.42412,0.21081
550.93433,0.23292
549.44454,0.22256
547.95475,0.22296
546.46496,0.23228
544.97517,0.24164
543.48539,0.26641
541.99560,0.27398
540.50581,0.29612
539.01602,0.31829
537.52623,0.34938
536.03644,0.40085
534.54666,0.44132
533.05687,0.45765
531.56708,0.47401
530.07729,0.50664
528.58750,0.56586
527.09771,0.60236
525.60792,0.63888
524.11814,0.65550
522.62835,0.71708
521.13856,0.77049
519.64877,0.78323
518.15898,0.79600
516.66919,0.81981
515.17941,0.82217
513.68962,0.82737
512.19983,0.83261
510.71004,0.84550
509.22025,0.80302
507.73046,0.73062
506.24068,0.68127
504.75089,0.63195
503.26110,0.50168
501.77131,0.38360
500.28152,0.34169
498.79173,0.29982
497.30194,0.22532
495.81216,0.17714
494.32237,0.16204
492.83258,0.14697
491.34279,0.09320
489.85300,0.09796
488.36321,0.06205
486.87343,0.07378
485.38364,0.08554
483.89385,0.07401
482.40406,0.09556
480.91427,0.11488
479.42448,0.13423
477.93469,0.13240
476.44491,0.14869
474.95512,0.14861
473.46533,0.14855
471.97554,0.18893
470.48575,0.19571
468.99596,0.20392
467.50618,0.19577
466.01639,0.18764
464.52660,0.15722
463.03681,0.11608
461.54702,0.10788
460.05723,0.09971
458.56745,0.06741
457.07766,0.04247
455.58787,0.03890
454.09808,0.03535
452.60829,0.02462
451.11850,0.00883
449.62871,0.00956
448.13893,0.01031
446.64914,0.04133
445.15935,0.00766
443.66956,0.02177
442.17977,0.02756
440.68998,0.03339
439.20020,0.02468
437.71041,0.03917
436.22062,0.04281
434.73083,0.04647
433.24104,0.04662
431.75125,0.03578
430.26146,0.04305
428.77168,0.05034
427.28189,0.04381
425.79210,0.04183
424.30231,0.02532
422.81252,0.00883
421.32273,0.03798
419.83295,0.05415
418.34316,0.04040
416.85337,0.02666
415.36358,0.02511
413.87379,0.04392
412.38400,0.03733
410.89422,0.03076
409.40443,0.06039
407.91464,0.05500
406.42485,0.04455
404.93506,0.03045
403.44527,0.01638
401.95548,0.00883
400.46570,0.03580
398.97591,0.03991
397.48612,0.04404
395.99633,0.04000
394.50654,0.03881
393.01675,0.03440
391.52697,0.03001
390.03718,0.03829
388.54739,0.03783
387.05760,0.02567
385.56781,0.01353
384.07802,0.01738
382.58824,0.00883
381.09845,0.02089
379.60866,0.03298
378.11887,0.04609
376.62908,0.03830
375.13929,0.03026
373.64950,0.02224
372.15972,0.02697
370.66993,0.02974
369.18014,0.03209
367.69035,0.03446
366.20056,0.04675
364.71077,0.05681
363.22099,0.05036
361.73120,0.04393
360.24141,0.03541
358.75162,0.08597
357.26183,0.06959
355.77204,0.05323
354.28225,0.07052
352.79247,0.08275
351.30268,0.08258
349.81289,0.08242
348.32310,0.09134
346.83331,0.06693
345.34352,0.05654
343.85374,0.04617
342.36395,0.05377
340.87416,0.04444
339.38437,0.04814
337.89458,0.05186
336.40479,0.05362
334.91501,0.04976
333.42522,0.04451
331.93543,0.03929
330.44564,0.03324
328.95585,0.02269
327.46606,0.02079
325.97627,0.01892
324.48649,0.04416
322.99670,0.05642
321.50691,0.04653
320.01712,0.03666
318.52733,0.07048
317.03754,0.09726
315.54776,0.08987
314.05797,0.08250
312.56818,0.07007
311.07839,0.09440
309.58860,0.08273
308.09881,0.07108
306.60902,0.07260
305.11924,0.04334
303.62945,0.03134
302.13966,0.01937
300.64987,0.00883
299.16008,0.00883
