1778.52000,0.00432
1777.03021,0.00934
1775.54042,0.00491
1774.05063,0.00188
1772.56085,0.00619
1771.07106,0.00834
1769.58127,0.00499
1768.09148,0.00522
1766.60169,0.00805
1765.11190,0.01090
1763.62212,0.00962
1762.13233,0.01034
1760.64254,0.00812
1759.15275,0.01186
1757.66296,0.01187
1756.17317,0.00616
1754.68339,0.00602
1753.19360,0.00195
1751.70381,0.00244
1750.21402,0.00000
1748.72423,0.00983
1747.23444,0.01534
1745.74465,0.01337
1744.25487,0.00509
1742.76508,0.01206
1741.27529,0.01194
1739.78550,0.00927
1738.29571,0.01433
1736.80592,0.01151
1735.31614,0.00812
1733.82635,0.00914
1732.33656,0.01294
1730.84677,0.00393
1729.35698,0.00620
1727.86719,0.01304
1726.37740,0.00884
1724.88762,0.01040
1723.39783,0.00802
1721.90804,0.00567
1720.41825,0.00908
1718.92846,0.00836
1717.43867,0.02308
1715.94889,0.01668
1714.45910,0.00812
1712.96931,0.01006
1711.47952,0.01914
1709.98973,0.01619
1708.49994,0.00733
1707.01016,0.00660
1705.52037,0.00589
1704.03058,0.00916
1702.54079,0.01502
1701.05100,0.01893
1699.56121,0.01635
1698.07142,0.02209
1696.58164,0.01737
1695.09185,0.01565
1693.60206,0.01197
1692.11227,0.00812
1690.62248,0.01073
1689.13269,0.01671
1687.64291,0.01560
1686.15312,0.02658
1684.66333,0.01979
1683.17354,0.02310
1681.68375,0.02051
1680.19396,0.03040
1678.70417,0.02647
1677.21439,0.02910
1675.72460,0.03036
1674.23481,0.03560
1672.74502,0.03612
1671.25523,0.04516
1669.76544,0.04968
1668.27566,0.05403
1666.78587,0.06472
1665.29608,0.06260
1663.80629,0.06148
1662.31650,0.07304
1660.82671,0.07020
1659.33693,0.07765
1657.84714,0.07387
1656.35735,0.07426
1654.86756,0.06519
1653.37777,0.07314
1651.88798,0.07736
1650.39819,0.08891
1648.90841,0.08705
1647.41862,0.07672
1645.92883,0.07738
1644.43904,0.07806
1642.94925,0.08578
1641.45946,0.09472
1639.96968,0.08984
1638.47989,0.09606
1636.99010,0.08471
1635.50031,0.09156
1634.01052,0.08204
1632.52073,0.08064
1631.03094,0.10022
1629.54116,0.08761
1628.05137,0.08213
1626.56158,0.10198
1625.07179,0.10347
1623.58200,0.09728
1622.09221,0.09981
1620.60243,0.10058
1619.11264,0.09941
1617.62285,0.09885
1616.13306,0.09515
1614.64327,0.08890
1613.15348,0.09553
1611.66370,0.09427
1610.17391,0.09344
1608.68412,0.09599
1607.19433,0.09856
1605.70454,0.09938
1604.21475,0.09390
1602.72496,0.08844
1601.23518,0.09645
1599.74539,0.08886
1598.25560,0.08407
1596.76581,0.08859
1595.27602,0.10104
1593.78623,0.09316
1592.29645,0.09222
1590.80666,0.09407
1589.31687,0.08073
1587.82708,0.08125
1586.33729,0.07685
1584.84750,0.07959
1583.35771,0.09401
1581.86793,0.08098
1580.37814,0.08518
1578.88835,0.07991
1577.39856,0.07447
1575.90877,0.06629
1574.41898,0.06959
1572.92920,0.05592
1571.43941,0.05058
1569.94962,0.05030
1568.45983,0.05004
1566.97004,0.04200
1565.48025,0.04545
1563.99047,0.04359
1562.50068,0.04333
1561.01089,0.03558
1559.52110,0.02964
1558.03131,0.03954
1556.54152,0.02949
1555.05173,0.02758
1553.56195,0.03043
1552.07216,0.01967
1550.58237,0.02395
1549.09258,0.00751
1547.60279,0.00295
1546.11300,0.01776
1544.62322,0.02430
1543.13343,0.01703
1541.64364,0.01038
1540.15385,0.01146
1538.66406,0.01256
1537.17427,0.02219
1535.68448,0.00812
1534.19470,0.01295
1532.70491,0.01405
1531.21512,0.01715
1529.72533,0.01098
1528.23554,0.01413
1526.74575,0.03351
1525.25597,0.03493
1523.76618,0.03478
1522.27639,0.04001
1520.78660,0.04248
1519.29681,0.03609
1517.80702,0.05561
1516.31724,0.05125
1514.82745,0.04275
1513.33766,0.04535
1511.84787,0.04797
1510.35808,0.04667
1508.86829,0.04341
1507.37850,0.05204
1505.88872,0.04250
1504.39893,0.04208
1502.90914,0.05948
1501.41935,0.06780
1499.92956,0.07852
1498.43977,0.07306
1496.94999,0.06763
1495.46020,0.07190
1493.97041,0.08213
1492.48062,0.08566
1490.99083,0.10285
1489.50104,0.12283
1488.01125,0.12584
1486.52147,0.12887
1485.03168,0.15763
1483.54189,0.18363
1482.05210,0.20967
1480.56231,0.21537
1479.07252,0.23413
1477.58274,0.24324
1476.09295,0.25396
1474.60316,0.24572
1473.11337,0.26439
1471.62358,0.27419
1470.13379,0.27512
1468.64401,0.27133
1467.15422,0.30768
1465.66443,0.30443
1464.17464,0.30121
1462.68485,0.34218
1461.19506,0.39108
1459.70527,0.44258
1458.21549,0.49805
1456.72570,0.58675
1455.23591,0.62863
1453.74612,0.67469
1452.25633,0.68698
1450.76654,0.69909
1449.27676,0.69799
1447.78697,0.69256
1446.29718,0.67293
1444.80739,0.65460
1443.31760,0.63630
1441.82781,0.58967
1440.33802,0.56302
1438.84824,0.53283
1437.35845,0.49833
1435.86866,0.49111
1434.37887,0.51377
1432.88908,0.55582
1431.39929,0.57042
1429.90951,0.63248
1428.41972,0.74200
1426.92993,0.79402
1425.44014,0.84726
1423.95035,0.87651
1422.46056,0.90579
1420.97078,0.92965
1419.48099,0.93713
1417.99120,0.93140
1416.50141,0.89486
1415.01162,0.87969
1413.52183,0.81967
1412.03204,0.75020
1410.54226,0.70625
1409.05247,0.65382
1407.56268,0.61980
1406.07289,0.57473
1404.58310,0.55330
1403.09331,0.53190
1401.60353,0.46398
1400.11374,0.40834
1398.62395,0.35509
1397.13416,0.29733
1395.64437,0.25757
1394.15458,0.22969
1392.66479,0.20124
1391.17501,0.15840
1389.68522,0.14838
1388.19543,0.12218
1386.70564,0.10875
1385.21585,0.09535
1383.72606,0.06112
1382.23628,0.04964
1380.74649,0.03542
1379.25670,0.03348
1377.76691,0.02702
1376.27712,0.02453
1374.78733,0.02049
1373.29755,0.01647
1371.80776,0.00812
1370.31797,0.02171
1368.82818,0.01852
1367.33839,0.01535
1365.84860,0.02170
1364.35881,0.03419
1362.86903,0.03367
1361.37924,0.06835
1359.88945,0.08012
1358.39966,0.10615
1356.90987,0.14901
1355.42008,0.19722
1353.93030,0.23953
1352.44051,0.26487
1350.95072,0.29023
1349.46093,0.35771
1347.97114,0.43846
1346.48135,0.52635
1344.99156,0.60299
1343.50178,0.69389
1342.01199,0.74490
1340.52220,0.78644
1339.03241,0.83986
1337.54262,0.85417
1336.05283,0.87484
1334.56305,0.89552
1333.07326,0.89173
1331.58347,0.94922
1330.09368,0.92789
1328.60389,0.90934
1327.11410,0.88410
1325.62432,0.86284
1324.13453,0.81808
1322.64474,0.81564
1321.15495,0.77923
1319.66516,0.78217
1318.17537,0.78514
1316.68558,0.69485
1315.19580,0.63660
1313.70601,0.58826
1312.21622,0.55753
1310.72643,0.52386
1309.23664,0.47757
1307.74685,0.44869
1306.25707,0.42734
1304.76728,0.41264
1303.27749,0.39797
1301.78770,0.34073
1300.29791,0.28628
1298.80812,0.25517
1297.31834,0.19089
1295.82855,0.18197
1294.33876,0.14679
1292.84897,0.14147
1291.35918,0.12333
1289.86939,0.11619
1288.37960,0.10907
1286.88982,0.11452
1285.40003,0.08166
1283.91024,0.07728
1282.42045,0.05632
1280.93066,0.06899
1279.44087,0.06250
1277.95109,0.05605
1276.46130,0.05297
1274.97151,0.04993
1273.48172,0.04690
1271.99193,0.05655
1270.50214,0.05476
1269.01235,0.03619
1267.52257,0.03366
1266.03278,0.02147
1264.54299,0.01879
1263.05320,0.02423
1261.56341,0.02190
1260.07362,0.01958
1258.58384,0.02036
1257.09405,0.02373
1255.60426,0.02890
1254.11447,0.01532
1252.62468,0.01046
1251.13489,0.01274
1249.64511,0.00812
1248.15532,0.01499
1246.66553,0.01733
1245.17574,0.01970
1243.68595,0.01537
1242.19616,0.00533
1240.70637,0.02971
1239.21659,0.01774
1237.72680,0.02853
1236.23701,0.03341
1234.74722,0.03259
1233.25743,0.03347
1231.76764,0.03437
1230.27786,0.02927
1228.78807,0.03744
1227.29828,0.03574
1225.80849,0.02518
1224.31870,0.00812
1222.82891,0.02335
1221.33912,0.03208
1219.84934,0.02966
1218.35955,0.02727
1216.86976,0.06117
1215.37997,0.05379
1213.89018,0.06640
1212.40039,0.07922
1210.91061,0.09385
1209.42082,0.09052
1207.93103,0.08553
1206.44124,0.08057
1204.95145,0.07909
1203.46166,0.07328
1201.97188,0.07679
1200.48209,0.07222
1198.99230,0.07894
1197.50251,0.06888
1196.01272,0.06004
1194.52293,0.04697
1193.03314,0.03392
1191.54336,0.02535
1190.05357,0.02055
1188.56378,0.02270
1187.07399,0.01933
1185.58420,0.02805
1184.09441,0.01841
1182.60463,0.01344
1181.11484,0.00849
1179.62505,0.01454
1178.13526,0.01645
1176.64547,0.01227
1175.15568,0.02294
1173.66589,0.01070
1172.17611,0.01469
1170.68632,0.01140
1169.19653,0.00812
1167.70674,0.02164
1166.21695,0.01838
1164.72716,0.03214
1163.23738,0.04829
1161.74759,0.05578
1160.25780,0.05261
1158.76801,0.06588
1157.27822,0.07917
1155.78843,0.09011
1154.29865,0.08506
1152.80886,0.09467
1151.31907,0.10687
1149.82928,0.11949
1148.33949,0.13035
1146.84970,0.12583
1145.35991,0.12132
1143.87013,0.13364
1142.38034,0.15152
1140.89055,0.17614
1139.40076,0.18656
1137.91097,0.18158
1136.42118,0.19956
1134.93140,0.20412
1133.44161,0.20870
1131.95182,0.22675
1130.46203,0.24146
1128.97224,0.24276
1127.48245,0.24388
1125.99266,0.23238
1124.50288,0.24502
1123.01309,0.24088
1121.52330,0.23676
1120.03351,0.25698
1118.54372,0.25331
1117.05393,0.24946
1115.56415,0.24881
1114.07436,0.24639
1112.58457,0.23501
1111.09478,0.22365
1109.60499,0.22961
1108.11520,0.24923
1106.62542,0.23923
1105.13563,0.25060
1103.64584,0.25192
1102.15605,0.23823
1100.66626,0.23979
1099.17647,0.24138
1097.68668,0.21334
1096.19690,0.22149
1094.70711,0.22908
1093.21732,0.20230
1091.72753,0.20855
1090.23774,0.21008
1088.74795,0.21164
1087.25817,0.21598
1085.76838,0.20118
1084.27859,0.20400
1082.78880,0.22344
1081.29901,0.21622
1079.80922,0.23393
1078.31943,0.23605
1076.82965,0.23820
1075.33986,0.24866
1073.85007,0.22694
1072.36028,0.23766
1070.87049,0.25413
1069.38070,0.30284
1067.89092,0.32687
1066.40113,0.35092
1064.91134,0.42125
1063.42155,0.50365
1061.93176,0.58964
1060.44197,0.67624
1058.95219,0.77453
1057.46240,0.81918
1055.97261,0.86386
1054.48282,1.00432
1052.99303,1.05132
1051.50324,1.04814
1050.01345,1.00942
1048.52367,1.02269
1047.03388,1.00655
1045.54409,0.99042
1044.05430,0.94725
1042.56451,0.87445
1041.07472,0.80247
1039.58494,0.73823
1038.09515,0.63467
1036.60536,0.59794
1035.11557,0.56124
1033.62578,0.49096
1032.13599,0.43711
1030.64620,0.39060
1029.15642,0.33146
1027.66663,0.30209
1026.17684,0.27274
1024.68705,0.25479
1023.19726,0.22025
1021.70747,0.18120
1020.21769,0.14829
1018.72790,0.12727
1017.23811,0.14086
1015.74832,0.15447
1014.25853,0.13747
1012.76874,0.10923
1011.27896,0.10592
1009.78917,0.08366
1008.29938,0.07486
1006.80959,0.06174
1005.31980,0.04864
1003.83001,0.04486
1002.34022,0.04960
1000.85044,0.06681
999.36065,0.05915
997.87086,0.06999
996.38107,0.08085
994.89128,0.09381
993.40149,0.11055
991.91171,0.12198
990.42192,0.13106
988.93213,0.14946
987.44234,0.15454
985.95255,0.15964
984.46276,0.17297
982.97297,0.16696
981.48319,0.12638
979.99340,0.10204
978.50361,0.09738
977.01382,0.09275
975.52403,0.07282
974.03424,0.06359
972.54446,0.05557
971.05467,0.04007
969.56488,0.01550
968.07509,0.01180
966.58530,0.00812
965.09551,0.00797
963.60573,0.00772
962.11594,0.00833
960.62615,0.00995
959.13636,0.01574
957.64657,0.02156
956.15678,0.02128
954.66699,0.03308
953.17721,0.04016
951.68742,0.03659
950.19763,0.04233
948.70784,0.04810
947.21805,0.05250
945.72826,0.05733
944.23848,0.09993
942.74869,0.11350
941.25890,0.11366
939.76911,0.12283
938.27932,0.13203
936.78953,0.15459
935.29974,0.17066
933.80996,0.15453
932.32017,0.17973
930.83038,0.18698
929.34059,0.19425
927.85080,0.22288
926.36101,0.25115
924.87123,0.26837
923.38144,0.31803
921.89165,0.35536
920.40186,0.39271
918.91207,0.49027
917.42228,0.60524
915.93250,0.74890
914.44271,0.95819
912.95292,1.07393
911.46313,1.18969
909.97334,1.40400
908.48355,1.64778
906.99376,1.77419
905.50398,1.91841
904.01419,1.95919
902.52440,2.00000
901.03461,1.92531
899.54482,1.87200
898.05503,1.75526
896.56525,1.62116
895.07546,1.49855
893.58567,1.37596
892.09588,1.11999
890.60609,0.87413
889.11630,0.64627
887.62651,0.47298
886.13673,0.40981
884.64694,0.34665
883.15715,0.27048
881.66736,0.19551
880.17757,0.14864
878.68778,0.13993
877.19800,0.13124
875.70821,0.09472
874.21842,0.06770
872.72863,0.04289
871.23884,0.04398
869.74905,0.03325
868.25927,0.02253
866.76948,0.03042
865.27969,0.04249
863.78990,0.03343
862.30011,0.05206
860.81032,0.05837
859.32053,0.06470
857.83075,0.09882
856.34096,0.12565
854.85117,0.12366
853.36138,0.13493
851.87159,0.14671
850.38180,0.15852
848.89202,0.18410
847.40223,0.19309
845.91244,0.21772
844.42265,0.23101
842.93286,0.24433
841.44307,0.24591
839.95329,0.25779
838.46350,0.29796
836.97371,0.28005
835.48392,0.28845
833.99413,0.29687
832.50434,0.28911
831.01455,0.28750
829.52477,0.26398
828.03498,0.25194
826.54519,0.24112
825.05540,0.23031
823.56561,0.21499
822.07582,0.18981
820.58604,0.14944
819.09625,0.15751
817.60646,0.16560
816.11667,0.15297
814.62688,0.14194
813.13709,0.14991
811.64730,0.15139
810.15752,0.15931
808.66773,0.16725
807.17794,0.18362
805.68815,0.17768
804.19836,0.18342
802.70857,0.17526
801.21879,0.16711
799.72900,0.15791
798.23921,0.16019
796.74942,0.15163
795.25963,0.15505
793.76984,0.15849
792.28006,0.15791
790.79027,0.17177
789.30048,0.19357
787.81069,0.22587
786.32090,0.25315
784.83111,0.28045
783.34132,0.29068
781.85154,0.32070
780.36175,0.37743
778.87196,0.39515
777.38217,0.41289
775.89238,0.43055
774.40259,0.43579
772.91281,0.41497
771.42302,0.40109
769.93323,0.38723
768.44344,0.34849
766.95365,0.30524
765.46386,0.27228
763.97407,0.20871
762.48429,0.18569
760.99450,0.16269
759.50471,0.16105
758.01492,0.13217
756.52513,0.13237
755.03534,0.11450
753.54556,0.09666
752.05577,0.09100
750.56598,0.07409
749.07619,0.05721
747.58640,0.05498
746.09661,0.05278
744.60683,0.04368
743.11704,0.03737
741.62725,0.01488
740.13746,0.02266
738.64767,0.03045
737.15788,0.01693
735.66809,0.02734
734.17831,0.02019
732.68852,0.01662
731.19873,0.01308
729.70894,0.01608
728.21915,0.01812
726.72936,0.00812
725.23958,0.02531
723.74979,0.02553
722.26000,0.02577
720.77021,0.01576
719.28042,0.00597
717.79063,0.01228
716.30084,0.00854
714.81106,0.00481
713.32127,0.01515
711.83148,0.01029
710.34169,0.00525
708.85190,0.01299
707.36211,0.02076
705.87233,0.03615
704.38254,0.03457
702.89275,0.04864
701.40296,0.04602
699.91317,0.04343
698.42338,0.04847
696.93360,0.06322
695.44381,0.09519
693.95402,0.10258
692.46423,0.10999
690.97444,0.11239
689.48465,0.13991
687.99486,0.16982
686.50508,0.17634
685.01529,0.18289
683.52550,0.23185
682.03571,0.25850
680.54592,0.25000
679.05613,0.24943
677.56635,0.24888
676.07656,0.26417
674.58677,0.24805
673.09698,0.24580
671.60719,0.21976
670.11740,0.19374
668.62761,0.15796
667.13783,0.14750
665.64804,0.14201
664.15825,0.13654
662.66846,0.10639
661.17867,0.08239
659.68888,0.04794
658.19910,0.04840
656.70931,0.04888
655.21952,0.05226
653.72973,0.03806
652.23994,0.03496
650.75015,0.03594
649.26037,0.03694
647.77058,0.05170
646.28079,0.03011
644.79100,0.03642
643.30121,0.03050
641.81142,0.02461
640.32163,0.03632
638.83185,0.03581
637.34206,0.02584
635.85227,0.01905
634.36248,0.01229
632.87269,0.01425
631.38290,0.00812
629.89312,0.01348
628.40333,0.01371
626.91354,0.01398
625.42375,0.00754
623.93396,0.02248
622.44417,0.03279
620.95438,0.04313
619.46460,0.05478
617.97481,0.06487
616.48502,0.07953
614.99523,0.08582
613.50544,0.09213
612.01565,0.12267
610.52587,0.16807
609.03608,0.20301
607.54629,0.21248
606.05650,0.22197
604.56671,0.27517
603.07692,0.33748
601.58714,0.36740
600.09735,0.39735
598.60756,0.44096
597.11777,0.44882
595.62798,0.43872
594.13819,0.43220
592.64840,0.42571
591.15862,0.39829
589.66883,0.34105
588.17904,0.28819
586.68925,0.25649
585.19946,0.22482
583.70967,0.19436
582.21989,0.15583
580.73010,0.13955
579.24031,0.12329
577.75052,0.07949
576.26073,0.06437
574.77094,0.07694
573.28115,0.06760
571.79137,0.05828
570.30158,0.07923
568.81179,0.10178
567.32200,0.10795
565.83221,0.11414
564.34242,0.13637
562.85264,0.16159
561.36285,0.15363
559.87306,0.17020
558.38327,0.18679
556.89348,0.18621
555.40369,0.19277
553.91391,0.20065
552.42412,0.20854
550.93433,0.23790
549.44454,0.23488
547.95475,0.25006
546.46496,0.25045
544.97517,0.25085
543.48539,0.25761
541.99560,0.29305
540.50581,0.30430
539.01602,0.31557
537.52623,0.34792
536.03644,0.40381
534.54666,0.44569
533.05687,0.47268
531.56708,0.49969
530.07729,0.53512
528.58750,0.59864
527.09771,0.62395
525.60792,0.64928
524.11814,0.68520
522.62835,0.72550
521.13856,0.77076
519.64877,0.79065
518.15898,0.81057
516.66919,0.83891
515.17941,0.83545
513.68962,0.85455
512.19983,0.87367
510.71004,0.87385
509.22025,0.82068
507.73046,0.74106
506.24068,0.69269
504.75089,0.64434
503.26110,0.49700
501.77131,0.36590
500.28152,0.32642
498.79173,0.28696
497.30194,0.23241
495.81216,0.19587
494.32237,0.17269
492.83258,0.14954
491.34279,0.11406
489.85300,0.07030
488.36321,0.10147
486.87343,0.09610
485.38364,0.09076
483.89385,0.09493
482.40406,0.11572
480.91427,0.12013
479.42448,0.12457
477.93469,0.16164
476.44491,0.17403
474.95512,0.18605
473.46533,0.19810
471.97554,0.19969
470.48575,0.19716
468.99596,0.20710
467.50618,0.19711
466.01639,0.18714
464.52660,0.14854
463.03681,0.13071
461.54702,0.12556
460.05723,0.12043
458.56745,0.07204
457.07766,0.06063
455.58787,0.05261
454.09808,0.04462
452.60829,0.04079
451.11850,0.01842
449.62871,0.01326
448.13893,0.00812
446.64914,0.02804
445.15935,0.02070
443.66956,0.04066
442.17977,0.03752
440.68998,0.03441
439.20020,0.03468
437.71041,0.04584
436.22062,0.04379
434.73083,0.04176
433.24104,0.03343
431.75125,0.04292
430.26146,0.04471
428.77168,0.04654
427.28189,0.03119
425.79210,0.04848
424.30231,0.04642
422.81252,0.04439
421.32273,0.04198
419.83295,0.04435
418.34316,0.04051
416.85337,0.03670
415.36358,0.04526
413.87379,0.02381
412.38400,0.02817
410.89422,0.03255
409.40443,0.04319
407.91464,0.05266
406.42485,0.02422
404.93506,0.01931
403.44527,0.01443
401.95548,0.00898
400.46570,0.03773
398.97591,0.04238
397.48612,0.04706
395.99633,0.05137
394.50654,0.04029
393.01675,0.03733
391.52697,0.03440
390.03718,0.04219
388.54739,0.02609
387.05760,0.02306
385.56781,0.02005
384.07802,0.03268
382.58824,0.01450
381.09845,0.02698
379.60866,0.03949
378.11887,0.04036
376.62908,0.04421
375.13929,0.02616
373.64950,0.00812
372.15972,0.02267
370.66993,0.04415
369.18014,0.03736
367.69035,0.03059
366.20056,0.02800
364.71077,0.05191
363.22099,0.04363
361.73120,0.03538
360.24141,0.03268
358.75162,0.04978
357.26183,0.05167
355.77204,0.05360
354.28225,0.07452
352.79247,0.06838
351.30268,0.06771
349.81289,0.06706
348.32310,0.06515
346.83331,0.05596
345.34352,0.04056
343.85374,0.02518
342.36395,0.05737
340.87416,0.01902
339.38437,0.02881
337.89458,0.03864
336.40479,0.04463
334.91501,0.04551
333.42522,0.03574
331.93543,0.02599
330.44564,0.02991
328.95585,0.00934
327.46606,0.01271
325.97627,0.01611
324.48649,0.03884
322.99670,0.03532
321.50691,0.04348
320.01712,0.05166
318.52733,0.06541
317.03754,0.09538
315.54776,0.07785
314.05797,0.06034
312.56818,0.05817
311.07839,0.06413
309.58860,0.05815
308.09881,0.05220
306.60902,0.06041
305.11924,0.05619
303.62945,0.03242
302.13966,0.00868
300.64987,0.02213
299.16008,0.00812
