1778.52000,0.00000
1777.03021,0.00574
1775.54042,0.00493
1774.05063,0.00995
1772.56085,0.00687
1771.07106,0.01174
1769.58127,0.00755
1768.09148,0.00725
1766.60169,0.00794
1765.11190,0.01696
1763.62212,0.01480
1762.13233,0.01846
1760.64254,0.01519
1759.15275,0.02064
1757.66296,0.01606
1756.17317,0.01460
1754.68339,0.01066
1753.19360,0.01697
1751.70381,0.02408
1750.21402,0.01673
1748.72423,0.01288
1747.23444,0.02478
1745.74465,0.02395
1744.25487,0.03069
1742.76508,0.02643
1741.27529,0.02761
1739.78550,0.02186
1738.29571,0.01710
1736.80592,0.01758
1735.31614,0.01947
1733.82635,0.02197
1732.33656,0.01715
1730.84677,0.01815
1729.35698,0.01879
1727.86719,0.00979
1726.37740,0.01530
1724.88762,0.01756
1723.39783,0.01365
1721.90804,0.01789
1720.41825,0.01693
1718.92846,0.01773
1717.43867,0.02146
1715.94889,0.01053
1714.45910,0.01439
1712.96931,0.01751
1711.47952,0.01079
1709.98973,0.01627
1708.49994,0.01734
1707.01016,0.01263
1705.52037,0.00794
1704.03058,0.01214
1702.54079,0.01674
1701.05100,0.01925
1699.56121,0.01637
1698.07142,0.01448
1696.58164,0.01493
1695.09185,0.01424
1693.60206,0.01706
1692.11227,0.02318
1690.62248,0.01929
1689.13269,0.01561
1687.64291,0.02644
1686.15312,0.01894
1684.66333,0.02480
1683.17354,0.03088
1681.68375,0.03099
1680.19396,0.03633
1678.70417,0.02413
1677.21439,0.03706
1675.72460,0.03765
1674.23481,0.04213
1672.74502,0.03350
1671.25523,0.04556
1669.76544,0.04567
1668.27566,0.06299
1666.78587,0.06817
1665.29608,0.06854
1663.80629,0.07493
1662.31650,0.06743
1660.82671,0.06865
1659.33693,0.07395
1657.84714,0.06942
1656.35735,0.07553
1654.86756,0.08148
1653.37777,0.07336
1651.88798,0.07375
1650.39819,0.07765
1648.90841,0.08176
1647.41862,0.07836
1645.92883,0.07750
1644.43904,0.07666
1642.94925,0.07682
1641.45946,0.09129
1639.96968,0.09129
1638.47989,0.09345
1636.99010,0.09485
1635.50031,0.07909
1634.01052,0.07031
1632.52073,0.06368
1631.03094,0.08353
1629.54116,0.08139
1628.05137,0.08294
1626.56158,0.08663
1625.07179,0.08785
1623.58200,0.09661
1622.09221,0.08435
1620.60243,0.09684
1619.11264,0.09119
1617.62285,0.08905
1616.13306,0.08364
1614.64327,0.07768
1613.15348,0.08333
1611.66370,0.08862
1610.17391,0.08409
1608.68412,0.09541
1607.19433,0.09401
1605.70454,0.08646
1604.21475,0.08617
1602.72496,0.08590
1601.23518,0.08692
1599.74539,0.07849
1598.25560,0.08940
1596.76581,0.06886
1595.27602,0.07441
1593.78623,0.07960
1592.29645,0.08095
1590.80666,0.07305
1589.31687,0.07793
1587.82708,0.07163
1586.33729,0.06129
1584.84750,0.07319
1583.35771,0.07256
1581.86793,0.06828
1580.37814,0.08084
1578.88835,0.06328
1577.39856,0.06023
1575.90877,0.06417
1574.41898,0.05673
1572.92920,0.04699
1571.43941,0.03979
1569.94962,0.03609
1568.45983,0.03242
1566.97004,0.03108
1565.48025,0.02070
1563.99047,0.02907
1562.50068,0.02588
1561.01089,0.03217
1559.52110,0.02343
1558.03131,0.02861
1556.54152,0.02513
1555.05173,0.02360
1553.56195,0.02924
1552.07216,0.02293
1550.58237,0.01626
1549.09258,0.00497
1547.60279,0.01352
1546.11300,0.01919
1544.62322,0.02005
1543.13343,0.01109
1541.64364,0.00794
1540.15385,0.00877
1538.66406,0.00963
1537.17427,0.01697
1535.68448,0.01121
1534.19470,0.01861
1532.70491,0.01000
1531.21512,0.01068
1529.72533,0.01815
1528.23554,0.01579
1526.74575,0.03663
1525.25597,0.03065
1523.76618,0.02566
1522.27639,0.03401
1520.78660,0.02888
1519.29681,0.03381
1517.80702,0.02988
1516.31724,0.03157
1514.82745,0.04585
1513.33766,0.04160
1511.84787,0.03738
1510.35808,0.03898
1508.86829,0.04504
1507.37850,0.04688
1505.88872,0.04121
1504.39893,0.03981
1502.90914,0.04655
1501.41935,0.05737
1499.92956,0.07188
1498.43977,0.07483
1496.94999,0.06756
1495.46020,0.08002
1493.97041,0.08420
1492.48062,0.08763
1490.99083,0.09108
1489.50104,0.11329
1488.01125,0.12027
1486.52147,0.12727
1485.03168,0.15361
1483.54189,0.16047
1482.05210,0.19284
1480.56231,0.21153
1479.07252,0.20880
1477.58274,0.22367
1476.09295,0.24532
1474.60316,0.24556
1473.11337,0.25664
1471.62358,0.26002
1470.13379,0.27424
1468.64401,0.27013
1467.15422,0.29463
1465.66443,0.30438
1464.17464,0.31416
1462.68485,0.32116
1461.19506,0.35676
1459.70527,0.40650
1458.21549,0.48097
1456.72570,0.54505
1455.23591,0.60702
1453.74612,0.64970
1452.25633,0.68217
1450.76654,0.69052
1449.27676,0.71106
1447.78697,0.69434
1446.29718,0.65776
1444.80739,0.64997
1443.31760,0.64222
1441.82781,0.59682
1440.33802,0.54352
1438.84824,0.53275
1437.35845,0.51890
1435.86866,0.50277
1434.37887,0.51389
1432.88908,0.55961
1431.39929,0.57599
1429.90951,0.64378
1428.41972,0.71526
1426.92993,0.77093
1425.44014,0.85501
1423.95035,0.87451
1422.46056,0.89403
1420.97078,0.93337
1419.48099,0.94589
1417.99120,0.89083
1416.50141,0.88737
1415.01162,0.89571
1413.52183,0.81889
1412.03204,0.77726
1410.54226,0.70049
1409.05247,0.66373
1407.56268,0.58411
1406.07289,0.56324
1404.58310,0.54258
1403.09331,0.52195
1401.60353,0.47275
1400.11374,0.39499
1398.62395,0.36226
1397.13416,0.31005
1395.64437,0.25593
1394.15458,0.22192
1392.66479,0.19063
1391.17501,0.15725
1389.68522,0.12235
1388.19543,0.11393
1386.70564,0.10447
1385.21585,0.09504
1383.72606,0.05926
1382.23628,0.04032
1380.74649,0.03337
1379.25670,0.03224
1377.76691,0.02418
1376.27712,0.02175
1374.78733,0.00794
1373.29755,0.01786
1371.80776,0.02702
1370.31797,0.01709
1368.82818,0.01636
1367.33839,0.01565
1365.84860,0.01409
1364.35881,0.02125
1362.86903,0.02689
1361.37924,0.04878
1359.88945,0.07803
1358.39966,0.09205
1356.90987,0.13216
1355.42008,0.17713
1353.93030,0.21672
1352.44051,0.24628
1350.95072,0.27587
1349.46093,0.33523
1347.97114,0.41991
1346.48135,0.48531
1344.99156,0.54435
1343.50178,0.63664
1342.01199,0.68395
1340.52220,0.72471
1339.03241,0.77149
1337.54262,0.82621
1336.05283,0.83208
1334.56305,0.83798
1333.07326,0.83425
1331.58347,0.91108
1330.09368,0.89079
1328.60389,0.85217
1327.11410,0.85085
1325.62432,0.78098
1324.13453,0.75672
1322.64474,0.70216
1321.15495,0.69205
1319.66516,0.67714
1318.17537,0.66225
1316.68558,0.63483
1315.19580,0.57131
1313.70601,0.52153
1312.21622,0.50133
1310.72643,0.46570
1309.23664,0.43627
1307.74685,0.41343
1306.25707,0.38560
1304.76728,0.36552
1303.27749,0.34546
1301.78770,0.30842
1300.29791,0.27025
1298.80812,0.22574
1297.31834,0.18607
1295.82855,0.14739
1294.33876,0.12709
1292.84897,0.10430
1291.35918,0.09737
1289.86939,0.09240
1288.37960,0.08745
1286.88982,0.08021
1285.40003,0.08304
1283.91024,0.06676
1282.42045,0.05419
1280.93066,0.04607
1279.44087,0.05479
1277.95109,0.04209
1276.46130,0.04757
1274.97151,0.03955
1273.48172,0.03156
1271.99193,0.02784
1270.50214,0.02434
1269.01235,0.03477
1267.52257,0.04309
1266.03278,0.03174
1264.54299,0.02737
1263.05320,0.02515
1261.56341,0.02314
1260.07362,0.02116
1258.58384,0.01746
1257.09405,0.00780
1255.60426,0.00936
1254.11447,0.01578
1252.62468,0.01585
1251.13489,0.01266
1249.64511,0.00794
1248.15532,0.01796
1246.66553,0.02075
1245.17574,0.02356
1243.68595,0.01684
1242.19616,0.03004
1240.70637,0.01699
1239.21659,0.01054
1237.72680,0.01512
1236.23701,0.02629
1234.74722,0.02647
1233.25743,0.02465
1231.76764,0.02285
1230.27786,0.03624
1228.78807,0.03381
1227.29828,0.03392
1225.80849,0.03000
1224.31870,0.00794
1222.82891,0.02232
1221.33912,0.02069
1219.84934,0.02362
1218.35955,0.02658
1216.86976,0.04588
1215.37997,0.05053
1213.89018,0.04535
1212.40039,0.07225
1210.91061,0.06441
1209.42082,0.07379
1207.93103,0.06977
1206.44124,0.06577
1204.95145,0.07696
1203.46166,0.06789
1201.97188,0.07468
1200.48209,0.06527
1198.99230,0.07462
1197.50251,0.06198
1196.01272,0.05515
1194.52293,0.04594
1193.03314,0.03674
1191.54336,0.02593
1190.05357,0.01689
1188.56378,0.00960
1187.07399,0.01470
1185.58420,0.01615
1184.09441,0.00991
1182.60463,0.01498
1181.11484,0.02008
1179.62505,0.01371
1178.13526,0.00794
1176.64547,0.01078
1175.15568,0.01886
1173.66589,0.01460
1172.17611,0.01403
1170.68632,0.01097
1169.19653,0.00794
1167.70674,0.00832
1166.21695,0.01509
1164.72716,0.02556
1163.23738,0.04416
1161.74759,0.03150
1160.25780,0.04436
1158.76801,0.05241
1157.27822,0.06049
1155.78843,0.07689
1154.29865,0.09042
1152.80886,0.07925
1151.31907,0.10017
1149.82928,0.09446
1148.33949,0.12818
1146.84970,0.12551
1145.35991,0.12286
1143.87013,0.11222
1142.38034,0.13580
1140.89055,0.15882
1139.40076,0.16621
1137.91097,0.17981
1136.42118,0.17992
1134.93140,0.18971
1133.44161,0.19952
1131.95182,0.21205
1130.46203,0.23118
1128.97224,0.24589
1127.48245,0.24267
1125.99266,0.24893
1124.50288,0.21561
1123.01309,0.21738
1121.52330,0.21917
1120.03351,0.21239
1118.54372,0.21337
1117.05393,0.22653
1115.56415,0.23856
1114.07436,0.22782
1112.58457,0.22608
1111.09478,0.22437
1109.60499,0.22819
1108.11520,0.21909
1106.62542,0.19862
1105.13563,0.21217
1103.64584,0.21705
1102.15605,0.22176
1100.66626,0.21877
1099.17647,0.21580
1097.68668,0.19741
1096.19690,0.18155
1094.70711,0.20646
1093.21732,0.19799
1091.72753,0.18877
1090.23774,0.18517
1088.74795,0.18160
1087.25817,0.17612
1085.76838,0.15926
1084.27859,0.17353
1082.78880,0.18338
1081.29901,0.19171
1079.80922,0.18751
1078.31943,0.19782
1076.82965,0.20815
1075.33986,0.19417
1073.85007,0.18871
1072.36028,0.19429
1070.87049,0.20607
1069.38070,0.23506
1067.89092,0.26398
1066.40113,0.29293
1064.91134,0.35618
1063.42155,0.42409
1061.93176,0.52564
1060.44197,0.60461
1058.95219,0.65830
1057.46240,0.70497
1055.97261,0.75166
1054.48282,0.85332
1052.99303,0.94265
1051.50324,0.95203
1050.01345,0.91238
1048.52367,0.89883
1047.03388,0.89245
1045.54409,0.88610
1044.05430,0.83939
1042.56451,0.77726
1041.07472,0.71400
1039.58494,0.66351
1038.09515,0.54852
1036.60536,0.52425
1035.11557,0.50000
1033.62578,0.45637
1032.13599,0.39537
1030.64620,0.32358
1029.15642,0.29875
1027.66663,0.26718
1026.17684,0.23564
1024.68705,0.21108
1023.19726,0.18518
1021.70747,0.15854
1020.21769,0.13077
1018.72790,0.11055
1017.23811,0.10764
1015.74832,0.10475
1014.25853,0.09079
1012.76874,0.09558
1011.27896,0.09112
1009.78917,0.08090
1008.29938,0.06142
1006.80959,0.05221
1005.31980,0.04302
1003.83001,0.01242
1002.34022,0.03689
1000.85044,0.04091
999.36065,0.04804
997.87086,0.05278
996.38107,0.05754
994.89128,0.07943
993.40149,0.10307
991.91171,0.10704
990.42192,0.12243
988.93213,0.15001
987.44234,0.15299
985.95255,0.15599
984.46276,0.15216
982.97297,0.13116
981.48319,0.12274
979.99340,0.11280
978.50361,0.09854
977.01382,0.08430
975.52403,0.06728
974.03424,0.05415
972.54446,0.04317
971.05467,0.02874
969.56488,0.02128
968.07509,0.01598
966.58530,0.01069
965.09551,0.00794
963.60573,0.01319
962.11594,0.01460
960.62615,0.02395
959.13636,0.02444
957.64657,0.02495
956.15678,0.01815
954.66699,0.02798
953.17721,0.03359
951.68742,0.04559
950.19763,0.04652
948.70784,0.04746
947.21805,0.05896
945.72826,0.06778
944.23848,0.09671
942.74869,0.10770
941.25890,0.13590
939.76911,0.14288
938.27932,0.14989
936.78953,0.17121
935.29974,0.15972
933.80996,0.16873
932.32017,0.19572
930.83038,0.19705
929.34059,0.19841
927.85080,0.20770
926.36101,0.24117
924.87123,0.27041
923.38144,0.32497
921.89165,0.36276
920.40186,0.40057
918.91207,0.47684
917.42228,0.61301
915.93250,0.75597
914.44271,0.97409
912.95292,1.08812
911.46313,1.20217
909.97334,1.37806
908.48355,1.62525
906.99376,1.80833
905.50398,1.89718
904.01419,1.94858
902.52440,2.00000
901.03461,1.95661
899.54482,1.89065
898.05503,1.74184
896.56525,1.59500
895.07546,1.47801
893.58567,1.36106
892.09588,1.09916
890.60609,0.87940
889.11630,0.63957
887.62651,0.46621
886.13673,0.40964
884.64694,0.35309
883.15715,0.24489
881.66736,0.19486
880.17757,0.14794
878.68778,0.12954
877.19800,0.11115
875.70821,0.09232
874.21842,0.07273
872.72863,0.05548
871.23884,0.04038
869.74905,0.03535
868.25927,0.03035
866.76948,0.03464
865.27969,0.03702
863.78990,0.04232
862.30011,0.04533
860.81032,0.05387
859.32053,0.06243
857.83075,0.08270
856.34096,0.10666
854.85117,0.11095
853.36138,0.12144
851.87159,0.13109
850.38180,0.14076
848.89202,0.15287
847.40223,0.16751
845.91244,0.19724
844.42265,0.20527
842.93286,0.21332
841.44307,0.21551
839.95329,0.23587
838.46350,0.26128
836.97371,0.26798
835.48392,0.26138
833.99413,0.25480
832.50434,0.26639
831.01455,0.24480
829.52477,0.22071
828.03498,0.20804
826.54519,0.20013
825.05540,0.19225
823.56561,0.16883
822.07582,0.15607
820.58604,0.13580
819.09625,0.13303
817.60646,0.13028
816.11667,0.13481
814.62688,0.12583
813.13709,0.13330
811.64730,0.12244
810.15752,0.12088
808.66773,0.11934
807.17794,0.14023
805.68815,0.15129
804.19836,0.14789
802.70857,0.14548
801.21879,0.14310
799.72900,0.12857
798.23921,0.12526
796.74942,0.11909
795.25963,0.12491
793.76984,0.13076
792.28006,0.11577
790.79027,0.14580
789.30048,0.16099
787.81069,0.18277
786.32090,0.20931
784.83111,0.23587
783.34132,0.26043
781.85154,0.29408
780.36175,0.31212
778.87196,0.33424
777.38217,0.35638
775.89238,0.37082
774.40259,0.37485
772.91281,0.37485
771.42302,0.35933
769.93323,0.34382
768.44344,0.32091
766.95365,0.26364
765.46386,0.21528
763.97407,0.18375
762.48429,0.16141
760.99450,0.13910
759.50471,0.13873
758.01492,0.11425
756.52513,0.10408
755.03534,0.09500
753.54556,0.08594
752.05577,0.08358
750.56598,0.06307
749.07619,0.05554
747.58640,0.04812
746.09661,0.04073
744.60683,0.03983
743.11704,0.03162
741.62725,0.00991
740.13746,0.01362
738.64767,0.01735
737.15788,0.01696
735.66809,0.01930
734.17831,0.00794
732.68852,0.00986
731.19873,0.01180
729.70894,0.01087
728.21915,0.01634
726.72936,0.00830
725.23958,0.00821
723.74979,0.01248
722.26000,0.01678
720.77021,0.02757
719.28042,0.01907
717.79063,0.02546
716.30084,0.01556
714.81106,0.00569
713.32127,0.01409
711.83148,0.01074
710.34169,0.02113
708.85190,0.02391
707.36211,0.02671
705.87233,0.03138
704.38254,0.03182
702.89275,0.04580
701.40296,0.05063
699.91317,0.05549
698.42338,0.05390
696.93360,0.06334
695.44381,0.08922
693.95402,0.09620
692.46423,0.10321
690.97444,0.11332
689.48465,0.13390
687.99486,0.16087
686.50508,0.17463
685.01529,0.18842
683.52550,0.20850
682.03571,0.23441
680.54592,0.25667
679.05613,0.25153
677.56635,0.24641
676.07656,0.23417
674.58677,0.22967
673.09698,0.23081
671.60719,0.22279
670.11740,0.21480
668.62761,0.17602
667.13783,0.13340
665.64804,0.13214
664.15825,0.13091
662.66846,0.10652
661.17867,0.07308
659.68888,0.07211
658.19910,0.05658
656.70931,0.04107
655.21952,0.02839
653.72973,0.03911
652.23994,0.03343
650.75015,0.04004
649.26037,0.04668
647.77058,0.04339
646.28079,0.03896
644.79100,0.04750
643.30121,0.03540
641.81142,0.02332
640.32163,0.02440
638.83185,0.02087
637.34206,0.02760
635.85227,0.02556
634.36248,0.02355
632.87269,0.00794
631.38290,0.00888
629.89312,0.01525
628.40333,0.02038
626.91354,0.02554
625.42375,0.02213
623.93396,0.00445
622.44417,0.02024
620.95438,0.03607
619.46460,0.03347
617.97481,0.05813
616.48502,0.07103
614.99523,0.07884
613.50544,0.08667
612.01565,0.11586
610.52587,0.14953
609.03608,0.18051
607.54629,0.19269
606.05650,0.20489
604.56671,0.25680
603.07692,0.30044
601.58714,0.33791
600.09735,0.37541
598.60756,0.41294
597.11777,0.43098
595.62798,0.40636
594.13819,0.39943
592.64840,0.39253
591.15862,0.35195
589.66883,0.31371
588.17904,0.26274
586.68925,0.23266
585.19946,0.20261
583.70967,0.16156
582.21989,0.13581
580.73010,0.11258
579.24031,0.08938
577.75052,0.08668
576.26073,0.06526
574.77094,0.06840
573.28115,0.06114
571.79137,0.05389
570.30158,0.05807
568.81179,0.06324
567.32200,0.07113
565.83221,0.07905
564.34242,0.11326
562.85264,0.11969
561.36285,0.14467
559.87306,0.15433
558.38327,0.16401
556.89348,0.15546
555.40369,0.17437
553.91391,0.16915
552.42412,0.16395
550.93433,0.18428
549.44454,0.21294
547.95475,0.21458
546.46496,0.21633
544.97517,0.21812
543.48539,0.22659
541.99560,0.24300
540.50581,0.25316
539.01602,0.26335
537.52623,0.33681
536.03644,0.36047
534.54666,0.38009
533.05687,0.39539
531.56708,0.41072
530.07729,0.46769
528.58750,0.51291
527.09771,0.55168
525.60792,0.59047
524.11814,0.64290
522.62835,0.66986
521.13856,0.72234
519.64877,0.75534
518.15898,0.78836
516.66919,0.79456
515.17941,0.80638
513.68962,0.78848
512.19983,0.77061
510.71004,0.76299
509.22025,0.72855
507.73046,0.68660
506.24068,0.63222
504.75089,0.57786
503.26110,0.45795
501.77131,0.35873
500.28152,0.31951
498.79173,0.28032
497.30194,0.21922
495.81216,0.15795
494.32237,0.13689
492.83258,0.11585
491.34279,0.08961
489.85300,0.07944
488.36321,0.07836
486.87343,0.07432
485.38364,0.07029
483.89385,0.05789
482.40406,0.07990
480.91427,0.09478
479.42448,0.10969
477.93469,0.12848
476.44491,0.13513
474.95512,0.14914
473.46533,0.16318
471.97554,0.16874
470.48575,0.18089
468.99596,0.16873
467.50618,0.16220
466.01639,0.15569
464.52660,0.12505
463.03681,0.09638
461.54702,0.08714
460.05723,0.07792
458.56745,0.07018
457.07766,0.04391
455.58787,0.03786
454.09808,0.03183
452.60829,0.03248
451.11850,0.03143
449.62871,0.01967
448.13893,0.00794
446.64914,0.02747
445.15935,0.03196
443.66956,0.02334
442.17977,0.01861
440.68998,0.01390
439.20020,0.03509
437.71041,0.04492
436.22062,0.04124
434.73083,0.03759
433.24104,0.03281
431.75125,0.02496
430.26146,0.02901
428.77168,0.03309
427.28189,0.03883
425.79210,0.04073
424.30231,0.04478
422.81252,0.04885
421.32273,0.03171
419.83295,0.02926
418.34316,0.03408
416.85337,0.03893
415.36358,0.04061
413.87379,0.03344
412.38400,0.04106
410.89422,0.04870
409.40443,0.03503
407.91464,0.05653
406.42485,0.04252
404.93506,0.03742
403.44527,0.03234
401.95548,0.01512
400.46570,0.03373
398.97591,0.03344
397.48612,0.03317
395.99633,0.04027
394.50654,0.04198
393.01675,0.03348
391.52697,0.02501
390.03718,0.02042
388.54739,0.02077
387.05760,0.01941
385.56781,0.01808
384.07802,0.01638
382.58824,0.00794
381.09845,0.00850
379.60866,0.00907
378.11887,0.02329
376.62908,0.03154
375.13929,0.02398
373.64950,0.01644
372.15972,0.02458
370.66993,0.03466
369.18014,0.02643
367.69035,0.01821
366.20056,0.04233
364.71077,0.05759
363.22099,0.05375
361.73120,0.04993
360.24141,0.02257
358.75162,0.05029
357.26183,0.05060
355.77204,0.05094
354.28225,0.04724
352.79247,0.05535
351.30268,0.05856
349.81289,0.06179
348.32310,0.06321
346.83331,0.03993
345.34352,0.03174
343.85374,0.02358
342.36395,0.03050
340.87416,0.01659
339.38437,0.01864
337.89458,0.02071
336.40479,0.02270
334.91501,0.02936
333.42522,0.02619
331.93543,0.02305
330.44564,0.00930
328.95585,0.00794
327.46606,0.00940
325.97627,0.01088
324.48649,0.03061
322.99670,0.04031
321.50691,0.03913
320.01712,0.03797
318.52733,0.06339
317.03754,0.06527
315.54776,0.06834
314.05797,0.07142
312.56818,0.07994
311.07839,0.07690
309.58860,0.07233
308.09881,0.06779
306.60902,0.03642
305.11924,0.05279
303.62945,0.03036
302.13966,0.00795
300.64987,0.01276
299.16008,0.00794
