1778.52000,0.01470
1777.03021,0.01343
1775.54042,0.01815
1774.05063,0.01952
1772.56085,0.01157
1771.07106,0.00779
1769.58127,0.01729
1768.09148,0.00603
1766.60169,0.01376
1765.11190,0.01580
1763.62212,0.00877
1762.13233,0.00826
1760.64254,0.01244
1759.15275,0.01328
1757.66296,0.00479
1756.17317,0.01087
1754.68339,0.00243
1753.19360,0.00466
1751.70381,0.00718
1750.21402,0.00167
1748.72423,0.01411
1747.23444,0.00423
1745.74465,0.00866
1744.25487,0.01701
1742.76508,0.01085
1741.27529,0.01457
1739.78550,0.00872
1738.29571,0.00418
1736.80592,0.01032
1735.31614,0.00479
1733.82635,0.00966
1732.33656,0.00988
1730.84677,0.00000
1729.35698,0.01040
1727.86719,0.01277
1726.37740,0.00530
1724.88762,0.01759
1723.39783,0.00783
1721.90804,0.00510
1720.41825,0.00941
1718.92846,0.00622
1717.43867,0.00668
1715.94889,0.00587
1714.45910,0.01808
1712.96931,0.01134
1711.47952,0.00567
1709.98973,0.01613
1708.49994,0.01414
1707.01016,0.00946
1705.52037,0.00479
1704.03058,0.01972
1702.54079,0.01649
1701.05100,0.02263
1699.56121,0.01971
1698.07142,0.02149
1696.58164,0.02069
1695.09185,0.03213
1693.60206,0.02359
1692.11227,0.03923
1690.62248,0.03152
1689.13269,0.02539
1687.64291,0.03123
1686.15312,0.03476
1684.66333,0.03520
1683.17354,0.03982
1681.68375,0.04083
1680.19396,0.04160
1678.70417,0.05071
1677.21439,0.05049
1675.72460,0.06874
1674.23481,0.06597
1672.74502,0.04972
1671.25523,0.06674
1669.76544,0.07262
1668.27566,0.07593
1666.78587,0.07796
1665.29608,0.07793
1663.80629,0.09326
1662.31650,0.09147
1660.82671,0.09282
1659.33693,0.08120
1657.84714,0.08416
1656.35735,0.09259
1654.86756,0.07690
1653.37777,0.09291
1651.88798,0.08818
1650.39819,0.08554
1648.90841,0.08111
1647.41862,0.07853
1645.92883,0.08233
1644.43904,0.08615
1642.94925,0.09195
1641.45946,0.08401
1639.96968,0.08024
1638.47989,0.07858
1636.99010,0.08110
1635.50031,0.06936
1634.01052,0.07271
1632.52073,0.07686
1631.03094,0.07298
1629.54116,0.07770
1628.05137,0.06712
1626.56158,0.09293
1625.07179,0.08759
1623.58200,0.08202
1622.09221,0.09621
1620.60243,0.08419
1619.11264,0.08934
1617.62285,0.08672
1616.13306,0.07790
1614.64327,0.07143
1613.15348,0.08915
1611.66370,0.08325
1610.17391,0.09140
1608.68412,0.07854
1607.19433,0.07999
1605.70454,0.09134
1604.21475,0.08517
1602.72496,0.07903
1601.23518,0.07642
1599.74539,0.08059
1598.25560,0.07881
1596.76581,0.07186
1595.27602,0.08857
1593.78623,0.07647
1592.29645,0.08206
1590.80666,0.07235
1589.31687,0.07228
1587.82708,0.07664
1586.33729,0.06285
1584.84750,0.07350
1583.35771,0.08261
1581.86793,0.06681
1580.37814,0.07156
1578.88835,0.07062
1577.39856,0.06866
1575.90877,0.05218
1574.41898,0.05235
1572.92920,0.05254
1571.43941,0.04964
1569.94962,0.04014
1568.45983,0.03067
1566.97004,0.04369
1565.48025,0.04322
1563.99047,0.04720
1562.50068,0.04860
1561.01089,0.04250
1559.52110,0.04369
1558.03131,0.04153
1556.54152,0.02511
1555.05173,0.03728
1553.56195,0.04455
1552.07216,0.02690
1550.58237,0.02123
1549.09258,0.02623
1547.60279,0.01619
1546.11300,0.01682
1544.62322,0.01488
1543.13343,0.01608
1541.64364,0.01497
1540.15385,0.01362
1538.66406,0.01230
1537.17427,0.00633
1535.68448,0.00479
1534.19470,0.01988
1532.70491,0.01343
1531.21512,0.01895
1529.72533,0.01437
1528.23554,0.02098
1526.74575,0.00839
1525.25597,0.02362
1523.76618,0.02848
1522.27639,0.03935
1520.78660,0.03257
1519.29681,0.02790
1517.80702,0.02767
1516.31724,0.01915
1514.82745,0.04287
1513.33766,0.03790
1511.84787,0.03296
1510.35808,0.03415
1508.86829,0.03303
1507.37850,0.03297
1505.88872,0.04462
1504.39893,0.03552
1502.90914,0.05241
1501.41935,0.06050
1499.92956,0.06134
1498.43977,0.07156
1496.94999,0.06336
1495.46020,0.06609
1493.97041,0.07586
1492.48062,0.07578
1490.99083,0.10534
1489.50104,0.11051
1488.01125,0.10557
1486.52147,0.10066
1485.03168,0.12330
1483.54189,0.14986
1482.05210,0.16736
1480.56231,0.16748
1479.07252,0.18814
1477.58274,0.20078
1476.09295,0.20980
1474.60316,0.18638
1473.11337,0.22974
1471.62358,0.21520
1470.13379,0.22276
1468.64401,0.22152
1467.15422,0.25484
1465.66443,0.26209
1464.17464,0.26936
1462.68485,0.30224
1461.19506,0.33411
1459.70527,0.38469
1458.21549,0.43479
1456.72570,0.47400
1455.23591,0.54076
1453.74612,0.55639
1452.25633,0.62138
1450.76654,0.61342
1449.27676,0.62860
1447.78697,0.61913
1446.29718,0.59098
1444.80739,0.58181
1443.31760,0.57267
1441.82781,0.52356
1440.33802,0.50902
1438.84824,0.48099
1437.35845,0.45481
1435.86866,0.42241
1434.37887,0.44744
1432.88908,0.48549
1431.39929,0.51706
1429.90951,0.57827
1428.41972,0.65794
1426.92993,0.70699
1425.44014,0.75710
1423.95035,0.78568
1422.46056,0.81428
1420.97078,0.83019
1419.48099,0.81235
1417.99120,0.81012
1416.50141,0.80064
1415.01162,0.78651
1413.52183,0.72487
1412.03204,0.66794
1410.54226,0.60375
1409.05247,0.59751
1407.56268,0.55234
1406.07289,0.53186
1404.58310,0.50504
1403.09331,0.47825
1401.60353,0.43681
1400.11374,0.35644
1398.62395,0.30881
1397.13416,0.25809
1395.64437,0.22376
1394.15458,0.19517
1392.66479,0.16141
1391.17501,0.14663
1389.68522,0.11188
1388.19543,0.09429
1386.70564,0.08400
1385.21585,0.07374
1383.72606,0.06376
1382.23628,0.01796
1380.74649,0.02465
1379.25670,0.02799
1377.76691,0.01551
1376.27712,0.01084
1374.78733,0.01815
1373.29755,0.00445
1371.80776,0.00479
1370.31797,0.02515
1368.82818,0.02072
1367.33839,0.01632
1365.84860,0.01909
1364.35881,0.04214
1362.86903,0.04522
1361.37924,0.06546
1359.88945,0.08105
1358.39966,0.09641
1356.90987,0.13725
1355.42008,0.17057
1353.93030,0.19691
1352.44051,0.23535
1350.95072,0.27382
1349.46093,0.34464
1347.97114,0.41783
1346.48135,0.49416
1344.99156,0.54974
1343.50178,0.62637
1342.01199,0.65992
1340.52220,0.72804
1339.03241,0.72813
1337.54262,0.79058
1336.05283,0.79357
1334.56305,0.79659
1333.07326,0.81107
1331.58347,0.84764
1330.09368,0.82061
1328.60389,0.82139
1327.11410,0.76557
1325.62432,0.73576
1324.13453,0.72103
1322.64474,0.69957
1321.15495,0.68359
1319.66516,0.66984
1318.17537,0.65612
1316.68558,0.60671
1315.19580,0.54823
1313.70601,0.52380
1312.21622,0.49810
1310.72643,0.44437
1309.23664,0.40885
1307.74685,0.39491
1306.25707,0.36567
1304.76728,0.35268
1303.27749,0.33972
1301.78770,0.28225
1300.29791,0.25778
1298.80812,0.20762
1297.31834,0.18035
1295.82855,0.14400
1294.33876,0.10769
1292.84897,0.10230
1291.35918,0.10369
1289.86939,0.08901
1288.37960,0.07434
1286.88982,0.08334
1285.40003,0.05314
1283.91024,0.04946
1282.42045,0.05282
1280.93066,0.04217
1279.44087,0.05077
1277.95109,0.04407
1276.46130,0.05246
1274.97151,0.04322
1273.48172,0.03399
1271.99193,0.04168
1270.50214,0.03432
1269.01235,0.03192
1267.52257,0.02357
1266.03278,0.02045
1264.54299,0.03942
1263.05320,0.03167
1261.56341,0.02524
1260.07362,0.01883
1258.58384,0.01946
1257.09405,0.00479
1255.60426,0.01406
1254.11447,0.02284
1252.62468,0.02255
1251.13489,0.01579
1249.64511,0.00724
1248.15532,0.01533
1246.66553,0.01696
1245.17574,0.01861
1243.68595,0.02911
1242.19616,0.01886
1240.70637,0.00656
1239.21659,0.01168
1237.72680,0.02774
1236.23701,0.02746
1234.74722,0.01915
1233.25743,0.02191
1231.76764,0.02469
1230.27786,0.03333
1228.78807,0.04590
1227.29828,0.01875
1225.80849,0.00462
1224.31870,0.00479
1222.82891,0.01303
1221.33912,0.01765
1219.84934,0.02139
1218.35955,0.02516
1216.86976,0.03687
1215.37997,0.04419
1213.89018,0.06270
1212.40039,0.06643
1210.91061,0.07902
1209.42082,0.07969
1207.93103,0.07895
1206.44124,0.07823
1204.95145,0.05585
1203.46166,0.06025
1201.97188,0.06390
1200.48209,0.06419
1198.99230,0.06087
1197.50251,0.04978
1196.01272,0.03560
1194.52293,0.02768
1193.03314,0.01978
1191.54336,0.03035
1190.05357,0.04120
1188.56378,0.03104
1187.07399,0.01804
1185.58420,0.01754
1184.09441,0.01628
1182.60463,0.01687
1181.11484,0.01748
1179.62505,0.02590
1178.13526,0.02812
1176.64547,0.01270
1175.15568,0.02146
1173.66589,0.01544
1172.17611,0.01541
1170.68632,0.01009
1169.19653,0.00479
1167.70674,0.01955
1166.21695,0.03460
1164.72716,0.03772
1163.23738,0.02763
1161.74759,0.04223
1160.25780,0.05373
1158.76801,0.06072
1157.27822,0.06773
1155.78843,0.07724
1154.29865,0.09585
1152.80886,0.08489
1151.31907,0.10174
1149.82928,0.09913
1148.33949,0.11499
1146.84970,0.11789
1145.35991,0.12081
1143.87013,0.12609
1142.38034,0.15374
1140.89055,0.17050
1139.40076,0.19378
1137.91097,0.21136
1136.42118,0.22222
1134.93140,0.21480
1133.44161,0.20740
1131.95182,0.23885
1130.46203,0.24149
1128.97224,0.26702
1127.48245,0.25179
1125.99266,0.26620
1124.50288,0.26453
1123.01309,0.26081
1121.52330,0.25711
1120.03351,0.25759
1118.54372,0.26744
1117.05393,0.25862
1115.56415,0.26982
1114.07436,0.27793
1112.58457,0.27321
1111.09478,0.26851
1109.60499,0.25903
1108.11520,0.27295
1106.62542,0.25002
1105.13563,0.27490
1103.64584,0.26318
1102.15605,0.27356
1100.66626,0.27072
1099.17647,0.26791
1097.68668,0.24408
1096.19690,0.22027
1094.70711,0.21857
1093.21732,0.22884
1091.72753,0.20148
1090.23774,0.20205
1088.74795,0.20266
1087.25817,0.19251
1085.76838,0.18472
1084.27859,0.20007
1082.78880,0.19596
1081.29901,0.18383
1079.80922,0.17640
1078.31943,0.17925
1076.82965,0.18213
1075.33986,0.19711
1073.85007,0.18744
1072.36028,0.18662
1070.87049,0.21700
1069.38070,0.25701
1067.89092,0.27561
1066.40113,0.29425
1064.91134,0.36576
1063.42155,0.40093
1061.93176,0.47742
1060.44197,0.56121
1058.95219,0.64971
1057.46240,0.68186
1055.97261,0.71404
1054.48282,0.82052
1052.99303,0.89093
1051.50324,0.86293
1050.01345,0.85884
1048.52367,0.85452
1047.03388,0.83944
1045.54409,0.82439
1044.05430,0.80742
1042.56451,0.72761
1041.07472,0.69900
1039.58494,0.66729
1038.09515,0.62158
1036.60536,0.58019
1035.11557,0.53881
1033.62578,0.50253
1032.13599,0.43562
1030.64620,0.38900
1029.15642,0.31071
1027.66663,0.29180
1026.17684,0.27291
1024.68705,0.23911
1023.19726,0.21521
1021.70747,0.20275
1020.21769,0.17188
1018.72790,0.15169
1017.23811,0.15139
1015.74832,0.15111
1014.25853,0.14293
1012.76874,0.13322
1011.27896,0.12614
1009.78917,0.15102
1008.29938,0.10762
1006.80959,0.08918
1005.31980,0.07076
1003.83001,0.03730
1002.34022,0.04335
1000.85044,0.06345
999.36065,0.02773
997.87086,0.03397
996.38107,0.04025
994.89128,0.04745
993.40149,0.06715
991.91171,0.05883
990.42192,0.07286
988.93213,0.10016
987.44234,0.10412
985.95255,0.10809
984.46276,0.12378
982.97297,0.10573
981.48319,0.07706
979.99340,0.06685
978.50361,0.05471
977.01382,0.04260
975.52403,0.04623
974.03424,0.02729
972.54446,0.02993
971.05467,0.00506
969.56488,0.00506
968.07509,0.00768
966.58530,0.01033
965.09551,0.00703
963.60573,0.00479
962.11594,0.03101
960.62615,0.01752
959.13636,0.02418
957.64657,0.03086
956.15678,0.03744
954.66699,0.04897
953.17721,0.04651
951.68742,0.06147
950.19763,0.05997
948.70784,0.05848
947.21805,0.07768
945.72826,0.07144
944.23848,0.10393
942.74869,0.13851
941.25890,0.12897
939.76911,0.14660
938.27932,0.16425
936.78953,0.17478
935.29974,0.18092
933.80996,0.21046
932.32017,0.20315
930.83038,0.20663
929.34059,0.21014
927.85080,0.23718
926.36101,0.26555
924.87123,0.28303
923.38144,0.33767
921.89165,0.36754
920.40186,0.39743
918.91207,0.51708
917.42228,0.61312
915.93250,0.72867
914.44271,0.97540
912.95292,1.07385
911.46313,1.17233
909.97334,1.45472
908.48355,1.66103
906.99376,1.81049
905.50398,1.89737
904.01419,1.94143
902.52440,1.98551
901.03461,2.00000
899.54482,1.95011
898.05503,1.84336
896.56525,1.68338
895.07546,1.56863
893.58567,1.45390
892.09588,1.16648
890.60609,0.90427
889.11630,0.66676
887.62651,0.49188
886.13673,0.43038
884.64694,0.36892
883.15715,0.25566
881.66736,0.18398
880.17757,0.14505
878.68778,0.12745
877.19800,0.10987
875.70821,0.07049
874.21842,0.03893
872.72863,0.02273
871.23884,0.01823
869.74905,0.01298
868.25927,0.00775
866.76948,0.01138
865.27969,0.00646
863.78990,0.01248
862.30011,0.03358
860.81032,0.03964
859.32053,0.04573
857.83075,0.05678
856.34096,0.07798
854.85117,0.08492
853.36138,0.07085
851.87159,0.07459
850.38180,0.07836
848.89202,0.10669
847.40223,0.13090
845.91244,0.12941
844.42265,0.15328
842.93286,0.17716
841.44307,0.14822
839.95329,0.16684
838.46350,0.18184
836.97371,0.18310
835.48392,0.18932
833.99413,0.19556
832.50434,0.22001
831.01455,0.19643
829.52477,0.17054
828.03498,0.15273
826.54519,0.13533
825.05540,0.11795
823.56561,0.09476
822.07582,0.09029
820.58604,0.08091
819.09625,0.07584
817.60646,0.07079
816.11667,0.07291
814.62688,0.05974
813.13709,0.06840
811.64730,0.07631
810.15752,0.07268
808.66773,0.06908
807.17794,0.09031
805.68815,0.09312
804.19836,0.08739
802.70857,0.08557
801.21879,0.08378
799.72900,0.07552
798.23921,0.06833
796.74942,0.06635
795.25963,0.06167
793.76984,0.05702
792.28006,0.07693
790.79027,0.09505
789.30048,0.11060
787.81069,0.10461
786.32090,0.13125
784.83111,0.15791
783.34132,0.18550
781.85154,0.20377
780.36175,0.24622
778.87196,0.25596
777.38217,0.26573
775.89238,0.30487
774.40259,0.30015
772.91281,0.30531
771.42302,0.29258
769.93323,0.27988
768.44344,0.27551
766.95365,0.23688
765.46386,0.23178
763.97407,0.17034
762.48429,0.15231
760.99450,0.13429
759.50471,0.11916
758.01492,0.10535
756.52513,0.08611
755.03534,0.07521
753.54556,0.06433
752.05577,0.06621
750.56598,0.04837
749.07619,0.04431
747.58640,0.04574
746.09661,0.04719
744.60683,0.03205
743.11704,0.01900
741.62725,0.01611
740.13746,0.01519
738.64767,0.01430
737.15788,0.02135
735.66809,0.00479
734.17831,0.01140
732.68852,0.01388
731.19873,0.01638
729.70894,0.00618
728.21915,0.01878
726.72936,0.00906
725.23958,0.02116
723.74979,0.02276
722.26000,0.02439
720.77021,0.02877
719.28042,0.02771
717.79063,0.01578
716.30084,0.02088
714.81106,0.02600
713.32127,0.00479
711.83148,0.01615
710.34169,0.03610
708.85190,0.04166
707.36211,0.04724
705.87233,0.05844
704.38254,0.04784
702.89275,0.04635
701.40296,0.04606
699.91317,0.04580
698.42338,0.05244
696.93360,0.07988
695.44381,0.11072
693.95402,0.11302
692.46423,0.11534
690.97444,0.11042
689.48465,0.14500
687.99486,0.15934
686.50508,0.16994
685.01529,0.18057
683.52550,0.20382
682.03571,0.22345
680.54592,0.25195
679.05613,0.24877
677.56635,0.24563
676.07656,0.26354
674.58677,0.26200
673.09698,0.23685
671.60719,0.22978
670.11740,0.22273
668.62761,0.17453
667.13783,0.14870
665.64804,0.14328
664.15825,0.13789
662.66846,0.10200
661.17867,0.08821
659.68888,0.07549
658.19910,0.05708
656.70931,0.03869
655.21952,0.03617
653.72973,0.04120
652.23994,0.04756
650.75015,0.04914
649.26037,0.05074
647.77058,0.05769
646.28079,0.05974
644.79100,0.05687
643.30121,0.03545
641.81142,0.01406
640.32163,0.02269
638.83185,0.01577
637.34206,0.01172
635.85227,0.00874
634.36248,0.00578
632.87269,0.00479
631.38290,0.00983
629.89312,0.00969
628.40333,0.01283
626.91354,0.01599
625.42375,0.02579
623.93396,0.02134
622.44417,0.02211
620.95438,0.02290
619.46460,0.04111
617.97481,0.05208
616.48502,0.05996
614.99523,0.07280
613.50544,0.08566
612.01565,0.09932
610.52587,0.14495
609.03608,0.16880
607.54629,0.18046
606.05650,0.19214
604.56671,0.22904
603.07692,0.28960
601.58714,0.30746
600.09735,0.32535
598.60756,0.37481
597.11777,0.36197
595.62798,0.35642
594.13819,0.35661
592.64840,0.35683
591.15862,0.34226
589.66883,0.29058
588.17904,0.25269
586.68925,0.22781
585.19946,0.20296
583.70967,0.16046
582.21989,0.12708
580.73010,0.10126
579.24031,0.07547
577.75052,0.05697
576.26073,0.05355
574.77094,0.03666
573.28115,0.03304
571.79137,0.02944
570.30158,0.04509
568.81179,0.04258
567.32200,0.05100
565.83221,0.05945
564.34242,0.06714
562.85264,0.09615
561.36285,0.07844
559.87306,0.09062
558.38327,0.10283
556.89348,0.11973
555.40369,0.13225
553.91391,0.13401
552.42412,0.13579
550.93433,0.16111
549.44454,0.15528
547.95475,0.15856
546.46496,0.16408
544.97517,0.16962
543.48539,0.17143
541.99560,0.19351
540.50581,0.21419
539.01602,0.23489
537.52623,0.27342
536.03644,0.33014
534.54666,0.34689
533.05687,0.36016
531.56708,0.37346
530.07729,0.42743
528.58750,0.48142
527.09771,0.51608
525.60792,0.55077
524.11814,0.61704
522.62835,0.62802
521.13856,0.70421
519.64877,0.71978
518.15898,0.73537
516.66919,0.77553
515.17941,0.78559
513.68962,0.77372
512.19983,0.76188
510.71004,0.74110
509.22025,0.70191
507.73046,0.65677
506.24068,0.59412
504.75089,0.53149
503.26110,0.43941
501.77131,0.31047
500.28152,0.27337
498.79173,0.23630
497.30194,0.20639
495.81216,0.16118
494.32237,0.14963
492.83258,0.13811
491.34279,0.07973
489.85300,0.09488
488.36321,0.08667
486.87343,0.07992
485.38364,0.07320
483.89385,0.06221
482.40406,0.06501
480.91427,0.07238
479.42448,0.07978
477.93469,0.07954
476.44491,0.12140
474.95512,0.12341
473.46533,0.12546
471.97554,0.13362
470.48575,0.13584
468.99596,0.13289
467.50618,0.13763
466.01639,0.14239
464.52660,0.11639
463.03681,0.08912
461.54702,0.07980
460.05723,0.07050
458.56745,0.03889
457.07766,0.03536
455.58787,0.03847
454.09808,0.04161
452.60829,0.03477
451.11850,0.02484
449.62871,0.01480
448.13893,0.00479
446.64914,0.01349
445.15935,0.02248
443.66956,0.02889
442.17977,0.03364
440.68998,0.03841
439.20020,0.04256
437.71041,0.03531
436.22062,0.04301
434.73083,0.05074
433.24104,0.01083
431.75125,0.02134
430.26146,0.02758
428.77168,0.03385
427.28189,0.04183
425.79210,0.05191
424.30231,0.05241
422.81252,0.05293
421.32273,0.05244
419.83295,0.02807
418.34316,0.03062
416.85337,0.03318
415.36358,0.02188
413.87379,0.01527
412.38400,0.02233
410.89422,0.02941
409.40443,0.04184
407.91464,0.04287
406.42485,0.02833
404.93506,0.01655
403.44527,0.00479
401.95548,0.02751
400.46570,0.04091
398.97591,0.03836
397.48612,0.03583
395.99633,0.04255
394.50654,0.04955
393.01675,0.04645
391.52697,0.04337
390.03718,0.01564
388.54739,0.04310
387.05760,0.02824
385.56781,0.01340
384.07802,0.00483
382.58824,0.00900
381.09845,0.01801
379.60866,0.02704
378.11887,0.03700
376.62908,0.02154
375.13929,0.01726
373.64950,0.01302
372.15972,0.02074
370.66993,0.01888
369.18014,0.01182
367.69035,0.00479
366.20056,0.02475
364.71077,0.02630
363.22099,0.02813
361.73120,0.02998
360.24141,0.04459
358.75162,0.05377
357.26183,0.05141
355.77204,0.04908
354.28225,0.03677
352.79247,0.03721
351.30268,0.03859
349.81289,0.03999
348.32310,0.03323
346.83331,0.04104
345.34352,0.03161
343.85374,0.02220
342.36395,0.04047
340.87416,0.04449
339.38437,0.04204
337.89458,0.03961
336.40479,0.05538
334.91501,0.01924
333.42522,0.02350
331.93543,0.02779
330.44564,0.01146
328.95585,0.00580
327.46606,0.00575
325.97627,0.00572
324.48649,0.04401
322.99670,0.06413
321.50691,0.06025
320.01712,0.05640
318.52733,0.06751
317.03754,0.06981
315.54776,0.07019
314.05797,0.07059
312.56818,0.08335
311.07839,0.06809
309.58860,0.06311
308.09881,0.05816
306.60902,0.05933
305.11924,0.03871
303.62945,0.02305
302.13966,0.00742
300.64987,0.00479
299.16008,0.00479
