1778.52000,0.02777
1777.03021,0.02943
1775.54042,0.03301
1774.05063,0.02584
1772.56085,0.02314
1771.07106,0.01697
1769.58127,0.02541
1768.09148,0.01992
1766.60169,0.00655
1765.11190,0.03026
1763.62212,0.03150
1762.13233,0.02010
1760.64254,0.01886
1759.15275,0.02525
1757.66296,0.02089
1756.17317,0.01243
1754.68339,0.02555
1753.19360,0.00669
1751.70381,0.01669
1750.21402,0.01562
1748.72423,0.00064
1747.23444,0.00659
1745.74465,0.00908
1744.25487,0.01318
1742.76508,0.01160
1741.27529,0.01607
1739.78550,0.01898
1738.29571,0.02001
1736.80592,0.01283
1735.31614,0.00694
1733.82635,0.00361
1732.33656,0.01424
1730.84677,0.00843
1729.35698,0.00517
1727.86719,0.01398
1726.37740,-0.00000
1724.88762,0.00605
1723.39783,0.01592
1721.90804,0.00491
1720.41825,0.01294
1718.92846,0.00324
1717.43867,0.00799
1715.94889,0.00770
1714.45910,0.01630
1712.96931,0.00655
1711.47952,0.00613
1709.98973,0.00384
1708.49994,0.01013
1707.01016,0.00709
1705.52037,0.00408
1704.03058,0.00624
1702.54079,0.00938
1701.05100,0.00747
1699.56121,0.01572
1698.07142,0.01165
1696.58164,0.00791
1695.09185,0.02194
1693.60206,0.02649
1692.11227,0.02283
1690.62248,0.01761
1689.13269,0.02952
1687.64291,0.02055
1686.15312,0.02839
1684.66333,0.02042
1683.17354,0.02768
1681.68375,0.05555
1680.19396,0.04322
1678.70417,0.06291
1677.21439,0.06235
1675.72460,0.05547
1674.23481,0.05052
1672.74502,0.06271
1671.25523,0.07365
1669.76544,0.07099
1668.27566,0.06868
1666.78587,0.08381
1665.29608,0.07933
1663.80629,0.08596
1662.31650,0.10497
1660.82671,0.09802
1659.33693,0.10029
1657.84714,0.09910
1656.35735,0.10395
1654.86756,0.10376
1653.37777,0.10296
1651.88798,0.11169
1650.39819,0.11759
1648.90841,0.09912
1647.41862,0.11014
1645.92883,0.10582
1644.43904,0.10152
1642.94925,0.11008
1641.45946,0.10536
1639.96968,0.10668
1638.47989,0.12546
1636.99010,0.10307
1635.50031,0.10763
1634.01052,0.09638
1632.52073,0.09371
1631.03094,0.10912
1629.54116,0.09319
1628.05137,0.09978
1626.56158,0.09372
1625.07179,0.12349
1623.58200,0.11716
1622.09221,0.11054
1620.60243,0.12676
1619.11264,0.12558
1617.62285,0.11555
1616.13306,0.11790
1614.64327,0.10824
1613.15348,0.11286
1611.66370,0.08645
1610.17391,0.12217
1608.68412,0.10152
1607.19433,0.11257
1605.70454,0.12777
1604.21475,0.12461
1602.72496,0.12149
1601.23518,0.11521
1599.74539,0.09788
1598.25560,0.12302
1596.76581,0.10162
1595.27602,0.10590
1593.78623,0.09690
1592.29645,0.10376
1590.80666,0.10083
1589.31687,0.09698
1587.82708,0.10423
1586.33729,0.10169
1584.84750,0.09062
1583.35771,0.10809
1581.86793,0.10309
1580.37814,0.08956
1578.88835,0.10045
1577.39856,0.09743
1575.90877,0.08999
1574.41898,0.07783
1572.92920,0.06791
1571.43941,0.05200
1569.94962,0.05575
1568.45983,0.05952
1566.97004,0.05730
1565.48025,0.05479
1563.99047,0.04375
1562.50068,0.05270
1561.01089,0.03252
1559.52110,0.04437
1558.03131,0.04610
1556.54152,0.04500
1555.05173,0.03506
1553.56195,0.04162
1552.07216,0.03585
1550.58237,0.03517
1549.09258,0.01582
1547.60279,0.03008
1546.11300,0.02599
1544.62322,0.02858
1543.13343,0.02264
1541.64364,0.01704
1540.15385,0.01178
1538.66406,0.00655
1537.17427,0.03591
1535.68448,0.03773
1534.19470,0.02849
1532.70491,0.02593
1531.21512,0.03131
1529.72533,0.02721
1528.23554,0.02789
1526.74575,0.03874
1525.25597,0.05531
1523.76618,0.03610
1522.27639,0.03371
1520.78660,0.05194
1519.29681,0.05024
1517.80702,0.05172
1516.31724,0.04500
1514.82745,0.06491
1513.33766,0.06441
1511.84787,0.06394
1510.35808,0.06365
1508.86829,0.05102
1507.37850,0.04857
1505.88872,0.03885
1504.39893,0.05069
1502.90914,0.06288
1501.41935,0.07699
1499.92956,0.08828
1498.43977,0.08597
1496.94999,0.09667
1495.46020,0.07731
1493.97041,0.10073
1492.48062,0.10169
1490.99083,0.08525
1489.50104,0.11096
1488.01125,0.12324
1486.52147,0.13554
1485.03168,0.14422
1483.54189,0.18239
1482.05210,0.20665
1480.56231,0.21097
1479.07252,0.23179
1477.58274,0.25707
1476.09295,0.24246
1474.60316,0.26431
1473.11337,0.24246
1471.62358,0.27702
1470.13379,0.30148
1468.64401,0.28699
1467.15422,0.32353
1465.66443,0.33396
1464.17464,0.34442
1462.68485,0.33858
1461.19506,0.38979
1459.70527,0.42582
1458.21549,0.53126
1456.72570,0.57779
1455.23591,0.65698
1453.74612,0.71307
1452.25633,0.72040
1450.76654,0.75373
1449.27676,0.78043
1447.78697,0.72732
1446.29718,0.72841
1444.80739,0.70655
1443.31760,0.68472
1441.82781,0.65199
1440.33802,0.59711
1438.84824,0.55745
1437.35845,0.55520
1435.86866,0.53176
1434.37887,0.56631
1432.88908,0.59930
1431.39929,0.63010
1429.90951,0.68436
1428.41972,0.78617
1426.92993,0.85601
1425.44014,0.91922
1423.95035,0.96218
1422.46056,1.00517
1420.97078,1.03360
1419.48099,1.03862
1417.99120,1.01104
1416.50141,1.02149
1415.01162,1.01708
1413.52183,0.96264
1412.03204,0.87338
1410.54226,0.80093
1409.05247,0.73294
1407.56268,0.69349
1406.07289,0.64646
1404.58310,0.61212
1403.09331,0.57781
1401.60353,0.51407
1400.11374,0.44623
1398.62395,0.38095
1397.13416,0.34040
1395.64437,0.30622
1394.15458,0.25305
1392.66479,0.22968
1391.17501,0.19240
1389.68522,0.17036
1388.19543,0.12647
1386.70564,0.11826
1385.21585,0.11006
1383.72606,0.09096
1382.23628,0.04528
1380.74649,0.04460
1379.25670,0.03160
1377.76691,0.03573
1376.27712,0.01992
1374.78733,0.01396
1373.29755,0.01974
1371.80776,0.00655
1370.31797,0.01292
1368.82818,0.01520
1367.33839,0.01750
1365.84860,0.01412
1364.35881,0.04119
1362.86903,0.04642
1361.37924,0.05199
1359.88945,0.08926
1358.39966,0.11801
1356.90987,0.15723
1355.42008,0.20313
1353.93030,0.26553
1352.44051,0.29865
1350.95072,0.33180
1349.46093,0.40409
1347.97114,0.44378
1346.48135,0.56523
1344.99156,0.61543
1343.50178,0.71633
1342.01199,0.76277
1340.52220,0.87196
1339.03241,0.93049
1337.54262,0.97321
1336.05283,0.98506
1334.56305,0.99693
1333.07326,1.04352
1331.58347,1.04420
1330.09368,1.04174
1328.60389,1.06908
1327.11410,1.00584
1325.62432,0.95688
1324.13453,0.91935
1322.64474,0.88406
1321.15495,0.86368
1319.66516,0.82765
1318.17537,0.79165
1316.68558,0.77768
1315.19580,0.68296
1313.70601,0.64180
1312.21622,0.59497
1310.72643,0.55703
1309.23664,0.50200
1307.74685,0.43655
1306.25707,0.41737
1304.76728,0.40519
1303.27749,0.39303
1301.78770,0.35144
1300.29791,0.31082
1298.80812,0.25882
1297.31834,0.21667
1295.82855,0.16281
1294.33876,0.14891
1292.84897,0.12583
1291.35918,0.12243
1289.86939,0.11224
1288.37960,0.10207
1286.88982,0.10190
1285.40003,0.08592
1283.91024,0.06363
1282.42045,0.07083
1280.93066,0.05904
1279.44087,0.05932
1277.95109,0.05075
1276.46130,0.06090
1274.97151,0.06204
1273.48172,0.06321
1271.99193,0.03098
1270.50214,0.04344
1269.01235,0.03692
1267.52257,0.03581
1266.03278,0.04582
1264.54299,0.03272
1263.05320,0.02883
1261.56341,0.02956
1260.07362,0.03032
1258.58384,0.03664
1257.09405,0.01511
1255.60426,0.02973
1254.11447,0.02662
1252.62468,0.02829
1251.13489,0.00655
1249.64511,0.01306
1248.15532,0.01421
1246.66553,0.02173
1245.17574,0.02926
1243.68595,0.02986
1242.19616,0.02161
1240.70637,0.01845
1239.21659,0.01690
1237.72680,0.02107
1236.23701,0.02781
1234.74722,0.00954
1233.25743,0.01807
1231.76764,0.02662
1230.27786,0.03314
1228.78807,0.03842
1227.29828,0.02724
1225.80849,0.03099
1224.31870,0.01543
1222.82891,0.00655
1221.33912,0.01455
1219.84934,0.02607
1218.35955,0.03760
1216.86976,0.05931
1215.37997,0.06076
1213.89018,0.06223
1212.40039,0.07831
1210.91061,0.08205
1209.42082,0.08392
1207.93103,0.08597
1206.44124,0.08804
1204.95145,0.08301
1203.46166,0.05742
1201.97188,0.06194
1200.48209,0.06016
1198.99230,0.08120
1197.50251,0.06838
1196.01272,0.05178
1194.52293,0.04549
1193.03314,0.03924
1191.54336,0.02398
1190.05357,0.02458
1188.56378,0.02299
1187.07399,0.01826
1185.58420,0.03510
1184.09441,0.01774
1182.60463,0.02227
1181.11484,0.02683
1179.62505,0.03679
1178.13526,0.00655
1176.64547,0.02020
1175.15568,0.02310
1173.66589,0.01716
1172.17611,0.03785
1170.68632,0.02468
1169.19653,0.01152
1167.70674,0.02722
1166.21695,0.02267
1164.72716,0.02797
1163.23738,0.03804
1161.74759,0.04275
1160.25780,0.06871
1158.76801,0.07094
1157.27822,0.07319
1155.78843,0.08877
1154.29865,0.09392
1152.80886,0.11494
1151.31907,0.11285
1149.82928,0.10825
1148.33949,0.15469
1146.84970,0.15489
1145.35991,0.15512
1143.87013,0.12180
1142.38034,0.15344
1140.89055,0.15502
1139.40076,0.21015
1137.91097,0.20639
1136.42118,0.22324
1134.93140,0.22095
1133.44161,0.21869
1131.95182,0.23466
1130.46203,0.24433
1128.97224,0.26447
1127.48245,0.26658
1125.99266,0.25034
1124.50288,0.25979
1123.01309,0.26166
1121.52330,0.26355
1120.03351,0.24710
1118.54372,0.24904
1117.05393,0.25956
1115.56415,0.25522
1114.07436,0.25090
1112.58457,0.26039
1111.09478,0.26990
1109.60499,0.28561
1108.11520,0.25763
1106.62542,0.23569
1105.13563,0.24578
1103.64584,0.27141
1102.15605,0.26064
1100.66626,0.25527
1099.17647,0.24994
1097.68668,0.23797
1096.19690,0.22634
1094.70711,0.22805
1093.21732,0.22186
1091.72753,0.22013
1090.23774,0.21304
1088.74795,0.20597
1087.25817,0.22490
1085.76838,0.20807
1084.27859,0.22008
1082.78880,0.22452
1081.29901,0.21821
1079.80922,0.20844
1078.31943,0.22039
1076.82965,0.23237
1075.33986,0.20684
1073.85007,0.20921
1072.36028,0.21825
1070.87049,0.21782
1069.38070,0.28742
1067.89092,0.30351
1066.40113,0.31962
1064.91134,0.36522
1063.42155,0.46439
1061.93176,0.56421
1060.44197,0.63618
1058.95219,0.73446
1057.46240,0.76641
1055.97261,0.79838
1054.48282,0.91923
1052.99303,1.02775
1051.50324,1.01940
1050.01345,1.00474
1048.52367,0.96951
1047.03388,0.96710
1045.54409,0.96471
1044.05430,0.94571
1042.56451,0.86592
1041.07472,0.81782
1039.58494,0.74726
1038.09515,0.63332
1036.60536,0.60891
1035.11557,0.58451
1033.62578,0.51627
1032.13599,0.47339
1030.64620,0.39538
1029.15642,0.34273
1027.66663,0.30721
1026.17684,0.27172
1024.68705,0.24671
1023.19726,0.22584
1021.70747,0.20595
1020.21769,0.18576
1018.72790,0.14248
1017.23811,0.14721
1015.74832,0.15197
1014.25853,0.14550
1012.76874,0.13273
1011.27896,0.13265
1009.78917,0.11644
1008.29938,0.09550
1006.80959,0.08092
1005.31980,0.06637
1003.83001,0.05532
1002.34022,0.04874
1000.85044,0.05327
999.36065,0.06194
997.87086,0.07159
996.38107,0.08126
994.89128,0.12390
993.40149,0.10670
991.91171,0.12816
990.42192,0.12051
988.93213,0.14361
987.44234,0.13934
985.95255,0.13508
984.46276,0.16586
982.97297,0.16023
981.48319,0.15970
979.99340,0.11198
978.50361,0.10374
977.01382,0.09551
975.52403,0.07480
974.03424,0.05855
972.54446,0.05816
971.05467,0.06192
969.56488,0.02515
968.07509,0.02230
966.58530,0.01948
965.09551,0.00655
963.60573,0.01367
962.11594,0.02082
960.62615,0.02355
959.13636,0.03360
957.64657,0.04368
956.15678,0.05061
954.66699,0.04394
953.17721,0.05694
951.68742,0.07566
950.19763,0.06701
948.70784,0.05838
947.21805,0.06166
945.72826,0.09125
944.23848,0.09394
942.74869,0.12549
941.25890,0.14439
939.76911,0.15618
938.27932,0.16800
936.78953,0.18571
935.29974,0.18000
933.80996,0.17874
932.32017,0.22123
930.83038,0.21670
929.34059,0.21220
927.85080,0.25350
926.36101,0.28341
924.87123,0.35295
923.38144,0.39591
921.89165,0.44760
920.40186,0.49932
918.91207,0.55882
917.42228,0.70768
915.93250,0.84675
914.44271,1.05174
912.95292,1.19149
911.46313,1.33126
909.97334,1.47138
908.48355,1.71575
906.99376,1.84546
905.50398,1.93877
904.01419,1.96937
902.52440,2.00000
901.03461,1.96128
899.54482,1.93208
898.05503,1.82498
896.56525,1.67355
895.07546,1.54099
893.58567,1.40846
892.09588,1.14622
890.60609,0.92519
889.11630,0.66364
887.62651,0.49082
886.13673,0.41829
884.64694,0.34578
883.15715,0.24304
881.66736,0.19767
880.17757,0.13679
878.68778,0.12537
877.19800,0.11397
875.70821,0.09245
874.21842,0.07096
872.72863,0.04886
871.23884,0.01887
869.74905,0.02597
868.25927,0.03309
866.76948,0.01806
865.27969,0.03283
863.78990,0.03971
862.30011,0.03045
860.81032,0.04150
859.32053,0.05257
857.83075,0.08204
856.34096,0.08366
854.85117,0.09734
853.36138,0.11199
851.87159,0.10861
850.38180,0.10526
848.89202,0.13266
847.40223,0.15343
845.91244,0.16758
844.42265,0.18444
842.93286,0.20132
841.44307,0.19432
839.95329,0.23549
838.46350,0.23297
836.97371,0.23205
835.48392,0.23908
833.99413,0.24614
832.50434,0.25290
831.01455,0.23562
829.52477,0.20315
828.03498,0.18654
826.54519,0.18548
825.05540,0.18445
823.56561,0.15842
822.07582,0.14128
820.58604,0.12448
819.09625,0.11958
817.60646,0.11471
816.11667,0.10939
814.62688,0.09998
813.13709,0.11182
811.64730,0.10626
810.15752,0.10721
808.66773,0.10819
807.17794,0.13058
805.68815,0.14920
804.19836,0.11968
802.70857,0.12694
801.21879,0.13422
799.72900,0.11492
798.23921,0.11180
796.74942,0.11440
795.25963,0.11592
793.76984,0.11747
792.28006,0.11920
790.79027,0.13869
789.30048,0.14205
787.81069,0.15906
786.32090,0.17879
784.83111,0.19854
783.34132,0.23780
781.85154,0.28184
780.36175,0.33445
778.87196,0.34131
777.38217,0.34820
775.89238,0.35400
774.40259,0.33575
772.91281,0.35776
771.42302,0.35682
769.93323,0.35591
768.44344,0.30355
766.95365,0.23473
765.46386,0.24008
763.97407,0.16117
762.48429,0.16466
760.99450,0.16818
759.50471,0.13655
758.01492,0.11192
756.52513,0.11044
755.03534,0.10535
753.54556,0.10027
752.05577,0.09063
750.56598,0.07436
749.07619,0.05336
747.58640,0.04506
746.09661,0.03679
744.60683,0.03962
743.11704,0.03298
741.62725,0.02509
740.13746,0.01581
738.64767,0.00655
737.15788,0.02715
735.66809,0.02086
734.17831,0.03138
732.68852,0.02672
731.19873,0.02208
729.70894,0.03141
728.21915,0.00655
726.72936,0.00715
725.23958,0.00811
723.74979,0.01067
722.26000,0.01325
720.77021,0.02948
719.28042,0.02705
717.79063,0.02147
716.30084,0.01861
714.81106,0.01577
713.32127,0.00298
711.83148,0.01756
710.34169,0.01411
708.85190,0.02177
707.36211,0.02946
705.87233,0.03844
704.38254,0.03477
702.89275,0.05489
701.40296,0.05317
699.91317,0.05147
698.42338,0.05836
696.93360,0.07509
695.44381,0.08741
693.95402,0.09152
692.46423,0.09565
690.97444,0.12325
689.48465,0.15151
687.99486,0.14938
686.50508,0.16755
685.01529,0.18574
683.52550,0.22265
682.03571,0.26307
680.54592,0.28800
679.05613,0.27287
677.56635,0.25776
676.07656,0.27452
674.58677,0.27768
673.09698,0.23018
671.60719,0.23292
670.11740,0.23568
668.62761,0.18382
667.13783,0.16461
665.64804,0.14828
664.15825,0.13197
662.66846,0.10302
661.17867,0.09183
659.68888,0.05881
658.19910,0.04989
656.70931,0.04099
655.21952,0.04827
653.72973,0.06572
652.23994,0.05088
650.75015,0.05079
649.26037,0.05073
647.77058,0.05054
646.28079,0.05797
644.79100,0.05402
643.30121,0.03838
641.81142,0.02276
640.32163,0.02491
638.83185,0.04925
637.34206,0.03814
635.85227,0.02832
634.36248,0.01853
632.87269,0.00655
631.38290,0.01771
629.89312,0.00800
628.40333,0.01256
626.91354,0.01715
625.42375,0.02968
623.93396,0.02133
622.44417,0.02283
620.95438,0.02435
619.46460,0.04933
617.97481,0.05249
616.48502,0.07657
614.99523,0.08215
613.50544,0.08775
612.01565,0.10051
610.52587,0.12786
609.03608,0.16506
607.54629,0.17425
606.05650,0.18346
604.56671,0.24988
603.07692,0.28369
601.58714,0.31911
600.09735,0.35456
598.60756,0.40365
597.11777,0.41127
595.62798,0.40117
594.13819,0.39173
592.64840,0.38231
591.15862,0.35360
589.66883,0.27485
588.17904,0.27882
586.68925,0.23386
585.19946,0.18893
583.70967,0.16509
582.21989,0.13240
580.73010,0.11463
579.24031,0.09688
577.75052,0.07980
576.26073,0.07667
574.77094,0.05900
573.28115,0.04468
571.79137,0.03038
570.30158,0.04985
568.81179,0.06300
567.32200,0.07412
565.83221,0.08527
564.34242,0.11466
562.85264,0.12284
561.36285,0.14563
559.87306,0.14689
558.38327,0.14818
556.89348,0.16597
555.40369,0.13816
553.91391,0.15584
552.42412,0.17355
550.93433,0.19777
549.44454,0.20966
547.95475,0.22285
546.46496,0.21214
544.97517,0.20146
543.48539,0.23151
541.99560,0.25239
540.50581,0.26887
539.01602,0.28537
537.52623,0.31457
536.03644,0.37642
534.54666,0.39806
533.05687,0.42623
531.56708,0.45442
530.07729,0.49071
528.58750,0.56535
527.09771,0.59504
525.60792,0.62475
524.11814,0.67445
522.62835,0.68742
521.13856,0.72608
519.64877,0.75922
518.15898,0.79238
516.66919,0.85455
515.17941,0.79732
513.68962,0.82168
512.19983,0.84607
510.71004,0.80380
509.22025,0.75586
507.73046,0.71839
506.24068,0.66336
504.75089,0.60836
503.26110,0.48860
501.77131,0.38628
500.28152,0.34228
498.79173,0.29831
497.30194,0.24486
495.81216,0.18066
494.32237,0.16448
492.83258,0.14833
491.34279,0.11240
489.85300,0.10437
488.36321,0.09732
486.87343,0.08411
485.38364,0.07093
483.89385,0.08074
482.40406,0.08805
480.91427,0.10234
479.42448,0.11667
477.93469,0.11739
476.44491,0.13493
474.95512,0.14236
473.46533,0.14981
471.97554,0.17661
470.48575,0.18157
468.99596,0.19037
467.50618,0.17289
466.01639,0.15544
464.52660,0.12565
463.03681,0.09083
461.54702,0.09277
460.05723,0.09475
458.56745,0.07330
457.07766,0.04459
455.58787,0.03634
454.09808,0.02811
452.60829,0.04351
451.11850,0.03233
449.62871,0.01942
448.13893,0.00655
446.64914,0.04051
445.15935,0.01430
443.66956,0.01315
442.17977,0.02390
440.68998,0.03467
439.20020,0.02441
437.71041,0.04394
436.22062,0.03832
434.73083,0.03272
433.24104,0.01717
431.75125,0.02762
430.26146,0.04474
428.77168,0.06189
427.28189,0.03313
425.79210,0.05097
424.30231,0.03873
422.81252,0.02652
421.32273,0.04696
419.83295,0.06014
418.34316,0.05418
416.85337,0.04824
415.36358,0.06625
413.87379,0.04690
412.38400,0.04738
410.89422,0.04787
409.40443,0.05172
407.91464,0.03406
406.42485,0.03067
404.93506,0.01860
403.44527,0.00655
401.95548,0.03143
400.46570,0.05254
398.97591,0.04833
397.48612,0.04414
395.99633,0.02446
394.50654,0.04947
393.01675,0.03617
391.52697,0.02289
390.03718,0.03879
388.54739,0.01511
387.05760,0.01975
385.56781,0.02441
384.07802,0.01721
382.58824,0.02493
381.09845,0.01573
379.60866,0.00655
378.11887,0.03496
376.62908,0.04566
375.13929,0.03421
373.64950,0.02278
372.15972,0.01169
370.66993,0.03611
369.18014,0.02586
367.69035,0.01564
366.20056,0.03742
364.71077,0.04022
363.22099,0.03749
361.73120,0.03479
360.24141,0.03829
358.75162,0.04689
357.26183,0.03238
355.77204,0.01790
354.28225,0.03449
352.79247,0.04318
351.30268,0.04921
349.81289,0.05526
348.32310,0.06023
346.83331,0.03608
345.34352,0.04157
343.85374,0.04708
342.36395,0.02902
340.87416,0.03158
339.38437,0.02640
337.89458,0.02124
336.40479,0.03686
334.91501,0.02589
333.42522,0.03143
331.93543,0.03698
330.44564,0.01532
328.95585,0.00983
327.46606,0.00818
325.97627,0.00655
324.48649,0.00695
322.99670,0.03241
321.50691,0.03889
320.01712,0.04539
318.52733,0.08677
317.03754,0.08540
315.54776,0.06758
314.05797,0.04979
312.56818,0.07352
311.07839,0.07637
309.58860,0.07734
308.09881,0.07834
306.60902,0.03153
305.11924,0.04556
303.62945,0.02604
302.13966,0.00655
300.64987,0.02839
299.16008,0.00655
