1778.52000,0.01639
1777.03021,0.01471
1775.54042,0.01187
1774.05063,0.00788
1772.56085,0.01195
1771.07106,0.01212
1769.58127,0.01036
1768.09148,0.00784
1766.60169,0.01122
1765.11190,0.00953
1763.62212,0.01120
1762.13233,0.01406
1760.64254,0.00599
1759.15275,0.01321
1757.66296,0.00518
1756.17317,0.01304
1754.68339,0.00741
1753.19360,0.00103
1751.70381,0.00230
1750.21402,0.00477
1748.72423,0.00629
1747.23444,0.00000
1745.74465,0.00705
1744.25487,0.01588
1742.76508,0.01319
1741.27529,0.01737
1739.78550,0.01258
1738.29571,0.00976
1736.80592,0.00638
1735.31614,0.00518
1733.82635,0.00218
1732.33656,0.00919
1730.84677,0.00428
1729.35698,0.00840
1727.86719,0.00276
1726.37740,0.00740
1724.88762,0.00971
1723.39783,0.00977
1721.90804,0.00983
1720.41825,0.00989
1718.92846,0.00995
1717.43867,0.01002
1715.94889,0.01008
1714.45910,0.01014
1712.96931,0.01020
1711.47952,0.01026
1709.98973,0.01032
1708.49994,0.01039
1707.01016,0.01045
1705.52037,0.01051
1704.03058,0.01057
1702.54079,0.01063
1701.05100,0.01070
1699.56121,0.00283
1698.07142,0.00544
1696.58164,0.00846
1695.09185,0.00603
1693.60206,0.00518
1692.11227,0.01163
1690.62248,0.01380
1689.13269,0.01404
1687.64291,0.01899
1686.15312,0.02182
1684.66333,0.02350
1683.17354,0.02187
1681.68375,0.02595
1680.19396,0.03299
1678.70417,0.03339
1677.21439,0.03930
1675.72460,0.04191
1674.23481,0.04513
1672.74502,0.05189
1671.25523,0.03970
1669.76544,0.05160
1668.27566,0.05590
1666.78587,0.05610
1665.29608,0.05555
1663.80629,0.06403
1662.31650,0.06568
1660.82671,0.07813
1659.33693,0.08452
1657.84714,0.08136
1656.35735,0.07312
1654.86756,0.07255
1653.37777,0.08217
1651.88798,0.07166
1650.39819,0.08193
1648.90841,0.07597
1647.41862,0.07414
1645.92883,0.07342
1644.43904,0.07272
1642.94925,0.08154
1641.45946,0.09234
1639.96968,0.09788
1638.47989,0.09679
1636.99010,0.08007
1635.50031,0.06826
1634.01052,0.06920
1632.52073,0.06801
1631.03094,0.07585
1629.54116,0.06962
1628.05137,0.07281
1626.56158,0.08699
1625.07179,0.09355
1623.58200,0.09310
1622.09221,0.08895
1620.60243,0.10244
1619.11264,0.08287
1617.62285,0.08310
1616.13306,0.09295
1614.64327,0.06973
1613.15348,0.07552
1611.66370,0.07976
1610.17391,0.09146
1608.68412,0.08792
1607.19433,0.09067
1605.70454,0.08483
1604.21475,0.08812
1602.72496,0.09143
1601.23518,0.07568
1599.74539,0.07914
1598.25560,0.07714
1596.76581,0.09630
1595.27602,0.07791
1593.78623,0.08107
1592.29645,0.08230
1590.80666,0.07925
1589.31687,0.06585
1587.82708,0.06735
1586.33729,0.06261
1584.84750,0.07610
1583.35771,0.08041
1581.86793,0.07535
1580.37814,0.06425
1578.88835,0.07294
1577.39856,0.07050
1575.90877,0.06730
1574.41898,0.04729
1572.92920,0.04747
1571.43941,0.05550
1569.94962,0.05024
1568.45983,0.04501
1566.97004,0.03276
1565.48025,0.03286
1563.99047,0.03299
1562.50068,0.03079
1561.01089,0.03273
1559.52110,0.03058
1558.03131,0.02552
1556.54152,0.02263
1555.05173,0.02232
1553.56195,0.03886
1552.07216,0.03371
1550.58237,0.02466
1549.09258,0.01074
1547.60279,0.01231
1546.11300,0.01155
1544.62322,0.01708
1543.13343,0.01775
1541.64364,0.01628
1540.15385,0.01308
1538.66406,0.00990
1537.17427,0.01458
1535.68448,0.00518
1534.19470,0.01532
1532.70491,0.01844
1531.21512,0.01883
1529.72533,0.01593
1528.23554,0.02225
1526.74575,0.04014
1525.25597,0.03653
1523.76618,0.04135
1522.27639,0.04601
1520.78660,0.04540
1519.29681,0.03640
1517.80702,0.04465
1516.31724,0.03844
1514.82745,0.04635
1513.33766,0.05409
1511.84787,0.06185
1510.35808,0.04576
1508.86829,0.05083
1507.37850,0.04515
1505.88872,0.03970
1504.39893,0.04445
1502.90914,0.04708
1501.41935,0.06421
1499.92956,0.06962
1498.43977,0.07858
1496.94999,0.07210
1495.46020,0.06251
1493.97041,0.08251
1492.48062,0.09979
1490.99083,0.08420
1489.50104,0.10447
1488.01125,0.10665
1486.52147,0.10885
1485.03168,0.14172
1483.54189,0.13781
1482.05210,0.18129
1480.56231,0.19230
1479.07252,0.20236
1477.58274,0.18954
1476.09295,0.21453
1474.60316,0.23621
1473.11337,0.21231
1471.62358,0.21231
1470.13379,0.23602
1468.64401,0.25663
1467.15422,0.26296
1465.66443,0.27217
1464.17464,0.28139
1462.68485,0.29857
1461.19506,0.31851
1459.70527,0.38272
1458.21549,0.44558
1456.72570,0.52178
1455.23591,0.57980
1453.74612,0.60632
1452.25633,0.65695
1450.76654,0.63733
1449.27676,0.63828
1447.78697,0.62673
1446.29718,0.63243
1444.80739,0.62309
1443.31760,0.61376
1441.82781,0.54985
1440.33802,0.53255
1438.84824,0.50353
1437.35845,0.47747
1435.86866,0.48119
1434.37887,0.48943
1432.88908,0.50103
1431.39929,0.52675
1429.90951,0.59496
1428.41972,0.68493
1426.92993,0.74361
1425.44014,0.80622
1423.95035,0.83696
1422.46056,0.86771
1420.97078,0.92453
1419.48099,0.91129
1417.99120,0.87282
1416.50141,0.85767
1415.01162,0.84255
1413.52183,0.81472
1412.03204,0.75697
1410.54226,0.70473
1409.05247,0.62863
1407.56268,0.59699
1406.07289,0.55911
1404.58310,0.53290
1403.09331,0.50671
1401.60353,0.44385
1400.11374,0.38669
1398.62395,0.34893
1397.13416,0.30395
1395.64437,0.24803
1394.15458,0.22014
1392.66479,0.17092
1391.17501,0.15051
1389.68522,0.12014
1388.19543,0.11701
1386.70564,0.09383
1385.21585,0.07068
1383.72606,0.05841
1382.23628,0.03991
1380.74649,0.03279
1379.25670,0.03077
1377.76691,0.01411
1376.27712,0.00666
1374.78733,0.00805
1373.29755,0.01553
1371.80776,0.02010
1370.31797,0.00571
1368.82818,0.00543
1367.33839,0.00518
1365.84860,0.01071
1364.35881,0.03485
1362.86903,0.03651
1361.37924,0.05757
1359.88945,0.07552
1358.39966,0.09193
1356.90987,0.13792
1355.42008,0.18433
1353.93030,0.23918
1352.44051,0.25951
1350.95072,0.27986
1349.46093,0.31658
1347.97114,0.38621
1346.48135,0.47446
1344.99156,0.54629
1343.50178,0.63655
1342.01199,0.66595
1340.52220,0.71475
1339.03241,0.76280
1337.54262,0.79678
1336.05283,0.81972
1334.56305,0.84269
1333.07326,0.84777
1331.58347,0.85816
1330.09368,0.85722
1328.60389,0.86511
1327.11410,0.86363
1325.62432,0.80287
1324.13453,0.76229
1322.64474,0.73387
1321.15495,0.71056
1319.66516,0.68914
1318.17537,0.66774
1316.68558,0.64099
1315.19580,0.56865
1313.70601,0.53117
1312.21622,0.51017
1310.72643,0.46080
1309.23664,0.42497
1307.74685,0.39053
1306.25707,0.35357
1304.76728,0.34296
1303.27749,0.33238
1301.78770,0.29686
1300.29791,0.24943
1298.80812,0.20554
1297.31834,0.16423
1295.82855,0.13918
1294.33876,0.10946
1292.84897,0.09406
1291.35918,0.07105
1289.86939,0.07370
1288.37960,0.07638
1286.88982,0.07732
1285.40003,0.06791
1283.91024,0.06851
1282.42045,0.05367
1280.93066,0.05138
1279.44087,0.03756
1277.95109,0.02573
1276.46130,0.04779
1274.97151,0.03884
1273.48172,0.02992
1271.99193,0.03013
1270.50214,0.03681
1269.01235,0.02787
1267.52257,0.02658
1266.03278,0.01866
1264.54299,0.02291
1263.05320,0.01973
1261.56341,0.02618
1260.07362,0.03265
1258.58384,0.02074
1257.09405,0.01336
1255.60426,0.01716
1254.11447,0.01355
1252.62468,0.01211
1251.13489,0.00894
1249.64511,0.01186
1248.15532,0.01657
1246.66553,0.02501
1245.17574,0.03349
1243.68595,0.02515
1242.19616,0.01762
1240.70637,0.01991
1239.21659,0.00518
1237.72680,0.01330
1236.23701,0.01244
1234.74722,0.02863
1233.25743,0.03408
1231.76764,0.03956
1230.27786,0.03018
1228.78807,0.04060
1227.29828,0.03597
1225.80849,0.03175
1224.31870,0.01895
1222.82891,0.01380
1221.33912,0.00731
1219.84934,0.02098
1218.35955,0.03467
1216.86976,0.05494
1215.37997,0.04959
1213.89018,0.06032
1212.40039,0.07166
1210.91061,0.08244
1209.42082,0.08443
1207.93103,0.08391
1206.44124,0.08341
1204.95145,0.06805
1203.46166,0.06446
1201.97188,0.05053
1200.48209,0.05776
1198.99230,0.05973
1197.50251,0.06583
1196.01272,0.05610
1194.52293,0.04738
1193.03314,0.03868
1191.54336,0.03137
1190.05357,0.01978
1188.56378,0.01292
1187.07399,0.02389
1185.58420,0.02627
1184.09441,0.02457
1182.60463,0.01486
1181.11484,0.00518
1179.62505,0.03106
1178.13526,0.03542
1176.64547,0.02318
1175.15568,0.03151
1173.66589,0.03927
1172.17611,0.01614
1170.68632,0.01867
1169.19653,0.02122
1167.70674,0.00873
1166.21695,0.00840
1164.72716,0.02570
1163.23738,0.04108
1161.74759,0.04513
1160.25780,0.05096
1158.76801,0.05975
1157.27822,0.06857
1155.78843,0.06900
1154.29865,0.06827
1152.80886,0.07893
1151.31907,0.08256
1149.82928,0.08053
1148.33949,0.12277
1146.84970,0.11806
1145.35991,0.11337
1143.87013,0.11595
1142.38034,0.12109
1140.89055,0.14584
1139.40076,0.17061
1137.91097,0.17035
1136.42118,0.18088
1134.93140,0.18380
1133.44161,0.18674
1131.95182,0.19382
1130.46203,0.22794
1128.97224,0.23017
1127.48245,0.22010
1125.99266,0.20300
1124.50288,0.21646
1123.01309,0.21684
1121.52330,0.21724
1120.03351,0.21668
1118.54372,0.21889
1117.05393,0.22190
1115.56415,0.23316
1114.07436,0.22390
1112.58457,0.22640
1111.09478,0.22892
1109.60499,0.21131
1108.11520,0.22015
1106.62542,0.19123
1105.13563,0.20599
1103.64584,0.20864
1102.15605,0.20290
1100.66626,0.19962
1099.17647,0.19637
1097.68668,0.19011
1096.19690,0.18349
1094.70711,0.18883
1093.21732,0.18460
1091.72753,0.16845
1090.23774,0.15820
1088.74795,0.14798
1087.25817,0.14894
1085.76838,0.14072
1084.27859,0.15954
1082.78880,0.15431
1081.29901,0.15145
1079.80922,0.17132
1078.31943,0.16988
1076.82965,0.16846
1075.33986,0.16198
1073.85007,0.15729
1072.36028,0.15085
1070.87049,0.17361
1069.38070,0.19150
1067.89092,0.21431
1066.40113,0.23714
1064.91134,0.26254
1063.42155,0.32986
1061.93176,0.40385
1060.44197,0.47631
1058.95219,0.53978
1057.46240,0.57715
1055.97261,0.61454
1054.48282,0.72506
1052.99303,0.81193
1051.50324,0.81621
1050.01345,0.78881
1048.52367,0.76985
1047.03388,0.76481
1045.54409,0.75979
1044.05430,0.75950
1042.56451,0.71518
1041.07472,0.67559
1039.58494,0.60588
1038.09515,0.54363
1036.60536,0.52085
1035.11557,0.49810
1033.62578,0.43201
1032.13599,0.37729
1030.64620,0.33709
1029.15642,0.27910
1027.66663,0.25705
1026.17684,0.23503
1024.68705,0.21861
1023.19726,0.19321
1021.70747,0.17116
1020.21769,0.14444
1018.72790,0.12009
1017.23811,0.12063
1015.74832,0.12119
1014.25853,0.10005
1012.76874,0.09987
1011.27896,0.10344
1009.78917,0.10782
1008.29938,0.07601
1006.80959,0.05988
1005.31980,0.04378
1003.83001,0.03944
1002.34022,0.02672
1000.85044,0.02400
999.36065,0.03481
997.87086,0.04115
996.38107,0.04750
994.89128,0.05545
993.40149,0.06989
991.91171,0.08337
990.42192,0.06849
988.93213,0.09356
987.44234,0.09674
985.95255,0.09994
984.46276,0.11628
982.97297,0.09937
981.48319,0.10950
979.99340,0.08559
978.50361,0.07599
977.01382,0.06642
975.52403,0.06920
974.03424,0.05263
972.54446,0.03843
971.05467,0.03405
969.56488,0.02479
968.07509,0.01498
966.58530,0.00518
965.09551,0.02516
963.60573,0.02912
962.11594,0.02370
960.62615,0.03944
959.13636,0.04131
957.64657,0.04321
956.15678,0.04219
954.66699,0.04571
953.17721,0.04122
951.68742,0.06239
950.19763,0.06059
948.70784,0.05882
947.21805,0.06539
945.72826,0.08588
944.23848,0.12147
942.74869,0.13809
941.25890,0.14104
939.76911,0.15106
938.27932,0.16110
936.78953,0.16314
935.29974,0.19164
933.80996,0.17474
932.32017,0.20406
930.83038,0.21041
929.34059,0.21678
927.85080,0.23972
926.36101,0.25798
924.87123,0.27979
923.38144,0.33589
921.89165,0.37448
920.40186,0.41310
918.91207,0.48650
917.42228,0.61766
915.93250,0.74121
914.44271,0.94270
912.95292,1.04721
911.46313,1.15175
909.97334,1.36075
908.48355,1.61812
906.99376,1.79859
905.50398,1.86554
904.01419,1.91667
902.52440,1.96782
901.03461,2.00000
899.54482,1.96722
898.05503,1.84187
896.56525,1.66996
895.07546,1.55827
893.58567,1.44660
892.09588,1.18139
890.60609,0.93676
889.11630,0.70056
887.62651,0.49239
886.13673,0.41941
884.64694,0.34645
883.15715,0.25286
881.66736,0.18944
880.17757,0.14014
878.68778,0.12826
877.19800,0.11640
875.70821,0.08420
874.21842,0.06025
872.72863,0.03868
871.23884,0.03043
869.74905,0.02623
868.25927,0.02205
866.76948,0.02446
865.27969,0.02884
863.78990,0.01152
862.30011,0.03690
860.81032,0.03881
859.32053,0.04075
857.83075,0.05896
856.34096,0.08072
854.85117,0.08273
853.36138,0.08633
851.87159,0.08751
850.38180,0.08871
848.89202,0.11509
847.40223,0.11781
845.91244,0.13837
844.42265,0.15357
842.93286,0.16879
841.44307,0.16613
839.95329,0.17817
838.46350,0.18534
836.97371,0.19450
835.48392,0.19252
833.99413,0.19056
832.50434,0.22113
831.01455,0.20258
829.52477,0.18856
828.03498,0.17457
826.54519,0.15717
825.05540,0.13980
823.56561,0.13489
822.07582,0.11140
820.58604,0.10692
819.09625,0.09846
817.60646,0.09002
816.11667,0.08953
814.62688,0.08202
813.13709,0.08608
811.64730,0.09448
810.15752,0.08518
808.66773,0.07591
807.17794,0.09612
805.68815,0.11029
804.19836,0.11078
802.70857,0.10297
801.21879,0.09519
799.72900,0.10711
798.23921,0.08401
796.74942,0.07092
795.25963,0.07625
793.76984,0.08161
792.28006,0.08092
790.79027,0.09651
789.30048,0.11388
787.81069,0.13598
786.32090,0.15369
784.83111,0.17143
783.34132,0.18812
781.85154,0.22910
780.36175,0.27422
778.87196,0.27640
777.38217,0.27860
775.89238,0.29893
774.40259,0.31693
772.91281,0.30932
771.42302,0.29302
769.93323,0.27675
768.44344,0.25042
766.95365,0.22216
765.46386,0.19137
763.97407,0.15063
762.48429,0.13457
760.99450,0.11854
759.50471,0.12094
758.01492,0.09458
756.52513,0.07628
755.03534,0.07424
753.54556,0.07223
752.05577,0.05322
750.56598,0.05791
749.07619,0.03738
747.58640,0.02930
746.09661,0.02124
744.60683,0.02545
743.11704,0.01441
741.62725,0.00613
740.13746,0.01168
738.64767,0.01726
737.15788,0.01121
735.66809,0.01634
734.17831,0.01211
732.68852,0.01504
731.19873,0.01799
729.70894,0.00913
728.21915,0.00518
726.72936,0.00492
725.23958,0.00876
723.74979,0.01371
722.26000,0.01867
720.77021,0.01084
719.28042,0.01380
717.79063,0.01248
716.30084,0.00746
714.81106,0.00247
713.32127,0.00386
711.83148,0.00606
710.34169,0.02178
708.85190,0.02608
707.36211,0.03040
705.87233,0.03211
704.38254,0.03266
702.89275,0.03638
701.40296,0.04324
699.91317,0.05014
698.42338,0.06214
696.93360,0.07515
695.44381,0.09425
693.95402,0.09723
692.46423,0.10023
690.97444,0.11197
689.48465,0.12725
687.99486,0.15352
686.50508,0.16993
685.01529,0.18636
683.52550,0.21799
682.03571,0.25454
680.54592,0.26606
679.05613,0.26262
677.56635,0.25921
676.07656,0.25788
674.58677,0.26792
673.09698,0.24198
671.60719,0.23220
670.11740,0.22246
668.62761,0.17681
667.13783,0.15820
665.64804,0.14833
664.15825,0.13848
662.66846,0.11329
661.17867,0.08461
659.68888,0.07297
658.19910,0.06342
656.70931,0.05389
655.21952,0.02686
653.72973,0.02844
652.23994,0.03298
650.75015,0.04156
649.26037,0.05016
647.77058,0.05751
646.28079,0.04120
644.79100,0.03803
643.30121,0.03283
641.81142,0.02766
640.32163,0.00518
638.83185,0.02534
637.34206,0.02359
635.85227,0.02138
634.36248,0.01919
632.87269,0.00518
631.38290,0.01437
629.89312,0.02240
628.40333,0.02390
626.91354,0.02543
625.42375,0.02825
623.93396,0.01759
622.44417,0.02173
620.95438,0.02590
619.46460,0.04565
617.97481,0.06485
616.48502,0.08582
614.99523,0.09430
613.50544,0.10279
612.01565,0.12326
610.52587,0.13454
609.03608,0.18481
607.54629,0.19536
606.05650,0.20594
604.56671,0.22985
603.07692,0.28354
601.58714,0.32825
600.09735,0.37299
598.60756,0.40855
597.11777,0.41986
595.62798,0.41690
594.13819,0.40487
592.64840,0.39286
591.15862,0.35983
589.66883,0.31959
588.17904,0.27114
586.68925,0.23437
585.19946,0.19763
583.70967,0.13947
582.21989,0.12851
580.73010,0.09321
579.24031,0.05793
577.75052,0.05996
576.26073,0.07788
574.77094,0.04864
573.28115,0.03548
571.79137,0.02234
570.30158,0.02529
568.81179,0.03999
567.32200,0.04954
565.83221,0.05911
564.34242,0.06626
562.85264,0.09085
561.36285,0.11215
559.87306,0.11966
558.38327,0.12720
556.89348,0.13134
555.40369,0.13942
553.91391,0.13910
552.42412,0.13881
550.93433,0.16164
549.44454,0.14613
547.95475,0.17449
546.46496,0.17625
544.97517,0.17804
543.48539,0.20765
541.99560,0.19050
540.50581,0.21869
539.01602,0.24690
537.52623,0.26330
536.03644,0.30830
534.54666,0.35998
533.05687,0.37136
531.56708,0.38276
530.07729,0.44273
528.58750,0.51369
527.09771,0.55209
525.60792,0.59050
524.11814,0.65371
522.62835,0.66702
521.13856,0.69738
519.64877,0.74050
518.15898,0.78364
516.66919,0.80409
515.17941,0.77270
513.68962,0.77461
512.19983,0.77654
510.71004,0.75344
509.22025,0.72312
507.73046,0.67501
506.24068,0.63016
504.75089,0.58533
503.26110,0.43825
501.77131,0.34130
500.28152,0.29948
498.79173,0.25769
497.30194,0.21621
495.81216,0.15029
494.32237,0.13441
492.83258,0.11855
491.34279,0.08852
489.85300,0.07536
488.36321,0.07083
486.87343,0.05986
485.38364,0.04892
483.89385,0.08655
482.40406,0.06803
480.91427,0.07302
479.42448,0.07803
477.93469,0.10127
476.44491,0.11025
474.95512,0.11817
473.46533,0.12612
471.97554,0.12147
470.48575,0.11371
468.99596,0.13299
467.50618,0.13232
466.01639,0.13168
464.52660,0.09348
463.03681,0.07468
461.54702,0.06257
460.05723,0.05047
458.56745,0.03801
457.07766,0.03380
455.58787,0.02550
454.09808,0.01723
452.60829,0.05693
451.11850,0.03148
449.62871,0.02112
448.13893,0.01079
446.64914,0.00518
445.15935,0.01157
443.66956,0.01857
442.17977,0.02100
440.68998,0.02345
439.20020,0.02622
437.71041,0.03919
436.22062,0.03926
434.73083,0.03936
433.24104,0.01835
431.75125,0.00518
430.26146,0.01195
428.77168,0.01874
427.28189,0.03613
425.79210,0.03866
424.30231,0.03574
422.81252,0.03284
421.32273,0.02820
419.83295,0.02868
418.34316,0.02771
416.85337,0.02677
415.36358,0.03359
413.87379,0.03122
412.38400,0.02595
410.89422,0.02070
409.40443,0.03114
407.91464,0.05139
406.42485,0.02057
404.93506,0.02520
403.44527,0.02986
401.95548,0.00518
400.46570,0.02403
398.97591,0.03008
397.48612,0.03615
395.99633,0.03921
394.50654,0.04229
393.01675,0.03190
391.52697,0.02152
390.03718,0.02840
388.54739,0.00907
387.05760,0.01128
385.56781,0.01350
384.07802,0.00518
382.58824,0.00668
381.09845,0.01134
379.60866,0.01602
378.11887,0.02210
376.62908,0.02370
375.13929,0.01289
373.64950,0.00210
372.15972,0.02315
370.66993,0.03131
369.18014,0.01845
367.69035,0.00561
366.20056,0.02773
364.71077,0.04597
363.22099,0.04436
361.73120,0.04278
360.24141,0.03055
358.75162,0.04399
357.26183,0.03817
355.77204,0.03238
354.28225,0.04158
352.79247,0.04748
351.30268,0.05713
349.81289,0.06680
348.32310,0.04146
346.83331,0.02005
345.34352,0.02059
343.85374,0.02116
342.36395,0.01706
340.87416,0.00632
339.38437,0.00833
337.89458,0.01036
336.40479,0.02456
334.91501,0.00296
333.42522,0.01177
331.93543,0.02060
330.44564,0.01096
328.95585,0.01035
327.46606,0.00780
325.97627,0.00528
324.48649,0.00553
322.99670,0.01950
321.50691,0.02234
320.01712,0.02520
318.52733,0.04237
317.03754,0.05997
315.54776,0.05820
314.05797,0.05647
312.56818,0.06493
311.07839,0.07518
309.58860,0.06696
308.09881,0.05876
306.60902,0.01799
305.11924,0.03421
303.62945,0.02384
302.13966,0.01348
300.64987,0.00883
299.16008,0.00518
