1778.52000,0.02322
1777.03021,0.02603
1775.54042,0.02342
1774.05063,0.01910
1772.56085,0.01134
1771.07106,0.02339
1769.58127,0.02830
1768.09148,0.01863
1766.60169,0.01518
1765.11190,0.02411
1763.62212,0.02368
1762.13233,0.01411
1760.64254,0.01594
1759.15275,0.02176
1757.66296,0.00707
1756.17317,0.01244
1754.68339,0.01610
1753.19360,0.00000
1751.70381,0.01262
1750.21402,0.01611
1748.72423,0.01418
1747.23444,0.01277
1745.74465,0.01930
1744.25487,0.01423
1742.76508,0.00992
1741.27529,0.01307
1739.78550,0.01153
1738.29571,0.00705
1736.80592,0.01397
1735.31614,0.00707
1733.82635,0.00795
1732.33656,0.00366
1730.84677,0.01424
1729.35698,0.00901
1727.86719,0.00751
1726.37740,0.00827
1724.88762,0.00707
1723.39783,0.01649
1721.90804,0.01432
1720.41825,0.01909
1718.92846,0.01325
1717.43867,0.01758
1715.94889,0.01278
1714.45910,0.01543
1712.96931,0.01810
1711.47952,0.01609
1709.98973,0.01831
1708.49994,0.01289
1707.01016,0.00997
1705.52037,0.00707
1704.03058,0.02150
1702.54079,0.02160
1701.05100,0.02866
1699.56121,0.03154
1698.07142,0.02875
1696.58164,0.02375
1695.09185,0.02992
1693.60206,0.03685
1692.11227,0.04207
1690.62248,0.03643
1689.13269,0.03502
1687.64291,0.04923
1686.15312,0.05059
1684.66333,0.05494
1683.17354,0.05141
1681.68375,0.05284
1680.19396,0.06494
1678.70417,0.06321
1677.21439,0.06496
1675.72460,0.06402
1674.23481,0.07225
1672.74502,0.06320
1671.25523,0.07148
1669.76544,0.08251
1668.27566,0.08490
1666.78587,0.09079
1665.29608,0.09595
1663.80629,0.10164
1662.31650,0.11675
1660.82671,0.11085
1659.33693,0.12106
1657.84714,0.11571
1656.35735,0.11112
1654.86756,0.10137
1653.37777,0.09831
1651.88798,0.10642
1650.39819,0.11480
1648.90841,0.10118
1647.41862,0.10193
1645.92883,0.10011
1644.43904,0.09832
1642.94925,0.09939
1641.45946,0.09926
1639.96968,0.08900
1638.47989,0.09782
1636.99010,0.10344
1635.50031,0.08930
1634.01052,0.08062
1632.52073,0.08236
1631.03094,0.08858
1629.54116,0.09012
1628.05137,0.08872
1626.56158,0.09724
1625.07179,0.10281
1623.58200,0.10173
1622.09221,0.10933
1620.60243,0.11522
1619.11264,0.10060
1617.62285,0.10629
1616.13306,0.09346
1614.64327,0.10266
1613.15348,0.08938
1611.66370,0.10754
1610.17391,0.10222
1608.68412,0.10410
1607.19433,0.10081
1605.70454,0.09804
1604.21475,0.09220
1602.72496,0.08638
1601.23518,0.09680
1599.74539,0.09882
1598.25560,0.08751
1596.76581,0.09849
1595.27602,0.09936
1593.78623,0.08342
1592.29645,0.09175
1590.80666,0.08749
1589.31687,0.09142
1587.82708,0.08448
1586.33729,0.08623
1584.84750,0.07267
1583.35771,0.07298
1581.86793,0.08297
1580.37814,0.07170
1578.88835,0.08347
1577.39856,0.07027
1575.90877,0.07912
1574.41898,0.06622
1572.92920,0.05705
1571.43941,0.05286
1569.94962,0.04696
1568.45983,0.04108
1566.97004,0.04661
1565.48025,0.04696
1563.99047,0.04957
1562.50068,0.04775
1561.01089,0.04769
1559.52110,0.04616
1558.03131,0.04293
1556.54152,0.03898
1555.05173,0.03901
1553.56195,0.05020
1552.07216,0.04261
1550.58237,0.03084
1549.09258,0.01241
1547.60279,0.01826
1546.11300,0.02536
1544.62322,0.01690
1543.13343,0.01317
1541.64364,0.00996
1540.15385,0.00850
1538.66406,0.00707
1537.17427,0.01603
1535.68448,0.01413
1534.19470,0.00904
1532.70491,0.01263
1531.21512,0.02812
1529.72533,0.01197
1528.23554,0.01588
1526.74575,0.01190
1525.25597,0.02402
1523.76618,0.02355
1522.27639,0.04216
1520.78660,0.03258
1519.29681,0.03961
1517.80702,0.04839
1516.31724,0.03815
1514.82745,0.04302
1513.33766,0.04680
1511.84787,0.05061
1510.35808,0.02958
1508.86829,0.04716
1507.37850,0.04523
1505.88872,0.03936
1504.39893,0.05331
1502.90914,0.04081
1501.41935,0.06124
1499.92956,0.08392
1498.43977,0.07867
1496.94999,0.06231
1495.46020,0.08061
1493.97041,0.06924
1492.48062,0.09031
1490.99083,0.08963
1489.50104,0.09987
1488.01125,0.10975
1486.52147,0.11966
1485.03168,0.12898
1483.54189,0.15465
1482.05210,0.18776
1480.56231,0.18058
1479.07252,0.20854
1477.58274,0.21303
1476.09295,0.22423
1474.60316,0.21961
1473.11337,0.22318
1471.62358,0.24608
1470.13379,0.24920
1468.64401,0.25062
1467.15422,0.26913
1465.66443,0.27493
1464.17464,0.28075
1462.68485,0.32408
1461.19506,0.37386
1459.70527,0.43283
1458.21549,0.45891
1456.72570,0.53400
1455.23591,0.59675
1453.74612,0.61969
1452.25633,0.63399
1450.76654,0.66217
1449.27676,0.70077
1447.78697,0.68595
1446.29718,0.66027
1444.80739,0.64290
1443.31760,0.62556
1441.82781,0.58337
1440.33802,0.55086
1438.84824,0.53594
1437.35845,0.49803
1435.86866,0.49083
1434.37887,0.49627
1432.88908,0.49827
1431.39929,0.54087
1429.90951,0.62085
1428.41972,0.68676
1426.92993,0.74700
1425.44014,0.80281
1423.95035,0.82264
1422.46056,0.84250
1420.97078,0.89319
1419.48099,0.88279
1417.99120,0.86499
1416.50141,0.86949
1415.01162,0.84011
1413.52183,0.81075
1412.03204,0.71536
1410.54226,0.68680
1409.05247,0.61942
1407.56268,0.59140
1406.07289,0.56390
1404.58310,0.52541
1403.09331,0.48695
1401.60353,0.43453
1400.11374,0.38411
1398.62395,0.34684
1397.13416,0.29449
1395.64437,0.24861
1394.15458,0.19458
1392.66479,0.17645
1391.17501,0.15265
1389.68522,0.12542
1388.19543,0.08955
1386.70564,0.08241
1385.21585,0.07529
1383.72606,0.05879
1382.23628,0.04751
1380.74649,0.03428
1379.25670,0.01686
1377.76691,0.01060
1376.27712,0.01575
1374.78733,0.01870
1373.29755,0.01375
1371.80776,0.00734
1370.31797,0.00665
1368.82818,0.00685
1367.33839,0.00707
1365.84860,0.03259
1364.35881,0.03018
1362.86903,0.04660
1361.37924,0.07046
1359.88945,0.08446
1358.39966,0.10812
1356.90987,0.12216
1355.42008,0.17309
1353.93030,0.22850
1352.44051,0.25956
1350.95072,0.29065
1349.46093,0.35157
1347.97114,0.40461
1346.48135,0.48240
1344.99156,0.56567
1343.50178,0.65143
1342.01199,0.65656
1340.52220,0.70649
1339.03241,0.75101
1337.54262,0.78467
1336.05283,0.80610
1334.56305,0.82755
1333.07326,0.84099
1331.58347,0.86534
1330.09368,0.84023
1328.60389,0.84311
1327.11410,0.79998
1325.62432,0.77816
1324.13453,0.75389
1322.64474,0.74301
1321.15495,0.72324
1319.66516,0.69558
1318.17537,0.66794
1316.68558,0.62178
1315.19580,0.55361
1313.70601,0.54064
1312.21622,0.47599
1310.72643,0.46406
1309.23664,0.40762
1307.74685,0.41207
1306.25707,0.38364
1304.76728,0.36785
1303.27749,0.35209
1301.78770,0.30195
1300.29791,0.24244
1298.80812,0.20374
1297.31834,0.18980
1295.82855,0.14942
1294.33876,0.12910
1292.84897,0.11350
1291.35918,0.11030
1289.86939,0.10156
1288.37960,0.09284
1286.88982,0.07882
1285.40003,0.08562
1283.91024,0.07017
1282.42045,0.05276
1280.93066,0.05690
1279.44087,0.05266
1277.95109,0.05215
1276.46130,0.04969
1274.97151,0.05158
1273.48172,0.05349
1271.99193,0.04541
1270.50214,0.05542
1269.01235,0.04912
1267.52257,0.03022
1266.03278,0.03486
1264.54299,0.03778
1263.05320,0.03752
1261.56341,0.02849
1260.07362,0.01949
1258.58384,0.02425
1257.09405,0.02531
1255.60426,0.01552
1254.11447,0.02505
1252.62468,0.02520
1251.13489,0.00707
1249.64511,0.03366
1248.15532,0.02762
1246.66553,0.02866
1245.17574,0.02971
1243.68595,0.01261
1242.19616,0.01508
1240.70637,0.00867
1239.21659,0.01390
1237.72680,0.03772
1236.23701,0.03336
1234.74722,0.02506
1233.25743,0.02372
1231.76764,0.02240
1230.27786,0.03174
1228.78807,0.02750
1227.29828,0.02823
1225.80849,0.02058
1224.31870,0.01839
1222.82891,0.00707
1221.33912,0.02690
1219.84934,0.02621
1218.35955,0.02555
1216.86976,0.03605
1215.37997,0.05053
1213.89018,0.05737
1212.40039,0.06670
1210.91061,0.07433
1209.42082,0.07604
1207.93103,0.06454
1206.44124,0.05307
1204.95145,0.07341
1203.46166,0.05122
1201.97188,0.05825
1200.48209,0.05566
1198.99230,0.06001
1197.50251,0.06885
1196.01272,0.03862
1194.52293,0.03822
1193.03314,0.03785
1191.54336,0.03317
1190.05357,0.02432
1188.56378,0.02414
1187.07399,0.00568
1185.58420,0.01942
1184.09441,0.01858
1182.60463,0.02320
1181.11484,0.02785
1179.62505,0.01966
1178.13526,0.02931
1176.64547,0.00707
1175.15568,0.01550
1173.66589,0.00936
1172.17611,0.00967
1170.68632,0.01186
1169.19653,0.01408
1167.70674,0.01472
1166.21695,0.01092
1164.72716,0.02620
1163.23738,0.01974
1161.74759,0.03531
1160.25780,0.04424
1158.76801,0.03673
1157.27822,0.02924
1155.78843,0.06125
1154.29865,0.06556
1152.80886,0.06694
1151.31907,0.08392
1149.82928,0.08658
1148.33949,0.09347
1146.84970,0.09691
1145.35991,0.10039
1143.87013,0.09671
1142.38034,0.14551
1140.89055,0.15128
1139.40076,0.15807
1137.91097,0.16859
1136.42118,0.17196
1134.93140,0.17968
1133.44161,0.18743
1131.95182,0.20721
1130.46203,0.22552
1128.97224,0.22876
1127.48245,0.23178
1125.99266,0.22370
1124.50288,0.22009
1123.01309,0.22974
1121.52330,0.23941
1120.03351,0.22499
1118.54372,0.22321
1117.05393,0.22219
1115.56415,0.21700
1114.07436,0.22939
1112.58457,0.23006
1111.09478,0.23075
1109.60499,0.23579
1108.11520,0.21364
1106.62542,0.22072
1105.13563,0.21643
1103.64584,0.21217
1102.15605,0.22402
1100.66626,0.22228
1099.17647,0.22057
1097.68668,0.19240
1096.19690,0.17292
1094.70711,0.18835
1093.21732,0.19886
1091.72753,0.19084
1090.23774,0.18605
1088.74795,0.18129
1087.25817,0.17087
1085.76838,0.16343
1084.27859,0.16543
1082.78880,0.14913
1081.29901,0.16330
1079.80922,0.16264
1078.31943,0.16350
1076.82965,0.16437
1075.33986,0.14870
1073.85007,0.14888
1072.36028,0.15701
1070.87049,0.18965
1069.38070,0.22900
1067.89092,0.23744
1066.40113,0.24591
1064.91134,0.30389
1063.42155,0.34358
1061.93176,0.43328
1060.44197,0.50889
1058.95219,0.55979
1057.46240,0.60960
1055.97261,0.65943
1054.48282,0.76063
1052.99303,0.83365
1051.50324,0.81069
1050.01345,0.80780
1048.52367,0.79083
1047.03388,0.78464
1045.54409,0.77848
1044.05430,0.74996
1042.56451,0.69745
1041.07472,0.66922
1039.58494,0.62295
1038.09515,0.56582
1036.60536,0.54360
1035.11557,0.52141
1033.62578,0.47697
1032.13599,0.40756
1030.64620,0.36070
1029.15642,0.29332
1027.66663,0.27546
1026.17684,0.25761
1024.68705,0.22470
1023.19726,0.19577
1021.70747,0.16414
1020.21769,0.14021
1018.72790,0.13807
1017.23811,0.13683
1015.74832,0.13561
1014.25853,0.10930
1012.76874,0.10404
1011.27896,0.12405
1009.78917,0.12626
1008.29938,0.10896
1006.80959,0.08821
1005.31980,0.06749
1003.83001,0.04036
1002.34022,0.04047
1000.85044,0.03120
999.36065,0.04076
997.87086,0.04392
996.38107,0.04709
994.89128,0.04114
993.40149,0.04634
991.91171,0.06369
990.42192,0.07365
988.93213,0.09946
987.44234,0.10216
985.95255,0.10489
984.46276,0.10430
982.97297,0.09038
981.48319,0.09083
979.99340,0.07497
978.50361,0.06545
977.01382,0.05595
975.52403,0.05007
974.03424,0.03183
972.54446,0.01585
971.05467,0.01845
969.56488,0.00722
968.07509,0.00929
966.58530,0.01138
965.09551,0.00707
963.60573,0.00999
962.11594,0.03000
960.62615,0.03297
959.13636,0.03287
957.64657,0.03279
956.15678,0.04796
954.66699,0.04335
953.17721,0.03951
951.68742,0.03768
950.19763,0.05034
948.70784,0.06303
947.21805,0.07537
945.72826,0.08724
944.23848,0.09616
942.74869,0.11798
941.25890,0.13685
939.76911,0.14214
938.27932,0.14745
936.78953,0.17678
935.29974,0.17224
933.80996,0.19495
932.32017,0.19739
930.83038,0.20257
929.34059,0.20778
927.85080,0.23404
926.36101,0.26578
924.87123,0.28467
923.38144,0.34292
921.89165,0.38462
920.40186,0.42634
918.91207,0.50149
917.42228,0.60611
915.93250,0.75455
914.44271,0.95001
912.95292,1.06782
911.46313,1.18564
909.97334,1.41013
908.48355,1.66285
906.99376,1.79312
905.50398,1.91624
904.01419,1.95811
902.52440,2.00000
901.03461,1.99850
899.54482,1.94901
898.05503,1.86987
896.56525,1.71430
895.07546,1.59772
893.58567,1.48116
892.09588,1.19403
890.60609,0.94800
889.11630,0.70299
887.62651,0.52009
886.13673,0.45314
884.64694,0.38621
883.15715,0.27737
881.66736,0.23239
880.17757,0.14933
878.68778,0.14782
877.19800,0.14633
875.70821,0.08883
874.21842,0.05955
872.72863,0.04564
871.23884,0.02532
869.74905,0.02532
868.25927,0.02533
866.76948,0.02463
865.27969,0.02940
863.78990,0.01316
862.30011,0.02763
860.81032,0.04373
859.32053,0.05985
857.83075,0.06152
856.34096,0.07484
854.85117,0.08918
853.36138,0.09736
851.87159,0.10086
850.38180,0.10439
848.89202,0.11387
847.40223,0.12537
845.91244,0.14084
844.42265,0.14953
842.93286,0.15825
841.44307,0.16984
839.95329,0.19457
838.46350,0.20521
836.97371,0.20327
835.48392,0.20431
833.99413,0.20538
832.50434,0.21984
831.01455,0.19424
829.52477,0.19835
828.03498,0.18640
826.54519,0.16149
825.05540,0.13661
823.56561,0.12226
822.07582,0.10200
820.58604,0.11863
819.09625,0.11103
817.60646,0.10346
816.11667,0.08676
814.62688,0.07232
813.13709,0.08412
811.64730,0.08258
810.15752,0.08887
808.66773,0.09517
807.17794,0.10410
805.68815,0.11677
804.19836,0.10843
802.70857,0.10159
801.21879,0.09479
799.72900,0.08206
798.23921,0.09386
796.74942,0.07426
795.25963,0.08474
793.76984,0.09525
792.28006,0.08760
790.79027,0.10249
789.30048,0.12804
787.81069,0.14941
786.32090,0.16177
784.83111,0.17415
783.34132,0.19312
781.85154,0.22819
780.36175,0.27517
778.87196,0.28295
777.38217,0.29076
775.89238,0.32716
774.40259,0.33687
772.91281,0.32978
771.42302,0.32024
769.93323,0.31073
768.44344,0.30025
766.95365,0.25862
765.46386,0.24497
763.97407,0.21056
762.48429,0.19016
760.99450,0.16978
759.50471,0.14361
758.01492,0.10756
756.52513,0.08812
755.03534,0.08862
753.54556,0.08915
752.05577,0.08190
750.56598,0.05637
749.07619,0.03829
747.58640,0.04027
746.09661,0.04228
744.60683,0.03714
743.11704,0.02286
741.62725,0.02073
740.13746,0.02148
738.64767,0.02224
737.15788,0.01277
735.66809,0.01024
734.17831,0.01220
732.68852,0.01355
731.19873,0.01494
729.70894,0.00707
728.21915,0.01949
726.72936,0.02353
725.23958,0.01027
723.74979,0.02162
722.26000,0.03299
720.77021,0.01396
719.28042,0.00707
717.79063,0.00720
716.30084,0.01391
714.81106,0.02065
713.32127,0.01343
711.83148,0.00970
710.34169,0.03198
708.85190,0.03337
707.36211,0.03478
705.87233,0.04179
704.38254,0.04981
702.89275,0.06082
701.40296,0.05170
699.91317,0.04259
698.42338,0.04799
696.93360,0.07394
695.44381,0.10537
693.95402,0.11059
692.46423,0.11583
690.97444,0.11121
689.48465,0.15510
687.99486,0.17675
686.50508,0.18172
685.01529,0.18671
683.52550,0.23689
682.03571,0.24205
680.54592,0.26011
679.05613,0.25308
677.56635,0.24607
676.07656,0.26544
674.58677,0.26504
673.09698,0.24165
671.60719,0.23573
670.11740,0.22984
668.62761,0.17559
667.13783,0.16195
665.64804,0.15081
664.15825,0.13969
662.66846,0.10435
661.17867,0.08660
659.68888,0.06492
658.19910,0.05971
656.70931,0.05453
655.21952,0.04454
653.72973,0.03558
652.23994,0.05756
650.75015,0.06027
649.26037,0.06300
647.77058,0.04992
646.28079,0.05814
644.79100,0.02953
643.30121,0.03768
641.81142,0.04585
640.32163,0.02126
638.83185,0.04099
637.34206,0.02338
635.85227,0.02089
634.36248,0.01842
632.87269,0.00707
631.38290,0.01034
629.89312,0.02304
628.40333,0.02055
626.91354,0.01808
625.42375,0.00809
623.93396,0.01050
622.44417,0.01577
620.95438,0.02107
619.46460,0.04260
617.97481,0.03793
616.48502,0.07954
614.99523,0.07987
613.50544,0.08022
612.01565,0.10805
610.52587,0.17500
609.03608,0.18780
607.54629,0.19344
606.05650,0.19910
604.56671,0.24636
603.07692,0.30823
601.58714,0.34651
600.09735,0.38480
598.60756,0.41137
597.11777,0.40679
595.62798,0.40496
594.13819,0.40327
592.64840,0.40161
591.15862,0.37139
589.66883,0.31844
588.17904,0.26996
586.68925,0.23920
585.19946,0.20847
583.70967,0.16773
582.21989,0.14880
580.73010,0.12147
579.24031,0.09417
577.75052,0.08372
576.26073,0.07132
574.77094,0.06413
573.28115,0.05623
571.79137,0.04835
570.30158,0.04618
568.81179,0.06161
567.32200,0.06395
565.83221,0.06631
564.34242,0.07958
562.85264,0.09461
561.36285,0.12426
559.87306,0.11979
558.38327,0.11534
556.89348,0.11315
555.40369,0.10850
553.91391,0.12912
552.42412,0.14976
550.93433,0.14816
549.44454,0.16811
547.95475,0.19451
546.46496,0.18346
544.97517,0.17243
543.48539,0.20830
541.99560,0.19695
540.50581,0.22607
539.01602,0.25522
537.52623,0.27685
536.03644,0.32448
534.54666,0.36298
533.05687,0.38257
531.56708,0.40219
530.07729,0.44522
528.58750,0.50088
527.09771,0.54309
525.60792,0.58532
524.11814,0.64378
522.62835,0.68025
521.13856,0.73257
519.64877,0.74410
518.15898,0.75565
516.66919,0.79172
515.17941,0.76645
513.68962,0.77510
512.19983,0.78378
510.71004,0.81228
509.22025,0.75939
507.73046,0.69070
506.24068,0.63614
504.75089,0.58160
503.26110,0.46498
501.77131,0.33849
500.28152,0.30147
498.79173,0.26447
497.30194,0.21178
495.81216,0.18411
494.32237,0.15757
492.83258,0.13106
491.34279,0.10396
489.85300,0.09345
488.36321,0.06788
486.87343,0.06633
485.38364,0.06480
483.89385,0.06924
482.40406,0.09275
480.91427,0.09823
479.42448,0.10373
477.93469,0.10208
476.44491,0.11975
474.95512,0.12532
473.46533,0.13092
471.97554,0.13852
470.48575,0.14466
468.99596,0.14563
467.50618,0.13697
466.01639,0.12834
464.52660,0.11429
463.03681,0.09358
461.54702,0.09022
460.05723,0.08688
458.56745,0.05585
457.07766,0.03599
455.58787,0.04336
454.09808,0.05075
452.60829,0.05125
451.11850,0.01490
449.62871,0.01940
448.13893,0.02392
446.64914,0.02427
445.15935,0.00707
443.66956,0.04270
442.17977,0.04223
440.68998,0.04179
439.20020,0.04137
437.71041,0.05483
436.22062,0.04382
434.73083,0.03283
433.24104,0.05082
431.75125,0.04211
430.26146,0.04072
428.77168,0.03936
427.28189,0.04309
425.79210,0.03744
424.30231,0.03838
422.81252,0.03934
421.32273,0.05109
419.83295,0.04010
418.34316,0.03841
416.85337,0.03675
415.36358,0.02063
413.87379,0.02137
412.38400,0.02002
410.89422,0.01870
409.40443,0.03807
407.91464,0.03643
406.42485,0.02071
404.93506,0.01800
403.44527,0.01532
401.95548,0.02070
400.46570,0.04664
398.97591,0.04886
397.48612,0.05109
395.99633,0.04668
394.50654,0.03635
393.01675,0.03185
391.52697,0.02739
390.03718,0.02529
388.54739,0.02058
387.05760,0.02380
385.56781,0.02705
384.07802,0.00707
382.58824,0.00903
381.09845,0.00866
379.60866,0.00832
378.11887,0.03385
376.62908,0.02651
375.13929,0.01424
373.64950,0.00199
372.15972,0.00140
370.66993,0.02631
369.18014,0.02035
367.69035,0.01440
366.20056,0.02011
364.71077,0.03104
363.22099,0.02183
361.73120,0.01265
360.24141,0.01920
358.75162,0.05719
357.26183,0.04263
355.77204,0.02810
354.28225,0.03351
352.79247,0.02583
351.30268,0.02436
349.81289,0.02292
348.32310,0.02743
346.83331,0.02554
345.34352,0.02330
343.85374,0.02109
342.36395,0.03461
340.87416,0.01920
339.38437,0.02300
337.89458,0.02682
336.40479,0.05182
334.91501,0.02340
333.42522,0.03199
331.93543,0.04061
330.44564,0.00707
328.95585,0.01716
327.46606,0.02158
325.97627,0.02603
324.48649,0.01636
322.99670,0.04134
321.50691,0.02713
320.01712,0.01295
318.52733,0.04765
317.03754,0.05714
315.54776,0.05144
314.05797,0.04577
312.56818,0.07266
311.07839,0.08027
309.58860,0.07095
308.09881,0.06166
306.60902,0.06663
305.11924,0.02510
303.62945,0.01699
302.13966,0.00707
300.64987,0.01534
299.16008,0.00707
