1778.52000,0.01239
1777.03021,0.00374
1775.54042,0.01207
1774.05063,0.01410
1772.56085,0.01388
1771.07106,0.02204
1769.58127,0.01325
1768.09148,0.00601
1766.60169,0.00665
1765.11190,0.01085
1763.62212,0.01711
1762.13233,0.01604
1760.64254,0.01905
1759.15275,0.02006
1757.66296,0.01806
1756.17317,0.00494
1754.68339,0.01666
1753.19360,0.01042
1751.70381,0.00472
1750.21402,0.00841
1748.72423,0.00857
1747.23444,0.01155
1745.74465,0.01506
1744.25487,0.02113
1742.76508,0.00722
1741.27529,0.01308
1739.78550,0.01238
1738.29571,0.00665
1736.80592,0.01485
1735.31614,0.01624
1733.82635,0.01512
1732.33656,0.00719
1730.84677,0.01549
1729.35698,0.00786
1727.86719,0.00000
1726.37740,0.00964
1724.88762,0.00766
1723.39783,0.01481
1721.90804,0.00958
1720.41825,0.01223
1718.92846,0.02351
1717.43867,0.01330
1715.94889,0.00665
1714.45910,0.01775
1712.96931,0.00837
1711.47952,0.01218
1709.98973,0.01525
1708.49994,0.00595
1707.01016,0.00628
1705.52037,0.00665
1704.03058,0.01600
1702.54079,0.01626
1701.05100,0.02135
1699.56121,0.02622
1698.07142,0.02832
1696.58164,0.02184
1695.09185,0.02881
1693.60206,0.03251
1692.11227,0.01850
1690.62248,0.03719
1689.13269,0.02805
1687.64291,0.03919
1686.15312,0.02528
1684.66333,0.03976
1683.17354,0.05452
1681.68375,0.05487
1680.19396,0.04664
1678.70417,0.05590
1677.21439,0.05835
1675.72460,0.06031
1674.23481,0.06079
1672.74502,0.06660
1671.25523,0.06965
1669.76544,0.06716
1668.27566,0.07862
1666.78587,0.08453
1665.29608,0.08591
1663.80629,0.09466
1662.31650,0.10014
1660.82671,0.10742
1659.33693,0.10839
1657.84714,0.09444
1656.35735,0.08989
1654.86756,0.08460
1653.37777,0.10011
1651.88798,0.09690
1650.39819,0.08409
1648.90841,0.10093
1647.41862,0.09374
1645.92883,0.09519
1644.43904,0.09666
1642.94925,0.09688
1641.45946,0.09688
1639.96968,0.08703
1638.47989,0.08986
1636.99010,0.09019
1635.50031,0.08472
1634.01052,0.06838
1632.52073,0.08169
1631.03094,0.08364
1629.54116,0.09118
1628.05137,0.08152
1626.56158,0.09443
1625.07179,0.10002
1623.58200,0.09879
1622.09221,0.09987
1620.60243,0.10072
1619.11264,0.11248
1617.62285,0.10072
1616.13306,0.09810
1614.64327,0.08816
1613.15348,0.10204
1611.66370,0.09646
1610.17391,0.09444
1608.68412,0.09928
1607.19433,0.10441
1605.70454,0.08322
1604.21475,0.08218
1602.72496,0.08118
1601.23518,0.09298
1599.74539,0.08025
1598.25560,0.08146
1596.76581,0.07562
1595.27602,0.07992
1593.78623,0.07691
1592.29645,0.07645
1590.80666,0.07880
1589.31687,0.08372
1587.82708,0.06738
1586.33729,0.08779
1584.84750,0.07200
1583.35771,0.08081
1581.86793,0.08179
1580.37814,0.07394
1578.88835,0.07142
1577.39856,0.09932
1575.90877,0.06014
1574.41898,0.05238
1572.92920,0.04008
1571.43941,0.06707
1569.94962,0.05444
1568.45983,0.04185
1566.97004,0.04409
1565.48025,0.03343
1563.99047,0.02863
1562.50068,0.03753
1561.01089,0.03962
1559.52110,0.03540
1558.03131,0.03702
1556.54152,0.02424
1555.05173,0.04111
1553.56195,0.03116
1552.07216,0.02504
1550.58237,0.00527
1549.09258,0.00729
1547.60279,0.00808
1546.11300,0.00180
1544.62322,0.01302
1543.13343,0.00400
1541.64364,0.00717
1540.15385,0.00618
1538.66406,0.00521
1537.17427,0.00794
1535.68448,0.00665
1534.19470,0.00737
1532.70491,0.00822
1531.21512,0.00909
1529.72533,0.00795
1528.23554,0.01444
1526.74575,0.02121
1525.25597,0.03459
1523.76618,0.02292
1522.27639,0.02874
1520.78660,0.02852
1519.29681,0.03566
1517.80702,0.03650
1516.31724,0.05610
1514.82745,0.04458
1513.33766,0.04080
1511.84787,0.03705
1510.35808,0.04029
1508.86829,0.04963
1507.37850,0.03925
1505.88872,0.04230
1504.39893,0.04716
1502.90914,0.06318
1501.41935,0.05290
1499.92956,0.06821
1498.43977,0.08203
1496.94999,0.06067
1495.46020,0.07327
1493.97041,0.08691
1492.48062,0.09297
1490.99083,0.09273
1489.50104,0.13076
1488.01125,0.12195
1486.52147,0.11318
1485.03168,0.13329
1483.54189,0.18002
1482.05210,0.19082
1480.56231,0.21025
1479.07252,0.21299
1477.58274,0.23703
1476.09295,0.23146
1474.60316,0.23301
1473.11337,0.26751
1471.62358,0.25670
1470.13379,0.25224
1468.64401,0.27263
1467.15422,0.31963
1465.66443,0.31411
1464.17464,0.30861
1462.68485,0.33872
1461.19506,0.38354
1459.70527,0.45016
1458.21549,0.49528
1456.72570,0.55816
1455.23591,0.62586
1453.74612,0.99672
1452.25633,0.69729
1450.76654,0.71518
1449.27676,0.72095
1447.78697,0.70800
1446.29718,0.66418
1444.80739,0.65533
1443.31760,0.64650
1441.82781,0.60960
1440.33802,0.56866
1438.84824,0.54269
1437.35845,0.54409
1435.86866,0.49994
1434.37887,0.51152
1432.88908,0.54212
1431.39929,0.56565
1429.90951,0.66442
1428.41972,0.73713
1426.92993,0.79872
1425.44014,0.87198
1423.95035,0.88754
1422.46056,0.90311
1420.97078,0.92682
1419.48099,0.90927
1417.99120,0.91606
1416.50141,0.92413
1415.01162,0.88513
1413.52183,0.86009
1412.03204,0.76796
1410.54226,0.69839
1409.05247,0.66557
1407.56268,0.63302
1406.07289,0.60025
1404.58310,0.56674
1403.09331,0.53325
1401.60353,0.46484
1400.11374,0.41748
1398.62395,0.37850
1397.13416,0.31168
1395.64437,0.27984
1394.15458,0.22295
1392.66479,0.18584
1391.17501,0.16901
1389.68522,0.13651
1388.19543,0.10808
1386.70564,0.08943
1385.21585,0.07080
1383.72606,0.05966
1382.23628,0.03361
1380.74649,0.03468
1379.25670,0.02742
1377.76691,0.01841
1376.27712,0.00993
1374.78733,0.01059
1373.29755,0.00697
1371.80776,0.02161
1370.31797,0.00665
1368.82818,0.00820
1367.33839,0.00978
1365.84860,0.03456
1364.35881,0.02770
1362.86903,0.03530
1361.37924,0.06370
1359.88945,0.08351
1358.39966,0.10486
1356.90987,0.14219
1355.42008,0.18841
1353.93030,0.22832
1352.44051,0.26129
1350.95072,0.29429
1349.46093,0.36466
1347.97114,0.44114
1346.48135,0.53233
1344.99156,0.59796
1343.50178,0.63931
1342.01199,0.69740
1340.52220,0.75526
1339.03241,0.80808
1337.54262,0.84294
1336.05283,0.86226
1334.56305,0.88160
1333.07326,0.89729
1331.58347,0.88971
1330.09368,0.92267
1328.60389,0.89716
1327.11410,0.87167
1325.62432,0.83025
1324.13453,0.83419
1322.64474,0.80346
1321.15495,0.75959
1319.66516,0.73372
1318.17537,0.70787
1316.68558,0.67318
1315.19580,0.62080
1313.70601,0.56337
1312.21622,0.52369
1310.72643,0.47898
1309.23664,0.45429
1307.74685,0.41165
1306.25707,0.38879
1304.76728,0.37848
1303.27749,0.36820
1301.78770,0.30084
1300.29791,0.26466
1298.80812,0.19962
1297.31834,0.17488
1295.82855,0.15244
1294.33876,0.12496
1292.84897,0.10283
1291.35918,0.10401
1289.86939,0.09497
1288.37960,0.08594
1286.88982,0.08999
1285.40003,0.07177
1283.91024,0.05637
1282.42045,0.05669
1280.93066,0.05956
1279.44087,0.03942
1277.95109,0.04057
1276.46130,0.04656
1274.97151,0.04688
1273.48172,0.04722
1271.99193,0.03328
1270.50214,0.02974
1269.01235,0.01990
1267.52257,0.03389
1266.03278,0.00865
1264.54299,0.00698
1263.05320,0.01623
1261.56341,0.02411
1260.07362,0.03202
1258.58384,0.00665
1257.09405,0.00931
1255.60426,0.01579
1254.11447,0.02153
1252.62468,0.01490
1251.13489,0.01107
1249.64511,0.01866
1248.15532,0.01185
1246.66553,0.01860
1245.17574,0.02538
1243.68595,0.01661
1242.19616,0.01167
1240.70637,0.01966
1239.21659,0.01096
1237.72680,0.03572
1236.23701,0.03746
1234.74722,0.03491
1233.25743,0.02796
1231.76764,0.02103
1230.27786,0.02591
1228.78807,0.03587
1227.29828,0.04662
1225.80849,0.01611
1224.31870,0.00665
1222.82891,0.00827
1221.33912,0.01928
1219.84934,0.02804
1218.35955,0.03682
1216.86976,0.04031
1215.37997,0.04559
1213.89018,0.07547
1212.40039,0.09068
1210.91061,0.07882
1209.42082,0.07686
1207.93103,0.07860
1206.44124,0.08036
1204.95145,0.06328
1203.46166,0.05154
1201.97188,0.06009
1200.48209,0.04536
1198.99230,0.06864
1197.50251,0.07093
1196.01272,0.04463
1194.52293,0.03304
1193.03314,0.02147
1191.54336,0.01854
1190.05357,0.01133
1188.56378,0.01909
1187.07399,0.02104
1185.58420,0.02910
1184.09441,0.02046
1182.60463,0.01882
1181.11484,0.01720
1179.62505,0.01193
1178.13526,0.01707
1176.64547,0.00704
1175.15568,0.02160
1173.66589,0.01770
1172.17611,0.01914
1170.68632,0.01288
1169.19653,0.00665
1167.70674,0.01525
1166.21695,0.01756
1164.72716,0.03710
1163.23738,0.04426
1161.74759,0.03246
1160.25780,0.04271
1158.76801,0.05400
1157.27822,0.06531
1155.78843,0.08247
1154.29865,0.08522
1152.80886,0.08014
1151.31907,0.11738
1149.82928,0.11160
1148.33949,0.11242
1146.84970,0.11074
1145.35991,0.10908
1143.87013,0.13378
1142.38034,0.16154
1140.89055,0.16452
1139.40076,0.16751
1137.91097,0.16091
1136.42118,0.19434
1134.93140,0.20362
1133.44161,0.21292
1131.95182,0.21426
1130.46203,0.23919
1128.97224,0.25806
1127.48245,0.24226
1125.99266,0.22724
1124.50288,0.22517
1123.01309,0.22793
1121.52330,0.23071
1120.03351,0.23808
1118.54372,0.23914
1117.05393,0.25061
1115.56415,0.24159
1114.07436,0.26754
1112.58457,0.25832
1111.09478,0.24912
1109.60499,0.23564
1108.11520,0.22750
1106.62542,0.22319
1105.13563,0.24346
1103.64584,0.24123
1102.15605,0.24534
1100.66626,0.23087
1099.17647,0.21642
1097.68668,0.20188
1096.19690,0.18051
1094.70711,0.20501
1093.21732,0.19408
1091.72753,0.21281
1090.23774,0.19914
1088.74795,0.18550
1087.25817,0.16960
1085.76838,0.15955
1084.27859,0.18119
1082.78880,0.18030
1081.29901,0.16628
1079.80922,0.18798
1078.31943,0.18401
1076.82965,0.18006
1075.33986,0.16386
1073.85007,0.16743
1072.36028,0.15861
1070.87049,0.18452
1069.38070,0.25679
1067.89092,0.27730
1066.40113,0.29783
1064.91134,0.30965
1063.42155,0.36277
1061.93176,0.44023
1060.44197,0.50353
1058.95219,0.60054
1057.46240,0.63983
1055.97261,0.67915
1054.48282,0.79396
1052.99303,0.87967
1051.50324,0.84182
1050.01345,0.83464
1048.52367,0.84648
1047.03388,0.82391
1045.54409,0.80135
1044.05430,0.79832
1042.56451,0.72137
1041.07472,0.69991
1039.58494,0.66327
1038.09515,0.59805
1036.60536,0.56425
1035.11557,0.53047
1033.62578,0.47139
1032.13599,0.41589
1030.64620,0.34294
1029.15642,0.29026
1027.66663,0.26788
1026.17684,0.24552
1024.68705,0.21774
1023.19726,0.20417
1021.70747,0.16934
1020.21769,0.15227
1018.72790,0.12991
1017.23811,0.13796
1015.74832,0.14603
1014.25853,0.11285
1012.76874,0.10755
1011.27896,0.13140
1009.78917,0.12007
1008.29938,0.08978
1006.80959,0.08015
1005.31980,0.07054
1003.83001,0.04513
1002.34022,0.03519
1000.85044,0.04300
999.36065,0.03767
997.87086,0.04123
996.38107,0.04481
994.89128,0.05652
993.40149,0.05635
991.91171,0.07444
990.42192,0.06748
988.93213,0.08841
987.44234,0.10062
985.95255,0.11286
984.46276,0.10980
982.97297,0.11157
981.48319,0.09666
979.99340,0.06987
978.50361,0.06653
977.01382,0.06321
975.52403,0.04055
974.03424,0.03234
972.54446,0.04366
971.05467,0.02284
969.56488,0.00686
968.07509,0.01006
966.58530,0.01329
965.09551,0.00920
963.60573,0.00665
962.11594,0.02565
960.62615,0.02771
959.13636,0.02980
957.64657,0.03191
956.15678,0.03709
954.66699,0.05039
953.17721,0.05257
951.68742,0.05149
950.19763,0.05246
948.70784,0.05345
947.21805,0.08207
945.72826,0.09451
944.23848,0.10165
942.74869,0.14402
941.25890,0.15729
939.76911,0.15678
938.27932,0.15630
936.78953,0.18054
935.29974,0.17111
933.80996,0.20173
932.32017,0.19286
930.83038,0.20858
929.34059,0.22433
927.85080,0.23022
926.36101,0.26197
924.87123,0.28893
923.38144,0.34074
921.89165,0.37914
920.40186,0.41758
918.91207,0.48870
917.42228,0.61809
915.93250,0.74016
914.44271,0.97242
912.95292,1.08884
911.46313,1.20529
909.97334,1.43129
908.48355,1.62008
906.99376,1.77598
905.50398,1.93925
904.01419,1.96719
902.52440,1.99515
901.03461,1.99339
899.54482,2.00000
898.05503,1.87926
896.56525,1.72259
895.07546,1.59088
893.58567,1.45920
892.09588,1.20815
890.60609,0.94471
889.11630,0.69167
887.62651,0.51109
886.13673,0.44082
884.64694,0.37057
883.15715,0.26805
881.66736,0.20532
880.17757,0.16743
878.68778,0.13881
877.19800,0.11021
875.70821,0.08354
874.21842,0.06145
872.72863,0.03483
871.23884,0.02469
869.74905,0.02787
868.25927,0.03107
866.76948,0.01569
865.27969,0.01755
863.78990,0.01538
862.30011,0.03198
860.81032,0.03810
859.32053,0.04423
857.83075,0.06344
856.34096,0.09279
854.85117,0.07229
853.36138,0.09790
851.87159,0.09251
850.38180,0.08715
848.89202,0.11257
847.40223,0.14537
845.91244,0.16123
844.42265,0.16774
842.93286,0.17427
841.44307,0.17171
839.95329,0.18260
838.46350,0.20820
836.97371,0.19812
835.48392,0.20073
833.99413,0.20336
832.50434,0.23007
831.01455,0.19654
829.52477,0.19063
828.03498,0.17411
826.54519,0.16268
825.05540,0.15128
823.56561,0.13534
822.07582,0.10423
820.58604,0.13241
819.09625,0.11844
817.60646,0.10450
816.11667,0.09730
814.62688,0.09037
813.13709,0.09208
811.64730,0.09280
810.15752,0.10380
808.66773,0.11482
807.17794,0.11156
805.68815,0.12884
804.19836,0.11221
802.70857,0.11738
801.21879,0.12258
799.72900,0.09057
798.23921,0.09405
796.74942,0.07754
795.25963,0.08106
793.76984,0.08461
792.28006,0.08995
790.79027,0.09836
789.30048,0.11945
787.81069,0.14740
786.32090,0.16183
784.83111,0.17629
783.34132,0.23825
781.85154,0.23921
780.36175,0.28147
778.87196,0.29577
777.38217,0.31010
775.89238,0.31596
774.40259,0.34439
772.91281,0.30726
771.42302,0.31269
769.93323,0.31815
768.44344,0.28565
766.95365,0.26330
765.46386,0.23540
763.97407,0.17588
762.48429,0.15133
760.99450,0.12680
759.50471,0.12635
758.01492,0.11276
756.52513,0.09666
755.03534,0.08996
753.54556,0.08328
752.05577,0.05687
750.56598,0.05378
749.07619,0.04794
747.58640,0.04579
746.09661,0.04366
744.60683,0.02852
743.11704,0.04708
741.62725,0.01958
740.13746,0.01780
738.64767,0.01605
737.15788,0.01876
735.66809,0.01541
734.17831,0.01083
732.68852,0.01120
731.19873,0.01160
729.70894,0.00936
728.21915,0.00665
726.72936,0.02539
725.23958,0.01047
723.74979,0.01913
722.26000,0.02781
720.77021,0.02791
719.28042,0.02145
717.79063,0.00438
716.30084,0.00898
714.81106,0.01361
713.32127,0.02105
711.83148,0.01257
710.34169,0.03247
708.85190,0.03504
707.36211,0.03764
705.87233,0.03812
704.38254,0.05077
702.89275,0.04825
701.40296,0.04386
699.91317,0.03950
698.42338,0.06744
696.93360,0.07946
695.44381,0.10188
693.95402,0.11445
692.46423,0.12705
690.97444,0.11232
689.48465,0.15763
687.99486,0.18499
686.50508,0.19692
685.01529,0.20888
683.52550,0.23707
682.03571,0.28859
680.54592,0.28745
679.05613,0.27988
677.56635,0.27234
676.07656,0.28799
674.58677,0.29506
673.09698,0.27278
671.60719,0.25571
670.11740,0.23866
668.62761,0.18201
667.13783,0.16261
665.64804,0.15704
664.15825,0.15149
662.66846,0.13039
661.17867,0.09108
659.68888,0.06497
658.19910,0.05470
656.70931,0.04446
655.21952,0.05236
653.72973,0.04179
652.23994,0.05226
650.75015,0.04731
649.26037,0.04239
647.77058,0.04635
646.28079,0.05793
644.79100,0.03840
643.30121,0.03306
641.81142,0.02776
640.32163,0.03539
638.83185,0.02987
637.34206,0.05047
635.85227,0.02855
634.36248,0.00665
632.87269,0.01259
631.38290,0.01070
629.89312,0.02783
628.40333,0.02650
626.91354,0.02519
625.42375,0.01682
623.93396,0.00720
622.44417,0.01521
620.95438,0.02325
619.46460,0.04562
617.97481,0.06446
616.48502,0.07422
614.99523,0.08298
613.50544,0.09177
612.01565,0.11933
610.52587,0.14691
609.03608,0.21528
607.54629,0.21974
606.05650,0.22422
604.56671,0.28355
603.07692,0.34417
601.58714,0.37696
600.09735,0.40978
598.60756,0.43376
597.11777,0.43953
595.62798,0.44076
594.13819,0.43316
592.64840,0.42558
591.15862,0.41422
589.66883,0.34338
588.17904,0.28751
586.68925,0.26281
585.19946,0.23813
583.70967,0.19272
582.21989,0.15011
580.73010,0.11639
579.24031,0.08270
577.75052,0.07232
576.26073,0.07489
574.77094,0.06254
573.28115,0.05984
571.79137,0.05716
570.30158,0.04235
568.81179,0.06049
567.32200,0.08232
565.83221,0.10418
564.34242,0.11277
562.85264,0.12442
561.36285,0.11812
559.87306,0.12045
558.38327,0.12280
556.89348,0.13633
555.40369,0.14886
553.91391,0.15990
552.42412,0.17096
550.93433,0.19724
549.44454,0.19266
547.95475,0.18860
546.46496,0.18912
544.97517,0.18967
543.48539,0.19177
541.99560,0.23289
540.50581,0.25541
539.01602,0.27797
537.52623,0.32296
536.03644,0.38063
534.54666,0.40111
533.05687,0.44022
531.56708,0.47936
530.07729,0.51408
528.58750,0.59391
527.09771,0.63376
525.60792,0.67363
524.11814,0.71681
522.62835,0.74736
521.13856,0.80781
519.64877,0.82980
518.15898,0.85181
516.66919,0.86371
515.17941,0.86374
513.68962,0.87810
512.19983,0.89249
510.71004,0.88626
509.22025,0.84637
507.73046,0.76220
506.24068,0.70350
504.75089,0.64482
503.26110,0.52577
501.77131,0.37687
500.28152,0.33194
498.79173,0.28703
497.30194,0.24735
495.81216,0.18818
494.32237,0.16665
492.83258,0.14514
491.34279,0.11543
489.85300,0.10600
488.36321,0.06798
486.87343,0.07341
485.38364,0.07887
483.89385,0.08650
482.40406,0.09467
480.91427,0.10033
479.42448,0.10601
477.93469,0.12286
476.44491,0.12960
474.95512,0.12928
473.46533,0.12898
471.97554,0.17126
470.48575,0.16493
468.99596,0.17686
467.50618,0.17958
466.01639,0.18231
464.52660,0.12367
463.03681,0.07695
461.54702,0.07482
460.05723,0.07272
458.56745,0.06304
457.07766,0.02782
455.58787,0.03579
454.09808,0.04379
452.60829,0.05827
451.11850,0.03707
449.62871,0.02185
448.13893,0.00665
446.64914,0.01977
445.15935,0.02938
443.66956,0.02686
442.17977,0.02714
440.68998,0.02745
439.20020,0.03944
437.71041,0.04284
436.22062,0.04727
434.73083,0.05173
433.24104,0.03773
431.75125,0.00856
430.26146,0.02525
428.77168,0.04197
427.28189,0.02654
425.79210,0.04229
424.30231,0.03376
422.81252,0.02525
421.32273,0.05019
419.83295,0.06553
418.34316,0.05722
416.85337,0.04893
415.36358,0.03016
413.87379,0.02686
412.38400,0.03131
410.89422,0.03579
409.40443,0.02800
407.91464,0.04987
406.42485,0.03733
404.93506,0.02886
403.44527,0.02041
401.95548,0.03706
400.46570,0.03930
398.97591,0.04309
397.48612,0.04689
395.99633,0.05706
394.50654,0.07535
393.01675,0.06581
391.52697,0.05630
390.03718,0.02427
388.54739,0.04192
387.05760,0.02934
385.56781,0.01678
384.07802,0.00665
382.58824,0.02662
381.09845,0.03433
379.60866,0.04207
378.11887,0.04844
376.62908,0.02040
375.13929,0.01821
373.64950,0.01604
372.15972,0.01365
370.66993,0.03787
369.18014,0.03033
367.69035,0.02282
366.20056,0.02958
364.71077,0.04092
363.22099,0.03734
361.73120,0.03379
360.24141,0.04191
358.75162,0.04929
357.26183,0.05063
355.77204,0.05199
354.28225,0.04020
352.79247,0.06085
351.30268,0.06418
349.81289,0.06754
348.32310,0.05129
346.83331,0.03760
345.34352,0.03647
343.85374,0.03537
342.36395,0.02656
340.87416,0.02817
339.38437,0.04081
337.89458,0.05348
336.40479,0.07415
334.91501,0.04875
333.42522,0.03731
331.93543,0.02589
330.44564,0.00665
328.95585,0.01415
327.46606,0.01523
325.97627,0.01632
324.48649,0.02632
322.99670,0.04394
321.50691,0.04119
320.01712,0.03847
318.52733,0.08681
317.03754,0.08072
315.54776,0.07427
314.05797,0.06786
312.56818,0.08691
311.07839,0.08193
309.58860,0.07875
308.09881,0.07560
306.60902,0.03803
305.11924,0.04530
303.62945,0.03399
302.13966,0.02270
300.64987,0.00701
299.16008,0.00665
