1778.52000,0.00000
1777.03021,0.01056
1775.54042,0.00842
1774.05063,0.00832
1772.56085,0.00461
1771.07106,0.00961
1769.58127,0.00493
1768.09148,0.00897
1766.60169,0.01364
1765.11190,0.00661
1763.62212,0.00325
1762.13233,0.01284
1760.64254,0.00669
1759.15275,0.00583
1757.66296,0.00660
1756.17317,0.01043
1754.68339,0.00539
1753.19360,0.00967
1751.70381,0.00953
1750.21402,0.01406
1748.72423,0.00892
1747.23444,0.00925
1745.74465,0.01669
1744.25487,0.01384
1742.76508,0.01688
1741.27529,0.00660
1739.78550,0.01835
1738.29571,0.01295
1736.80592,0.01728
1735.31614,0.01092
1733.82635,0.00966
1732.33656,0.01025
1730.84677,0.02379
1729.35698,0.01351
1727.86719,0.01154
1726.37740,0.00758
1724.88762,0.01010
1723.39783,0.01124
1721.90804,0.00815
1720.41825,0.01459
1718.92846,0.00509
1717.43867,0.02018
1715.94889,0.00660
1714.45910,0.01353
1712.96931,0.00857
1711.47952,0.01027
1709.98973,0.00734
1708.49994,0.00970
1707.01016,0.00814
1705.52037,0.00660
1704.03058,0.02149
1702.54079,0.01842
1701.05100,0.01820
1699.56121,0.01377
1698.07142,0.01158
1696.58164,0.01123
1695.09185,0.01879
1693.60206,0.02415
1692.11227,0.01498
1690.62248,0.01493
1689.13269,0.00905
1687.64291,0.02219
1686.15312,0.02767
1684.66333,0.03196
1683.17354,0.02698
1681.68375,0.02728
1680.19396,0.02134
1678.70417,0.02674
1677.21439,0.03257
1675.72460,0.04327
1674.23481,0.04046
1672.74502,0.04050
1671.25523,0.05532
1669.76544,0.04833
1668.27566,0.06037
1666.78587,0.06030
1665.29608,0.07138
1663.80629,0.06651
1662.31650,0.06895
1660.82671,0.08029
1659.33693,0.07469
1657.84714,0.06669
1656.35735,0.07528
1654.86756,0.07966
1653.37777,0.08223
1651.88798,0.07069
1650.39819,0.07615
1648.90841,0.09840
1647.41862,0.08208
1645.92883,0.08397
1644.43904,0.08589
1642.94925,0.07671
1641.45946,0.09929
1639.96968,0.09582
1638.47989,0.08389
1636.99010,0.08209
1635.50031,0.08880
1634.01052,0.08725
1632.52073,0.09420
1631.03094,0.09290
1629.54116,0.08880
1628.05137,0.10128
1626.56158,0.10369
1625.07179,0.10431
1623.58200,0.09403
1622.09221,0.09369
1620.60243,0.09457
1619.11264,0.08720
1617.62285,0.10087
1616.13306,0.09092
1614.64327,0.09534
1613.15348,0.09574
1611.66370,0.09274
1610.17391,0.08127
1608.68412,0.10377
1607.19433,0.09598
1605.70454,0.08661
1604.21475,0.09120
1602.72496,0.09581
1601.23518,0.08812
1599.74539,0.09339
1598.25560,0.07505
1596.76581,0.09309
1595.27602,0.08874
1593.78623,0.07895
1592.29645,0.07605
1590.80666,0.08753
1589.31687,0.06488
1587.82708,0.07459
1586.33729,0.08452
1584.84750,0.08235
1583.35771,0.07415
1581.86793,0.07061
1580.37814,0.07802
1578.88835,0.06524
1577.39856,0.06359
1575.90877,0.05935
1574.41898,0.05998
1572.92920,0.04588
1571.43941,0.04615
1569.94962,0.04817
1568.45983,0.05021
1566.97004,0.05197
1565.48025,0.03981
1563.99047,0.03010
1562.50068,0.03598
1561.01089,0.03662
1559.52110,0.03366
1558.03131,0.03091
1556.54152,0.02335
1555.05173,0.02813
1553.56195,0.01698
1552.07216,0.01756
1550.58237,0.00767
1549.09258,0.01194
1547.60279,0.01442
1546.11300,0.01410
1544.62322,0.01036
1543.13343,0.01049
1541.64364,0.00660
1540.15385,0.01257
1538.66406,0.01857
1537.17427,0.01600
1535.68448,0.01366
1534.19470,0.01498
1532.70491,0.01167
1531.21512,0.01365
1529.72533,0.01908
1528.23554,0.01888
1526.74575,0.02659
1525.25597,0.02947
1523.76618,0.02792
1522.27639,0.03954
1520.78660,0.03219
1519.29681,0.04769
1517.80702,0.04019
1516.31724,0.04705
1514.82745,0.03919
1513.33766,0.04529
1511.84787,0.05142
1510.35808,0.05717
1508.86829,0.05668
1507.37850,0.05076
1505.88872,0.04647
1504.39893,0.05879
1502.90914,0.06061
1501.41935,0.06509
1499.92956,0.06333
1498.43977,0.05958
1496.94999,0.06655
1495.46020,0.07820
1493.97041,0.09311
1492.48062,0.10278
1490.99083,0.11612
1489.50104,0.13454
1488.01125,0.13873
1486.52147,0.14294
1485.03168,0.17254
1483.54189,0.19267
1482.05210,0.21848
1480.56231,0.22896
1479.07252,0.24310
1477.58274,0.24190
1476.09295,0.24437
1474.60316,0.25676
1473.11337,0.26352
1471.62358,0.27192
1470.13379,0.28822
1468.64401,0.30859
1467.15422,0.34697
1465.66443,0.34991
1464.17464,0.35287
1462.68485,0.37031
1461.19506,0.42050
1459.70527,0.44081
1458.21549,0.50823
1456.72570,0.56577
1455.23591,0.62798
1453.74612,0.67325
1452.25633,0.70176
1450.76654,0.73859
1449.27676,0.74634
1447.78697,0.71492
1446.29718,0.68028
1444.80739,0.66608
1443.31760,0.65191
1441.82781,0.60664
1440.33802,0.57796
1438.84824,0.53698
1437.35845,0.51603
1435.86866,0.47935
1434.37887,0.50714
1432.88908,0.53213
1431.39929,0.58483
1429.90951,0.66787
1428.41972,0.75436
1426.92993,0.82532
1425.44014,0.87670
1423.95035,0.89537
1422.46056,0.91407
1420.97078,0.92955
1419.48099,0.90788
1417.99120,0.94868
1416.50141,0.91311
1415.01162,0.89677
1413.52183,0.84630
1412.03204,0.78394
1410.54226,0.74019
1409.05247,0.73404
1407.56268,0.68549
1406.07289,0.60665
1404.58310,0.57189
1403.09331,0.53715
1401.60353,0.45414
1400.11374,0.40531
1398.62395,0.35468
1397.13416,0.29316
1395.64437,0.25066
1394.15458,0.22395
1392.66479,0.17564
1391.17501,0.16918
1389.68522,0.13688
1388.19543,0.11148
1386.70564,0.10347
1385.21585,0.09550
1383.72606,0.06208
1382.23628,0.04587
1380.74649,0.03796
1379.25670,0.02523
1377.76691,0.01030
1376.27712,0.01015
1374.78733,0.01184
1373.29755,0.01638
1371.80776,0.00660
1370.31797,0.01763
1368.82818,0.01646
1367.33839,0.01531
1365.84860,0.02843
1364.35881,0.02724
1362.86903,0.03071
1361.37924,0.05562
1359.88945,0.08198
1358.39966,0.11078
1356.90987,0.13011
1355.42008,0.15856
1353.93030,0.21330
1352.44051,0.25452
1350.95072,0.29578
1349.46093,0.37181
1347.97114,0.44564
1346.48135,0.50313
1344.99156,0.58004
1343.50178,0.64222
1342.01199,0.69069
1340.52220,0.74181
1339.03241,0.79437
1337.54262,0.86150
1336.05283,0.86278
1334.56305,0.86408
1333.07326,0.89289
1331.58347,0.90051
1330.09368,0.93867
1328.60389,0.92471
1327.11410,0.90331
1325.62432,0.86899
1324.13453,0.83248
1322.64474,0.79983
1321.15495,0.78983
1319.66516,0.76249
1318.17537,0.73516
1316.68558,0.68362
1315.19580,0.61411
1313.70601,0.55311
1312.21622,0.52629
1310.72643,0.50939
1309.23664,0.46928
1307.74685,0.44961
1306.25707,0.42611
1304.76728,0.41426
1303.27749,0.40244
1301.78770,0.33780
1300.29791,0.26995
1298.80812,0.23142
1297.31834,0.18847
1295.82855,0.15505
1294.33876,0.15822
1292.84897,0.12666
1291.35918,0.12281
1289.86939,0.10948
1288.37960,0.09618
1286.88982,0.08109
1285.40003,0.07107
1283.91024,0.08229
1282.42045,0.06707
1280.93066,0.06803
1279.44087,0.06114
1277.95109,0.05205
1276.46130,0.05188
1274.97151,0.04577
1273.48172,0.03968
1271.99193,0.04463
1270.50214,0.03647
1269.01235,0.02490
1267.52257,0.01517
1266.03278,0.03275
1264.54299,0.03034
1263.05320,0.03281
1261.56341,0.02570
1260.07362,0.01862
1258.58384,0.01187
1257.09405,0.01888
1255.60426,0.02369
1254.11447,0.02327
1252.62468,0.00510
1251.13489,0.00513
1249.64511,0.00910
1248.15532,0.00844
1246.66553,0.00740
1245.17574,0.00638
1243.68595,0.00660
1242.19616,0.01277
1240.70637,0.02078
1239.21659,0.01912
1237.72680,0.02698
1236.23701,0.03143
1234.74722,0.02479
1233.25743,0.01929
1231.76764,0.01380
1230.27786,0.01653
1228.78807,0.01221
1227.29828,0.01155
1225.80849,0.01476
1224.31870,0.00768
1222.82891,0.01901
1221.33912,0.01582
1219.84934,0.02680
1218.35955,0.03781
1216.86976,0.04176
1215.37997,0.04736
1213.89018,0.05177
1212.40039,0.07297
1210.91061,0.07217
1209.42082,0.07059
1207.93103,0.07196
1206.44124,0.07336
1204.95145,0.08196
1203.46166,0.07219
1201.97188,0.08548
1200.48209,0.08000
1198.99230,0.05919
1197.50251,0.05013
1196.01272,0.04997
1194.52293,0.05197
1193.03314,0.05399
1191.54336,0.03956
1190.05357,0.02941
1188.56378,0.02756
1187.07399,0.03766
1185.58420,0.03869
1184.09441,0.00660
1182.60463,0.01051
1181.11484,0.01445
1179.62505,0.00770
1178.13526,0.01189
1176.64547,0.01247
1175.15568,0.00660
1173.66589,0.02846
1172.17611,0.02327
1170.68632,0.02547
1169.19653,0.02770
1167.70674,0.02198
1166.21695,0.03547
1164.72716,0.03767
1163.23738,0.03101
1161.74759,0.04760
1160.25780,0.04746
1158.76801,0.04844
1157.27822,0.04945
1155.78843,0.06332
1154.29865,0.10246
1152.80886,0.11173
1151.31907,0.12547
1149.82928,0.11720
1148.33949,0.11219
1146.84970,0.11539
1145.35991,0.11862
1143.87013,0.14763
1142.38034,0.16111
1140.89055,0.14531
1139.40076,0.16490
1137.91097,0.17259
1136.42118,0.19768
1134.93140,0.20239
1133.44161,0.20712
1131.95182,0.22339
1130.46203,0.21908
1128.97224,0.22873
1127.48245,0.22346
1125.99266,0.24084
1124.50288,0.24167
1123.01309,0.24203
1121.52330,0.24241
1120.03351,0.24352
1118.54372,0.25779
1117.05393,0.25713
1115.56415,0.25851
1114.07436,0.26497
1112.58457,0.25994
1111.09478,0.25493
1109.60499,0.22327
1108.11520,0.24458
1106.62542,0.24854
1105.13563,0.25514
1103.64584,0.24096
1102.15605,0.23994
1100.66626,0.23793
1099.17647,0.23594
1097.68668,0.23822
1096.19690,0.20739
1094.70711,0.21174
1093.21732,0.21895
1091.72753,0.20213
1090.23774,0.20150
1088.74795,0.20090
1087.25817,0.19102
1085.76838,0.19087
1084.27859,0.20287
1082.78880,0.20115
1081.29901,0.20733
1079.80922,0.22890
1078.31943,0.22604
1076.82965,0.22321
1075.33986,0.21838
1073.85007,0.22367
1072.36028,0.24354
1070.87049,0.25980
1069.38070,0.28537
1067.89092,0.31168
1066.40113,0.33801
1064.91134,0.36164
1063.42155,0.45076
1061.93176,0.55910
1060.44197,0.65635
1058.95219,0.76191
1057.46240,0.80668
1055.97261,0.85147
1054.48282,0.96175
1052.99303,1.02699
1051.50324,1.04397
1050.01345,1.04137
1048.52367,1.02990
1047.03388,0.99683
1045.54409,0.96379
1044.05430,0.92411
1042.56451,0.87172
1041.07472,0.79006
1039.58494,0.71003
1038.09515,0.63569
1036.60536,0.60118
1035.11557,0.56669
1033.62578,0.50353
1032.13599,0.42464
1030.64620,0.36739
1029.15642,0.32047
1027.66663,0.29419
1026.17684,0.26793
1024.68705,0.23200
1023.19726,0.20821
1021.70747,0.17414
1020.21769,0.14394
1018.72790,0.13356
1017.23811,0.13331
1015.74832,0.13309
1014.25853,0.09631
1012.76874,0.09149
1011.27896,0.09619
1009.78917,0.07949
1008.29938,0.06706
1006.80959,0.05384
1005.31980,0.04065
1003.83001,0.03800
1002.34022,0.03435
1000.85044,0.04690
999.36065,0.03360
997.87086,0.04569
996.38107,0.05780
994.89128,0.07671
993.40149,0.08008
991.91171,0.09580
990.42192,0.11054
988.93213,0.15540
987.44234,0.15321
985.95255,0.15105
984.46276,0.15679
982.97297,0.14315
981.48319,0.13055
979.99340,0.08565
978.50361,0.08087
977.01382,0.07612
975.52403,0.06483
974.03424,0.04043
972.54446,0.03869
971.05467,0.03353
969.56488,0.00658
968.07509,0.00894
966.58530,0.01134
965.09551,0.01234
963.60573,0.01599
962.11594,0.01159
960.62615,0.00660
959.13636,0.00836
957.64657,0.01014
956.15678,0.01316
954.66699,0.02085
953.17721,0.04190
951.68742,0.03772
950.19763,0.03831
948.70784,0.03892
947.21805,0.04613
945.72826,0.06770
944.23848,0.08364
942.74869,0.09597
941.25890,0.10934
939.76911,0.11687
938.27932,0.12442
936.78953,0.14877
935.29974,0.17092
933.80996,0.17491
932.32017,0.19124
930.83038,0.19508
929.34059,0.19894
927.85080,0.22949
926.36101,0.27220
924.87123,0.30401
923.38144,0.35626
921.89165,0.40399
920.40186,0.45174
918.91207,0.54670
917.42228,0.64754
915.93250,0.84601
914.44271,1.03783
912.95292,1.13510
911.46313,1.23241
909.97334,1.41278
908.48355,1.62086
906.99376,1.80695
905.50398,1.92475
904.01419,1.96236
902.52440,2.00000
901.03461,1.97138
899.54482,1.91349
898.05503,1.82410
896.56525,1.62440
895.07546,1.50768
893.58567,1.39098
892.09588,1.07840
890.60609,0.84688
889.11630,0.67802
887.62651,0.50433
886.13673,0.44615
884.64694,0.38800
883.15715,0.28895
881.66736,0.20770
880.17757,0.15356
878.68778,0.12955
877.19800,0.10556
875.70821,0.07816
874.21842,0.03907
872.72863,0.03435
871.23884,0.04219
869.74905,0.03317
868.25927,0.02418
866.76948,0.02057
865.27969,0.01193
863.78990,0.03949
862.30011,0.05575
860.81032,0.05598
859.32053,0.05623
857.83075,0.08550
856.34096,0.09479
854.85117,0.11077
853.36138,0.09545
851.87159,0.11613
850.38180,0.13683
848.89202,0.15331
847.40223,0.16740
845.91244,0.17241
844.42265,0.18492
842.93286,0.19746
841.44307,0.21790
839.95329,0.25009
838.46350,0.25341
836.97371,0.25614
835.48392,0.25779
833.99413,0.25946
832.50434,0.26529
831.01455,0.25378
829.52477,0.23117
828.03498,0.21970
826.54519,0.20361
825.05540,0.18755
823.56561,0.16686
822.07582,0.14073
820.58604,0.12919
819.09625,0.11948
817.60646,0.10980
816.11667,0.10843
814.62688,0.12668
813.13709,0.12758
811.64730,0.14992
810.15752,0.13925
808.66773,0.12860
807.17794,0.15303
805.68815,0.14759
804.19836,0.14257
802.70857,0.14798
801.21879,0.15342
799.72900,0.13635
798.23921,0.12516
796.74942,0.11562
795.25963,0.12065
793.76984,0.12570
792.28006,0.12936
790.79027,0.15063
789.30048,0.16222
787.81069,0.20374
786.32090,0.20912
784.83111,0.21452
783.34132,0.24338
781.85154,0.28823
780.36175,0.34442
778.87196,0.35477
777.38217,0.36514
775.89238,0.37412
774.40259,0.39444
772.91281,0.39741
771.42302,0.38049
769.93323,0.36361
768.44344,0.32684
766.95365,0.27595
765.46386,0.22489
763.97407,0.17425
762.48429,0.16526
760.99450,0.15630
759.50471,0.13422
758.01492,0.11844
756.52513,0.09641
755.03534,0.09270
753.54556,0.08901
752.05577,0.08423
750.56598,0.06675
749.07619,0.05899
747.58640,0.05873
746.09661,0.05850
744.60683,0.03101
743.11704,0.02678
741.62725,0.01591
740.13746,0.01567
738.64767,0.01546
737.15788,0.02568
735.66809,0.01490
734.17831,0.01486
732.68852,0.01333
731.19873,0.01182
729.70894,0.00660
728.21915,0.01568
726.72936,0.01245
725.23958,0.02401
723.74979,0.02396
722.26000,0.02394
720.77021,0.00788
719.28042,0.00660
717.79063,0.00619
716.30084,0.00852
714.81106,0.01087
713.32127,0.02154
711.83148,0.03505
710.34169,0.02818
708.85190,0.02376
707.36211,0.01936
705.87233,0.03863
704.38254,0.04883
702.89275,0.04148
701.40296,0.04890
699.91317,0.05634
698.42338,0.07088
696.93360,0.07878
695.44381,0.08892
693.95402,0.09879
692.46423,0.10867
690.97444,0.11909
689.48465,0.13620
687.99486,0.16607
686.50508,0.17151
685.01529,0.17697
683.52550,0.20933
682.03571,0.24071
680.54592,0.23150
679.05613,0.23786
677.56635,0.24426
676.07656,0.25269
674.58677,0.26055
673.09698,0.23974
671.60719,0.21996
670.11740,0.20020
668.62761,0.16855
667.13783,0.15208
665.64804,0.14018
664.15825,0.12830
662.66846,0.12059
661.17867,0.08582
659.68888,0.07917
658.19910,0.05991
656.70931,0.04068
655.21952,0.04117
653.72973,0.03259
652.23994,0.04041
650.75015,0.03824
649.26037,0.03611
647.77058,0.04925
646.28079,0.04079
644.79100,0.03741
643.30121,0.03456
641.81142,0.03174
640.32163,0.04096
638.83185,0.03889
637.34206,0.02229
635.85227,0.02088
634.36248,0.01948
632.87269,0.00660
631.38290,0.01065
629.89312,0.01695
628.40333,0.01651
626.91354,0.01608
625.42375,0.03377
623.93396,0.02279
622.44417,0.03315
620.95438,0.04354
619.46460,0.04253
617.97481,0.04923
616.48502,0.07676
614.99523,0.07815
613.50544,0.07956
612.01565,0.11424
610.52587,0.13803
609.03608,0.17316
607.54629,0.19619
606.05650,0.21924
604.56671,0.24980
603.07692,0.30846
601.58714,0.33392
600.09735,0.35939
598.60756,0.40277
597.11777,0.39930
595.62798,0.42151
594.13819,0.41546
592.64840,0.40943
591.15862,0.38706
589.66883,0.30854
588.17904,0.27309
586.68925,0.24261
585.19946,0.21215
583.70967,0.16990
582.21989,0.14605
580.73010,0.11991
579.24031,0.09380
577.75052,0.08417
576.26073,0.07114
574.77094,0.06863
573.28115,0.06262
571.79137,0.05663
570.30158,0.06006
568.81179,0.07968
567.32200,0.08255
565.83221,0.08544
564.34242,0.10736
562.85264,0.13435
561.36285,0.14742
559.87306,0.15718
558.38327,0.16697
556.89348,0.18375
555.40369,0.19126
553.91391,0.19748
552.42412,0.20372
550.93433,0.20504
549.44454,0.22356
547.95475,0.24372
546.46496,0.24138
544.97517,0.23905
543.48539,0.28252
541.99560,0.31026
540.50581,0.31538
539.01602,0.32053
537.52623,0.37643
536.03644,0.42184
534.54666,0.43635
533.05687,0.45090
531.56708,0.46546
530.07729,0.48672
528.58750,0.54721
527.09771,0.56760
525.60792,0.58803
524.11814,0.67020
522.62835,0.71179
521.13856,0.77280
519.64877,0.80160
518.15898,0.83043
516.66919,0.86120
515.17941,0.84189
513.68962,0.86402
512.19983,0.88617
510.71004,0.85683
509.22025,0.81194
507.73046,0.73051
506.24068,0.66588
504.75089,0.60126
503.26110,0.47909
501.77131,0.40765
500.28152,0.36292
498.79173,0.31821
497.30194,0.24462
495.81216,0.18945
494.32237,0.15673
492.83258,0.12404
491.34279,0.11481
489.85300,0.11753
488.36321,0.09865
486.87343,0.09181
485.38364,0.08500
483.89385,0.10459
482.40406,0.09793
480.91427,0.11190
479.42448,0.12590
477.93469,0.15872
476.44491,0.17438
474.95512,0.18977
473.46533,0.20518
471.97554,0.21081
470.48575,0.19566
468.99596,0.20821
467.50618,0.18937
466.01639,0.17055
464.52660,0.13548
463.03681,0.11540
461.54702,0.11009
460.05723,0.10480
458.56745,0.07449
457.07766,0.05066
455.58787,0.05151
454.09808,0.05238
452.60829,0.02761
451.11850,0.03581
449.62871,0.02968
448.13893,0.02358
446.64914,0.01872
445.15935,0.00660
443.66956,0.02023
442.17977,0.01802
440.68998,0.01583
439.20020,0.03054
437.71041,0.03355
436.22062,0.03821
434.73083,0.04289
433.24104,0.02920
431.75125,0.04343
430.26146,0.03919
428.77168,0.03497
427.28189,0.04300
425.79210,0.04561
424.30231,0.03793
422.81252,0.03027
421.32273,0.02688
419.83295,0.01847
418.34316,0.02109
416.85337,0.02374
415.36358,0.02509
413.87379,0.04507
412.38400,0.03394
410.89422,0.02284
409.40443,0.03016
407.91464,0.01406
406.42485,0.02728
404.93506,0.03386
403.44527,0.04046
401.95548,0.02385
400.46570,0.02807
398.97591,0.03717
397.48612,0.04630
395.99633,0.04514
394.50654,0.03289
393.01675,0.02310
391.52697,0.01332
390.03718,0.01893
388.54739,0.02759
387.05760,0.01708
385.56781,0.00660
384.07802,0.01078
382.58824,0.02508
381.09845,0.02334
379.60866,0.02163
378.11887,0.01459
376.62908,0.02212
375.13929,0.01654
373.64950,0.01098
372.15972,0.02586
370.66993,0.03329
369.18014,0.02316
367.69035,0.01305
366.20056,0.01805
364.71077,0.03843
363.22099,0.04045
361.73120,0.04249
360.24141,0.06557
358.75162,0.07958
357.26183,0.07007
355.77204,0.06059
354.28225,0.08114
352.79247,0.08232
351.30268,0.07988
349.81289,0.07747
348.32310,0.06174
346.83331,0.04907
345.34352,0.05269
343.85374,0.05634
342.36395,0.04960
340.87416,0.03440
339.38437,0.03469
337.89458,0.03499
336.40479,0.03421
334.91501,0.03143
333.42522,0.01979
331.93543,0.00817
330.44564,0.00660
328.95585,0.02968
327.46606,0.02631
325.97627,0.02297
324.48649,0.08331
322.99670,0.04889
321.50691,0.04825
320.01712,0.04763
318.52733,0.04401
317.03754,0.05900
315.54776,0.05340
314.05797,0.04783
312.56818,0.07017
311.07839,0.08606
309.58860,0.08198
308.09881,0.07791
306.60902,0.06418
305.11924,0.04764
303.62945,0.02718
302.13966,0.00675
300.64987,0.00666
299.16008,0.00660
