1778.52000,0.01962
1777.03021,0.00612
1775.54042,0.01529
1774.05063,0.00314
1772.56085,0.01392
1771.07106,0.00363
1769.58127,0.01030
1768.09148,0.01334
1766.60169,0.00703
1765.11190,0.01090
1763.62212,0.01167
1762.13233,0.00570
1760.64254,0.00574
1759.15275,0.01361
1757.66296,0.00354
1756.17317,0.00599
1754.68339,0.01134
1753.19360,0.00498
1751.70381,0.00543
1750.21402,0.00381
1748.72423,0.01029
1747.23444,0.01080
1745.74465,0.01629
1744.25487,0.01659
1742.76508,0.00936
1741.27529,0.01752
1739.78550,0.01035
1738.29571,0.01361
1736.80592,0.01741
1735.31614,0.00354
1733.82635,0.00648
1732.33656,0.00606
1730.84677,0.00410
1729.35698,0.00868
1727.86719,0.00781
1726.37740,0.01295
1724.88762,0.01630
1723.39783,0.00691
1721.90804,0.00848
1720.41825,0.00799
1718.92846,0.01768
1717.43867,0.01567
1715.94889,0.00354
1714.45910,0.01203
1712.96931,0.00752
1711.47952,0.01344
1709.98973,0.01497
1708.49994,0.01053
1707.01016,0.01054
1705.52037,0.01058
1704.03058,0.00856
1702.54079,0.00968
1701.05100,0.00354
1699.56121,0.01332
1698.07142,0.01792
1696.58164,0.00900
1695.09185,0.02041
1693.60206,0.02873
1692.11227,0.02144
1690.62248,0.01523
1689.13269,0.01320
1687.64291,0.02343
1686.15312,0.03889
1684.66333,0.03043
1683.17354,0.02251
1681.68375,0.03752
1680.19396,0.03537
1678.70417,0.03403
1677.21439,0.04782
1675.72460,0.05199
1674.23481,0.05125
1672.74502,0.04193
1671.25523,0.04982
1669.76544,0.06503
1668.27566,0.06802
1666.78587,0.06844
1665.29608,0.07668
1663.80629,0.08391
1662.31650,0.08596
1660.82671,0.07918
1659.33693,0.08076
1657.84714,0.09147
1656.35735,0.09257
1654.86756,0.09240
1653.37777,0.07949
1651.88798,0.07806
1650.39819,0.08863
1648.90841,0.08517
1647.41862,0.07600
1645.92883,0.07493
1644.43904,0.07388
1642.94925,0.09108
1641.45946,0.09763
1639.96968,0.09379
1638.47989,0.09076
1636.99010,0.08514
1635.50031,0.08424
1634.01052,0.08206
1632.52073,0.07521
1631.03094,0.08349
1629.54116,0.09804
1628.05137,0.09257
1626.56158,0.10327
1625.07179,0.11008
1623.58200,0.09167
1622.09221,0.09410
1620.60243,0.10698
1619.11264,0.09801
1617.62285,0.10182
1616.13306,0.09237
1614.64327,0.09831
1613.15348,0.08866
1611.66370,0.08683
1610.17391,0.09363
1608.68412,0.07571
1607.19433,0.09245
1605.70454,0.09905
1604.21475,0.09370
1602.72496,0.08838
1601.23518,0.08751
1599.74539,0.09655
1598.25560,0.08115
1596.76581,0.07566
1595.27602,0.08608
1593.78623,0.09288
1592.29645,0.08824
1590.80666,0.08676
1589.31687,0.07827
1587.82708,0.07553
1586.33729,0.07515
1584.84750,0.06960
1583.35771,0.07969
1581.86793,0.08329
1580.37814,0.07156
1578.88835,0.08797
1577.39856,0.08930
1575.90877,0.07322
1574.41898,0.05716
1572.92920,0.06299
1571.43941,0.05166
1569.94962,0.04127
1568.45983,0.03090
1566.97004,0.03917
1565.48025,0.03731
1563.99047,0.03365
1562.50068,0.04200
1561.01089,0.03448
1559.52110,0.02361
1558.03131,0.03462
1556.54152,0.04567
1555.05173,0.03174
1553.56195,0.02539
1552.07216,0.03624
1550.58237,0.02291
1549.09258,0.01428
1547.60279,0.01948
1546.11300,0.02418
1544.62322,0.01953
1543.13343,0.02090
1541.64364,0.00354
1540.15385,0.00870
1538.66406,0.01389
1537.17427,0.01129
1535.68448,0.01209
1534.19470,0.01475
1532.70491,0.01404
1531.21512,0.00841
1529.72533,0.01608
1528.23554,0.01441
1526.74575,0.03462
1525.25597,0.02935
1523.76618,0.03373
1522.27639,0.04205
1520.78660,0.02721
1519.29681,0.03531
1517.80702,0.04188
1516.31724,0.04273
1514.82745,0.04232
1513.33766,0.04465
1511.84787,0.04702
1510.35808,0.04224
1508.86829,0.03333
1507.37850,0.03459
1505.88872,0.03718
1504.39893,0.04084
1502.90914,0.04998
1501.41935,0.05290
1499.92956,0.06288
1498.43977,0.07105
1496.94999,0.06415
1495.46020,0.05910
1493.97041,0.08948
1492.48062,0.06807
1490.99083,0.08418
1489.50104,0.08885
1488.01125,0.10292
1486.52147,0.11702
1485.03168,0.12879
1483.54189,0.15022
1482.05210,0.14903
1480.56231,0.17442
1479.07252,0.19123
1477.58274,0.19506
1476.09295,0.19891
1474.60316,0.22778
1473.11337,0.19913
1471.62358,0.21112
1470.13379,0.22861
1468.64401,0.23544
1467.15422,0.26781
1465.66443,0.27417
1464.17464,0.28055
1462.68485,0.28332
1461.19506,0.33791
1459.70527,0.36363
1458.21549,0.42166
1456.72570,0.50574
1455.23591,0.55913
1453.74612,0.61176
1452.25633,0.65609
1450.76654,0.65722
1449.27676,0.64406
1447.78697,0.64160
1446.29718,0.62432
1444.80739,0.60420
1443.31760,0.58411
1441.82781,0.55102
1440.33802,0.49635
1438.84824,0.47295
1437.35845,0.47195
1435.86866,0.45719
1434.37887,0.47681
1432.88908,0.47276
1431.39929,0.49165
1429.90951,0.55898
1428.41972,0.66409
1426.92993,0.70908
1425.44014,0.73353
1423.95035,0.78742
1422.46056,0.84134
1420.97078,0.85154
1419.48099,0.89249
1417.99120,0.82595
1416.50141,0.84872
1415.01162,0.82517
1413.52183,0.78578
1412.03204,0.73937
1410.54226,0.67165
1409.05247,0.63388
1407.56268,0.59875
1406.07289,0.53630
1404.58310,0.50550
1403.09331,0.47473
1401.60353,0.43110
1400.11374,0.38463
1398.62395,0.33740
1397.13416,0.29462
1395.64437,0.24978
1394.15458,0.21564
1392.66479,0.16799
1391.17501,0.14691
1389.68522,0.11831
1388.19543,0.08479
1386.70564,0.08422
1385.21585,0.08368
1383.72606,0.05569
1382.23628,0.04387
1380.74649,0.03234
1379.25670,0.02317
1377.76691,0.00778
1376.27712,0.00777
1374.78733,0.02002
1373.29755,0.01068
1371.80776,0.00528
1370.31797,0.00354
1368.82818,0.00976
1367.33839,0.01601
1365.84860,0.01069
1364.35881,0.03066
1362.86903,0.02929
1361.37924,0.03785
1359.88945,0.07194
1358.39966,0.09512
1356.90987,0.12275
1355.42008,0.16082
1353.93030,0.20255
1352.44051,0.22036
1350.95072,0.23820
1349.46093,0.32244
1347.97114,0.38796
1346.48135,0.43607
1344.99156,0.50893
1343.50178,0.58571
1342.01199,0.64144
1340.52220,0.67793
1339.03241,0.73032
1337.54262,0.75696
1336.05283,0.76358
1334.56305,0.77022
1333.07326,0.82505
1331.58347,0.85803
1330.09368,0.83507
1328.60389,0.84155
1327.11410,0.82072
1325.62432,0.80173
1324.13453,0.74893
1322.64474,0.73155
1321.15495,0.70014
1319.66516,0.68243
1318.17537,0.66473
1316.68558,0.63704
1315.19580,0.56564
1313.70601,0.51456
1312.21622,0.47184
1310.72643,0.44373
1309.23664,0.38804
1307.74685,0.37246
1306.25707,0.33999
1304.76728,0.32577
1303.27749,0.31157
1301.78770,0.27969
1300.29791,0.24315
1298.80812,0.20117
1297.31834,0.16390
1295.82855,0.12509
1294.33876,0.10452
1292.84897,0.09049
1291.35918,0.08507
1289.86939,0.08007
1288.37960,0.07509
1286.88982,0.06376
1285.40003,0.05792
1283.91024,0.04325
1282.42045,0.04631
1280.93066,0.02362
1279.44087,0.03401
1277.95109,0.01345
1276.46130,0.03275
1274.97151,0.03345
1273.48172,0.03418
1271.99193,0.02881
1270.50214,0.02113
1269.01235,0.02414
1267.52257,0.02302
1266.03278,0.01931
1264.54299,0.00677
1263.05320,0.02524
1261.56341,0.02122
1260.07362,0.01722
1258.58384,0.01415
1257.09405,0.00590
1255.60426,0.00288
1254.11447,0.00405
1252.62468,0.00394
1251.13489,0.00803
1249.64511,0.00354
1248.15532,0.03405
1246.66553,0.03100
1245.17574,0.02797
1243.68595,0.01377
1242.19616,0.00975
1240.70637,0.00705
1239.21659,0.00100
1237.72680,0.01117
1236.23701,0.00704
1234.74722,0.01387
1233.25743,0.01227
1231.76764,0.01069
1230.27786,0.01420
1228.78807,0.01879
1227.29828,0.02964
1225.80849,0.01319
1224.31870,0.00822
1222.82891,0.00899
1221.33912,0.00354
1219.84934,0.01225
1218.35955,0.02098
1216.86976,0.01737
1215.37997,0.04137
1213.89018,0.04145
1212.40039,0.06447
1210.91061,0.06486
1209.42082,0.06345
1207.93103,0.05685
1206.44124,0.05029
1204.95145,0.05572
1203.46166,0.04946
1201.97188,0.03645
1200.48209,0.03259
1198.99230,0.04722
1197.50251,0.05720
1196.01272,0.04586
1194.52293,0.03831
1193.03314,0.03078
1191.54336,0.02706
1190.05357,0.01008
1188.56378,0.00354
1187.07399,0.02115
1185.58420,0.00702
1184.09441,0.01296
1182.60463,0.01371
1181.11484,0.01449
1179.62505,0.01660
1178.13526,0.01092
1176.64547,0.00579
1175.15568,0.01525
1173.66589,0.02501
1172.17611,0.00354
1170.68632,0.00863
1169.19653,0.01374
1167.70674,0.00729
1166.21695,0.01753
1164.72716,0.02675
1163.23738,0.03521
1161.74759,0.03458
1160.25780,0.05116
1158.76801,0.05527
1157.27822,0.05940
1155.78843,0.07371
1154.29865,0.06956
1152.80886,0.07116
1151.31907,0.08060
1149.82928,0.08927
1148.33949,0.09667
1146.84970,0.09043
1145.35991,0.08421
1143.87013,0.10340
1142.38034,0.12990
1140.89055,0.15304
1139.40076,0.15485
1137.91097,0.14316
1136.42118,0.17106
1134.93140,0.17672
1133.44161,0.18241
1131.95182,0.19918
1130.46203,0.19229
1128.97224,0.22109
1127.48245,0.20982
1125.99266,0.20040
1124.50288,0.21391
1123.01309,0.21625
1121.52330,0.21862
1120.03351,0.21320
1118.54372,0.19556
1117.05393,0.19644
1115.56415,0.20749
1114.07436,0.22039
1112.58457,0.22433
1111.09478,0.22830
1109.60499,0.22018
1108.11520,0.20922
1106.62542,0.18918
1105.13563,0.18868
1103.64584,0.20904
1102.15605,0.20677
1100.66626,0.20036
1099.17647,0.19397
1097.68668,0.16861
1096.19690,0.17737
1094.70711,0.16324
1093.21732,0.18377
1091.72753,0.16396
1090.23774,0.16006
1088.74795,0.15619
1087.25817,0.14374
1085.76838,0.15814
1084.27859,0.15564
1082.78880,0.16513
1081.29901,0.15747
1079.80922,0.16025
1078.31943,0.16253
1076.82965,0.16483
1075.33986,0.15493
1073.85007,0.13671
1072.36028,0.14273
1070.87049,0.15633
1069.38070,0.17775
1067.89092,0.19869
1066.40113,0.21964
1064.91134,0.25936
1063.42155,0.30328
1061.93176,0.37116
1060.44197,0.44845
1058.95219,0.54788
1057.46240,0.57887
1055.97261,0.60989
1054.48282,0.71981
1052.99303,0.84901
1051.50324,0.86578
1050.01345,0.82921
1048.52367,0.82468
1047.03388,0.80651
1045.54409,0.78836
1044.05430,0.76958
1042.56451,0.71647
1041.07472,0.68186
1039.58494,0.63036
1038.09515,0.53150
1036.60536,0.50880
1035.11557,0.48614
1033.62578,0.45009
1032.13599,0.40131
1030.64620,0.32469
1029.15642,0.29158
1027.66663,0.25719
1026.17684,0.22282
1024.68705,0.20175
1023.19726,0.18436
1021.70747,0.17010
1020.21769,0.13583
1018.72790,0.10913
1017.23811,0.11357
1015.74832,0.11803
1014.25853,0.10312
1012.76874,0.10021
1011.27896,0.09732
1009.78917,0.11502
1008.29938,0.07495
1006.80959,0.06459
1005.31980,0.05424
1003.83001,0.01998
1002.34022,0.01853
1000.85044,0.03013
999.36065,0.03186
997.87086,0.03622
996.38107,0.04060
994.89128,0.04865
993.40149,0.05776
991.91171,0.06039
990.42192,0.06253
988.93213,0.09332
987.44234,0.09589
985.95255,0.09849
984.46276,0.09031
982.97297,0.07902
981.48319,0.08599
979.99340,0.07267
978.50361,0.06614
977.01382,0.05964
975.52403,0.05577
974.03424,0.04254
972.54446,0.02414
971.05467,0.01357
969.56488,0.00354
968.07509,0.00506
966.58530,0.00660
965.09551,0.00309
963.60573,0.01257
962.11594,0.03248
960.62615,0.01780
959.13636,0.02110
957.64657,0.02443
956.15678,0.03117
954.66699,0.03949
953.17721,0.04132
951.68742,0.04657
950.19763,0.05119
948.70784,0.05583
947.21805,0.07417
945.72826,0.08315
944.23848,0.10466
942.74869,0.13088
941.25890,0.13967
939.76911,0.14889
938.27932,0.15812
936.78953,0.16413
935.29974,0.16365
933.80996,0.18793
932.32017,0.21301
930.83038,0.21143
929.34059,0.20988
927.85080,0.23399
926.36101,0.26724
924.87123,0.28568
923.38144,0.33225
921.89165,0.37546
920.40186,0.41870
918.91207,0.51637
917.42228,0.61354
915.93250,0.75187
914.44271,0.94437
912.95292,1.05724
911.46313,1.17013
909.97334,1.36557
908.48355,1.61388
906.99376,1.75860
905.50398,1.90178
904.01419,1.95088
902.52440,2.00000
901.03461,1.94775
899.54482,1.93613
898.05503,1.78891
896.56525,1.69299
895.07546,1.56534
893.58567,1.43771
892.09588,1.21249
890.60609,0.91725
889.11630,0.68452
887.62651,0.50571
886.13673,0.43105
884.64694,0.35641
883.15715,0.26357
881.66736,0.18534
880.17757,0.15035
878.68778,0.13139
877.19800,0.11245
875.70821,0.08065
874.21842,0.07491
872.72863,0.04316
871.23884,0.03772
869.74905,0.02841
868.25927,0.01912
866.76948,0.02469
865.27969,0.01935
863.78990,0.03669
862.30011,0.01370
860.81032,0.02965
859.32053,0.04562
857.83075,0.07034
856.34096,0.06385
854.85117,0.08081
853.36138,0.09467
851.87159,0.10165
850.38180,0.10866
848.89202,0.11946
847.40223,0.13758
845.91244,0.14583
844.42265,0.15632
842.93286,0.16683
841.44307,0.17932
839.95329,0.18871
838.46350,0.21140
836.97371,0.22813
835.48392,0.21025
833.99413,0.19240
832.50434,0.21102
831.01455,0.20858
829.52477,0.18716
828.03498,0.17435
826.54519,0.16651
825.05540,0.15870
823.56561,0.12696
822.07582,0.12778
820.58604,0.10468
819.09625,0.10074
817.60646,0.09682
816.11667,0.07327
814.62688,0.08541
813.13709,0.09445
811.64730,0.10117
810.15752,0.09958
808.66773,0.09802
807.17794,0.10325
805.68815,0.10226
804.19836,0.12160
802.70857,0.11401
801.21879,0.10645
799.72900,0.09592
798.23921,0.07943
796.74942,0.08951
795.25963,0.08270
793.76984,0.07591
792.28006,0.10195
790.79027,0.10926
789.30048,0.10853
787.81069,0.13907
786.32090,0.15414
784.83111,0.16923
783.34132,0.20192
781.85154,0.22057
780.36175,0.26867
778.87196,0.28243
777.38217,0.29621
775.89238,0.30871
774.40259,0.31317
772.91281,0.29734
771.42302,0.28453
769.93323,0.27175
768.44344,0.26173
766.95365,0.23584
765.46386,0.19150
763.97407,0.15864
762.48429,0.14533
760.99450,0.13204
759.50471,0.11200
758.01492,0.10605
756.52513,0.10481
755.03534,0.09604
753.54556,0.08729
752.05577,0.07389
750.56598,0.04540
749.07619,0.04428
747.58640,0.04422
746.09661,0.04419
744.60683,0.02388
743.11704,0.03092
741.62725,0.01091
740.13746,0.01631
738.64767,0.02173
737.15788,0.01872
735.66809,0.00974
734.17831,0.01511
732.68852,0.01360
731.19873,0.01211
729.70894,0.00792
728.21915,0.02093
726.72936,0.00585
725.23958,0.01319
723.74979,0.01366
722.26000,0.01415
720.77021,0.04161
719.28042,0.01650
717.79063,0.02917
716.30084,0.02260
714.81106,0.01605
713.32127,0.00354
711.83148,0.02746
710.34169,0.02953
708.85190,0.03176
707.36211,0.03401
705.87233,0.03589
704.38254,0.03493
702.89275,0.04884
701.40296,0.05080
699.91317,0.05278
698.42338,0.05764
696.93360,0.06045
695.44381,0.09296
693.95402,0.09764
692.46423,0.10235
690.97444,0.10551
689.48465,0.11391
687.99486,0.15539
686.50508,0.16084
685.01529,0.16631
683.52550,0.21463
682.03571,0.22784
680.54592,0.24497
679.05613,0.24572
677.56635,0.24650
676.07656,0.23923
674.58677,0.23146
673.09698,0.22346
671.60719,0.21861
670.11740,0.21378
668.62761,0.18060
667.13783,0.16488
665.64804,0.14073
664.15825,0.11660
662.66846,0.10591
661.17867,0.08612
659.68888,0.06037
658.19910,0.04897
656.70931,0.03758
655.21952,0.04471
653.72973,0.03260
652.23994,0.04862
650.75015,0.04840
649.26037,0.04820
647.77058,0.06169
646.28079,0.04866
644.79100,0.02523
643.30121,0.02786
641.81142,0.03052
640.32163,0.01966
638.83185,0.02445
637.34206,0.02092
635.85227,0.01222
634.36248,0.00354
632.87269,0.01614
631.38290,0.02433
629.89312,0.01614
628.40333,0.01540
626.91354,0.01469
625.42375,0.01777
623.93396,0.01228
622.44417,0.01528
620.95438,0.01831
619.46460,0.01940
617.97481,0.03900
616.48502,0.07555
614.99523,0.07802
613.50544,0.08051
612.01565,0.08615
610.52587,0.12774
609.03608,0.19045
607.54629,0.18783
606.05650,0.18523
604.56671,0.20401
603.07692,0.26056
601.58714,0.29618
600.09735,0.33182
598.60756,0.37021
597.11777,0.38729
595.62798,0.37575
594.13819,0.36945
592.64840,0.36316
591.15862,0.34831
589.66883,0.28897
588.17904,0.23720
586.68925,0.21279
585.19946,0.18841
583.70967,0.14244
582.21989,0.12044
580.73010,0.09053
579.24031,0.06065
577.75052,0.07777
576.26073,0.05926
574.77094,0.05534
573.28115,0.04235
571.79137,0.02937
570.30158,0.02423
568.81179,0.05061
567.32200,0.04695
565.83221,0.04331
564.34242,0.06794
562.85264,0.09182
561.36285,0.08812
559.87306,0.10319
558.38327,0.11829
556.89348,0.11336
555.40369,0.10950
553.91391,0.11712
552.42412,0.12476
550.93433,0.13685
549.44454,0.14584
547.95475,0.15564
546.46496,0.15309
544.97517,0.15057
543.48539,0.19038
541.99560,0.19194
540.50581,0.20706
539.01602,0.22221
537.52623,0.24858
536.03644,0.28486
534.54666,0.31153
533.05687,0.33589
531.56708,0.36027
530.07729,0.42788
528.58750,0.47079
527.09771,0.50227
525.60792,0.53378
524.11814,0.59602
522.62835,0.60649
521.13856,0.66357
519.64877,0.71262
518.15898,0.76168
516.66919,0.78057
515.17941,0.71410
513.68962,0.71286
512.19983,0.71165
510.71004,0.71450
509.22025,0.67520
507.73046,0.63227
506.24068,0.59627
504.75089,0.56030
503.26110,0.42867
501.77131,0.30749
500.28152,0.25922
498.79173,0.21097
497.30194,0.17368
495.81216,0.14267
494.32237,0.12391
492.83258,0.10518
491.34279,0.07449
489.85300,0.06414
488.36321,0.04808
486.87343,0.04884
485.38364,0.04962
483.89385,0.04769
482.40406,0.07468
480.91427,0.07033
479.42448,0.06600
477.93469,0.09775
476.44491,0.10662
474.95512,0.10796
473.46533,0.10932
471.97554,0.12086
470.48575,0.12228
468.99596,0.12684
467.50618,0.11971
466.01639,0.11260
464.52660,0.10369
463.03681,0.08024
461.54702,0.06461
460.05723,0.04901
458.56745,0.02484
457.07766,0.03480
455.58787,0.02916
454.09808,0.02355
452.60829,0.02134
451.11850,0.00354
449.62871,0.00586
448.13893,0.00820
446.64914,0.00900
445.15935,0.00592
443.66956,0.00000
442.17977,0.01090
440.68998,0.02182
439.20020,0.01311
437.71041,0.01770
436.22062,0.02726
434.73083,0.03685
433.24104,0.00376
431.75125,0.02277
430.26146,0.02123
428.77168,0.01972
427.28189,0.02943
425.79210,0.02900
424.30231,0.02522
422.81252,0.02146
421.32273,0.02710
419.83295,0.00672
418.34316,0.01306
416.85337,0.01942
415.36358,0.00354
413.87379,0.02662
412.38400,0.03189
410.89422,0.03719
409.40443,0.01452
407.91464,0.03796
406.42485,0.03122
404.93506,0.02281
403.44527,0.01443
401.95548,0.00594
400.46570,0.00763
398.97591,0.02301
397.48612,0.03841
395.99633,0.02976
394.50654,0.04066
393.01675,0.03596
391.52697,0.03128
390.03718,0.01726
388.54739,0.02479
387.05760,0.02298
385.56781,0.02119
384.07802,0.00693
382.58824,0.00571
381.09845,0.00461
379.60866,0.00354
378.11887,0.02874
376.62908,0.02740
375.13929,0.01919
373.64950,0.01101
372.15972,0.03031
370.66993,0.02100
369.18014,0.01747
367.69035,0.01396
366.20056,0.02857
364.71077,0.03565
363.22099,0.03716
361.73120,0.03870
360.24141,0.02711
358.75162,0.03949
357.26183,0.04396
355.77204,0.04846
354.28225,0.04764
352.79247,0.06403
351.30268,0.06872
349.81289,0.07344
348.32310,0.06100
346.83331,0.04130
345.34352,0.04479
343.85374,0.04830
342.36395,0.03648
340.87416,0.01505
339.38437,0.02918
337.89458,0.04334
336.40479,0.06597
334.91501,0.06286
333.42522,0.05379
331.93543,0.04474
330.44564,0.03155
328.95585,0.00354
327.46606,0.01139
325.97627,0.01926
324.48649,0.06571
322.99670,0.05361
321.50691,0.05897
320.01712,0.06436
318.52733,0.09372
317.03754,0.11009
315.54776,0.09485
314.05797,0.07964
312.56818,0.09478
311.07839,0.10812
309.58860,0.09571
308.09881,0.08333
306.60902,0.05144
305.11924,0.06592
303.62945,0.05647
302.13966,0.04705
300.64987,0.02776
299.16008,0.00354
