1778.52000,0.01830
1777.03021,0.01924
1775.54042,0.01651
1774.05063,0.00794
1772.56085,0.01364
1771.07106,0.00473
1769.58127,0.01380
1768.09148,0.00982
1766.60169,0.01074
1765.11190,0.01948
1763.62212,0.01167
1762.13233,0.01363
1760.64254,0.01758
1759.15275,0.01803
1757.66296,0.01968
1756.17317,0.00710
1754.68339,0.01017
1753.19360,0.01227
1751.70381,0.01382
1750.21402,0.00954
1748.72423,0.00957
1747.23444,0.00924
1745.74465,0.01693
1744.25487,0.01197
1742.76508,0.02302
1741.27529,0.02123
1739.78550,0.01243
1738.29571,0.01901
1736.80592,0.02308
1735.31614,0.01976
1733.82635,0.01452
1732.33656,0.01359
1730.84677,0.01151
1729.35698,0.01004
1727.86719,0.00411
1726.37740,0.01010
1724.88762,0.01085
1723.39783,0.00831
1721.90804,0.01242
1720.41825,0.01793
1718.92846,0.00668
1717.43867,0.01203
1715.94889,0.01097
1714.45910,0.00623
1712.96931,0.01258
1711.47952,0.00509
1709.98973,0.00407
1708.49994,0.00288
1707.01016,0.00483
1705.52037,0.00681
1704.03058,0.00979
1702.54079,0.00869
1701.05100,0.00918
1699.56121,0.01827
1698.07142,0.01686
1696.58164,0.00473
1695.09185,0.02570
1693.60206,0.01645
1692.11227,0.01132
1690.62248,0.02435
1689.13269,0.01908
1687.64291,0.02631
1686.15312,0.02420
1684.66333,0.02543
1683.17354,0.02005
1681.68375,0.01587
1680.19396,0.02654
1678.70417,0.03060
1677.21439,0.03839
1675.72460,0.04659
1674.23481,0.04624
1672.74502,0.05741
1671.25523,0.04754
1669.76544,0.05760
1668.27566,0.05226
1666.78587,0.06315
1665.29608,0.06020
1663.80629,0.06723
1662.31650,0.06121
1660.82671,0.06907
1659.33693,0.07402
1657.84714,0.07393
1656.35735,0.06508
1654.86756,0.07030
1653.37777,0.07437
1651.88798,0.07672
1650.39819,0.06386
1648.90841,0.08401
1647.41862,0.08154
1645.92883,0.08554
1644.43904,0.08957
1642.94925,0.08834
1641.45946,0.08168
1639.96968,0.08929
1638.47989,0.09282
1636.99010,0.09716
1635.50031,0.08728
1634.01052,0.08249
1632.52073,0.08709
1631.03094,0.09152
1629.54116,0.08525
1628.05137,0.09441
1626.56158,0.09345
1625.07179,0.09779
1623.58200,0.08575
1622.09221,0.09130
1620.60243,0.09239
1619.11264,0.09604
1617.62285,0.09503
1616.13306,0.08643
1614.64327,0.07376
1613.15348,0.07341
1611.66370,0.09278
1610.17391,0.08877
1608.68412,0.09161
1607.19433,0.08979
1605.70454,0.09482
1604.21475,0.09227
1602.72496,0.08974
1601.23518,0.08938
1599.74539,0.07753
1598.25560,0.08600
1596.76581,0.07908
1595.27602,0.07394
1593.78623,0.07370
1592.29645,0.08149
1590.80666,0.07739
1589.31687,0.07664
1587.82708,0.06986
1586.33729,0.07481
1584.84750,0.08623
1583.35771,0.06821
1581.86793,0.07811
1580.37814,0.07808
1578.88835,0.06657
1577.39856,0.06191
1575.90877,0.06274
1574.41898,0.05442
1572.92920,0.04535
1571.43941,0.04137
1569.94962,0.03790
1568.45983,0.03446
1566.97004,0.02918
1565.48025,0.03174
1563.99047,0.03646
1562.50068,0.02853
1561.01089,0.01809
1559.52110,0.03634
1558.03131,0.03278
1556.54152,0.02377
1555.05173,0.02473
1553.56195,0.02182
1552.07216,0.01835
1550.58237,0.01822
1549.09258,0.01694
1547.60279,0.01646
1546.11300,0.00294
1544.62322,0.01600
1543.13343,0.00704
1541.64364,0.00473
1540.15385,0.00531
1538.66406,0.00590
1537.17427,0.00643
1535.68448,0.01415
1534.19470,0.01038
1532.70491,0.01386
1531.21512,0.00643
1529.72533,0.01346
1528.23554,0.01038
1526.74575,0.01492
1525.25597,0.02456
1523.76618,0.03013
1522.27639,0.02656
1520.78660,0.02359
1519.29681,0.02377
1517.80702,0.03314
1516.31724,0.04761
1514.82745,0.03595
1513.33766,0.04296
1511.84787,0.04999
1510.35808,0.03626
1508.86829,0.03524
1507.37850,0.04361
1505.88872,0.03307
1504.39893,0.03915
1502.90914,0.04212
1501.41935,0.05215
1499.92956,0.06805
1498.43977,0.06798
1496.94999,0.05641
1495.46020,0.06692
1493.97041,0.06887
1492.48062,0.10128
1490.99083,0.08728
1489.50104,0.10589
1488.01125,0.11876
1486.52147,0.13166
1485.03168,0.14311
1483.54189,0.18445
1482.05210,0.20376
1480.56231,0.21938
1479.07252,0.23074
1477.58274,0.24661
1476.09295,0.25080
1474.60316,0.24954
1473.11337,0.25456
1471.62358,0.26857
1470.13379,0.27890
1468.64401,0.28321
1467.15422,0.30510
1465.66443,0.31667
1464.17464,0.32826
1462.68485,0.34008
1461.19506,0.37923
1459.70527,0.44007
1458.21549,0.48512
1456.72570,0.55615
1455.23591,0.62213
1453.74612,0.66219
1452.25633,0.68763
1450.76654,0.68832
1449.27676,0.70562
1447.78697,0.69211
1446.29718,0.69619
1444.80739,0.67210
1443.31760,0.64803
1441.82781,0.60711
1440.33802,0.55139
1438.84824,0.53139
1437.35845,0.50791
1435.86866,0.51332
1434.37887,0.52306
1432.88908,0.56715
1431.39929,0.59059
1429.90951,0.65268
1428.41972,0.71733
1426.92993,0.79216
1425.44014,0.85159
1423.95035,0.87837
1422.46056,0.90517
1420.97078,0.93657
1419.48099,0.93172
1417.99120,0.93352
1416.50141,0.90627
1415.01162,0.91514
1413.52183,0.86570
1412.03204,0.79775
1410.54226,0.71811
1409.05247,0.64708
1407.56268,0.62447
1406.07289,0.57436
1404.58310,0.53863
1403.09331,0.50291
1401.60353,0.45327
1400.11374,0.39975
1398.62395,0.36342
1397.13416,0.32029
1395.64437,0.28128
1394.15458,0.22825
1392.66479,0.19085
1391.17501,0.16459
1389.68522,0.13465
1388.19543,0.11742
1386.70564,0.10782
1385.21585,0.09824
1383.72606,0.07581
1382.23628,0.05380
1380.74649,0.03805
1379.25670,0.03071
1377.76691,0.02340
1376.27712,0.01592
1374.78733,0.01841
1373.29755,0.00473
1371.80776,0.01329
1370.31797,0.00879
1368.82818,0.00792
1367.33839,0.00709
1365.84860,0.01651
1364.35881,0.02948
1362.86903,0.03719
1361.37924,0.05313
1359.88945,0.06168
1358.39966,0.09074
1356.90987,0.13621
1355.42008,0.18053
1353.93030,0.22995
1352.44051,0.25423
1350.95072,0.27853
1349.46093,0.35494
1347.97114,0.39158
1346.48135,0.49556
1344.99156,0.55370
1343.50178,0.64660
1342.01199,0.68002
1340.52220,0.72088
1339.03241,0.79590
1337.54262,0.81046
1336.05283,0.82876
1334.56305,0.84708
1333.07326,0.86249
1331.58347,0.87910
1330.09368,0.86081
1328.60389,0.87825
1327.11410,0.85766
1325.62432,0.81779
1324.13453,0.76857
1322.64474,0.74377
1321.15495,0.72874
1319.66516,0.69696
1318.17537,0.66520
1316.68558,0.63483
1315.19580,0.59903
1313.70601,0.54783
1312.21622,0.50232
1310.72643,0.47965
1309.23664,0.44219
1307.74685,0.41742
1306.25707,0.37805
1304.76728,0.36085
1303.27749,0.34367
1301.78770,0.28876
1300.29791,0.26763
1298.80812,0.21785
1297.31834,0.17999
1295.82855,0.15678
1294.33876,0.11389
1292.84897,0.11395
1291.35918,0.09823
1289.86939,0.10195
1288.37960,0.10569
1286.88982,0.08263
1285.40003,0.07072
1283.91024,0.06682
1282.42045,0.07017
1280.93066,0.03999
1279.44087,0.04299
1277.95109,0.03685
1276.46130,0.03991
1274.97151,0.03752
1273.48172,0.03516
1271.99193,0.03068
1270.50214,0.03110
1269.01235,0.02627
1267.52257,0.02381
1266.03278,0.03152
1264.54299,0.02130
1263.05320,0.01833
1261.56341,0.01431
1260.07362,0.01031
1258.58384,0.00428
1257.09405,0.00901
1255.60426,0.00694
1254.11447,0.00840
1252.62468,0.01301
1251.13489,0.00983
1249.64511,0.00473
1248.15532,0.00500
1246.66553,0.00957
1245.17574,0.01417
1243.68595,0.01791
1242.19616,0.01466
1240.70637,0.00674
1239.21659,0.01212
1237.72680,0.01732
1236.23701,0.02626
1234.74722,0.02761
1233.25743,0.02371
1231.76764,0.01984
1230.27786,0.02595
1228.78807,0.02173
1227.29828,0.03472
1225.80849,0.02216
1224.31870,0.00846
1222.82891,0.00473
1221.33912,0.01832
1219.84934,0.02121
1218.35955,0.02411
1216.86976,0.04792
1215.37997,0.05692
1213.89018,0.05405
1212.40039,0.08027
1210.91061,0.07042
1209.42082,0.06645
1207.93103,0.07128
1206.44124,0.07613
1204.95145,0.07671
1203.46166,0.06815
1201.97188,0.06196
1200.48209,0.06632
1198.99230,0.07071
1197.50251,0.06166
1196.01272,0.03780
1194.52293,0.04021
1193.03314,0.04265
1191.54336,0.02101
1190.05357,0.02418
1188.56378,0.00473
1187.07399,0.01442
1185.58420,0.01906
1184.09441,0.01260
1182.60463,0.01368
1181.11484,0.01478
1179.62505,0.00976
1178.13526,0.01412
1176.64547,0.01286
1175.15568,0.00927
1173.66589,0.00747
1172.17611,0.00881
1170.68632,0.00676
1169.19653,0.00473
1167.70674,0.00888
1166.21695,0.00506
1164.72716,0.01979
1163.23738,0.02285
1161.74759,0.03997
1160.25780,0.04502
1158.76801,0.05595
1157.27822,0.06690
1155.78843,0.07417
1154.29865,0.07912
1152.80886,0.08546
1151.31907,0.10295
1149.82928,0.10719
1148.33949,0.12375
1146.84970,0.12657
1145.35991,0.12943
1143.87013,0.11523
1142.38034,0.13481
1140.89055,0.16144
1139.40076,0.16311
1137.91097,0.18569
1136.42118,0.18664
1134.93140,0.19014
1133.44161,0.19367
1131.95182,0.21361
1130.46203,0.21114
1128.97224,0.24128
1127.48245,0.23281
1125.99266,0.22221
1124.50288,0.22218
1123.01309,0.22568
1121.52330,0.22920
1120.03351,0.22085
1118.54372,0.23047
1117.05393,0.20519
1115.56415,0.22266
1114.07436,0.23372
1112.58457,0.22773
1111.09478,0.22177
1109.60499,0.22100
1108.11520,0.21518
1106.62542,0.20957
1105.13563,0.22702
1103.64584,0.21737
1102.15605,0.22901
1100.66626,0.21950
1099.17647,0.21002
1097.68668,0.19285
1096.19690,0.19913
1094.70711,0.19645
1093.21732,0.20979
1091.72753,0.18492
1090.23774,0.18660
1088.74795,0.18831
1087.25817,0.17112
1085.76838,0.17795
1084.27859,0.18558
1082.78880,0.21002
1081.29901,0.18511
1079.80922,0.20023
1078.31943,0.20562
1076.82965,0.21103
1075.33986,0.19383
1073.85007,0.20339
1072.36028,0.19736
1070.87049,0.22843
1069.38070,0.26127
1067.89092,0.27444
1066.40113,0.28763
1064.91134,0.37108
1063.42155,0.43465
1061.93176,0.52556
1060.44197,0.61181
1058.95219,0.69341
1057.46240,0.74635
1055.97261,0.79931
1054.48282,0.89912
1052.99303,0.99037
1051.50324,1.01843
1050.01345,0.97842
1048.52367,0.94468
1047.03388,0.93379
1045.54409,0.92292
1044.05430,0.87461
1042.56451,0.81053
1041.07472,0.74003
1039.58494,0.68224
1038.09515,0.59872
1036.60536,0.55912
1035.11557,0.51954
1033.62578,0.49092
1032.13599,0.40261
1030.64620,0.34418
1029.15642,0.29729
1027.66663,0.26905
1026.17684,0.24084
1024.68705,0.21138
1023.19726,0.19131
1021.70747,0.16034
1020.21769,0.12919
1018.72790,0.10842
1017.23811,0.11264
1015.74832,0.11688
1014.25853,0.10046
1012.76874,0.09500
1011.27896,0.09580
1009.78917,0.07302
1008.29938,0.06626
1006.80959,0.05221
1005.31980,0.03818
1003.83001,0.03267
1002.34022,0.02132
1000.85044,0.03380
999.36065,0.05041
997.87086,0.05201
996.38107,0.05364
994.89128,0.08358
993.40149,0.09832
991.91171,0.11895
990.42192,0.13238
988.93213,0.14076
987.44234,0.13970
985.95255,0.13866
984.46276,0.15355
982.97297,0.14544
981.48319,0.13424
979.99340,0.10628
978.50361,0.09970
977.01382,0.09315
975.52403,0.07209
974.03424,0.05008
972.54446,0.03316
971.05467,0.03987
969.56488,0.00779
968.07509,0.01143
966.58530,0.01509
965.09551,0.00473
963.60573,0.00893
962.11594,0.01920
960.62615,0.00413
959.13636,0.01259
957.64657,0.02107
956.15678,0.02753
954.66699,0.02797
953.17721,0.02980
951.68742,0.04472
950.19763,0.04162
948.70784,0.03854
947.21805,0.05783
945.72826,0.06855
944.23848,0.08691
942.74869,0.10881
941.25890,0.12507
939.76911,0.13481
938.27932,0.14459
936.78953,0.16423
935.29974,0.16186
933.80996,0.17278
932.32017,0.18742
930.83038,0.18600
929.34059,0.18460
927.85080,0.21980
926.36101,0.24391
924.87123,0.27331
923.38144,0.31990
921.89165,0.35091
920.40186,0.38194
918.91207,0.46997
917.42228,0.61012
915.93250,0.76843
914.44271,0.95233
912.95292,1.06815
911.46313,1.18401
909.97334,1.39665
908.48355,1.64191
906.99376,1.80095
905.50398,1.89134
904.01419,1.94566
902.52440,2.00000
901.03461,1.98120
899.54482,1.90799
898.05503,1.79578
896.56525,1.61784
895.07546,1.49827
893.58567,1.37871
892.09588,1.13295
890.60609,0.86829
889.11630,0.66081
887.62651,0.47931
886.13673,0.41705
884.64694,0.35480
883.15715,0.24791
881.66736,0.18123
880.17757,0.14754
878.68778,0.12890
877.19800,0.11029
875.70821,0.09502
874.21842,0.06357
872.72863,0.03918
871.23884,0.04388
869.74905,0.03933
868.25927,0.03481
866.76948,0.03373
865.27969,0.02955
863.78990,0.03632
862.30011,0.05677
860.81032,0.06720
859.32053,0.07765
857.83075,0.09641
856.34096,0.11345
854.85117,0.12017
853.36138,0.13374
851.87159,0.13836
850.38180,0.14300
848.89202,0.15547
847.40223,0.18767
845.91244,0.20214
844.42265,0.21391
842.93286,0.22569
841.44307,0.23750
839.95329,0.26026
838.46350,0.26627
836.97371,0.27698
835.48392,0.27396
833.99413,0.27096
832.50434,0.27901
831.01455,0.26855
829.52477,0.24368
828.03498,0.22410
826.54519,0.21020
825.05540,0.19632
823.56561,0.17934
822.07582,0.16883
820.58604,0.15620
819.09625,0.14427
817.60646,0.13237
816.11667,0.11141
814.62688,0.12775
813.13709,0.13943
811.64730,0.13786
810.15752,0.13661
808.66773,0.13539
807.17794,0.14814
805.68815,0.15857
804.19836,0.16825
802.70857,0.16292
801.21879,0.15762
799.72900,0.14415
798.23921,0.11841
796.74942,0.12918
795.25963,0.12993
793.76984,0.13070
792.28006,0.13764
790.79027,0.15455
789.30048,0.17168
787.81069,0.20230
786.32090,0.21841
784.83111,0.23454
783.34132,0.25587
781.85154,0.30941
780.36175,0.35732
778.87196,0.37325
777.38217,0.38921
775.89238,0.39270
774.40259,0.39310
772.91281,0.38942
771.42302,0.37748
769.93323,0.36556
768.44344,0.31747
766.95365,0.27291
765.46386,0.24107
763.97407,0.18993
762.48429,0.17442
760.99450,0.15893
759.50471,0.14181
758.01492,0.11867
756.52513,0.11955
755.03534,0.10991
753.54556,0.10030
752.05577,0.07570
750.56598,0.05599
749.07619,0.06713
747.58640,0.06649
746.09661,0.06588
744.60683,0.04471
743.11704,0.01693
741.62725,0.01668
740.13746,0.01840
738.64767,0.02015
737.15788,0.02193
735.66809,0.01338
734.17831,0.01306
732.68852,0.01617
731.19873,0.01931
729.70894,0.00579
728.21915,0.01165
726.72936,0.00720
725.23958,0.01461
723.74979,0.01415
722.26000,0.01370
720.77021,0.02197
719.28042,0.01270
717.79063,0.00579
716.30084,0.00750
714.81106,0.00922
713.32127,0.00473
711.83148,0.00580
710.34169,0.01041
708.85190,0.02109
707.36211,0.03179
705.87233,0.03139
704.38254,0.02829
702.89275,0.03945
701.40296,0.04810
699.91317,0.05678
698.42338,0.06684
696.93360,0.06854
695.44381,0.08353
693.95402,0.09444
692.46423,0.10538
690.97444,0.11420
689.48465,0.12597
687.99486,0.16117
686.50508,0.17328
685.01529,0.18542
683.52550,0.20021
682.03571,0.22790
680.54592,0.25483
679.05613,0.24784
677.56635,0.24087
676.07656,0.24154
674.58677,0.25043
673.09698,0.20919
671.60719,0.20983
670.11740,0.21050
668.62761,0.17870
667.13783,0.15317
665.64804,0.13879
664.15825,0.12442
662.66846,0.10170
661.17867,0.07685
659.68888,0.05846
658.19910,0.04849
656.70931,0.03854
655.21952,0.03154
653.72973,0.03783
652.23994,0.04083
650.75015,0.03566
649.26037,0.03051
647.77058,0.04529
646.28079,0.04019
644.79100,0.03609
643.30121,0.03972
641.81142,0.04338
640.32163,0.02452
638.83185,0.03281
637.34206,0.03019
635.85227,0.02389
634.36248,0.01762
632.87269,0.00473
631.38290,0.00783
629.89312,0.01056
628.40333,0.00844
626.91354,0.00634
625.42375,0.00914
623.93396,0.01236
622.44417,0.01189
620.95438,0.01145
619.46460,0.03366
617.97481,0.05336
616.48502,0.06509
614.99523,0.07499
613.50544,0.08490
612.01565,0.10529
610.52587,0.13447
609.03608,0.17773
607.54629,0.20130
606.05650,0.22490
604.56671,0.23858
603.07692,0.30105
601.58714,0.34423
600.09735,0.38743
598.60756,0.41135
597.11777,0.42046
595.62798,0.42354
594.13819,0.41046
592.64840,0.39739
591.15862,0.36407
589.66883,0.31398
588.17904,0.25826
586.68925,0.22540
585.19946,0.19255
583.70967,0.15056
582.21989,0.12362
580.73010,0.11007
579.24031,0.09654
577.75052,0.07552
576.26073,0.05921
574.77094,0.05482
573.28115,0.05348
571.79137,0.05217
570.30158,0.04317
568.81179,0.06873
567.32200,0.07149
565.83221,0.07427
564.34242,0.08996
562.85264,0.11893
561.36285,0.16041
559.87306,0.16027
558.38327,0.16014
556.89348,0.17185
555.40369,0.18396
553.91391,0.17962
552.42412,0.17530
550.93433,0.19139
549.44454,0.20536
547.95475,0.22170
546.46496,0.21981
544.97517,0.21795
543.48539,0.22655
541.99560,0.23245
540.50581,0.25017
539.01602,0.26792
537.52623,0.31037
536.03644,0.34231
534.54666,0.37778
533.05687,0.39543
531.56708,0.41310
530.07729,0.46074
528.58750,0.50782
527.09771,0.54878
525.60792,0.58977
524.11814,0.63029
522.62835,0.65503
521.13856,0.72545
519.64877,0.75082
518.15898,0.77622
516.66919,0.78037
515.17941,0.78162
513.68962,0.78407
512.19983,0.78654
510.71004,0.78552
509.22025,0.74043
507.73046,0.67254
506.24068,0.63481
504.75089,0.59711
503.26110,0.47622
501.77131,0.35926
500.28152,0.31324
498.79173,0.26724
497.30194,0.21571
495.81216,0.16908
494.32237,0.14803
492.83258,0.12701
491.34279,0.09020
489.85300,0.08172
488.36321,0.06584
486.87343,0.06969
485.38364,0.07356
483.89385,0.07336
482.40406,0.10011
480.91427,0.10142
479.42448,0.10276
477.93469,0.13563
476.44491,0.14160
474.95512,0.15588
473.46533,0.17019
471.97554,0.19555
470.48575,0.19478
468.99596,0.19092
467.50618,0.19001
466.01639,0.18912
464.52660,0.14709
463.03681,0.11503
461.54702,0.09646
460.05723,0.07791
458.56745,0.06075
457.07766,0.04791
455.58787,0.04846
454.09808,0.04903
452.60829,0.04348
451.11850,0.02195
449.62871,0.01908
448.13893,0.01624
446.64914,0.00473
445.15935,0.01954
443.66956,0.02754
442.17977,0.03224
440.68998,0.03697
439.20020,0.03529
437.71041,0.03967
436.22062,0.03843
434.73083,0.03720
433.24104,0.03405
431.75125,0.03893
430.26146,0.04158
428.77168,0.04426
427.28189,0.04413
425.79210,0.05339
424.30231,0.05409
422.81252,0.05481
421.32273,0.03605
419.83295,0.02160
418.34316,0.03235
416.85337,0.04312
415.36358,0.03694
413.87379,0.03371
412.38400,0.03333
410.89422,0.03298
409.40443,0.03782
407.91464,0.03371
406.42485,0.03430
404.93506,0.03112
403.44527,0.02796
401.95548,0.03214
400.46570,0.02619
398.97591,0.02993
397.48612,0.03370
395.99633,0.03173
394.50654,0.02120
393.01675,0.01713
391.52697,0.01309
390.03718,0.00595
388.54739,0.02013
387.05760,0.01190
385.56781,0.00370
384.07802,0.01181
382.58824,0.01272
381.09845,0.01327
379.60866,0.01384
378.11887,0.00000
376.62908,0.00992
375.13929,0.00717
373.64950,0.00446
372.15972,0.01542
370.66993,0.01099
369.18014,0.00785
367.69035,0.00473
366.20056,0.02789
364.71077,0.05225
363.22099,0.03497
361.73120,0.01772
360.24141,0.03063
358.75162,0.04532
357.26183,0.04073
355.77204,0.03615
354.28225,0.04292
352.79247,0.05088
351.30268,0.04735
349.81289,0.04385
348.32310,0.05676
346.83331,0.03145
345.34352,0.02461
343.85374,0.01779
342.36395,0.03411
340.87416,0.03094
339.38437,0.02234
337.89458,0.01376
336.40479,0.01691
334.91501,0.02535
333.42522,0.02543
331.93543,0.02553
330.44564,0.02643
328.95585,0.01995
327.46606,0.01768
325.97627,0.01544
324.48649,0.03500
322.99670,0.04913
321.50691,0.03937
320.01712,0.02964
318.52733,0.07155
317.03754,0.06547
315.54776,0.06518
314.05797,0.06491
312.56818,0.07023
311.07839,0.07089
309.58860,0.07137
308.09881,0.07188
306.60902,0.03788
305.11924,0.03337
303.62945,0.02400
302.13966,0.01231
300.64987,0.00473
299.16008,0.00473
