1778.52000,0.01435
1777.03021,0.00780
1775.54042,0.01755
1774.05063,0.00437
1772.56085,0.01707
1771.07106,0.00045
1769.58127,0.01087
1768.09148,0.01377
1766.60169,0.00768
1765.11190,0.01062
1763.62212,0.01620
1762.13233,0.00786
1760.64254,0.01552
1759.15275,0.01537
1757.66296,0.00477
1756.17317,0.01076
1754.68339,0.00516
1753.19360,0.01003
1751.70381,0.01116
1750.21402,0.00475
1748.72423,0.01348
1747.23444,0.00625
1745.74465,0.00514
1744.25487,0.00726
1742.76508,0.01347
1741.27529,0.00372
1739.78550,0.02014
1738.29571,0.00463
1736.80592,0.02044
1735.31614,0.00635
1733.82635,0.01610
1732.33656,0.01862
1730.84677,0.00780
1729.35698,0.00077
1727.86719,0.02051
1726.37740,0.01411
1724.88762,0.01239
1723.39783,0.00343
1721.90804,0.01571
1720.41825,0.00477
1718.92846,0.01547
1717.43867,0.02125
1715.94889,0.00905
1714.45910,0.01139
1712.96931,0.01463
1711.47952,0.00685
1709.98973,0.00346
1708.49994,0.00910
1707.01016,0.00560
1705.52037,0.00214
1704.03058,0.00000
1702.54079,0.00621
1701.05100,0.01158
1699.56121,0.00302
1698.07142,0.00785
1696.58164,0.01155
1695.09185,0.00742
1693.60206,0.01465
1692.11227,0.02539
1690.62248,0.00477
1689.13269,0.01925
1687.64291,0.02359
1686.15312,0.01720
1684.66333,0.01839
1683.17354,0.02222
1681.68375,0.02549
1680.19396,0.03402
1678.70417,0.03908
1677.21439,0.03197
1675.72460,0.02720
1674.23481,0.04570
1672.74502,0.04650
1671.25523,0.05371
1669.76544,0.06386
1668.27566,0.06037
1666.78587,0.05836
1665.29608,0.08398
1663.80629,0.07417
1662.31650,0.07892
1660.82671,0.08049
1659.33693,0.09836
1657.84714,0.08720
1656.35735,0.07780
1654.86756,0.09051
1653.37777,0.08174
1651.88798,0.08840
1650.39819,0.08752
1648.90841,0.07650
1647.41862,0.08207
1645.92883,0.08286
1644.43904,0.08368
1642.94925,0.08612
1641.45946,0.09208
1639.96968,0.09921
1638.47989,0.10144
1636.99010,0.10136
1635.50031,0.06847
1634.01052,0.07716
1632.52073,0.09226
1631.03094,0.08444
1629.54116,0.08942
1628.05137,0.07641
1626.56158,0.09509
1625.07179,0.10189
1623.58200,0.10087
1622.09221,0.09609
1620.60243,0.10267
1619.11264,0.09968
1617.62285,0.09817
1616.13306,0.09959
1614.64327,0.09057
1613.15348,0.09088
1611.66370,0.09586
1610.17391,0.10260
1608.68412,0.09949
1607.19433,0.09408
1605.70454,0.09945
1604.21475,0.09888
1602.72496,0.09834
1601.23518,0.10261
1599.74539,0.09499
1598.25560,0.08944
1596.76581,0.09843
1595.27602,0.10048
1593.78623,0.10080
1592.29645,0.08285
1590.80666,0.08381
1589.31687,0.09583
1587.82708,0.09015
1586.33729,0.08362
1584.84750,0.08641
1583.35771,0.10027
1581.86793,0.09294
1580.37814,0.08361
1578.88835,0.09638
1577.39856,0.09813
1575.90877,0.08247
1574.41898,0.07701
1572.92920,0.06372
1571.43941,0.06354
1569.94962,0.05524
1568.45983,0.04696
1566.97004,0.03929
1565.48025,0.05083
1563.99047,0.04844
1562.50068,0.03793
1561.01089,0.04053
1559.52110,0.03676
1558.03131,0.04376
1556.54152,0.02318
1555.05173,0.03082
1553.56195,0.03266
1552.07216,0.02610
1550.58237,0.01899
1549.09258,0.02701
1547.60279,0.03505
1546.11300,0.02394
1544.62322,0.02883
1543.13343,0.01661
1541.64364,0.01603
1540.15385,0.01039
1538.66406,0.00477
1537.17427,0.03934
1535.68448,0.02279
1534.19470,0.02573
1532.70491,0.02608
1531.21512,0.02268
1529.72533,0.02511
1528.23554,0.03454
1526.74575,0.02859
1525.25597,0.04446
1523.76618,0.03450
1522.27639,0.05099
1520.78660,0.03788
1519.29681,0.04774
1517.80702,0.04485
1516.31724,0.05679
1514.82745,0.07603
1513.33766,0.06972
1511.84787,0.06343
1510.35808,0.05223
1508.86829,0.05674
1507.37850,0.05081
1505.88872,0.05246
1504.39893,0.06053
1502.90914,0.03667
1501.41935,0.06105
1499.92956,0.07414
1498.43977,0.09189
1496.94999,0.09369
1495.46020,0.09028
1493.97041,0.10549
1492.48062,0.11171
1490.99083,0.11070
1489.50104,0.11843
1488.01125,0.13010
1486.52147,0.14180
1485.03168,0.15222
1483.54189,0.17108
1482.05210,0.19578
1480.56231,0.20714
1479.07252,0.22346
1477.58274,0.24300
1476.09295,0.24862
1474.60316,0.24497
1473.11337,0.24569
1471.62358,0.25632
1470.13379,0.27250
1468.64401,0.25732
1467.15422,0.28720
1465.66443,0.30809
1464.17464,0.32901
1462.68485,0.32468
1461.19506,0.35930
1459.70527,0.41196
1458.21549,0.49516
1456.72570,0.55426
1455.23591,0.67004
1453.74612,0.66788
1452.25633,0.70730
1450.76654,0.72175
1449.27676,0.73187
1447.78697,0.71935
1446.29718,0.69290
1444.80739,0.68624
1443.31760,0.67960
1441.82781,0.62563
1440.33802,0.60771
1438.84824,0.55669
1437.35845,0.56641
1435.86866,0.53345
1434.37887,0.55660
1432.88908,0.58005
1431.39929,0.59801
1429.90951,0.66190
1428.41972,0.74703
1426.92993,0.83334
1425.44014,0.90341
1423.95035,0.92119
1422.46056,0.93901
1420.97078,0.98997
1419.48099,0.96947
1417.99120,0.97574
1416.50141,0.97069
1415.01162,0.94620
1413.52183,0.92377
1412.03204,0.84151
1410.54226,0.78920
1409.05247,0.72704
1407.56268,0.65095
1406.07289,0.61673
1404.58310,0.58747
1403.09331,0.55823
1401.60353,0.48253
1400.11374,0.43678
1398.62395,0.38001
1397.13416,0.32443
1395.64437,0.28108
1394.15458,0.22642
1392.66479,0.18950
1391.17501,0.18080
1389.68522,0.12766
1388.19543,0.12772
1386.70564,0.11444
1385.21585,0.10118
1383.72606,0.07022
1382.23628,0.04945
1380.74649,0.04033
1379.25670,0.02194
1377.76691,0.01752
1376.27712,0.01079
1374.78733,0.01746
1373.29755,0.00962
1371.80776,0.02331
1370.31797,0.00477
1368.82818,0.00663
1367.33839,0.00852
1365.84860,0.00680
1364.35881,0.02776
1362.86903,0.04323
1361.37924,0.05581
1359.88945,0.06029
1358.39966,0.11186
1356.90987,0.14427
1355.42008,0.19705
1353.93030,0.26467
1352.44051,0.28859
1350.95072,0.31253
1349.46093,0.38255
1347.97114,0.42615
1346.48135,0.51859
1344.99156,0.60001
1343.50178,0.67709
1342.01199,0.73387
1340.52220,0.78776
1339.03241,0.85533
1337.54262,0.90142
1336.05283,0.92284
1334.56305,0.94428
1333.07326,0.95529
1331.58347,0.98114
1330.09368,0.96721
1328.60389,0.97015
1327.11410,0.93912
1325.62432,0.89330
1324.13453,0.81845
1322.64474,0.79883
1321.15495,0.80683
1319.66516,0.78246
1318.17537,0.75811
1316.68558,0.69355
1315.19580,0.63715
1313.70601,0.61389
1312.21622,0.55085
1310.72643,0.51602
1309.23664,0.47714
1307.74685,0.45340
1306.25707,0.41138
1304.76728,0.39291
1303.27749,0.37447
1301.78770,0.32671
1300.29791,0.28159
1298.80812,0.23416
1297.31834,0.20943
1295.82855,0.15914
1294.33876,0.13591
1292.84897,0.10049
1291.35918,0.11246
1289.86939,0.11632
1288.37960,0.12020
1286.88982,0.11248
1285.40003,0.09869
1283.91024,0.07242
1282.42045,0.06623
1280.93066,0.05076
1279.44087,0.06089
1277.95109,0.03908
1276.46130,0.04838
1274.97151,0.04609
1273.48172,0.04382
1271.99193,0.05145
1270.50214,0.05300
1269.01235,0.04267
1267.52257,0.03700
1266.03278,0.05316
1264.54299,0.04405
1263.05320,0.03411
1261.56341,0.03319
1260.07362,0.03229
1258.58384,0.02561
1257.09405,0.02535
1255.60426,0.01349
1254.11447,0.01966
1252.62468,0.01249
1251.13489,0.00477
1249.64511,0.02642
1248.15532,0.02834
1246.66553,0.02549
1245.17574,0.02266
1243.68595,0.02611
1242.19616,0.03887
1240.70637,0.02638
1239.21659,0.01392
1237.72680,0.01397
1236.23701,0.02480
1234.74722,0.03216
1233.25743,0.02342
1231.76764,0.01471
1230.27786,0.01779
1228.78807,0.04326
1227.29828,0.02721
1225.80849,0.02223
1224.31870,0.02598
1222.82891,0.00477
1221.33912,0.02680
1219.84934,0.02676
1218.35955,0.02675
1216.86976,0.04129
1215.37997,0.05121
1213.89018,0.05273
1212.40039,0.07431
1210.91061,0.06803
1209.42082,0.07340
1207.93103,0.07631
1206.44124,0.07926
1204.95145,0.06697
1203.46166,0.06110
1201.97188,0.04130
1200.48209,0.07035
1198.99230,0.06106
1197.50251,0.06255
1196.01272,0.04750
1194.52293,0.04453
1193.03314,0.04159
1191.54336,0.01760
1190.05357,0.02124
1188.56378,0.01793
1187.07399,0.00477
1185.58420,0.01907
1184.09441,0.02409
1182.60463,0.02201
1181.11484,0.01996
1179.62505,0.01866
1178.13526,0.00577
1176.64547,0.00858
1175.15568,0.01956
1173.66589,0.02678
1172.17611,0.02037
1170.68632,0.01776
1169.19653,0.01518
1167.70674,0.00477
1166.21695,0.00619
1164.72716,0.03611
1163.23738,0.03932
1161.74759,0.03151
1160.25780,0.06353
1158.76801,0.06231
1157.27822,0.06111
1155.78843,0.08420
1154.29865,0.06721
1152.80886,0.09180
1151.31907,0.10421
1149.82928,0.11170
1148.33949,0.11544
1146.84970,0.12937
1145.35991,0.14333
1143.87013,0.12651
1142.38034,0.15388
1140.89055,0.14699
1139.40076,0.17790
1137.91097,0.17890
1136.42118,0.19765
1134.93140,0.20872
1133.44161,0.21982
1131.95182,0.19738
1130.46203,0.23192
1128.97224,0.22841
1127.48245,0.24062
1125.99266,0.24472
1124.50288,0.21979
1123.01309,0.22670
1121.52330,0.23363
1120.03351,0.22998
1118.54372,0.24233
1117.05393,0.23495
1115.56415,0.24619
1114.07436,0.24728
1112.58457,0.24651
1111.09478,0.24577
1109.60499,0.23037
1108.11520,0.25277
1106.62542,0.23365
1105.13563,0.21861
1103.64584,0.23499
1102.15605,0.19617
1100.66626,0.19356
1099.17647,0.19097
1097.68668,0.20047
1096.19690,0.20504
1094.70711,0.19512
1093.21732,0.20410
1091.72753,0.19916
1090.23774,0.19396
1088.74795,0.18878
1087.25817,0.16648
1085.76838,0.18023
1084.27859,0.18180
1082.78880,0.17614
1081.29901,0.16526
1079.80922,0.17621
1078.31943,0.17366
1076.82965,0.17114
1075.33986,0.16734
1073.85007,0.16036
1072.36028,0.17753
1070.87049,0.17583
1069.38070,0.19072
1067.89092,0.21536
1066.40113,0.24003
1064.91134,0.28347
1063.42155,0.37080
1061.93176,0.45844
1060.44197,0.51880
1058.95219,0.57366
1057.46240,0.61882
1055.97261,0.66399
1054.48282,0.74798
1052.99303,0.82676
1051.50324,0.86286
1050.01345,0.84203
1048.52367,0.80873
1047.03388,0.81933
1045.54409,0.82995
1044.05430,0.79411
1042.56451,0.72371
1041.07472,0.70302
1039.58494,0.63326
1038.09515,0.57921
1036.60536,0.54624
1035.11557,0.51331
1033.62578,0.47385
1032.13599,0.42251
1030.64620,0.35289
1029.15642,0.30596
1027.66663,0.28171
1026.17684,0.25748
1024.68705,0.22718
1023.19726,0.19807
1021.70747,0.16375
1020.21769,0.15386
1018.72790,0.11900
1017.23811,0.11831
1015.74832,0.11764
1014.25853,0.10465
1012.76874,0.10273
1011.27896,0.08252
1009.78917,0.09575
1008.29938,0.07763
1006.80959,0.05880
1005.31980,0.04000
1003.83001,0.03269
1002.34022,0.03268
1000.85044,0.03152
999.36065,0.03795
997.87086,0.04454
996.38107,0.05116
994.89128,0.05127
993.40149,0.06215
991.91171,0.07276
990.42192,0.08485
988.93213,0.09609
987.44234,0.09791
985.95255,0.09976
984.46276,0.11659
982.97297,0.10439
981.48319,0.07915
979.99340,0.05334
978.50361,0.05603
977.01382,0.05875
975.52403,0.04551
974.03424,0.04624
972.54446,0.02898
971.05467,0.00477
969.56488,0.00664
968.07509,0.00854
966.58530,0.01046
965.09551,0.01240
963.60573,0.01641
962.11594,0.01259
960.62615,0.00821
959.13636,0.00735
957.64657,0.00650
956.15678,0.02050
954.66699,0.01797
953.17721,0.02330
951.68742,0.04115
950.19763,0.03912
948.70784,0.03711
947.21805,0.06143
945.72826,0.06281
944.23848,0.08340
942.74869,0.11650
941.25890,0.13103
939.76911,0.14355
938.27932,0.15609
936.78953,0.15268
935.29974,0.18445
933.80996,0.18399
932.32017,0.20099
930.83038,0.20189
929.34059,0.20281
927.85080,0.20913
926.36101,0.26632
924.87123,0.27182
923.38144,0.32818
921.89165,0.35712
920.40186,0.38608
918.91207,0.45036
917.42228,0.58789
915.93250,0.72399
914.44271,0.89062
912.95292,1.02575
911.46313,1.16090
909.97334,1.34998
908.48355,1.61520
906.99376,1.78893
905.50398,1.87464
904.01419,1.93379
902.52440,1.99296
901.03461,2.00000
899.54482,1.94692
898.05503,1.80263
896.56525,1.67406
895.07546,1.56207
893.58567,1.45010
892.09588,1.22077
890.60609,0.95544
889.11630,0.66108
887.62651,0.50388
886.13673,0.42967
884.64694,0.35547
883.15715,0.25384
881.66736,0.18391
880.17757,0.13027
878.68778,0.11820
877.19800,0.10616
875.70821,0.05550
874.21842,0.04205
872.72863,0.02688
871.23884,0.02046
869.74905,0.01260
868.25927,0.00477
866.76948,0.01285
865.27969,0.01949
863.78990,0.03313
862.30011,0.02995
860.81032,0.03274
859.32053,0.03556
857.83075,0.04494
856.34096,0.06190
854.85117,0.06988
853.36138,0.06771
851.87159,0.07573
850.38180,0.08378
848.89202,0.11102
847.40223,0.11418
845.91244,0.14583
844.42265,0.14482
842.93286,0.14384
841.44307,0.16539
839.95329,0.18959
838.46350,0.20451
836.97371,0.20406
835.48392,0.19404
833.99413,0.18404
832.50434,0.19209
831.01455,0.18534
829.52477,0.16931
828.03498,0.15912
826.54519,0.14940
825.05540,0.13969
823.56561,0.13393
822.07582,0.11570
820.58604,0.08820
819.09625,0.08905
817.60646,0.08992
816.11667,0.08458
814.62688,0.08303
813.13709,0.08964
811.64730,0.08146
810.15752,0.08202
808.66773,0.08260
807.17794,0.08756
805.68815,0.11667
804.19836,0.11122
802.70857,0.10899
801.21879,0.10679
799.72900,0.09589
798.23921,0.08793
796.74942,0.06720
795.25963,0.07105
793.76984,0.07492
792.28006,0.09029
790.79027,0.10249
789.30048,0.10775
787.81069,0.14179
786.32090,0.15943
784.83111,0.17711
783.34132,0.19350
781.85154,0.22356
780.36175,0.28358
778.87196,0.28857
777.38217,0.29358
775.89238,0.32461
774.40259,0.30947
772.91281,0.31005
771.42302,0.30309
769.93323,0.29616
768.44344,0.28083
766.95365,0.22717
765.46386,0.19067
763.97407,0.16495
762.48429,0.14449
760.99450,0.12404
759.50471,0.11205
758.01492,0.10531
756.52513,0.08087
755.03534,0.08377
753.54556,0.08669
752.05577,0.06581
750.56598,0.06152
749.07619,0.05783
747.58640,0.04661
746.09661,0.03541
744.60683,0.03005
743.11704,0.02849
741.62725,0.01853
740.13746,0.01178
738.64767,0.00506
737.15788,0.03120
735.66809,0.00971
734.17831,0.01731
732.68852,0.01315
731.19873,0.00902
729.70894,0.00535
728.21915,0.01072
726.72936,0.00477
725.23958,0.00824
723.74979,0.00723
722.26000,0.00624
720.77021,0.02663
719.28042,0.01974
717.79063,0.00299
716.30084,0.00386
714.81106,0.00476
713.32127,0.00757
711.83148,0.00488
710.34169,0.01500
708.85190,0.02311
707.36211,0.03124
705.87233,0.03679
704.38254,0.02753
702.89275,0.04794
701.40296,0.05036
699.91317,0.05281
698.42338,0.07561
696.93360,0.08130
695.44381,0.08992
693.95402,0.09434
692.46423,0.09879
690.97444,0.13741
689.48465,0.13682
687.99486,0.18072
686.50508,0.19049
685.01529,0.20030
683.52550,0.22741
682.03571,0.26036
680.54592,0.27851
679.05613,0.27635
677.56635,0.27421
676.07656,0.26164
674.58677,0.28657
673.09698,0.27056
671.60719,0.24615
670.11740,0.22176
668.62761,0.20698
667.13783,0.16782
665.64804,0.15512
664.15825,0.14245
662.66846,0.11992
661.17867,0.08347
659.68888,0.07785
658.19910,0.06280
656.70931,0.04778
655.21952,0.04774
653.72973,0.03960
652.23994,0.04164
650.75015,0.04589
649.26037,0.05017
647.77058,0.04299
646.28079,0.02915
644.79100,0.03132
643.30121,0.03409
641.81142,0.03689
640.32163,0.02867
638.83185,0.02454
637.34206,0.03467
635.85227,0.02071
634.36248,0.00677
632.87269,0.00477
631.38290,0.02335
629.89312,0.01232
628.40333,0.01395
626.91354,0.01560
625.42375,0.01830
623.93396,0.01259
622.44417,0.02303
620.95438,0.03350
619.46460,0.04646
617.97481,0.08124
616.48502,0.07623
614.99523,0.08519
613.50544,0.09418
612.01565,0.12992
610.52587,0.15494
609.03608,0.18579
607.54629,0.21100
606.05650,0.23624
604.56671,0.24711
603.07692,0.33820
601.58714,0.37629
600.09735,0.41441
598.60756,0.46547
597.11777,0.48199
595.62798,0.44245
594.13819,0.43403
592.64840,0.42563
591.15862,0.41144
589.66883,0.36270
588.17904,0.29365
586.68925,0.26486
585.19946,0.23609
583.70967,0.18803
582.21989,0.13651
580.73010,0.12466
579.24031,0.11285
577.75052,0.08958
576.26073,0.09975
574.77094,0.06432
573.28115,0.06713
571.79137,0.06996
570.30158,0.06569
568.81179,0.05622
567.32200,0.06305
565.83221,0.06990
564.34242,0.11629
562.85264,0.10953
561.36285,0.14696
559.87306,0.15027
558.38327,0.15361
556.89348,0.15769
555.40369,0.16297
553.91391,0.16885
552.42412,0.17475
550.93433,0.17515
549.44454,0.19476
547.95475,0.21149
546.46496,0.20630
544.97517,0.20113
543.48539,0.23333
541.99560,0.22545
540.50581,0.24854
539.01602,0.27166
537.52623,0.34608
536.03644,0.34527
534.54666,0.40551
533.05687,0.41651
531.56708,0.42755
530.07729,0.51139
528.58750,0.56852
527.09771,0.61391
525.60792,0.65932
524.11814,0.73483
522.62835,0.76271
521.13856,0.80137
519.64877,0.84092
518.15898,0.88050
516.66919,0.90499
515.17941,0.88621
513.68962,0.88664
512.19983,0.88708
510.71004,0.86838
509.22025,0.82965
507.73046,0.75201
506.24068,0.70083
504.75089,0.64968
503.26110,0.52359
501.77131,0.39578
500.28152,0.35066
498.79173,0.30556
497.30194,0.24494
495.81216,0.19771
494.32237,0.17113
492.83258,0.14458
491.34279,0.09829
489.85300,0.09183
488.36321,0.08162
486.87343,0.08422
485.38364,0.08684
483.89385,0.09065
482.40406,0.08489
480.91427,0.08947
479.42448,0.09408
477.93469,0.11978
476.44491,0.11993
474.95512,0.13201
473.46533,0.14413
471.97554,0.13854
470.48575,0.16755
468.99596,0.15881
467.50618,0.14516
466.01639,0.13153
464.52660,0.12170
463.03681,0.10522
461.54702,0.08091
460.05723,0.05663
458.56745,0.05532
457.07766,0.04794
455.58787,0.04595
454.09808,0.04399
452.60829,0.03145
451.11850,0.02736
449.62871,0.01734
448.13893,0.00734
446.64914,0.00477
445.15935,0.00900
443.66956,0.03040
442.17977,0.03351
440.68998,0.03665
439.20020,0.01395
437.71041,0.03166
436.22062,0.04330
434.73083,0.05496
433.24104,0.02016
431.75125,0.02780
430.26146,0.03677
428.77168,0.04576
427.28189,0.04418
425.79210,0.04058
424.30231,0.04675
422.81252,0.05293
421.32273,0.03488
419.83295,0.03400
418.34316,0.03589
416.85337,0.03782
415.36358,0.04107
413.87379,0.04290
412.38400,0.03458
410.89422,0.02628
409.40443,0.03980
407.91464,0.03911
406.42485,0.03699
404.93506,0.03780
403.44527,0.03863
401.95548,0.02089
400.46570,0.02438
398.97591,0.02964
397.48612,0.03493
395.99633,0.03181
394.50654,0.04441
393.01675,0.04396
391.52697,0.04353
390.03718,0.04312
388.54739,0.03838
387.05760,0.03149
385.56781,0.02462
384.07802,0.05202
382.58824,0.01087
381.09845,0.00781
379.60866,0.00477
378.11887,0.06286
376.62908,0.04542
375.13929,0.03208
373.64950,0.01876
372.15972,0.02057
370.66993,0.02473
369.18014,0.01555
367.69035,0.00638
366.20056,0.01119
364.71077,0.03143
363.22099,0.03614
361.73120,0.04087
360.24141,0.01149
358.75162,0.01439
357.26183,0.02414
355.77204,0.03391
354.28225,0.01828
352.79247,0.02243
351.30268,0.02704
349.81289,0.03168
348.32310,0.04840
346.83331,0.02824
345.34352,0.01900
343.85374,0.00979
342.36395,0.04055
340.87416,0.01555
339.38437,0.01411
337.89458,0.01269
336.40479,0.01275
334.91501,0.01777
333.42522,0.02427
331.93543,0.03079
330.44564,0.00944
328.95585,0.01282
327.46606,0.01593
325.97627,0.01906
324.48649,0.07132
322.99670,0.03643
321.50691,0.05257
320.01712,0.06872
318.52733,0.05280
317.03754,0.07002
315.54776,0.06780
314.05797,0.06560
312.56818,0.07098
311.07839,0.10108
309.58860,0.08922
308.09881,0.07739
306.60902,0.07357
305.11924,0.07093
303.62945,0.04958
302.13966,0.02825
300.64987,0.00477
299.16008,0.00477
