1778.52000,0.02017
1777.03021,0.01464
1775.54042,0.02031
1774.05063,0.01293
1772.56085,0.00965
1771.07106,0.02167
1769.58127,0.02307
1768.09148,0.01279
1766.60169,0.01833
1765.11190,0.01572
1763.62212,0.00687
1762.13233,0.02421
1760.64254,0.01431
1759.15275,0.01426
1757.66296,0.00523
1756.17317,0.01476
1754.68339,0.00850
1753.19360,0.00500
1751.70381,0.01406
1750.21402,0.00243
1748.72423,0.01153
1747.23444,0.01276
1745.74465,0.01864
1744.25487,0.00738
1742.76508,0.01767
1741.27529,0.01872
1739.78550,0.00535
1738.29571,0.01815
1736.80592,0.01244
1735.31614,0.01085
1733.82635,0.01118
1732.33656,0.00473
1730.84677,0.01056
1729.35698,0.01043
1727.86719,0.00677
1726.37740,0.01241
1724.88762,0.00471
1723.39783,0.01285
1721.90804,0.00602
1720.41825,0.01448
1718.92846,0.00415
1717.43867,0.00503
1715.94889,0.01088
1714.45910,0.00994
1712.96931,0.00739
1711.47952,0.00343
1709.98973,0.00950
1708.49994,0.00605
1707.01016,0.00563
1705.52037,0.00523
1704.03058,0.00920
1702.54079,0.01074
1701.05100,0.01394
1699.56121,0.01826
1698.07142,0.01360
1696.58164,0.02206
1695.09185,0.02208
1693.60206,0.02404
1692.11227,0.01867
1690.62248,0.01959
1689.13269,0.01726
1687.64291,0.02150
1686.15312,0.02957
1684.66333,0.03795
1683.17354,0.04498
1681.68375,0.03433
1680.19396,0.04850
1678.70417,0.04198
1677.21439,0.03848
1675.72460,0.04945
1674.23481,0.05772
1672.74502,0.05321
1671.25523,0.05907
1669.76544,0.06905
1668.27566,0.06733
1666.78587,0.07927
1665.29608,0.08768
1663.80629,0.08195
1662.31650,0.09750
1660.82671,0.09373
1659.33693,0.08207
1657.84714,0.07371
1656.35735,0.08036
1654.86756,0.09058
1653.37777,0.10301
1651.88798,0.08793
1650.39819,0.08678
1648.90841,0.09165
1647.41862,0.09463
1645.92883,0.09055
1644.43904,0.08649
1642.94925,0.08710
1641.45946,0.08445
1639.96968,0.08074
1638.47989,0.08823
1636.99010,0.08784
1635.50031,0.07685
1634.01052,0.06942
1632.52073,0.06638
1631.03094,0.08489
1629.54116,0.08053
1628.05137,0.09173
1626.56158,0.10677
1625.07179,0.09322
1623.58200,0.09305
1622.09221,0.09644
1620.60243,0.09060
1619.11264,0.09159
1617.62285,0.08933
1616.13306,0.08383
1614.64327,0.07808
1613.15348,0.09115
1611.66370,0.09199
1610.17391,0.08386
1608.68412,0.09456
1607.19433,0.09874
1605.70454,0.09041
1604.21475,0.09001
1602.72496,0.08963
1601.23518,0.09064
1599.74539,0.07368
1598.25560,0.08074
1596.76581,0.08400
1595.27602,0.08292
1593.78623,0.07942
1592.29645,0.07703
1590.80666,0.06649
1589.31687,0.06251
1587.82708,0.07327
1586.33729,0.06635
1584.84750,0.08806
1583.35771,0.07982
1581.86793,0.07215
1580.37814,0.07840
1578.88835,0.07841
1577.39856,0.07518
1575.90877,0.05970
1574.41898,0.04561
1572.92920,0.04544
1571.43941,0.05892
1569.94962,0.05540
1568.45983,0.05190
1566.97004,0.05128
1565.48025,0.04960
1563.99047,0.05121
1562.50068,0.03514
1561.01089,0.04252
1559.52110,0.03903
1558.03131,0.05355
1556.54152,0.02912
1555.05173,0.03906
1553.56195,0.02694
1552.07216,0.02248
1550.58237,0.01068
1549.09258,0.00191
1547.60279,0.00380
1546.11300,0.00626
1544.62322,0.01583
1543.13343,0.00962
1541.64364,0.00589
1540.15385,0.00640
1538.66406,0.00694
1537.17427,0.01718
1535.68448,0.01136
1534.19470,0.01129
1532.70491,0.01097
1531.21512,0.00523
1529.72533,0.01812
1528.23554,0.02994
1526.74575,0.02270
1525.25597,0.04002
1523.76618,0.03366
1522.27639,0.04830
1520.78660,0.04498
1519.29681,0.04032
1517.80702,0.03514
1516.31724,0.04607
1514.82745,0.05047
1513.33766,0.04905
1511.84787,0.04764
1510.35808,0.05130
1508.86829,0.05690
1507.37850,0.04916
1505.88872,0.05535
1504.39893,0.06402
1502.90914,0.06644
1501.41935,0.07025
1499.92956,0.06672
1498.43977,0.07194
1496.94999,0.06628
1495.46020,0.07509
1493.97041,0.08229
1492.48062,0.09742
1490.99083,0.10385
1489.50104,0.11194
1488.01125,0.11555
1486.52147,0.11920
1485.03168,0.15189
1483.54189,0.18433
1482.05210,0.19527
1480.56231,0.20350
1479.07252,0.21367
1477.58274,0.22141
1476.09295,0.22181
1474.60316,0.21733
1473.11337,0.23087
1471.62358,0.23897
1470.13379,0.25937
1468.64401,0.25935
1467.15422,0.29915
1465.66443,0.29154
1464.17464,0.28396
1462.68485,0.30830
1461.19506,0.37108
1459.70527,0.39982
1458.21549,0.47847
1456.72570,0.53642
1455.23591,0.59276
1453.74612,0.63441
1452.25633,0.62866
1450.76654,0.68480
1449.27676,0.70635
1447.78697,0.67587
1446.29718,0.64542
1444.80739,0.63366
1443.31760,0.62192
1441.82781,0.60435
1440.33802,0.56527
1438.84824,0.52922
1437.35845,0.50381
1435.86866,0.48443
1434.37887,0.50023
1432.88908,0.52995
1431.39929,0.55561
1429.90951,0.63035
1428.41972,0.71738
1426.92993,0.74829
1425.44014,0.84736
1423.95035,0.84956
1422.46056,0.85179
1420.97078,0.89833
1419.48099,0.89312
1417.99120,0.88084
1416.50141,0.87513
1415.01162,0.84981
1413.52183,0.78392
1412.03204,0.72677
1410.54226,0.70071
1409.05247,0.66350
1407.56268,0.64730
1406.07289,0.58398
1404.58310,0.55380
1403.09331,0.52364
1401.60353,0.48001
1400.11374,0.39444
1398.62395,0.36312
1397.13416,0.31603
1395.64437,0.25314
1394.15458,0.22654
1392.66479,0.17515
1391.17501,0.15431
1389.68522,0.14631
1388.19543,0.10317
1386.70564,0.09277
1385.21585,0.08238
1383.72606,0.05949
1382.23628,0.04752
1380.74649,0.03721
1379.25670,0.03428
1377.76691,0.02674
1376.27712,0.01650
1374.78733,0.01256
1373.29755,0.01600
1371.80776,0.02191
1370.31797,0.00523
1368.82818,0.01484
1367.33839,0.02447
1365.84860,0.03508
1364.35881,0.04953
1362.86903,0.04465
1361.37924,0.06378
1359.88945,0.07530
1358.39966,0.10457
1356.90987,0.13849
1355.42008,0.17816
1353.93030,0.22330
1352.44051,0.25947
1350.95072,0.29567
1349.46093,0.34388
1347.97114,0.43464
1346.48135,0.51996
1344.99156,0.58052
1343.50178,0.66562
1342.01199,0.68261
1340.52220,0.74923
1339.03241,0.78426
1337.54262,0.82013
1336.05283,0.83163
1334.56305,0.84316
1333.07326,0.85594
1331.58347,0.88155
1330.09368,0.88674
1328.60389,0.88406
1327.11410,0.85523
1325.62432,0.81063
1324.13453,0.80420
1322.64474,0.76891
1321.15495,0.70502
1319.66516,0.70303
1318.17537,0.70106
1316.68558,0.64515
1315.19580,0.60998
1313.70601,0.54921
1312.21622,0.51572
1310.72643,0.46890
1309.23664,0.44010
1307.74685,0.41976
1306.25707,0.39291
1304.76728,0.36418
1303.27749,0.33547
1301.78770,0.31605
1300.29791,0.26913
1298.80812,0.23150
1297.31834,0.18299
1295.82855,0.16476
1294.33876,0.13020
1292.84897,0.10629
1291.35918,0.11021
1289.86939,0.10066
1288.37960,0.09113
1286.88982,0.07850
1285.40003,0.06861
1283.91024,0.05493
1282.42045,0.06063
1280.93066,0.05600
1279.44087,0.06637
1277.95109,0.05770
1276.46130,0.04987
1274.97151,0.04901
1273.48172,0.04817
1271.99193,0.04096
1270.50214,0.02722
1269.01235,0.02469
1267.52257,0.03036
1266.03278,0.01860
1264.54299,0.02514
1263.05320,0.01098
1261.56341,0.01197
1260.07362,0.01299
1258.58384,0.00790
1257.09405,0.01428
1255.60426,0.01333
1254.11447,0.01894
1252.62468,0.00523
1251.13489,0.00698
1249.64511,0.01229
1248.15532,0.02962
1246.66553,0.02326
1245.17574,0.01693
1243.68595,0.02561
1242.19616,0.03323
1240.70637,0.02234
1239.21659,0.03164
1237.72680,0.04069
1236.23701,0.03368
1234.74722,0.02861
1233.25743,0.03378
1231.76764,0.03898
1230.27786,0.03480
1228.78807,0.02737
1227.29828,0.03359
1225.80849,0.00523
1224.31870,0.00546
1222.82891,0.03214
1221.33912,0.01334
1219.84934,0.02495
1218.35955,0.03658
1216.86976,0.04184
1215.37997,0.06210
1213.89018,0.07531
1212.40039,0.08172
1210.91061,0.08244
1209.42082,0.09136
1207.93103,0.07850
1206.44124,0.06566
1204.95145,0.07138
1203.46166,0.06486
1201.97188,0.07253
1200.48209,0.06960
1198.99230,0.06915
1197.50251,0.03874
1196.01272,0.04542
1194.52293,0.03755
1193.03314,0.02970
1191.54336,0.03073
1190.05357,0.02906
1188.56378,0.01515
1187.07399,0.02171
1185.58420,0.01357
1184.09441,0.01717
1182.60463,0.02394
1181.11484,0.03073
1179.62505,0.01505
1178.13526,0.01657
1176.64547,0.01430
1175.15568,0.02024
1173.66589,0.01147
1172.17611,0.02672
1170.68632,0.01596
1169.19653,0.00523
1167.70674,0.03089
1166.21695,0.03068
1164.72716,0.03213
1163.23738,0.04805
1161.74759,0.04301
1160.25780,0.05461
1158.76801,0.06352
1157.27822,0.07245
1155.78843,0.07705
1154.29865,0.08466
1152.80886,0.09803
1151.31907,0.10596
1149.82928,0.09376
1148.33949,0.10392
1146.84970,0.10812
1145.35991,0.11233
1143.87013,0.11412
1142.38034,0.18026
1140.89055,0.17528
1139.40076,0.17033
1137.91097,0.18884
1136.42118,0.20520
1134.93140,0.20454
1133.44161,0.20391
1131.95182,0.22089
1130.46203,0.23189
1128.97224,0.25872
1127.48245,0.24225
1125.99266,0.22579
1124.50288,0.24262
1123.01309,0.23861
1121.52330,0.23463
1120.03351,0.24063
1118.54372,0.24419
1117.05393,0.26304
1115.56415,0.25793
1114.07436,0.26838
1112.58457,0.25705
1111.09478,0.24575
1109.60499,0.25709
1108.11520,0.25401
1106.62542,0.23024
1105.13563,0.27054
1103.64584,0.23592
1102.15605,0.25065
1100.66626,0.24729
1099.17647,0.24394
1097.68668,0.21269
1096.19690,0.21035
1094.70711,0.21266
1093.21732,0.20846
1091.72753,0.19202
1090.23774,0.18910
1088.74795,0.18619
1087.25817,0.18046
1085.76838,0.18046
1084.27859,0.18213
1082.78880,0.16938
1081.29901,0.16892
1079.80922,0.19301
1078.31943,0.18864
1076.82965,0.18430
1075.33986,0.18202
1073.85007,0.18086
1072.36028,0.18518
1070.87049,0.21595
1069.38070,0.22113
1067.89092,0.24828
1066.40113,0.27544
1064.91134,0.32975
1063.42155,0.38545
1061.93176,0.45017
1060.44197,0.52608
1058.95219,0.62328
1057.46240,0.66504
1055.97261,0.70682
1054.48282,0.79482
1052.99303,0.86486
1051.50324,0.83844
1050.01345,0.82241
1048.52367,0.83965
1047.03388,0.83402
1045.54409,0.82841
1044.05430,0.78549
1042.56451,0.74423
1041.07472,0.68910
1039.58494,0.68004
1038.09515,0.58489
1036.60536,0.55913
1035.11557,0.53339
1033.62578,0.46992
1032.13599,0.43319
1030.64620,0.35315
1029.15642,0.32765
1027.66663,0.29385
1026.17684,0.26008
1024.68705,0.23628
1023.19726,0.19915
1021.70747,0.18003
1020.21769,0.15794
1018.72790,0.14514
1017.23811,0.13182
1015.74832,0.11852
1014.25853,0.10306
1012.76874,0.10290
1011.27896,0.10766
1009.78917,0.09337
1008.29938,0.08646
1006.80959,0.07685
1005.31980,0.06726
1003.83001,0.03263
1002.34022,0.02337
1000.85044,0.03920
999.36065,0.03353
997.87086,0.04396
996.38107,0.05441
994.89128,0.05808
993.40149,0.05386
991.91171,0.05867
990.42192,0.06323
988.93213,0.09615
987.44234,0.09530
985.95255,0.09448
984.46276,0.10159
982.97297,0.10163
981.48319,0.07962
979.99340,0.04456
978.50361,0.05108
977.01382,0.05763
975.52403,0.03599
974.03424,0.04108
972.54446,0.02931
971.05467,0.01346
969.56488,0.00528
968.07509,0.00938
966.58530,0.01352
965.09551,0.00568
963.60573,0.00523
962.11594,0.01776
960.62615,0.00524
959.13636,0.01591
957.64657,0.02661
956.15678,0.02561
954.66699,0.03063
953.17721,0.03812
951.68742,0.03284
950.19763,0.04270
948.70784,0.05259
947.21805,0.05555
945.72826,0.07189
944.23848,0.10515
942.74869,0.13080
941.25890,0.13577
939.76911,0.14743
938.27932,0.15913
936.78953,0.17261
935.29974,0.18176
933.80996,0.20620
932.32017,0.20804
930.83038,0.20759
929.34059,0.20716
927.85080,0.24042
926.36101,0.26198
924.87123,0.28520
923.38144,0.34305
921.89165,0.38703
920.40186,0.43104
918.91207,0.51568
917.42228,0.63059
915.93250,0.76706
914.44271,1.00630
912.95292,1.10875
911.46313,1.21122
909.97334,1.41429
908.48355,1.61411
906.99376,1.79051
905.50398,1.89853
904.01419,1.93054
902.52440,1.96257
901.03461,1.98264
899.54482,2.00000
898.05503,1.86586
896.56525,1.72192
895.07546,1.61603
893.58567,1.51017
892.09588,1.22568
890.60609,0.95293
889.11630,0.70038
887.62651,0.53206
886.13673,0.45358
884.64694,0.37511
883.15715,0.27091
881.66736,0.19672
880.17757,0.15062
878.68778,0.13957
877.19800,0.12855
875.70821,0.08334
874.21842,0.04579
872.72863,0.03143
871.23884,0.03208
869.74905,0.02976
868.25927,0.02746
866.76948,0.02328
865.27969,0.00523
863.78990,0.00564
862.30011,0.03224
860.81032,0.04891
859.32053,0.06561
857.83075,0.05903
856.34096,0.08300
854.85117,0.09200
853.36138,0.07569
851.87159,0.08705
850.38180,0.09845
848.89202,0.11273
847.40223,0.11940
845.91244,0.15498
844.42265,0.15694
842.93286,0.15891
841.44307,0.17794
839.95329,0.19455
838.46350,0.19101
836.97371,0.21148
835.48392,0.20158
833.99413,0.19171
832.50434,0.20162
831.01455,0.20747
829.52477,0.19045
828.03498,0.16446
826.54519,0.15689
825.05540,0.14935
823.56561,0.14360
822.07582,0.11171
820.58604,0.09783
819.09625,0.09910
817.60646,0.10040
816.11667,0.09177
814.62688,0.07145
813.13709,0.07786
811.64730,0.10038
810.15752,0.10125
808.66773,0.10215
807.17794,0.11601
805.68815,0.11055
804.19836,0.10485
802.70857,0.11170
801.21879,0.11858
799.72900,0.09795
798.23921,0.10161
796.74942,0.08812
795.25963,0.09114
793.76984,0.09419
792.28006,0.09113
790.79027,0.10008
789.30048,0.11424
787.81069,0.14314
786.32090,0.15939
784.83111,0.17566
783.34132,0.19618
781.85154,0.22627
780.36175,0.26265
778.87196,0.28351
777.38217,0.30441
775.89238,0.33568
774.40259,0.33863
772.91281,0.32090
771.42302,0.31000
769.93323,0.29912
768.44344,0.28201
766.95365,0.25346
765.46386,0.22876
763.97407,0.18392
762.48429,0.16363
760.99450,0.14336
759.50471,0.13238
758.01492,0.09554
756.52513,0.08597
755.03534,0.08093
753.54556,0.07591
752.05577,0.06996
750.56598,0.03650
749.07619,0.04069
747.58640,0.03372
746.09661,0.02677
744.60683,0.01713
743.11704,0.02522
741.62725,0.02326
740.13746,0.01423
738.64767,0.00523
737.15788,0.00883
735.66809,0.03181
734.17831,0.00985
732.68852,0.01475
731.19873,0.01968
729.70894,0.02641
728.21915,0.01435
726.72936,0.00831
725.23958,0.00770
723.74979,0.01338
722.26000,0.01910
720.77021,0.01884
719.28042,0.01206
717.79063,0.01130
716.30084,0.00825
714.81106,0.00523
713.32127,0.01885
711.83148,0.02650
710.34169,0.03635
708.85190,0.04146
707.36211,0.04660
705.87233,0.04262
704.38254,0.06130
702.89275,0.04729
701.40296,0.05115
699.91317,0.05505
698.42338,0.04275
696.93360,0.07353
695.44381,0.10734
693.95402,0.10424
692.46423,0.10117
690.97444,0.12851
689.48465,0.14796
687.99486,0.16118
686.50508,0.17551
685.01529,0.18986
683.52550,0.22277
682.03571,0.25380
680.54592,0.25569
679.05613,0.25992
677.56635,0.26418
676.07656,0.26042
674.58677,0.26131
673.09698,0.25515
671.60719,0.22965
670.11740,0.20419
668.62761,0.18937
667.13783,0.16586
665.64804,0.15627
664.15825,0.14671
662.66846,0.11074
661.17867,0.08569
659.68888,0.06093
658.19910,0.05201
656.70931,0.04312
655.21952,0.04623
653.72973,0.04747
652.23994,0.04055
650.75015,0.04620
649.26037,0.05187
647.77058,0.06083
646.28079,0.04747
644.79100,0.02895
643.30121,0.02750
641.81142,0.02606
640.32163,0.02888
638.83185,0.03199
637.34206,0.02941
635.85227,0.01731
634.36248,0.00523
632.87269,0.01227
631.38290,0.01715
629.89312,0.01797
628.40333,0.01418
626.91354,0.01041
625.42375,0.02521
623.93396,0.00786
622.44417,0.01630
620.95438,0.02476
619.46460,0.04891
617.97481,0.04965
616.48502,0.05532
614.99523,0.08009
613.50544,0.10489
612.01565,0.11200
610.52587,0.14365
609.03608,0.15817
607.54629,0.17366
606.05650,0.18917
604.56671,0.25336
603.07692,0.29141
601.58714,0.33207
600.09735,0.37275
598.60756,0.39452
597.11777,0.41631
595.62798,0.42341
594.13819,0.41119
592.64840,0.39898
591.15862,0.37808
589.66883,0.33404
588.17904,0.27040
586.68925,0.23077
585.19946,0.19116
583.70967,0.17720
582.21989,0.12619
580.73010,0.10424
579.24031,0.08230
577.75052,0.06407
576.26073,0.04587
574.77094,0.02960
573.28115,0.03093
571.79137,0.03228
570.30158,0.04088
568.81179,0.07158
567.32200,0.07083
565.83221,0.07010
564.34242,0.07798
562.85264,0.10660
561.36285,0.14206
559.87306,0.13992
558.38327,0.13782
556.89348,0.13710
555.40369,0.11951
553.91391,0.12892
552.42412,0.13835
550.93433,0.14727
549.44454,0.15239
547.95475,0.17499
546.46496,0.17948
544.97517,0.18399
543.48539,0.18458
541.99560,0.23725
540.50581,0.24824
539.01602,0.25926
537.52623,0.28120
536.03644,0.33887
534.54666,0.38757
533.05687,0.40414
531.56708,0.42073
530.07729,0.47223
528.58750,0.53710
527.09771,0.56589
525.60792,0.59471
524.11814,0.67029
522.62835,0.71100
521.13856,0.76510
519.64877,0.77670
518.15898,0.78833
516.66919,0.80980
515.17941,0.84846
513.68962,0.85784
512.19983,0.86725
510.71004,0.85365
509.22025,0.76950
507.73046,0.70798
506.24068,0.64322
504.75089,0.57848
503.26110,0.46308
501.77131,0.38204
500.28152,0.33318
498.79173,0.28435
497.30194,0.22491
495.81216,0.17776
494.32237,0.14876
492.83258,0.11978
491.34279,0.09805
489.85300,0.08371
488.36321,0.08846
486.87343,0.08016
485.38364,0.07188
483.89385,0.05490
482.40406,0.05676
480.91427,0.07853
479.42448,0.10033
477.93469,0.13005
476.44491,0.13391
474.95512,0.13684
473.46533,0.13979
471.97554,0.15326
470.48575,0.13705
468.99596,0.15193
467.50618,0.14871
466.01639,0.14551
464.52660,0.09969
463.03681,0.10922
461.54702,0.08361
460.05723,0.05803
458.56745,0.02620
457.07766,0.02929
455.58787,0.02912
454.09808,0.02898
452.60829,0.02532
451.11850,0.01624
449.62871,0.01072
448.13893,0.00523
446.64914,0.00515
445.15935,0.01737
443.66956,0.01925
442.17977,0.02279
440.68998,0.02636
439.20020,0.03785
437.71041,0.02756
436.22062,0.02711
434.73083,0.02669
433.24104,0.03228
431.75125,0.04608
430.26146,0.04695
428.77168,0.04785
427.28189,0.02874
425.79210,0.03118
424.30231,0.03910
422.81252,0.04704
421.32273,0.04684
419.83295,0.02839
418.34316,0.02047
416.85337,0.01256
415.36358,0.02199
413.87379,0.01264
412.38400,0.02198
410.89422,0.03134
409.40443,0.02424
407.91464,0.03815
406.42485,0.01475
404.93506,0.01112
403.44527,0.00753
401.95548,0.01608
400.46570,0.03284
398.97591,0.03940
397.48612,0.04598
395.99633,0.03201
394.50654,0.03960
393.01675,0.03440
391.52697,0.02923
390.03718,0.04779
388.54739,0.03585
387.05760,0.02053
385.56781,0.00523
384.07802,0.01699
382.58824,0.01432
381.09845,0.02504
379.60866,0.03578
378.11887,0.04845
376.62908,0.03390
375.13929,0.02100
373.64950,0.00813
372.15972,0.02826
370.66993,0.01325
369.18014,0.01455
367.69035,0.01587
366.20056,0.00523
364.71077,0.02224
363.22099,0.01488
361.73120,0.00755
360.24141,0.04207
358.75162,0.04147
357.26183,0.04851
355.77204,0.05558
354.28225,0.05396
352.79247,0.06271
351.30268,0.04915
349.81289,0.03560
348.32310,0.02535
346.83331,0.03202
345.34352,0.01951
343.85374,0.00701
342.36395,0.03024
340.87416,0.03850
339.38437,0.04256
337.89458,0.04665
336.40479,0.04000
334.91501,0.01919
333.42522,0.02921
331.93543,0.03926
330.44564,0.02806
328.95585,0.00000
327.46606,0.01540
325.97627,0.03083
324.48649,0.02666
322.99670,0.04759
321.50691,0.03924
320.01712,0.03092
318.52733,0.08462
317.03754,0.07948
315.54776,0.06251
314.05797,0.04557
312.56818,0.05604
311.07839,0.04609
309.58860,0.05497
308.09881,0.06387
306.60902,0.05808
305.11924,0.03188
303.62945,0.01906
302.13966,0.00625
300.64987,0.00532
299.16008,0.00523
