1778.52000,0.02387
1777.03021,0.02842
1775.54042,0.02706
1774.05063,0.01864
1772.56085,0.01825
1771.07106,0.02176
1769.58127,0.01821
1768.09148,0.02474
1766.60169,0.01782
1765.11190,0.02760
1763.62212,0.02621
1762.13233,0.02118
1760.64254,0.01482
1759.15275,0.01647
1757.66296,0.00306
1756.17317,0.00819
1754.68339,0.00147
1753.19360,0.01373
1751.70381,0.02076
1750.21402,0.01616
1748.72423,0.01159
1747.23444,0.01229
1745.74465,0.00000
1744.25487,0.00555
1742.76508,0.01022
1741.27529,0.00714
1739.78550,0.00820
1738.29571,0.00288
1736.80592,0.01656
1735.31614,0.00306
1733.82635,0.00541
1732.33656,0.00733
1730.84677,0.01087
1729.35698,0.01306
1727.86719,0.01094
1726.37740,0.00541
1724.88762,0.00768
1723.39783,0.01477
1721.90804,0.00201
1720.41825,0.00206
1718.92846,0.00649
1717.43867,0.00568
1715.94889,0.00306
1714.45910,0.00810
1712.96931,0.01065
1711.47952,0.00660
1709.98973,0.00988
1708.49994,0.01022
1707.01016,0.00910
1705.52037,0.00800
1704.03058,0.01458
1702.54079,0.00999
1701.05100,0.01570
1699.56121,0.01870
1698.07142,0.02104
1696.58164,0.00306
1695.09185,0.01091
1693.60206,0.00691
1692.11227,0.01823
1690.62248,0.01884
1689.13269,0.00417
1687.64291,0.02266
1686.15312,0.02860
1684.66333,0.03593
1683.17354,0.02844
1681.68375,0.02395
1680.19396,0.03158
1678.70417,0.01960
1677.21439,0.03642
1675.72460,0.02974
1674.23481,0.04319
1672.74502,0.04593
1671.25523,0.03772
1669.76544,0.05375
1668.27566,0.04925
1666.78587,0.05505
1665.29608,0.07231
1663.80629,0.07222
1662.31650,0.08609
1660.82671,0.07463
1659.33693,0.07301
1657.84714,0.05543
1656.35735,0.07374
1654.86756,0.07472
1653.37777,0.08577
1651.88798,0.07788
1650.39819,0.08829
1648.90841,0.08160
1647.41862,0.07675
1645.92883,0.07787
1644.43904,0.07902
1642.94925,0.07082
1641.45946,0.08527
1639.96968,0.08740
1638.47989,0.07676
1636.99010,0.07963
1635.50031,0.07453
1634.01052,0.07127
1632.52073,0.08473
1631.03094,0.07375
1629.54116,0.08931
1628.05137,0.07450
1626.56158,0.09514
1625.07179,0.10163
1623.58200,0.10175
1622.09221,0.09823
1620.60243,0.09772
1619.11264,0.10111
1617.62285,0.09264
1616.13306,0.09882
1614.64327,0.07921
1613.15348,0.08270
1611.66370,0.07502
1610.17391,0.07102
1608.68412,0.08806
1607.19433,0.09485
1605.70454,0.08429
1604.21475,0.08473
1602.72496,0.08519
1601.23518,0.08111
1599.74539,0.08551
1598.25560,0.08902
1596.76581,0.09049
1595.27602,0.08194
1593.78623,0.07775
1592.29645,0.06262
1590.80666,0.07173
1589.31687,0.07676
1587.82708,0.06376
1586.33729,0.06814
1584.84750,0.06570
1583.35771,0.07837
1581.86793,0.06775
1580.37814,0.08480
1578.88835,0.06509
1577.39856,0.06049
1575.90877,0.05454
1574.41898,0.03696
1572.92920,0.04592
1571.43941,0.04438
1569.94962,0.03373
1568.45983,0.02311
1566.97004,0.03970
1565.48025,0.03826
1563.99047,0.02999
1562.50068,0.04506
1561.01089,0.02519
1559.52110,0.03139
1558.03131,0.02619
1556.54152,0.01874
1555.05173,0.02455
1553.56195,0.01897
1552.07216,0.02233
1550.58237,0.01543
1549.09258,0.00306
1547.60279,0.01053
1546.11300,0.01527
1544.62322,0.01387
1543.13343,0.00792
1541.64364,0.00588
1540.15385,0.00649
1538.66406,0.00713
1537.17427,0.01065
1535.68448,0.01305
1534.19470,0.02118
1532.70491,0.00513
1531.21512,0.01150
1529.72533,0.02110
1528.23554,0.02455
1526.74575,0.02848
1525.25597,0.02970
1523.76618,0.04008
1522.27639,0.02535
1520.78660,0.03373
1519.29681,0.03961
1517.80702,0.04209
1516.31724,0.05077
1514.82745,0.05582
1513.33766,0.04866
1511.84787,0.04153
1510.35808,0.04277
1508.86829,0.04951
1507.37850,0.04874
1505.88872,0.05210
1504.39893,0.05206
1502.90914,0.07010
1501.41935,0.06645
1499.92956,0.08157
1498.43977,0.08711
1496.94999,0.07372
1495.46020,0.08685
1493.97041,0.09909
1492.48062,0.10017
1490.99083,0.13028
1489.50104,0.15311
1488.01125,0.15745
1486.52147,0.16182
1485.03168,0.18861
1483.54189,0.19782
1482.05210,0.21415
1480.56231,0.24969
1479.07252,0.25350
1477.58274,0.27949
1476.09295,0.26027
1474.60316,0.27558
1473.11337,0.27034
1471.62358,0.26628
1470.13379,0.28714
1468.64401,0.30620
1467.15422,0.33922
1465.66443,0.35513
1464.17464,0.37106
1462.68485,0.40416
1461.19506,0.46150
1459.70527,0.49350
1458.21549,0.53101
1456.72570,0.61173
1455.23591,0.65454
1453.74612,0.70218
1452.25633,0.69638
1450.76654,0.75183
1449.27676,0.75179
1447.78697,0.75771
1446.29718,0.71956
1444.80739,0.70680
1443.31760,0.69406
1441.82781,0.63496
1440.33802,0.61244
1438.84824,0.56299
1437.35845,0.54121
1435.86866,0.52357
1434.37887,0.52948
1432.88908,0.58043
1431.39929,0.63050
1429.90951,0.68949
1428.41972,0.77365
1426.92993,0.83133
1425.44014,0.88149
1423.95035,0.89214
1422.46056,0.90283
1420.97078,0.95740
1419.48099,0.95579
1417.99120,0.95490
1416.50141,0.95402
1415.01162,0.91639
1413.52183,0.89797
1412.03204,0.82406
1410.54226,0.75359
1409.05247,0.72177
1407.56268,0.68243
1406.07289,0.61158
1404.58310,0.57663
1403.09331,0.54171
1401.60353,0.47436
1400.11374,0.41755
1398.62395,0.37836
1397.13416,0.32160
1395.64437,0.27149
1394.15458,0.23306
1392.66479,0.19145
1391.17501,0.16769
1389.68522,0.13550
1388.19543,0.10905
1386.70564,0.10410
1385.21585,0.09917
1383.72606,0.09358
1382.23628,0.06837
1380.74649,0.04684
1379.25670,0.04475
1377.76691,0.02601
1376.27712,0.01598
1374.78733,0.01693
1373.29755,0.00306
1371.80776,0.02656
1370.31797,0.01444
1368.82818,0.01422
1367.33839,0.01402
1365.84860,0.04036
1364.35881,0.03862
1362.86903,0.04330
1361.37924,0.06833
1359.88945,0.09043
1358.39966,0.11574
1356.90987,0.15114
1355.42008,0.18359
1353.93030,0.22794
1352.44051,0.26295
1350.95072,0.29799
1349.46093,0.35201
1347.97114,0.42594
1346.48135,0.50217
1344.99156,0.57592
1343.50178,0.64078
1342.01199,0.68602
1340.52220,0.72580
1339.03241,0.79782
1337.54262,0.85409
1336.05283,0.88001
1334.56305,0.90595
1333.07326,0.92277
1331.58347,0.94830
1330.09368,0.96997
1328.60389,0.93249
1327.11410,0.91376
1325.62432,0.87656
1324.13453,0.85491
1322.64474,0.84563
1321.15495,0.81056
1319.66516,0.77242
1318.17537,0.73431
1316.68558,0.67875
1315.19580,0.64994
1313.70601,0.57957
1312.21622,0.54281
1310.72643,0.50951
1309.23664,0.48446
1307.74685,0.45988
1306.25707,0.44448
1304.76728,0.40750
1303.27749,0.37055
1301.78770,0.34402
1300.29791,0.29444
1298.80812,0.22957
1297.31834,0.21568
1295.82855,0.19245
1294.33876,0.14959
1292.84897,0.13669
1291.35918,0.11901
1289.86939,0.11735
1288.37960,0.11572
1286.88982,0.09378
1285.40003,0.07757
1283.91024,0.08150
1282.42045,0.06191
1280.93066,0.04464
1279.44087,0.05275
1277.95109,0.06248
1276.46130,0.05922
1274.97151,0.05884
1273.48172,0.05848
1271.99193,0.04455
1270.50214,0.04298
1269.01235,0.03162
1267.52257,0.02599
1266.03278,0.03249
1264.54299,0.02874
1263.05320,0.02204
1261.56341,0.01777
1260.07362,0.01352
1258.58384,0.02449
1257.09405,0.01309
1255.60426,0.00240
1254.11447,0.01791
1252.62468,0.00306
1251.13489,0.00984
1249.64511,0.01276
1248.15532,0.01753
1246.66553,0.01330
1245.17574,0.00909
1243.68595,0.01303
1242.19616,0.00144
1240.70637,0.01410
1239.21659,0.01103
1237.72680,0.00866
1236.23701,0.02276
1234.74722,0.03210
1233.25743,0.02649
1231.76764,0.02090
1230.27786,0.01911
1228.78807,0.03197
1227.29828,0.01698
1225.80849,0.00727
1224.31870,0.00306
1222.82891,0.01406
1221.33912,0.01548
1219.84934,0.02881
1218.35955,0.04216
1216.86976,0.05006
1215.37997,0.06688
1213.89018,0.06660
1212.40039,0.09673
1210.91061,0.09216
1209.42082,0.08921
1207.93103,0.09176
1206.44124,0.09435
1204.95145,0.07250
1203.46166,0.06874
1201.97188,0.06568
1200.48209,0.07225
1198.99230,0.05324
1197.50251,0.06694
1196.01272,0.03496
1194.52293,0.02860
1193.03314,0.02227
1191.54336,0.03035
1190.05357,0.01652
1188.56378,0.02580
1187.07399,0.01910
1185.58420,0.00306
1184.09441,0.02105
1182.60463,0.02525
1181.11484,0.02946
1179.62505,0.01668
1178.13526,0.01603
1176.64547,0.00992
1175.15568,0.00293
1173.66589,0.01515
1172.17611,0.00843
1170.68632,0.00574
1169.19653,0.00306
1167.70674,0.01480
1166.21695,0.03113
1164.72716,0.05137
1163.23738,0.04947
1161.74759,0.04873
1160.25780,0.04917
1158.76801,0.05625
1157.27822,0.06336
1155.78843,0.07598
1154.29865,0.09548
1152.80886,0.09832
1151.31907,0.09844
1149.82928,0.09745
1148.33949,0.11064
1146.84970,0.11153
1145.35991,0.11244
1143.87013,0.13188
1142.38034,0.15911
1140.89055,0.17083
1139.40076,0.14579
1137.91097,0.18566
1136.42118,0.20294
1134.93140,0.20653
1133.44161,0.21015
1131.95182,0.24144
1130.46203,0.24785
1128.97224,0.23326
1127.48245,0.22898
1125.99266,0.23387
1124.50288,0.23832
1123.01309,0.23571
1121.52330,0.23313
1120.03351,0.23354
1118.54372,0.23352
1117.05393,0.23672
1115.56415,0.24498
1114.07436,0.24457
1112.58457,0.24774
1111.09478,0.25092
1109.60499,0.22912
1108.11520,0.21167
1106.62542,0.23813
1105.13563,0.23673
1103.64584,0.24152
1102.15605,0.23697
1100.66626,0.23576
1099.17647,0.23458
1097.68668,0.20268
1096.19690,0.20326
1094.70711,0.20249
1093.21732,0.20517
1091.72753,0.20811
1090.23774,0.20707
1088.74795,0.20606
1087.25817,0.21067
1085.76838,0.20228
1084.27859,0.19939
1082.78880,0.21322
1081.29901,0.19644
1079.80922,0.23431
1078.31943,0.23472
1076.82965,0.23516
1075.33986,0.22671
1073.85007,0.24411
1072.36028,0.26199
1070.87049,0.28240
1069.38070,0.31153
1067.89092,0.32400
1066.40113,0.33649
1064.91134,0.40224
1063.42155,0.45934
1061.93176,0.59872
1060.44197,0.70270
1058.95219,0.82157
1057.46240,0.87282
1055.97261,0.92410
1054.48282,1.04418
1052.99303,1.07540
1051.50324,1.07214
1050.01345,1.08125
1048.52367,1.06502
1047.03388,1.04573
1045.54409,1.02647
1044.05430,0.99569
1042.56451,0.91626
1041.07472,0.85515
1039.58494,0.74401
1038.09515,0.65027
1036.60536,0.61721
1035.11557,0.58418
1033.62578,0.51770
1032.13599,0.44302
1030.64620,0.36951
1029.15642,0.33120
1027.66663,0.31418
1026.17684,0.29717
1024.68705,0.27562
1023.19726,0.22965
1021.70747,0.20290
1020.21769,0.16840
1018.72790,0.15631
1017.23811,0.15180
1015.74832,0.14730
1014.25853,0.12204
1012.76874,0.10892
1011.27896,0.12529
1009.78917,0.10193
1008.29938,0.09390
1006.80959,0.07539
1005.31980,0.05690
1003.83001,0.04964
1002.34022,0.05176
1000.85044,0.05071
999.36065,0.05129
997.87086,0.05406
996.38107,0.05685
994.89128,0.08424
993.40149,0.09382
991.91171,0.11645
990.42192,0.13408
988.93213,0.16499
987.44234,0.17822
985.95255,0.19146
984.46276,0.17995
982.97297,0.14972
981.48319,0.13322
979.99340,0.10624
978.50361,0.09128
977.01382,0.07635
975.52403,0.06406
974.03424,0.06300
972.54446,0.03249
971.05467,0.02028
969.56488,0.00306
968.07509,0.00366
966.58530,0.00428
965.09551,0.01189
963.60573,0.00239
962.11594,0.00822
960.62615,0.00974
959.13636,0.01413
957.64657,0.01855
956.15678,0.02243
954.66699,0.00668
953.17721,0.01197
951.68742,0.02757
950.19763,0.02652
948.70784,0.02549
947.21805,0.04025
945.72826,0.05344
944.23848,0.08264
942.74869,0.09199
941.25890,0.10274
939.76911,0.10985
938.27932,0.11699
936.78953,0.14632
935.29974,0.15283
933.80996,0.14953
932.32017,0.18693
930.83038,0.18734
929.34059,0.18777
927.85080,0.20948
926.36101,0.22298
924.87123,0.28267
923.38144,0.33758
921.89165,0.37812
920.40186,0.41868
918.91207,0.51137
917.42228,0.60522
915.93250,0.75096
914.44271,1.00092
912.95292,1.10079
911.46313,1.20068
909.97334,1.40547
908.48355,1.61874
906.99376,1.74910
905.50398,1.91466
904.01419,1.94396
902.52440,1.97328
901.03461,2.00000
899.54482,1.95591
898.05503,1.78595
896.56525,1.60299
895.07546,1.48735
893.58567,1.37173
892.09588,1.13081
890.60609,0.89425
889.11630,0.67463
887.62651,0.47903
886.13673,0.42453
884.64694,0.37007
883.15715,0.27690
881.66736,0.21186
880.17757,0.13519
878.68778,0.12263
877.19800,0.11010
875.70821,0.08309
874.21842,0.05290
872.72863,0.03279
871.23884,0.03623
869.74905,0.03091
868.25927,0.02561
866.76948,0.03347
865.27969,0.01189
863.78990,0.05727
862.30011,0.05561
860.81032,0.06300
859.32053,0.07041
857.83075,0.08551
856.34096,0.10611
854.85117,0.12034
853.36138,0.12842
851.87159,0.13699
850.38180,0.14558
848.89202,0.16927
847.40223,0.19071
845.91244,0.21125
844.42265,0.22428
842.93286,0.23734
841.44307,0.24470
839.95329,0.28614
838.46350,0.28419
836.97371,0.30168
835.48392,0.29692
833.99413,0.29219
832.50434,0.31935
831.01455,0.29650
829.52477,0.25563
828.03498,0.24219
826.54519,0.22913
825.05540,0.21609
823.56561,0.19542
822.07582,0.18597
820.58604,0.16398
819.09625,0.15492
817.60646,0.14588
816.11667,0.14956
814.62688,0.13109
813.13709,0.15195
811.64730,0.16323
810.15752,0.15752
808.66773,0.15183
807.17794,0.17622
805.68815,0.18189
804.19836,0.16702
802.70857,0.17034
801.21879,0.17369
799.72900,0.16712
798.23921,0.14413
796.74942,0.16685
795.25963,0.15990
793.76984,0.15298
792.28006,0.16275
790.79027,0.17324
789.30048,0.19244
787.81069,0.21782
786.32090,0.24038
784.83111,0.26296
783.34132,0.29254
781.85154,0.32602
780.36175,0.38101
778.87196,0.40220
777.38217,0.42342
775.89238,0.43735
774.40259,0.45656
772.91281,0.43330
771.42302,0.41703
769.93323,0.40079
768.44344,0.39634
766.95365,0.35398
765.46386,0.27737
763.97407,0.22410
762.48429,0.18913
760.99450,0.15418
759.50471,0.16336
758.01492,0.13166
756.52513,0.12101
755.03534,0.11837
753.54556,0.11577
752.05577,0.09925
750.56598,0.08184
749.07619,0.04617
747.58640,0.05109
746.09661,0.05603
744.60683,0.05426
743.11704,0.03811
741.62725,0.02953
740.13746,0.01983
738.64767,0.01016
737.15788,0.01377
735.66809,0.00460
734.17831,0.00917
732.68852,0.00610
731.19873,0.00306
729.70894,0.01140
728.21915,0.01701
726.72936,0.00620
725.23958,0.01274
723.74979,0.01359
722.26000,0.01446
720.77021,0.00965
719.28042,0.01857
717.79063,0.00306
716.30084,0.00675
714.81106,0.01046
713.32127,0.02185
711.83148,0.03943
710.34169,0.03373
708.85190,0.02772
707.36211,0.02173
705.87233,0.02638
704.38254,0.02741
702.89275,0.02846
701.40296,0.02759
699.91317,0.02675
698.42338,0.05461
696.93360,0.09552
695.44381,0.10194
693.95402,0.10234
692.46423,0.10277
690.97444,0.12001
689.48465,0.12928
687.99486,0.16096
686.50508,0.16879
685.01529,0.17665
683.52550,0.21595
682.03571,0.24865
680.54592,0.22242
679.05613,0.23301
677.56635,0.24361
676.07656,0.26293
674.58677,0.24434
673.09698,0.21732
671.60719,0.20678
670.11740,0.19626
668.62761,0.16063
667.13783,0.15313
665.64804,0.14418
664.15825,0.13524
662.66846,0.11159
661.17867,0.06604
659.68888,0.05592
658.19910,0.04982
656.70931,0.04375
655.21952,0.03325
653.72973,0.03671
652.23994,0.03357
650.75015,0.03434
649.26037,0.03514
647.77058,0.04395
646.28079,0.03611
644.79100,0.04566
643.30121,0.03776
641.81142,0.02987
640.32163,0.02419
638.83185,0.02196
637.34206,0.01952
635.85227,0.01128
634.36248,0.00306
632.87269,0.00810
631.38290,0.01361
629.89312,0.01801
628.40333,0.01626
626.91354,0.01453
625.42375,0.01694
623.93396,0.01710
622.44417,0.02253
620.95438,0.02799
619.46460,0.03164
617.97481,0.04926
616.48502,0.07535
614.99523,0.08445
613.50544,0.09357
612.01565,0.11265
610.52587,0.15553
609.03608,0.19043
607.54629,0.20307
606.05650,0.21574
604.56671,0.24980
603.07692,0.33758
601.58714,0.36187
600.09735,0.38617
598.60756,0.40914
597.11777,0.44835
595.62798,0.44462
594.13819,0.44892
592.64840,0.45325
591.15862,0.41076
589.66883,0.33013
588.17904,0.29432
586.68925,0.26424
585.19946,0.23419
583.70967,0.17125
582.21989,0.14673
580.73010,0.12224
579.24031,0.09776
577.75052,0.08246
576.26073,0.06557
574.77094,0.07271
573.28115,0.07267
571.79137,0.07265
570.30158,0.06135
568.81179,0.04825
567.32200,0.06818
565.83221,0.08814
564.34242,0.11076
562.85264,0.14254
561.36285,0.15400
559.87306,0.16881
558.38327,0.18364
556.89348,0.20112
555.40369,0.19326
553.91391,0.20428
552.42412,0.21532
550.93433,0.24638
549.44454,0.23383
547.95475,0.22792
546.46496,0.22890
544.97517,0.22989
543.48539,0.27547
541.99560,0.31331
540.50581,0.31952
539.01602,0.32576
537.52623,0.36344
536.03644,0.40274
534.54666,0.44549
533.05687,0.46760
531.56708,0.48972
530.07729,0.52090
528.58750,0.57540
527.09771,0.59703
525.60792,0.61869
524.11814,0.65042
522.62835,0.70091
521.13856,0.76422
519.64877,0.79294
518.15898,0.82169
516.66919,0.89307
515.17941,0.87171
513.68962,0.87528
512.19983,0.87888
510.71004,0.82309
509.22025,0.76870
507.73046,0.72644
506.24068,0.67724
504.75089,0.62807
503.26110,0.51140
501.77131,0.37739
500.28152,0.33491
498.79173,0.29246
497.30194,0.22844
495.81216,0.20557
494.32237,0.17416
492.83258,0.14277
491.34279,0.12752
489.85300,0.09127
488.36321,0.07675
486.87343,0.06077
485.38364,0.04482
483.89385,0.06762
482.40406,0.06851
480.91427,0.08656
479.42448,0.10463
477.93469,0.10468
476.44491,0.14976
474.95512,0.15683
473.46533,0.16392
471.97554,0.18372
470.48575,0.18526
468.99596,0.21607
467.50618,0.19870
466.01639,0.18135
464.52660,0.12427
463.03681,0.11839
461.54702,0.09689
460.05723,0.07541
458.56745,0.05156
457.07766,0.01837
455.58787,0.01901
454.09808,0.01968
452.60829,0.02654
451.11850,0.03435
449.62871,0.02138
448.13893,0.00844
446.64914,0.00306
445.15935,0.02021
443.66956,0.00288
442.17977,0.01870
440.68998,0.03455
439.20020,0.03854
437.71041,0.01651
436.22062,0.02157
434.73083,0.02667
433.24104,0.02185
431.75125,0.02870
430.26146,0.03821
428.77168,0.04774
427.28189,0.04485
425.79210,0.04152
424.30231,0.03970
422.81252,0.03791
421.32273,0.03328
419.83295,0.03531
418.34316,0.02673
416.85337,0.01818
415.36358,0.01937
413.87379,0.02309
412.38400,0.03152
410.89422,0.03998
409.40443,0.05086
407.91464,0.02909
406.42485,0.02677
404.93506,0.04035
403.44527,0.05395
401.95548,0.03228
400.46570,0.03600
398.97591,0.03197
397.48612,0.02797
395.99633,0.05643
394.50654,0.05294
393.01675,0.04444
391.52697,0.03596
390.03718,0.01906
388.54739,0.01809
387.05760,0.02456
385.56781,0.03106
384.07802,0.04090
382.58824,0.02861
381.09845,0.03027
379.60866,0.03196
378.11887,0.04441
376.62908,0.02741
375.13929,0.01592
373.64950,0.00445
372.15972,0.00306
370.66993,0.03994
369.18014,0.03905
367.69035,0.03818
366.20056,0.03608
364.71077,0.04543
363.22099,0.04235
361.73120,0.03929
360.24141,0.05099
358.75162,0.07826
357.26183,0.06465
355.77204,0.05107
354.28225,0.07430
352.79247,0.07676
351.30268,0.07433
349.81289,0.07193
348.32310,0.06076
346.83331,0.05989
345.34352,0.05859
343.85374,0.05731
342.36395,0.06726
340.87416,0.08477
339.38437,0.06848
337.89458,0.05223
336.40479,0.04170
334.91501,0.01681
333.42522,0.01057
331.93543,0.00435
330.44564,0.00306
328.95585,0.01905
327.46606,0.01701
325.97627,0.01499
324.48649,0.04827
322.99670,0.02903
321.50691,0.03391
320.01712,0.03882
318.52733,0.07449
317.03754,0.07522
315.54776,0.06856
314.05797,0.06191
312.56818,0.07986
311.07839,0.09782
309.58860,0.07903
308.09881,0.06026
306.60902,0.06825
305.11924,0.00543
303.62945,0.00787
302.13966,0.00306
300.64987,0.02773
299.16008,0.00306
