1778.52000,0.01825
1777.03021,0.02355
1775.54042,0.00107
1774.05063,0.01476
1772.56085,0.00497
1771.07106,0.01795
1769.58127,0.00466
1768.09148,0.00278
1766.60169,0.01128
1765.11190,0.01273
1763.62212,0.01723
1762.13233,0.01949
1760.64254,0.01368
1759.15275,0.01421
1757.66296,0.00466
1756.17317,0.00297
1754.68339,0.00332
1753.19360,0.00572
1751.70381,0.00537
1750.21402,0.00933
1748.72423,0.00018
1747.23444,0.00318
1745.74465,0.00394
1744.25487,0.01406
1742.76508,0.01234
1741.27529,0.01544
1739.78550,0.01174
1738.29571,0.01413
1736.80592,0.00466
1735.31614,0.01010
1733.82635,0.00419
1732.33656,0.00538
1730.84677,0.00811
1729.35698,0.00000
1727.86719,0.00430
1726.37740,0.00205
1724.88762,0.00159
1723.39783,0.01632
1721.90804,0.00504
1720.41825,0.00845
1718.92846,0.01466
1717.43867,0.01154
1715.94889,0.00466
1714.45910,0.00606
1712.96931,0.01695
1711.47952,0.00689
1709.98973,0.00519
1708.49994,0.00479
1707.01016,0.01059
1705.52037,0.01643
1704.03058,0.01887
1702.54079,0.00466
1701.05100,0.01482
1699.56121,0.02904
1698.07142,0.03040
1696.58164,0.02167
1695.09185,0.03217
1693.60206,0.02021
1692.11227,0.02393
1690.62248,0.02617
1689.13269,0.02717
1687.64291,0.02768
1686.15312,0.02544
1684.66333,0.02702
1683.17354,0.04176
1681.68375,0.04566
1680.19396,0.04579
1678.70417,0.05277
1677.21439,0.04840
1675.72460,0.05265
1674.23481,0.06880
1672.74502,0.06298
1671.25523,0.05264
1669.76544,0.06584
1668.27566,0.06869
1666.78587,0.07510
1665.29608,0.08407
1663.80629,0.09382
1662.31650,0.09399
1660.82671,0.08483
1659.33693,0.10148
1657.84714,0.09161
1656.35735,0.07418
1654.86756,0.08205
1653.37777,0.06619
1651.88798,0.08094
1650.39819,0.09646
1648.90841,0.08851
1647.41862,0.08260
1645.92883,0.08102
1644.43904,0.07945
1642.94925,0.08550
1641.45946,0.09030
1639.96968,0.09614
1638.47989,0.10201
1636.99010,0.08717
1635.50031,0.08247
1634.01052,0.06464
1632.52073,0.06479
1631.03094,0.07431
1629.54116,0.07249
1628.05137,0.07852
1626.56158,0.08458
1625.07179,0.09723
1623.58200,0.09070
1622.09221,0.08723
1620.60243,0.09288
1619.11264,0.10715
1617.62285,0.08403
1616.13306,0.08015
1614.64327,0.06567
1613.15348,0.06790
1611.66370,0.08861
1610.17391,0.08710
1608.68412,0.07727
1607.19433,0.09401
1605.70454,0.07614
1604.21475,0.08079
1602.72496,0.08547
1601.23518,0.08410
1599.74539,0.07341
1598.25560,0.07614
1596.76581,0.07231
1595.27602,0.08368
1593.78623,0.08269
1592.29645,0.06833
1590.80666,0.06890
1589.31687,0.07556
1587.82708,0.06456
1586.33729,0.06520
1584.84750,0.07245
1583.35771,0.08249
1581.86793,0.07563
1580.37814,0.06778
1578.88835,0.08194
1577.39856,0.06959
1575.90877,0.06408
1574.41898,0.04698
1572.92920,0.04506
1571.43941,0.06314
1569.94962,0.05798
1568.45983,0.05285
1566.97004,0.03157
1565.48025,0.03710
1563.99047,0.04519
1562.50068,0.04016
1561.01089,0.03009
1559.52110,0.01525
1558.03131,0.03177
1556.54152,0.03341
1555.05173,0.03532
1553.56195,0.03524
1552.07216,0.02405
1550.58237,0.02124
1549.09258,0.02148
1547.60279,0.00708
1546.11300,0.00130
1544.62322,0.01318
1543.13343,0.01471
1541.64364,0.00692
1540.15385,0.01090
1538.66406,0.01491
1537.17427,0.00466
1535.68448,0.01530
1534.19470,0.02697
1532.70491,0.00858
1531.21512,0.00513
1529.72533,0.01738
1528.23554,0.01196
1526.74575,0.01592
1525.25597,0.02874
1523.76618,0.01884
1522.27639,0.02995
1520.78660,0.04234
1519.29681,0.03252
1517.80702,0.03434
1516.31724,0.03291
1514.82745,0.03958
1513.33766,0.03883
1511.84787,0.03810
1510.35808,0.03828
1508.86829,0.03671
1507.37850,0.03340
1505.88872,0.02859
1504.39893,0.02684
1502.90914,0.04357
1501.41935,0.05476
1499.92956,0.05688
1498.43977,0.06003
1496.94999,0.05992
1495.46020,0.05352
1493.97041,0.06458
1492.48062,0.06858
1490.99083,0.08601
1489.50104,0.09537
1488.01125,0.10008
1486.52147,0.10482
1485.03168,0.12209
1483.54189,0.14267
1482.05210,0.15746
1480.56231,0.17809
1479.07252,0.16665
1477.58274,0.19744
1476.09295,0.19716
1474.60316,0.20398
1473.11337,0.20755
1471.62358,0.20178
1470.13379,0.23876
1468.64401,0.22976
1467.15422,0.24985
1465.66443,0.26756
1464.17464,0.28529
1462.68485,0.29863
1461.19506,0.31857
1459.70527,0.35975
1458.21549,0.42270
1456.72570,0.48265
1455.23591,0.57496
1453.74612,0.59729
1452.25633,0.62647
1450.76654,0.62711
1449.27676,0.61388
1447.78697,0.62771
1446.29718,0.62792
1444.80739,0.61425
1443.31760,0.60060
1441.82781,0.55842
1440.33802,0.52384
1438.84824,0.49435
1437.35845,0.48055
1435.86866,0.46273
1434.37887,0.46667
1432.88908,0.50955
1431.39929,0.54286
1429.90951,0.59313
1428.41972,0.68664
1426.92993,0.72963
1425.44014,0.78477
1423.95035,0.81554
1422.46056,0.84634
1420.97078,0.87729
1419.48099,0.86934
1417.99120,0.84196
1416.50141,0.84947
1415.01162,0.85474
1413.52183,0.79962
1412.03204,0.72001
1410.54226,0.68415
1409.05247,0.62127
1407.56268,0.58900
1406.07289,0.53779
1404.58310,0.52945
1403.09331,0.52113
1401.60353,0.46394
1400.11374,0.40120
1398.62395,0.34632
1397.13416,0.31675
1395.64437,0.24499
1394.15458,0.21293
1392.66479,0.19000
1391.17501,0.15496
1389.68522,0.12752
1388.19543,0.09809
1386.70564,0.09106
1385.21585,0.08404
1383.72606,0.05721
1382.23628,0.03394
1380.74649,0.02561
1379.25670,0.03020
1377.76691,0.01711
1376.27712,0.01113
1374.78733,0.00466
1373.29755,0.01196
1371.80776,0.00538
1370.31797,0.00874
1368.82818,0.00820
1367.33839,0.00768
1365.84860,0.00807
1364.35881,0.02163
1362.86903,0.03698
1361.37924,0.05034
1359.88945,0.08773
1358.39966,0.09405
1356.90987,0.14463
1355.42008,0.19196
1353.93030,0.24486
1352.44051,0.26658
1350.95072,0.28831
1349.46093,0.33598
1347.97114,0.41654
1346.48135,0.50470
1344.99156,0.56988
1343.50178,0.63989
1342.01199,0.66443
1340.52220,0.72564
1339.03241,0.78864
1337.54262,0.82893
1336.05283,0.85520
1334.56305,0.88151
1333.07326,0.90214
1331.58347,0.92281
1330.09368,0.87222
1328.60389,0.90203
1327.11410,0.89522
1325.62432,0.87478
1324.13453,0.80255
1322.64474,0.79201
1321.15495,0.77443
1319.66516,0.75143
1318.17537,0.72846
1316.68558,0.67051
1315.19580,0.61637
1313.70601,0.57186
1312.21622,0.52990
1310.72643,0.48039
1309.23664,0.46122
1307.74685,0.40569
1306.25707,0.39568
1304.76728,0.37937
1303.27749,0.36308
1301.78770,0.32938
1300.29791,0.27321
1298.80812,0.23754
1297.31834,0.19178
1295.82855,0.14883
1294.33876,0.13875
1292.84897,0.10343
1291.35918,0.08153
1289.86939,0.07683
1288.37960,0.07216
1286.88982,0.09204
1285.40003,0.06341
1283.91024,0.07676
1282.42045,0.06233
1280.93066,0.04565
1279.44087,0.03632
1277.95109,0.03587
1276.46130,0.02432
1274.97151,0.03263
1273.48172,0.04097
1271.99193,0.04516
1270.50214,0.04331
1269.01235,0.03946
1267.52257,0.03109
1266.03278,0.02552
1264.54299,0.02503
1263.05320,0.03796
1261.56341,0.02906
1260.07362,0.02017
1258.58384,0.01624
1257.09405,0.00981
1255.60426,0.00466
1254.11447,0.02378
1252.62468,0.00880
1251.13489,0.00876
1249.64511,0.00824
1248.15532,0.02138
1246.66553,0.02660
1245.17574,0.03183
1243.68595,0.02762
1242.19616,0.02317
1240.70637,0.02127
1239.21659,0.01460
1237.72680,0.01832
1236.23701,0.02509
1234.74722,0.03214
1233.25743,0.02821
1231.76764,0.02432
1230.27786,0.03851
1228.78807,0.03808
1227.29828,0.03665
1225.80849,0.02514
1224.31870,0.02705
1222.82891,0.01964
1221.33912,0.00466
1219.84934,0.01730
1218.35955,0.02997
1216.86976,0.04645
1215.37997,0.06194
1213.89018,0.06027
1212.40039,0.07556
1210.91061,0.08077
1209.42082,0.08953
1207.93103,0.07634
1206.44124,0.06316
1204.95145,0.06973
1203.46166,0.07682
1201.97188,0.04451
1200.48209,0.04331
1198.99230,0.04365
1197.50251,0.06095
1196.01272,0.05730
1194.52293,0.04470
1193.03314,0.03212
1191.54336,0.02071
1190.05357,0.02195
1188.56378,0.01387
1187.07399,0.02527
1185.58420,0.02685
1184.09441,0.01783
1182.60463,0.01123
1181.11484,0.00466
1179.62505,0.01154
1178.13526,0.01440
1176.64547,0.01501
1175.15568,0.00907
1173.66589,0.00872
1172.17611,0.00637
1170.68632,0.01200
1169.19653,0.01766
1167.70674,0.01564
1166.21695,0.00782
1164.72716,0.02834
1163.23738,0.03018
1161.74759,0.04215
1160.25780,0.05769
1158.76801,0.06844
1157.27822,0.07922
1155.78843,0.06197
1154.29865,0.07230
1152.80886,0.08366
1151.31907,0.10035
1149.82928,0.09482
1148.33949,0.11030
1146.84970,0.11253
1145.35991,0.11479
1143.87013,0.12528
1142.38034,0.14945
1140.89055,0.17465
1139.40076,0.18876
1137.91097,0.19454
1136.42118,0.20187
1134.93140,0.20607
1133.44161,0.21029
1131.95182,0.21845
1130.46203,0.23573
1128.97224,0.26466
1127.48245,0.25242
1125.99266,0.24299
1124.50288,0.23257
1123.01309,0.24466
1121.52330,0.25678
1120.03351,0.24947
1118.54372,0.24597
1117.05393,0.23566
1115.56415,0.27215
1114.07436,0.24496
1112.58457,0.25166
1111.09478,0.25839
1109.60499,0.25529
1108.11520,0.23983
1106.62542,0.23399
1105.13563,0.24941
1103.64584,0.23175
1102.15605,0.25126
1100.66626,0.24615
1099.17647,0.24107
1097.68668,0.21263
1096.19690,0.20646
1094.70711,0.20689
1093.21732,0.20986
1091.72753,0.19290
1090.23774,0.18897
1088.74795,0.18507
1087.25817,0.16868
1085.76838,0.16748
1084.27859,0.20144
1082.78880,0.18184
1081.29901,0.17060
1079.80922,0.18744
1078.31943,0.18636
1076.82965,0.18531
1075.33986,0.17948
1073.85007,0.17898
1072.36028,0.19063
1070.87049,0.18993
1069.38070,0.20543
1067.89092,0.22739
1066.40113,0.24938
1064.91134,0.31525
1063.42155,0.37811
1061.93176,0.44908
1060.44197,0.51552
1058.95219,0.59690
1057.46240,0.65063
1055.97261,0.70439
1054.48282,0.81567
1052.99303,0.89386
1051.50324,0.91925
1050.01345,0.88931
1048.52367,0.87178
1047.03388,0.87336
1045.54409,0.87497
1044.05430,0.84765
1042.56451,0.79256
1041.07472,0.74381
1039.58494,0.70065
1038.09515,0.59811
1036.60536,0.57092
1035.11557,0.54375
1033.62578,0.49790
1032.13599,0.43110
1030.64620,0.37797
1029.15642,0.31046
1027.66663,0.29302
1026.17684,0.27560
1024.68705,0.24026
1023.19726,0.22087
1021.70747,0.17623
1020.21769,0.15360
1018.72790,0.14363
1017.23811,0.14354
1015.74832,0.14348
1014.25853,0.11362
1012.76874,0.11411
1011.27896,0.11716
1009.78917,0.11214
1008.29938,0.08490
1006.80959,0.07652
1005.31980,0.06816
1003.83001,0.04024
1002.34022,0.03610
1000.85044,0.02768
999.36065,0.03699
997.87086,0.03406
996.38107,0.03115
994.89128,0.04306
993.40149,0.07217
991.91171,0.06972
990.42192,0.07234
988.93213,0.09420
987.44234,0.10673
985.95255,0.11929
984.46276,0.12504
982.97297,0.11010
981.48319,0.09518
979.99340,0.06992
978.50361,0.06288
977.01382,0.05586
975.52403,0.06884
974.03424,0.05834
972.54446,0.03522
971.05467,0.03411
969.56488,0.02368
968.07509,0.01416
966.58530,0.00466
965.09551,0.01634
963.60573,0.02475
962.11594,0.01929
960.62615,0.03332
959.13636,0.03624
957.64657,0.03919
956.15678,0.04950
954.66699,0.03658
953.17721,0.04162
951.68742,0.05781
950.19763,0.05937
948.70784,0.06095
947.21805,0.07747
945.72826,0.07910
944.23848,0.10754
942.74869,0.13475
941.25890,0.15743
939.76911,0.17027
938.27932,0.18315
936.78953,0.19553
935.29974,0.18798
933.80996,0.19435
932.32017,0.20934
930.83038,0.21791
929.34059,0.22651
927.85080,0.24940
926.36101,0.27106
924.87123,0.30437
923.38144,0.35009
921.89165,0.37852
920.40186,0.40697
918.91207,0.49219
917.42228,0.61662
915.93250,0.73929
914.44271,0.91760
912.95292,1.04487
911.46313,1.17217
909.97334,1.39175
908.48355,1.63764
906.99376,1.77260
905.50398,1.91314
904.01419,1.94792
902.52440,1.98273
901.03461,2.00000
899.54482,1.93590
898.05503,1.85237
896.56525,1.67054
895.07546,1.57101
893.58567,1.47150
892.09588,1.18763
890.60609,0.95888
889.11630,0.69730
887.62651,0.53786
886.13673,0.46804
884.64694,0.39825
883.15715,0.26719
881.66736,0.17255
880.17757,0.12065
878.68778,0.10580
877.19800,0.09097
875.70821,0.07580
874.21842,0.05104
872.72863,0.03237
871.23884,0.02282
869.74905,0.02581
868.25927,0.02883
866.76948,0.02694
865.27969,0.01976
863.78990,0.01464
862.30011,0.01712
860.81032,0.02012
859.32053,0.02316
857.83075,0.06817
856.34096,0.05735
854.85117,0.08346
853.36138,0.07976
851.87159,0.08166
850.38180,0.08357
848.89202,0.11306
847.40223,0.12665
845.91244,0.14178
844.42265,0.15807
842.93286,0.17439
841.44307,0.17089
839.95329,0.17727
838.46350,0.19505
836.97371,0.19819
835.48392,0.19921
833.99413,0.20026
832.50434,0.20373
831.01455,0.19332
829.52477,0.16448
828.03498,0.15513
826.54519,0.14455
825.05540,0.13398
823.56561,0.13128
822.07582,0.11040
820.58604,0.07994
819.09625,0.07781
817.60646,0.07571
816.11667,0.08475
814.62688,0.07562
813.13709,0.07764
811.64730,0.09029
810.15752,0.08553
808.66773,0.08079
807.17794,0.10035
805.68815,0.11790
804.19836,0.10742
802.70857,0.10986
801.21879,0.11232
799.72900,0.08776
798.23921,0.07131
796.74942,0.08194
795.25963,0.08285
793.76984,0.08379
792.28006,0.08159
790.79027,0.10369
789.30048,0.11342
787.81069,0.13101
786.32090,0.14673
784.83111,0.16248
783.34132,0.20390
781.85154,0.22159
780.36175,0.25371
778.87196,0.25906
777.38217,0.26443
775.89238,0.29031
774.40259,0.31469
772.91281,0.29537
771.42302,0.28403
769.93323,0.27272
768.44344,0.26990
766.95365,0.21479
765.46386,0.18902
763.97407,0.14280
762.48429,0.13337
760.99450,0.12398
759.50471,0.12181
758.01492,0.07088
756.52513,0.08469
755.03534,0.08070
753.54556,0.07673
752.05577,0.06128
750.56598,0.04637
749.07619,0.03274
747.58640,0.03608
746.09661,0.03943
744.60683,0.02335
743.11704,0.02726
741.62725,0.00466
740.13746,0.00782
738.64767,0.01100
737.15788,0.00952
735.66809,0.02122
734.17831,0.01449
732.68852,0.01523
731.19873,0.01601
729.70894,0.01011
728.21915,0.01940
726.72936,0.00571
725.23958,0.01596
723.74979,0.01436
722.26000,0.01278
720.77021,0.01629
719.28042,0.02158
717.79063,0.01856
716.30084,0.01089
714.81106,0.00324
713.32127,0.00426
711.83148,0.00277
710.34169,0.01697
708.85190,0.01869
707.36211,0.02043
705.87233,0.04077
704.38254,0.05002
702.89275,0.04185
701.40296,0.04255
699.91317,0.04327
698.42338,0.05439
696.93360,0.06603
695.44381,0.08957
693.95402,0.09735
692.46423,0.10514
690.97444,0.11082
689.48465,0.13345
687.99486,0.15534
686.50508,0.17196
685.01529,0.18860
683.52550,0.21511
682.03571,0.25834
680.54592,0.26722
679.05613,0.25640
677.56635,0.24561
676.07656,0.25835
674.58677,0.25645
673.09698,0.23866
671.60719,0.21975
670.11740,0.20086
668.62761,0.16797
667.13783,0.14800
665.64804,0.13816
664.15825,0.12835
662.66846,0.11780
661.17867,0.08882
659.68888,0.06644
658.19910,0.05647
656.70931,0.04652
655.21952,0.03104
653.72973,0.02923
652.23994,0.03376
650.75015,0.04274
649.26037,0.05175
647.77058,0.03209
646.28079,0.03470
644.79100,0.03253
643.30121,0.02558
641.81142,0.01865
640.32163,0.01984
638.83185,0.01701
637.34206,0.02128
635.85227,0.01508
634.36248,0.00891
632.87269,0.00466
631.38290,0.00562
629.89312,0.01394
628.40333,0.01116
626.91354,0.00841
625.42375,0.02362
623.93396,0.01611
622.44417,0.01886
620.95438,0.02164
619.46460,0.03341
617.97481,0.06416
616.48502,0.08458
614.99523,0.08302
613.50544,0.08150
612.01565,0.10072
610.52587,0.12325
609.03608,0.16426
607.54629,0.18659
606.05650,0.20894
604.56671,0.22804
603.07692,0.29543
601.58714,0.32746
600.09735,0.35951
598.60756,0.40372
597.11777,0.42799
595.62798,0.39693
594.13819,0.38889
592.64840,0.38088
591.15862,0.35748
589.66883,0.31438
588.17904,0.26752
586.68925,0.24052
585.19946,0.21354
583.70967,0.14527
582.21989,0.12049
580.73010,0.09953
579.24031,0.07859
577.75052,0.06172
576.26073,0.06358
574.77094,0.04120
573.28115,0.03439
571.79137,0.02760
570.30158,0.03992
568.81179,0.02698
567.32200,0.04238
565.83221,0.05781
564.34242,0.06820
562.85264,0.08822
561.36285,0.11636
559.87306,0.12683
558.38327,0.13732
556.89348,0.12635
555.40369,0.12046
553.91391,0.12761
552.42412,0.13478
550.93433,0.16764
549.44454,0.18055
547.95475,0.16239
546.46496,0.18192
544.97517,0.20148
543.48539,0.21019
541.99560,0.22423
540.50581,0.24158
539.01602,0.25896
537.52623,0.29582
536.03644,0.34889
534.54666,0.37038
533.05687,0.39190
531.56708,0.41344
530.07729,0.48783
528.58750,0.55618
527.09771,0.59220
525.60792,0.62825
524.11814,0.68403
522.62835,0.73201
521.13856,0.75448
519.64877,0.81122
518.15898,0.86799
516.66919,0.87435
515.17941,0.84611
513.68962,0.84545
512.19983,0.84481
510.71004,0.83358
509.22025,0.77258
507.73046,0.71186
506.24068,0.67619
504.75089,0.64054
503.26110,0.50962
501.77131,0.38126
500.28152,0.33052
498.79173,0.27980
497.30194,0.20257
495.81216,0.16504
494.32237,0.13777
492.83258,0.11053
491.34279,0.10214
489.85300,0.07836
488.36321,0.06825
486.87343,0.07346
485.38364,0.07869
483.89385,0.06765
482.40406,0.08796
480.91427,0.08809
479.42448,0.08823
477.93469,0.10585
476.44491,0.12525
474.95512,0.14114
473.46533,0.15706
471.97554,0.14924
470.48575,0.14877
468.99596,0.16425
467.50618,0.16510
466.01639,0.16597
464.52660,0.10696
463.03681,0.11951
461.54702,0.09214
460.05723,0.06480
458.56745,0.03470
457.07766,0.04456
455.58787,0.03537
454.09808,0.02620
452.60829,0.02804
451.11850,0.01551
449.62871,0.01007
448.13893,0.00466
446.64914,0.00877
445.15935,0.00431
443.66956,0.01276
442.17977,0.02162
440.68998,0.03050
439.20020,0.03170
437.71041,0.04455
436.22062,0.04529
434.73083,0.04605
433.24104,0.03951
431.75125,0.02920
430.26146,0.03711
428.77168,0.04505
427.28189,0.03962
425.79210,0.03370
424.30231,0.03956
422.81252,0.04545
421.32273,0.03758
419.83295,0.03151
418.34316,0.04265
416.85337,0.05382
415.36358,0.04125
413.87379,0.02769
412.38400,0.02932
410.89422,0.03098
409.40443,0.03595
407.91464,0.02476
406.42485,0.02498
404.93506,0.01927
403.44527,0.01359
401.95548,0.02172
400.46570,0.02986
398.97591,0.02729
397.48612,0.02474
395.99633,0.04610
394.50654,0.04171
393.01675,0.03986
391.52697,0.03804
390.03718,0.03069
388.54739,0.02184
387.05760,0.01958
385.56781,0.01736
384.07802,0.00466
382.58824,0.02284
381.09845,0.02069
379.60866,0.01857
378.11887,0.03480
376.62908,0.04094
375.13929,0.02827
373.64950,0.01563
372.15972,0.04384
370.66993,0.02328
369.18014,0.02710
367.69035,0.03095
366.20056,0.02635
364.71077,0.02860
363.22099,0.02317
361.73120,0.01776
360.24141,0.00466
358.75162,0.04776
357.26183,0.04868
355.77204,0.04962
354.28225,0.03593
352.79247,0.07408
351.30268,0.06561
349.81289,0.05717
348.32310,0.05293
346.83331,0.03329
345.34352,0.02998
343.85374,0.02669
342.36395,0.03594
340.87416,0.02171
339.38437,0.02077
337.89458,0.01985
336.40479,0.03097
334.91501,0.01253
333.42522,0.01093
331.93543,0.00935
330.44564,0.01197
328.95585,0.01360
327.46606,0.01134
325.97627,0.00910
324.48649,0.03482
322.99670,0.03756
321.50691,0.02136
320.01712,0.00519
318.52733,0.05173
317.03754,0.06897
315.54776,0.07562
314.05797,0.08230
312.56818,0.05639
311.07839,0.09497
309.58860,0.07619
308.09881,0.05743
306.60902,0.03137
305.11924,0.04956
303.62945,0.03619
302.13966,0.02284
300.64987,0.00471
299.16008,0.00466
