1778.52000,0.00634
1777.03021,0.00265
1775.54042,0.00669
1774.05063,0.00860
1772.56085,0.01177
1771.07106,0.00078
1769.58127,0.00985
1768.09148,0.01586
1766.60169,0.01389
1765.11190,0.00639
1763.62212,0.00600
1762.13233,0.01520
1760.64254,0.01424
1759.15275,0.01054
1757.66296,0.01919
1756.17317,0.01492
1754.68339,0.01530
1753.19360,0.01601
1751.70381,0.02168
1750.21402,0.01258
1748.72423,0.01768
1747.23444,0.02496
1745.74465,0.02549
1744.25487,0.00508
1742.76508,0.00641
1741.27529,0.01176
1739.78550,0.00974
1738.29571,0.01700
1736.80592,0.01996
1735.31614,0.03405
1733.82635,0.02504
1732.33656,0.01544
1730.84677,0.01480
1729.35698,0.00617
1727.86719,0.01175
1726.37740,0.00687
1724.88762,0.01158
1723.39783,0.00459
1721.90804,0.00842
1720.41825,0.00610
1718.92846,0.00011
1717.43867,0.01049
1715.94889,0.01657
1714.45910,0.00665
1712.96931,0.00169
1711.47952,0.01031
1709.98973,0.01094
1708.49994,0.00575
1707.01016,0.00735
1705.52037,0.00898
1704.03058,0.00078
1702.54079,0.01383
1701.05100,0.00440
1699.56121,0.00795
1698.07142,0.01984
1696.58164,0.00864
1695.09185,0.02551
1693.60206,0.01991
1692.11227,0.01803
1690.62248,0.01864
1689.13269,0.01188
1687.64291,0.02394
1686.15312,0.03665
1684.66333,0.02750
1683.17354,0.03347
1681.68375,0.03238
1680.19396,0.03501
1678.70417,0.04846
1677.21439,0.03696
1675.72460,0.04368
1674.23481,0.06614
1672.74502,0.04393
1671.25523,0.05349
1669.76544,0.03965
1668.27566,0.05296
1666.78587,0.07092
1665.29608,0.07195
1663.80629,0.07917
1662.31650,0.09104
1660.82671,0.08660
1659.33693,0.10314
1657.84714,0.08117
1656.35735,0.08543
1654.86756,0.06413
1653.37777,0.05889
1651.88798,0.07925
1650.39819,0.07282
1648.90841,0.07937
1647.41862,0.08408
1645.92883,0.08528
1644.43904,0.08650
1642.94925,0.08790
1641.45946,0.09334
1639.96968,0.09602
1638.47989,0.08301
1636.99010,0.09961
1635.50031,0.07524
1634.01052,0.08326
1632.52073,0.08545
1631.03094,0.08890
1629.54116,0.09052
1628.05137,0.08385
1626.56158,0.09199
1625.07179,0.08629
1623.58200,0.08555
1622.09221,0.08976
1620.60243,0.08413
1619.11264,0.08654
1617.62285,0.09360
1616.13306,0.08713
1614.64327,0.08653
1613.15348,0.07116
1611.66370,0.08757
1610.17391,0.08551
1608.68412,0.08223
1607.19433,0.09871
1605.70454,0.08686
1604.21475,0.08320
1602.72496,0.07957
1601.23518,0.07919
1599.74539,0.08501
1598.25560,0.07944
1596.76581,0.09332
1595.27602,0.08565
1593.78623,0.07214
1592.29645,0.07037
1590.80666,0.07788
1589.31687,0.06291
1587.82708,0.05690
1586.33729,0.07095
1584.84750,0.06067
1583.35771,0.07724
1581.86793,0.08952
1580.37814,0.08178
1578.88835,0.07592
1577.39856,0.06824
1575.90877,0.05719
1574.41898,0.05633
1572.92920,0.03978
1571.43941,0.03774
1569.94962,0.04821
1568.45983,0.05871
1566.97004,0.05274
1565.48025,0.06035
1563.99047,0.04487
1562.50068,0.05007
1561.01089,0.03341
1559.52110,0.02633
1558.03131,0.03376
1556.54152,0.03505
1555.05173,0.04500
1553.56195,0.02353
1552.07216,0.00825
1550.58237,0.00594
1549.09258,0.00828
1547.60279,0.00078
1546.11300,0.01509
1544.62322,0.02541
1543.13343,0.01727
1541.64364,0.00360
1540.15385,0.00427
1538.66406,0.00496
1537.17427,0.01662
1535.68448,0.01967
1534.19470,0.02028
1532.70491,0.00797
1531.21512,0.01295
1529.72533,0.01178
1528.23554,0.00078
1526.74575,0.01461
1525.25597,0.02383
1523.76618,0.00534
1522.27639,0.02695
1520.78660,0.02238
1519.29681,0.03109
1517.80702,0.03644
1516.31724,0.04551
1514.82745,0.04659
1513.33766,0.04846
1511.84787,0.05036
1510.35808,0.03271
1508.86829,0.03913
1507.37850,0.03632
1505.88872,0.03107
1504.39893,0.01537
1502.90914,0.05117
1501.41935,0.05278
1499.92956,0.05996
1498.43977,0.05761
1496.94999,0.06176
1495.46020,0.06840
1493.97041,0.08770
1492.48062,0.08607
1490.99083,0.07984
1489.50104,0.08966
1488.01125,0.09765
1486.52147,0.10567
1485.03168,0.13653
1483.54189,0.15631
1482.05210,0.15917
1480.56231,0.16975
1479.07252,0.18900
1477.58274,0.20333
1476.09295,0.19519
1474.60316,0.20464
1473.11337,0.21072
1471.62358,0.21961
1470.13379,0.23622
1468.64401,0.24885
1467.15422,0.26398
1465.66443,0.28067
1464.17464,0.29738
1462.68485,0.34957
1461.19506,0.37311
1459.70527,0.43305
1458.21549,0.41688
1456.72570,0.45530
1455.23591,0.51439
1453.74612,0.59200
1452.25633,0.61785
1450.76654,0.64959
1449.27676,0.66685
1447.78697,0.64870
1446.29718,0.63951
1444.80739,0.63327
1443.31760,0.62706
1441.82781,0.57540
1440.33802,0.52593
1438.84824,0.47648
1437.35845,0.47545
1435.86866,0.45811
1434.37887,0.45713
1432.88908,0.54002
1431.39929,0.61368
1429.90951,0.68029
1428.41972,0.72410
1426.92993,0.72294
1425.44014,0.78314
1423.95035,0.80853
1422.46056,0.83395
1420.97078,0.86988
1419.48099,0.88148
1417.99120,0.89865
1416.50141,0.88008
1415.01162,0.83504
1413.52183,0.83255
1412.03204,0.79742
1410.54226,0.74413
1409.05247,0.70627
1407.56268,0.65487
1406.07289,0.61583
1404.58310,0.59238
1403.09331,0.56895
1401.60353,0.49330
1400.11374,0.43555
1398.62395,0.37383
1397.13416,0.30811
1395.64437,0.24982
1394.15458,0.22362
1392.66479,0.16322
1391.17501,0.16419
1389.68522,0.12419
1388.19543,0.11072
1386.70564,0.10590
1385.21585,0.10112
1383.72606,0.07724
1382.23628,0.04075
1380.74649,0.02864
1379.25670,0.03135
1377.76691,0.02637
1376.27712,0.01372
1374.78733,0.00078
1373.29755,0.00310
1371.80776,0.01100
1370.31797,0.02386
1368.82818,0.02749
1367.33839,0.03115
1365.84860,0.03884
1364.35881,0.04810
1362.86903,0.04289
1361.37924,0.04388
1359.88945,0.06831
1358.39966,0.08352
1356.90987,0.12219
1355.42008,0.17783
1353.93030,0.20082
1352.44051,0.23725
1350.95072,0.27370
1349.46093,0.38030
1347.97114,0.45918
1346.48135,0.52515
1344.99156,0.59545
1343.50178,0.64420
1342.01199,0.69729
1340.52220,0.75071
1339.03241,0.77303
1337.54262,0.81201
1336.05283,0.84208
1334.56305,0.87218
1333.07326,0.93960
1331.58347,0.92720
1330.09368,0.94072
1328.60389,0.92006
1327.11410,0.90866
1325.62432,0.86585
1324.13453,0.87885
1322.64474,0.86815
1321.15495,0.80814
1319.66516,0.77745
1318.17537,0.74678
1316.68558,0.65973
1315.19580,0.59336
1313.70601,0.54519
1312.21622,0.52325
1310.72643,0.48130
1309.23664,0.43352
1307.74685,0.40611
1306.25707,0.40955
1304.76728,0.38111
1303.27749,0.35269
1301.78770,0.28623
1300.29791,0.23304
1298.80812,0.22643
1297.31834,0.18933
1295.82855,0.18616
1294.33876,0.15681
1292.84897,0.11978
1291.35918,0.11607
1289.86939,0.11006
1288.37960,0.10409
1286.88982,0.08010
1285.40003,0.08574
1283.91024,0.06982
1282.42045,0.06872
1280.93066,0.06487
1279.44087,0.03053
1277.95109,0.04954
1276.46130,0.03220
1274.97151,0.02783
1273.48172,0.02349
1271.99193,0.03859
1270.50214,0.03491
1269.01235,0.01832
1267.52257,0.03812
1266.03278,0.03698
1264.54299,0.03309
1263.05320,0.03077
1261.56341,0.02401
1260.07362,0.01727
1258.58384,0.00053
1257.09405,0.00078
1255.60426,0.01692
1254.11447,0.03063
1252.62468,0.01415
1251.13489,0.01403
1249.64511,0.02473
1248.15532,0.01141
1246.66553,0.01645
1245.17574,0.02152
1243.68595,0.02676
1242.19616,0.03943
1240.70637,0.03240
1239.21659,0.02909
1237.72680,0.01964
1236.23701,0.02871
1234.74722,0.03379
1233.25743,0.02904
1231.76764,0.02431
1230.27786,0.02331
1228.78807,0.02387
1227.29828,0.01675
1225.80849,0.00842
1224.31870,0.02046
1222.82891,0.00078
1221.33912,0.01366
1219.84934,0.03766
1218.35955,0.06169
1216.86976,0.05831
1215.37997,0.06328
1213.89018,0.06025
1212.40039,0.06034
1210.91061,0.05798
1209.42082,0.05349
1207.93103,0.05303
1206.44124,0.05259
1204.95145,0.04386
1203.46166,0.05057
1201.97188,0.06130
1200.48209,0.03507
1198.99230,0.04309
1197.50251,0.03941
1196.01272,0.04747
1194.52293,0.04677
1193.03314,0.04610
1191.54336,0.03820
1190.05357,0.01554
1188.56378,0.00985
1187.07399,0.02916
1185.58420,0.00564
1184.09441,0.00342
1182.60463,0.00862
1181.11484,0.01385
1179.62505,0.01324
1178.13526,0.02252
1176.64547,0.01734
1175.15568,0.00078
1173.66589,0.00423
1172.17611,0.00832
1170.68632,0.01059
1169.19653,0.01288
1167.70674,0.02044
1166.21695,0.02402
1164.72716,0.03440
1163.23738,0.03186
1161.74759,0.02410
1160.25780,0.06107
1158.76801,0.05444
1157.27822,0.04783
1155.78843,0.06237
1154.29865,0.08587
1152.80886,0.11032
1151.31907,0.14312
1149.82928,0.12477
1148.33949,0.10768
1146.84970,0.11821
1145.35991,0.12875
1143.87013,0.12129
1142.38034,0.16349
1140.89055,0.14375
1139.40076,0.16040
1137.91097,0.19558
1136.42118,0.19318
1134.93140,0.20282
1133.44161,0.21249
1131.95182,0.19844
1130.46203,0.20415
1128.97224,0.17813
1127.48245,0.21626
1125.99266,0.21865
1124.50288,0.24080
1123.01309,0.22166
1121.52330,0.20255
1120.03351,0.22353
1118.54372,0.23129
1117.05393,0.24554
1115.56415,0.22653
1114.07436,0.22172
1112.58457,0.22326
1111.09478,0.22482
1109.60499,0.22008
1108.11520,0.24466
1106.62542,0.23535
1105.13563,0.25072
1103.64584,0.20817
1102.15605,0.20880
1100.66626,0.20206
1099.17647,0.19534
1097.68668,0.20128
1096.19690,0.19646
1094.70711,0.19043
1093.21732,0.18504
1091.72753,0.15348
1090.23774,0.15646
1088.74795,0.15947
1087.25817,0.17083
1085.76838,0.17728
1084.27859,0.16002
1082.78880,0.17391
1081.29901,0.16133
1079.80922,0.17743
1078.31943,0.16813
1076.82965,0.15885
1075.33986,0.19907
1073.85007,0.18630
1072.36028,0.17941
1070.87049,0.19257
1069.38070,0.21656
1067.89092,0.21960
1066.40113,0.22267
1064.91134,0.28434
1063.42155,0.33863
1061.93176,0.40897
1060.44197,0.50184
1058.95219,0.54819
1057.46240,0.61877
1055.97261,0.68936
1054.48282,0.79682
1052.99303,0.85745
1051.50324,0.87402
1050.01345,0.87551
1048.52367,0.86285
1047.03388,0.85191
1045.54409,0.84099
1044.05430,0.81022
1042.56451,0.75234
1041.07472,0.72069
1039.58494,0.66225
1038.09515,0.59427
1036.60536,0.55977
1035.11557,0.52529
1033.62578,0.46448
1032.13599,0.41048
1030.64620,0.35557
1029.15642,0.29113
1027.66663,0.26618
1026.17684,0.24125
1024.68705,0.22220
1023.19726,0.18037
1021.70747,0.12900
1020.21769,0.13284
1018.72790,0.13362
1017.23811,0.13164
1015.74832,0.12970
1014.25853,0.11206
1012.76874,0.11786
1011.27896,0.10674
1009.78917,0.09565
1008.29938,0.07441
1006.80959,0.06644
1005.31980,0.05850
1003.83001,0.02685
1002.34022,0.00078
1000.85044,0.02302
999.36065,0.00367
997.87086,0.01917
996.38107,0.03470
994.89128,0.04286
993.40149,0.07447
991.91171,0.08484
990.42192,0.09430
988.93213,0.08529
987.44234,0.08232
985.95255,0.07938
984.46276,0.09572
982.97297,0.09082
981.48319,0.08102
979.99340,0.05120
978.50361,0.04190
977.01382,0.03263
975.52403,0.04080
974.03424,0.02588
972.54446,0.00697
971.05467,0.00690
969.56488,0.01147
968.07509,0.01483
966.58530,0.01821
965.09551,0.00991
963.60573,0.01365
962.11594,0.00078
960.62615,0.01565
959.13636,0.01359
957.64657,0.01156
956.15678,0.00000
954.66699,0.01813
953.17721,0.01255
951.68742,0.00637
950.19763,0.02057
948.70784,0.03479
947.21805,0.06784
945.72826,0.07872
944.23848,0.10134
942.74869,0.11196
941.25890,0.11397
939.76911,0.12002
938.27932,0.12609
936.78953,0.16578
935.29974,0.17714
933.80996,0.19654
932.32017,0.20333
930.83038,0.20428
929.34059,0.20526
927.85080,0.24572
926.36101,0.26093
924.87123,0.27554
923.38144,0.32625
921.89165,0.34862
920.40186,0.37102
918.91207,0.46680
917.42228,0.56076
915.93250,0.70222
914.44271,0.88161
912.95292,0.98967
911.46313,1.09776
909.97334,1.34782
908.48355,1.54180
906.99376,1.72902
905.50398,1.82380
904.01419,1.88623
902.52440,1.94868
901.03461,1.98589
899.54482,2.00000
898.05503,1.87604
896.56525,1.67658
895.07546,1.53263
893.58567,1.38871
892.09588,1.12336
890.60609,0.87190
889.11630,0.66332
887.62651,0.48836
886.13673,0.41330
884.64694,0.33826
883.15715,0.26448
881.66736,0.20923
880.17757,0.15399
878.68778,0.12884
877.19800,0.10371
875.70821,0.05317
874.21842,0.04428
872.72863,0.02893
871.23884,0.01977
869.74905,0.01604
868.25927,0.01233
866.76948,0.00078
865.27969,0.02771
863.78990,0.03125
862.30011,0.04775
860.81032,0.03515
859.32053,0.02257
857.83075,0.04901
856.34096,0.06839
854.85117,0.06190
853.36138,0.08194
851.87159,0.09199
850.38180,0.10207
848.89202,0.10276
847.40223,0.11181
845.91244,0.12149
844.42265,0.12812
842.93286,0.13477
841.44307,0.15409
839.95329,0.18453
838.46350,0.18571
836.97371,0.18598
835.48392,0.18860
833.99413,0.19124
832.50434,0.20515
831.01455,0.20029
829.52477,0.18836
828.03498,0.16382
826.54519,0.14423
825.05540,0.12467
823.56561,0.11654
822.07582,0.09826
820.58604,0.11453
819.09625,0.10000
817.60646,0.08550
816.11667,0.10030
814.62688,0.10403
813.13709,0.09669
811.64730,0.10633
810.15752,0.10119
808.66773,0.09608
807.17794,0.06572
805.68815,0.07915
804.19836,0.08830
802.70857,0.09007
801.21879,0.09186
799.72900,0.09399
798.23921,0.10169
796.74942,0.12452
795.25963,0.11224
793.76984,0.09998
792.28006,0.09699
790.79027,0.11683
789.30048,0.13578
787.81069,0.17664
786.32090,0.18577
784.83111,0.19493
783.34132,0.21767
781.85154,0.23304
780.36175,0.26662
778.87196,0.29191
777.38217,0.31722
775.89238,0.32837
774.40259,0.34510
772.91281,0.32733
771.42302,0.31513
769.93323,0.30295
768.44344,0.27477
766.95365,0.21302
765.46386,0.16609
763.97407,0.13952
762.48429,0.15260
760.99450,0.16569
759.50471,0.12934
758.01492,0.09517
756.52513,0.08321
755.03534,0.08685
753.54556,0.09052
752.05577,0.08727
750.56598,0.04860
749.07619,0.04478
747.58640,0.05117
746.09661,0.05757
744.60683,0.01068
743.11704,0.02176
741.62725,0.03286
740.13746,0.02781
738.64767,0.02278
737.15788,0.00992
735.66809,0.00078
734.17831,0.01456
732.68852,0.01973
731.19873,0.02493
729.70894,0.01259
728.21915,0.02616
726.72936,0.00431
725.23958,0.00323
723.74979,0.01020
722.26000,0.01719
720.77021,0.00078
719.28042,0.02427
717.79063,0.00741
716.30084,0.01863
714.81106,0.02986
713.32127,0.03712
711.83148,0.03885
710.34169,0.01688
708.85190,0.01789
707.36211,0.01892
705.87233,0.03000
704.38254,0.02199
702.89275,0.04453
701.40296,0.05537
699.91317,0.06624
698.42338,0.08638
696.93360,0.07326
695.44381,0.08173
693.95402,0.09347
692.46423,0.10524
690.97444,0.13506
689.48465,0.16398
687.99486,0.17843
686.50508,0.20371
685.01529,0.22900
683.52550,0.22997
682.03571,0.23127
680.54592,0.26928
679.05613,0.26184
677.56635,0.25443
676.07656,0.25892
674.58677,0.25294
673.09698,0.24145
671.60719,0.22828
670.11740,0.21514
668.62761,0.16487
667.13783,0.12727
665.64804,0.12545
664.15825,0.12366
662.66846,0.10401
661.17867,0.07792
659.68888,0.07712
658.19910,0.07928
656.70931,0.08147
655.21952,0.04591
653.72973,0.05200
652.23994,0.07136
650.75015,0.06255
649.26037,0.05376
647.77058,0.06642
646.28079,0.04797
644.79100,0.07085
643.30121,0.05090
641.81142,0.03098
640.32163,0.03760
638.83185,0.00078
637.34206,0.02218
635.85227,0.01309
634.36248,0.00403
632.87269,0.03136
631.38290,0.02204
629.89312,0.03154
628.40333,0.02735
626.91354,0.02319
625.42375,0.01643
623.93396,0.01401
622.44417,0.01131
620.95438,0.00863
619.46460,0.02416
617.97481,0.04126
616.48502,0.06671
614.99523,0.07261
613.50544,0.07853
612.01565,0.11607
610.52587,0.13884
609.03608,0.16102
607.54629,0.18754
606.05650,0.21409
604.56671,0.25607
603.07692,0.31966
601.58714,0.33980
600.09735,0.35997
598.60756,0.42363
597.11777,0.41672
595.62798,0.42433
594.13819,0.41131
592.64840,0.39831
591.15862,0.36283
589.66883,0.31074
588.17904,0.26976
586.68925,0.23868
585.19946,0.20762
583.70967,0.15315
582.21989,0.11782
580.73010,0.10718
579.24031,0.09656
577.75052,0.07179
576.26073,0.06893
574.77094,0.07318
573.28115,0.04586
571.79137,0.01857
570.30158,0.06050
568.81179,0.05838
567.32200,0.06276
565.83221,0.06716
564.34242,0.08514
562.85264,0.09298
561.36285,0.08544
559.87306,0.10350
558.38327,0.12159
556.89348,0.15943
555.40369,0.17787
553.91391,0.17029
552.42412,0.16274
550.93433,0.15752
549.44454,0.16034
547.95475,0.13761
546.46496,0.15543
544.97517,0.17328
543.48539,0.18976
541.99560,0.19579
540.50581,0.22157
539.01602,0.24738
537.52623,0.31420
536.03644,0.37212
534.54666,0.36717
533.05687,0.41882
531.56708,0.47048
530.07729,0.54946
528.58750,0.59732
527.09771,0.60175
525.60792,0.60620
524.11814,0.66338
522.62835,0.67960
521.13856,0.75255
519.64877,0.77421
518.15898,0.79589
516.66919,0.82207
515.17941,0.84858
513.68962,0.84768
512.19983,0.84680
510.71004,0.85705
509.22025,0.77145
507.73046,0.67663
506.24068,0.63594
504.75089,0.59526
503.26110,0.50730
501.77131,0.40333
500.28152,0.34917
498.79173,0.29504
497.30194,0.22505
495.81216,0.15663
494.32237,0.13971
492.83258,0.12282
491.34279,0.10133
489.85300,0.07616
488.36321,0.06304
486.87343,0.05057
485.38364,0.03811
483.89385,0.04264
482.40406,0.05890
480.91427,0.07380
479.42448,0.08873
477.93469,0.10506
476.44491,0.13437
474.95512,0.14752
473.46533,0.16070
471.97554,0.16049
470.48575,0.17109
468.99596,0.15059
467.50618,0.14382
466.01639,0.13709
464.52660,0.09816
463.03681,0.08238
461.54702,0.07864
460.05723,0.07493
458.56745,0.03549
457.07766,0.03552
455.58787,0.02726
454.09808,0.01903
452.60829,0.04164
451.11850,0.00078
449.62871,0.00764
448.13893,0.01452
446.64914,0.00647
445.15935,0.02096
443.66956,0.01728
442.17977,0.01609
440.68998,0.01493
439.20020,0.02088
437.71041,0.02285
436.22062,0.01266
434.73083,0.00251
433.24104,0.03815
431.75125,0.01432
430.26146,0.02828
428.77168,0.04227
427.28189,0.08325
425.79210,0.07894
424.30231,0.06819
422.81252,0.05745
421.32273,0.03534
419.83295,0.01356
418.34316,0.01508
416.85337,0.01663
415.36358,0.00078
413.87379,0.04900
412.38400,0.03452
410.89422,0.02006
409.40443,0.03907
407.91464,0.02112
406.42485,0.02940
404.93506,0.03307
403.44527,0.03677
401.95548,0.03433
400.46570,0.01866
398.97591,0.02921
397.48612,0.03979
395.99633,0.01833
394.50654,0.02989
393.01675,0.02852
391.52697,0.02718
390.03718,0.02031
388.54739,0.01254
387.05760,0.00665
385.56781,0.00078
384.07802,0.03121
382.58824,0.04194
381.09845,0.03728
379.60866,0.03265
378.11887,0.01941
376.62908,0.01143
375.13929,0.00995
373.64950,0.00850
372.15972,0.00553
370.66993,0.04543
369.18014,0.02309
367.69035,0.00078
366.20056,0.02220
364.71077,0.03039
363.22099,0.02041
361.73120,0.01046
360.24141,0.06250
358.75162,0.06647
357.26183,0.05012
355.77204,0.03380
354.28225,0.02706
352.79247,0.04038
351.30268,0.03076
349.81289,0.02116
348.32310,0.05428
346.83331,0.08743
345.34352,0.07544
343.85374,0.06347
342.36395,0.03843
340.87416,0.05503
339.38437,0.05470
337.89458,0.05439
336.40479,0.02976
334.91501,0.03998
333.42522,0.02095
331.93543,0.00194
330.44564,0.00299
328.95585,0.03027
327.46606,0.04138
325.97627,0.05253
324.48649,0.06169
322.99670,0.06780
321.50691,0.07932
320.01712,0.09087
318.52733,0.10414
317.03754,0.08384
315.54776,0.08282
314.05797,0.08183
312.56818,0.10198
311.07839,0.08270
309.58860,0.08502
308.09881,0.08737
306.60902,0.09220
305.11924,0.07703
303.62945,0.04800
302.13966,0.01901
300.64987,0.00078
299.16008,0.00078
