1778.52000,0.02627
1777.03021,0.01718
1775.54042,0.02356
1774.05063,0.02040
1772.56085,0.02003
1771.07106,0.01691
1769.58127,0.01438
1768.09148,0.00947
1766.60169,0.01122
1765.11190,0.01041
1763.62212,0.00687
1762.13233,0.01236
1760.64254,0.01273
1759.15275,0.01404
1757.66296,0.01520
1756.17317,0.00956
1754.68339,0.01573
1753.19360,0.01180
1751.70381,0.01581
1750.21402,0.01579
1748.72423,0.00881
1747.23444,0.00589
1745.74465,0.00853
1744.25487,0.00879
1742.76508,0.00687
1741.27529,0.01204
1739.78550,0.01761
1738.29571,0.01253
1736.80592,0.01336
1735.31614,0.01588
1733.82635,0.01197
1732.33656,0.01030
1730.84677,0.00902
1729.35698,0.01199
1727.86719,0.01536
1726.37740,0.01305
1724.88762,0.01205
1723.39783,0.00886
1721.90804,0.00423
1720.41825,0.01138
1718.92846,0.01691
1717.43867,0.00774
1715.94889,0.00687
1714.45910,0.01302
1712.96931,0.01571
1711.47952,0.01124
1709.98973,0.01544
1708.49994,0.02003
1707.01016,0.01840
1705.52037,0.01678
1704.03058,0.01391
1702.54079,0.01216
1701.05100,0.01540
1699.56121,0.01811
1698.07142,0.01036
1696.58164,0.00687
1695.09185,0.01678
1693.60206,0.02175
1692.11227,0.01699
1690.62248,0.01815
1689.13269,0.01693
1687.64291,0.02089
1686.15312,0.01862
1684.66333,0.01748
1683.17354,0.02206
1681.68375,0.02777
1680.19396,0.02818
1678.70417,0.03430
1677.21439,0.03402
1675.72460,0.03983
1674.23481,0.04529
1672.74502,0.04894
1671.25523,0.05574
1669.76544,0.06183
1668.27566,0.06444
1666.78587,0.06027
1665.29608,0.06680
1663.80629,0.06434
1662.31650,0.07717
1660.82671,0.06629
1659.33693,0.07457
1657.84714,0.07238
1656.35735,0.07188
1654.86756,0.06625
1653.37777,0.06708
1651.88798,0.07216
1650.39819,0.06421
1648.90841,0.07763
1647.41862,0.06825
1645.92883,0.06957
1644.43904,0.07091
1642.94925,0.06565
1641.45946,0.07035
1639.96968,0.07637
1638.47989,0.07357
1636.99010,0.06988
1635.50031,0.07671
1634.01052,0.07104
1632.52073,0.07772
1631.03094,0.07505
1629.54116,0.07847
1628.05137,0.09535
1626.56158,0.09201
1625.07179,0.08870
1623.58200,0.08191
1622.09221,0.08195
1620.60243,0.07853
1619.11264,0.07917
1617.62285,0.07377
1616.13306,0.07041
1614.64327,0.08088
1613.15348,0.07205
1611.66370,0.08073
1610.17391,0.09164
1608.68412,0.09190
1607.19433,0.09476
1605.70454,0.07612
1604.21475,0.07544
1602.72496,0.07478
1601.23518,0.08988
1599.74539,0.08752
1598.25560,0.08096
1596.76581,0.09540
1595.27602,0.08134
1593.78623,0.07723
1592.29645,0.08383
1590.80666,0.08015
1589.31687,0.07796
1587.82708,0.09088
1586.33729,0.08561
1584.84750,0.07668
1583.35771,0.08122
1581.86793,0.08320
1580.37814,0.07986
1578.88835,0.06809
1577.39856,0.07216
1575.90877,0.07332
1574.41898,0.06879
1572.92920,0.05619
1571.43941,0.04656
1569.94962,0.05011
1568.45983,0.05369
1566.97004,0.06253
1565.48025,0.04066
1563.99047,0.04974
1562.50068,0.04209
1561.01089,0.03484
1559.52110,0.03773
1558.03131,0.04082
1556.54152,0.04118
1555.05173,0.03826
1553.56195,0.03259
1552.07216,0.02291
1550.58237,0.01950
1549.09258,0.01520
1547.60279,0.00687
1546.11300,0.01739
1544.62322,0.01615
1543.13343,0.01053
1541.64364,0.01431
1540.15385,0.01214
1538.66406,0.00999
1537.17427,0.01932
1535.68448,0.01910
1534.19470,0.01321
1532.70491,0.01285
1531.21512,0.01952
1529.72533,0.02566
1528.23554,0.01213
1526.74575,0.01757
1525.25597,0.01605
1523.76618,0.02229
1522.27639,0.02284
1520.78660,0.04089
1519.29681,0.04757
1517.80702,0.04709
1516.31724,0.04148
1514.82745,0.04932
1513.33766,0.05112
1511.84787,0.05295
1510.35808,0.04246
1508.86829,0.04838
1507.37850,0.05838
1505.88872,0.05643
1504.39893,0.05524
1502.90914,0.06439
1501.41935,0.05644
1499.92956,0.06729
1498.43977,0.07227
1496.94999,0.08961
1495.46020,0.08525
1493.97041,0.09914
1492.48062,0.08821
1490.99083,0.11245
1489.50104,0.12107
1488.01125,0.12475
1486.52147,0.12845
1485.03168,0.14175
1483.54189,0.16482
1482.05210,0.16362
1480.56231,0.17349
1479.07252,0.18799
1477.58274,0.22054
1476.09295,0.20601
1474.60316,0.23143
1473.11337,0.22909
1471.62358,0.22107
1470.13379,0.25466
1468.64401,0.25681
1467.15422,0.27591
1465.66443,0.29504
1464.17464,0.31419
1462.68485,0.34495
1461.19506,0.35698
1459.70527,0.40380
1458.21549,0.46261
1456.72570,0.50801
1455.23591,0.57165
1453.74612,0.60440
1452.25633,0.66570
1450.76654,0.66335
1449.27676,0.68016
1447.78697,0.69737
1446.29718,0.66068
1444.80739,0.64251
1443.31760,0.62436
1441.82781,0.57726
1440.33802,0.54398
1438.84824,0.50906
1437.35845,0.48246
1435.86866,0.48255
1434.37887,0.52408
1432.88908,0.54907
1431.39929,0.62358
1429.90951,0.67291
1428.41972,0.70754
1426.92993,0.74642
1425.44014,0.78662
1423.95035,0.80872
1422.46056,0.83084
1420.97078,0.88325
1419.48099,0.92410
1417.99120,0.90755
1416.50141,0.88827
1415.01162,0.82669
1413.52183,0.79127
1412.03204,0.73654
1410.54226,0.72490
1409.05247,0.67759
1407.56268,0.62956
1406.07289,0.53923
1404.58310,0.51674
1403.09331,0.49427
1401.60353,0.44818
1400.11374,0.39788
1398.62395,0.34834
1397.13416,0.30416
1395.64437,0.23700
1394.15458,0.19747
1392.66479,0.17213
1391.17501,0.14976
1389.68522,0.12741
1388.19543,0.10307
1386.70564,0.09043
1385.21585,0.07781
1383.72606,0.05225
1382.23628,0.04751
1380.74649,0.02751
1379.25670,0.01619
1377.76691,0.02035
1376.27712,0.00687
1374.78733,0.01173
1373.29755,0.01294
1371.80776,0.01970
1370.31797,0.01691
1368.82818,0.01423
1367.33839,0.01158
1365.84860,0.02764
1364.35881,0.03801
1362.86903,0.05024
1361.37924,0.05588
1359.88945,0.07368
1358.39966,0.09316
1356.90987,0.11083
1355.42008,0.16238
1353.93030,0.22297
1352.44051,0.25405
1350.95072,0.28515
1349.46093,0.34618
1347.97114,0.44827
1346.48135,0.52002
1344.99156,0.55868
1343.50178,0.62128
1342.01199,0.68611
1340.52220,0.74599
1339.03241,0.79026
1337.54262,0.84964
1336.05283,0.85752
1334.56305,0.86543
1333.07326,0.86213
1331.58347,0.89290
1330.09368,0.86720
1328.60389,0.82331
1327.11410,0.80539
1325.62432,0.78050
1324.13453,0.76097
1322.64474,0.73318
1321.15495,0.67671
1319.66516,0.65651
1318.17537,0.63634
1316.68558,0.59191
1315.19580,0.57142
1313.70601,0.51985
1312.21622,0.47015
1310.72643,0.44807
1309.23664,0.41553
1307.74685,0.38025
1306.25707,0.33359
1304.76728,0.31796
1303.27749,0.30235
1301.78770,0.26736
1300.29791,0.23330
1298.80812,0.21418
1297.31834,0.17981
1295.82855,0.14730
1294.33876,0.12125
1292.84897,0.09247
1291.35918,0.10052
1289.86939,0.09700
1288.37960,0.09350
1286.88982,0.08524
1285.40003,0.06522
1283.91024,0.06805
1282.42045,0.06115
1280.93066,0.03956
1279.44087,0.04798
1277.95109,0.04078
1276.46130,0.04870
1274.97151,0.04431
1273.48172,0.03995
1271.99193,0.03137
1270.50214,0.01915
1269.01235,0.03197
1267.52257,0.02052
1266.03278,0.02529
1264.54299,0.01463
1263.05320,0.00602
1261.56341,0.01197
1260.07362,0.01794
1258.58384,0.01970
1257.09405,0.00677
1255.60426,0.01374
1254.11447,0.01391
1252.62468,0.00786
1251.13489,0.01527
1249.64511,0.00687
1248.15532,0.01664
1246.66553,0.01237
1245.17574,0.00812
1243.68595,0.00853
1242.19616,0.01227
1240.70637,0.00482
1239.21659,0.01229
1237.72680,0.02163
1236.23701,0.01866
1234.74722,0.01535
1233.25743,0.02016
1231.76764,0.02499
1230.27786,0.02930
1228.78807,0.02148
1227.29828,0.02381
1225.80849,0.02175
1224.31870,0.01364
1222.82891,0.01309
1221.33912,0.00687
1219.84934,0.01959
1218.35955,0.03233
1216.86976,0.03424
1215.37997,0.04721
1213.89018,0.05285
1212.40039,0.05796
1210.91061,0.06088
1209.42082,0.06089
1207.93103,0.05650
1206.44124,0.05214
1204.95145,0.05608
1203.46166,0.05507
1201.97188,0.04600
1200.48209,0.04909
1198.99230,0.02258
1197.50251,0.02609
1196.01272,0.03256
1194.52293,0.03207
1193.03314,0.03160
1191.54336,0.02067
1190.05357,0.02338
1188.56378,0.01304
1187.07399,0.02298
1185.58420,0.01821
1184.09441,0.00684
1182.60463,0.00811
1181.11484,0.00940
1179.62505,0.00730
1178.13526,0.01259
1176.64547,0.00687
1175.15568,0.00825
1173.66589,0.00783
1172.17611,0.00853
1170.68632,0.00768
1169.19653,0.00687
1167.70674,0.02810
1166.21695,0.02875
1164.72716,0.01600
1163.23738,0.02314
1161.74759,0.03324
1160.25780,0.04043
1158.76801,0.04396
1157.27822,0.04751
1155.78843,0.06213
1154.29865,0.05801
1152.80886,0.07249
1151.31907,0.07596
1149.82928,0.09914
1148.33949,0.11461
1146.84970,0.11539
1145.35991,0.11619
1143.87013,0.11499
1142.38034,0.13443
1140.89055,0.13953
1139.40076,0.14540
1137.91097,0.16619
1136.42118,0.17321
1134.93140,0.17841
1133.44161,0.18364
1131.95182,0.21943
1130.46203,0.21367
1128.97224,0.21952
1127.48245,0.20588
1125.99266,0.19816
1124.50288,0.20684
1123.01309,0.21113
1121.52330,0.21544
1120.03351,0.20488
1118.54372,0.20740
1117.05393,0.21123
1115.56415,0.20699
1114.07436,0.22614
1112.58457,0.22222
1111.09478,0.21833
1109.60499,0.23112
1108.11520,0.21798
1106.62542,0.22768
1105.13563,0.20005
1103.64584,0.18846
1102.15605,0.18793
1100.66626,0.18227
1099.17647,0.17664
1097.68668,0.17563
1096.19690,0.16839
1094.70711,0.17166
1093.21732,0.17403
1091.72753,0.15748
1090.23774,0.15990
1088.74795,0.16235
1087.25817,0.14954
1085.76838,0.15682
1084.27859,0.15529
1082.78880,0.15305
1081.29901,0.17199
1079.80922,0.17753
1078.31943,0.17002
1076.82965,0.16254
1075.33986,0.18747
1073.85007,0.19696
1072.36028,0.19028
1070.87049,0.19541
1069.38070,0.20682
1067.89092,0.21797
1066.40113,0.22915
1064.91134,0.29178
1063.42155,0.38260
1061.93176,0.44417
1060.44197,0.53614
1058.95219,0.58212
1057.46240,0.61958
1055.97261,0.65705
1054.48282,0.71857
1052.99303,0.73520
1051.50324,0.75352
1050.01345,0.78198
1048.52367,0.77514
1047.03388,0.77430
1045.54409,0.77348
1044.05430,0.74794
1042.56451,0.68083
1041.07472,0.63896
1039.58494,0.56472
1038.09515,0.51425
1036.60536,0.47815
1035.11557,0.44208
1033.62578,0.41468
1032.13599,0.37443
1030.64620,0.33916
1029.15642,0.28073
1027.66663,0.25886
1026.17684,0.23701
1024.68705,0.20294
1023.19726,0.17479
1021.70747,0.14537
1020.21769,0.13254
1018.72790,0.10520
1017.23811,0.10346
1015.74832,0.10174
1014.25853,0.08772
1012.76874,0.06764
1011.27896,0.08771
1009.78917,0.06842
1008.29938,0.06020
1006.80959,0.05393
1005.31980,0.04769
1003.83001,0.02261
1002.34022,0.01485
1000.85044,0.02404
999.36065,0.03197
997.87086,0.03597
996.38107,0.03999
994.89128,0.04781
993.40149,0.06007
991.91171,0.07382
990.42192,0.07637
988.93213,0.07748
987.44234,0.07787
985.95255,0.07829
984.46276,0.09197
982.97297,0.06465
981.48319,0.06919
979.99340,0.06988
978.50361,0.06140
977.01382,0.05295
975.52403,0.04451
974.03424,0.01365
972.54446,0.01318
971.05467,0.01420
969.56488,0.02298
968.07509,0.01752
966.58530,0.01208
965.09551,0.00713
963.60573,0.01030
962.11594,0.01074
960.62615,0.00715
959.13636,0.00700
957.64657,0.00687
956.15678,0.01134
954.66699,0.02908
953.17721,0.03562
951.68742,0.03850
950.19763,0.04077
948.70784,0.04306
947.21805,0.06166
945.72826,0.06850
944.23848,0.08310
942.74869,0.09257
941.25890,0.11365
939.76911,0.12547
938.27932,0.13731
936.78953,0.13859
935.29974,0.15959
933.80996,0.18006
932.32017,0.21215
930.83038,0.21500
929.34059,0.21787
927.85080,0.23420
926.36101,0.25424
924.87123,0.27633
923.38144,0.32199
921.89165,0.34615
920.40186,0.37033
918.91207,0.47072
917.42228,0.58106
915.93250,0.72787
914.44271,0.91482
912.95292,0.99929
911.46313,1.08379
909.97334,1.28516
908.48355,1.52410
906.99376,1.73251
905.50398,1.85630
904.01419,1.89519
902.52440,1.93410
901.03461,2.00000
899.54482,1.93251
898.05503,1.77929
896.56525,1.55745
895.07546,1.43418
893.58567,1.31093
892.09588,1.08347
890.60609,0.85933
889.11630,0.62492
887.62651,0.45531
886.13673,0.38968
884.64694,0.32409
883.15715,0.23919
881.66736,0.17769
880.17757,0.10241
878.68778,0.08926
877.19800,0.07614
875.70821,0.04215
874.21842,0.01408
872.72863,0.01915
871.23884,0.02608
869.74905,0.01897
868.25927,0.01187
866.76948,0.00784
865.27969,0.01414
863.78990,0.01254
862.30011,0.03306
860.81032,0.03666
859.32053,0.04030
857.83075,0.05720
856.34096,0.07965
854.85117,0.08133
853.36138,0.09002
851.87159,0.09028
850.38180,0.09056
848.89202,0.10282
847.40223,0.11676
845.91244,0.12760
844.42265,0.14435
842.93286,0.16113
841.44307,0.15290
839.95329,0.17230
838.46350,0.19173
836.97371,0.19093
835.48392,0.19200
833.99413,0.19310
832.50434,0.19145
831.01455,0.18726
829.52477,0.18106
828.03498,0.15373
826.54519,0.14280
825.05540,0.13189
823.56561,0.10352
822.07582,0.10886
820.58604,0.08882
819.09625,0.08822
817.60646,0.08765
816.11667,0.07890
814.62688,0.08325
813.13709,0.08873
811.64730,0.08006
810.15752,0.07583
808.66773,0.07163
807.17794,0.07831
805.68815,0.10249
804.19836,0.10480
802.70857,0.10492
801.21879,0.10507
799.72900,0.10101
798.23921,0.09053
796.74942,0.06756
795.25963,0.07544
793.76984,0.08335
792.28006,0.08934
790.79027,0.11082
789.30048,0.11410
787.81069,0.14115
786.32090,0.15193
784.83111,0.16274
783.34132,0.18562
781.85154,0.21939
780.36175,0.24306
778.87196,0.26555
777.38217,0.28808
775.89238,0.30225
774.40259,0.32288
772.91281,0.31005
771.42302,0.30037
769.93323,0.29072
768.44344,0.25643
766.95365,0.20983
765.46386,0.18185
763.97407,0.15904
762.48429,0.14619
760.99450,0.13337
759.50471,0.10658
758.01492,0.08258
756.52513,0.06302
755.03534,0.06041
753.54556,0.05783
752.05577,0.06576
750.56598,0.04482
749.07619,0.02777
747.58640,0.02317
746.09661,0.01859
744.60683,0.02112
743.11704,0.01999
741.62725,0.01778
740.13746,0.01606
738.64767,0.01436
737.15788,0.01093
735.66809,0.00993
734.17831,0.01262
732.68852,0.01580
731.19873,0.01900
729.70894,0.00687
728.21915,0.00886
726.72936,0.00904
725.23958,0.01016
723.74979,0.01407
722.26000,0.01800
720.77021,0.00687
719.28042,0.02318
717.79063,0.01909
716.30084,0.02247
714.81106,0.02588
713.32127,0.02665
711.83148,0.01621
710.34169,0.01997
708.85190,0.02651
707.36211,0.03307
705.87233,0.02844
704.38254,0.02217
702.89275,0.02936
701.40296,0.04219
699.91317,0.05503
698.42338,0.06248
696.93360,0.07179
695.44381,0.09198
693.95402,0.09618
692.46423,0.10041
690.97444,0.11681
689.48465,0.11354
687.99486,0.15924
686.50508,0.16964
685.01529,0.18006
683.52550,0.20339
682.03571,0.21496
680.54592,0.22968
679.05613,0.23035
677.56635,0.23105
676.07656,0.22082
674.58677,0.22221
673.09698,0.20006
671.60719,0.19064
670.11740,0.18124
668.62761,0.15457
667.13783,0.13841
665.64804,0.13240
664.15825,0.12641
662.66846,0.11326
661.17867,0.07217
659.68888,0.04215
658.19910,0.04564
656.70931,0.04915
655.21952,0.03484
653.72973,0.03895
652.23994,0.05229
650.75015,0.04348
649.26037,0.03469
647.77058,0.04350
646.28079,0.04038
644.79100,0.02476
643.30121,0.02407
641.81142,0.02341
640.32163,0.02351
638.83185,0.01001
637.34206,0.02322
635.85227,0.01824
634.36248,0.01328
632.87269,0.00687
631.38290,0.00720
629.89312,0.01640
628.40333,0.01108
626.91354,0.00578
625.42375,0.02002
623.93396,0.02305
622.44417,0.01295
620.95438,0.00288
619.46460,0.01109
617.97481,0.03864
616.48502,0.06107
614.99523,0.06815
613.50544,0.07526
612.01565,0.11340
610.52587,0.13721
609.03608,0.16142
607.54629,0.17718
606.05650,0.19296
604.56671,0.25349
603.07692,0.30539
601.58714,0.32355
600.09735,0.34173
598.60756,0.36316
597.11777,0.37798
595.62798,0.38970
594.13819,0.38700
592.64840,0.38433
591.15862,0.34220
589.66883,0.29771
588.17904,0.22398
586.68925,0.19665
585.19946,0.16934
583.70967,0.14648
582.21989,0.13486
580.73010,0.11581
579.24031,0.09679
577.75052,0.09039
576.26073,0.04980
574.77094,0.04676
573.28115,0.03777
571.79137,0.02881
570.30158,0.03744
568.81179,0.06247
567.32200,0.07198
565.83221,0.08151
564.34242,0.09851
562.85264,0.10027
561.36285,0.11512
559.87306,0.11812
558.38327,0.12115
556.89348,0.12484
555.40369,0.13537
553.91391,0.13414
552.42412,0.13294
550.93433,0.16433
549.44454,0.14809
547.95475,0.13941
546.46496,0.14741
544.97517,0.15544
543.48539,0.19063
541.99560,0.22032
540.50581,0.22934
539.01602,0.23838
537.52623,0.29520
536.03644,0.32904
534.54666,0.36879
533.05687,0.38216
531.56708,0.39555
530.07729,0.44716
528.58750,0.47891
527.09771,0.51326
525.60792,0.54763
524.11814,0.64441
522.62835,0.65418
521.13856,0.75524
519.64877,0.77388
518.15898,0.79255
516.66919,0.83480
515.17941,0.79849
513.68962,0.79543
512.19983,0.79239
510.71004,0.74438
509.22025,0.71516
507.73046,0.64898
506.24068,0.58513
504.75089,0.52130
503.26110,0.43679
501.77131,0.35396
500.28152,0.31706
498.79173,0.28019
497.30194,0.22007
495.81216,0.16788
494.32237,0.15078
492.83258,0.13369
491.34279,0.11488
489.85300,0.07402
488.36321,0.07440
486.87343,0.06918
485.38364,0.06400
483.89385,0.08782
482.40406,0.09528
480.91427,0.10222
479.42448,0.10918
477.93469,0.11893
476.44491,0.12023
474.95512,0.12975
473.46533,0.13929
471.97554,0.17839
470.48575,0.17225
468.99596,0.16999
467.50618,0.16712
466.01639,0.16426
464.52660,0.13577
463.03681,0.09883
461.54702,0.08924
460.05723,0.07967
458.56745,0.03544
457.07766,0.06043
455.58787,0.05186
454.09808,0.04331
452.60829,0.03892
451.11850,0.04247
449.62871,0.03869
448.13893,0.03493
446.64914,0.02530
445.15935,0.00687
443.66956,0.02824
442.17977,0.03327
440.68998,0.03832
439.20020,0.04872
437.71041,0.05437
436.22062,0.05627
434.73083,0.05819
433.24104,0.05784
431.75125,0.04537
430.26146,0.04028
428.77168,0.03521
427.28189,0.04342
425.79210,0.03729
424.30231,0.03984
422.81252,0.04242
421.32273,0.03379
419.83295,0.01856
418.34316,0.01909
416.85337,0.01965
415.36358,0.01517
413.87379,0.02911
412.38400,0.03259
410.89422,0.03609
409.40443,0.04145
407.91464,0.03948
406.42485,0.05704
404.93506,0.04905
403.44527,0.04107
401.95548,0.03441
400.46570,0.03109
398.97591,0.02935
397.48612,0.02764
395.99633,0.02642
394.50654,0.02135
393.01675,0.01410
391.52697,0.00687
390.03718,0.01869
388.54739,0.01967
387.05760,0.01553
385.56781,0.01141
384.07802,0.02166
382.58824,0.00913
381.09845,0.00756
379.60866,0.00602
378.11887,0.00000
376.62908,0.00504
375.13929,0.00578
373.64950,0.00655
372.15972,0.01810
370.66993,0.01495
369.18014,0.01298
367.69035,0.01103
366.20056,0.01876
364.71077,0.03149
363.22099,0.03458
361.73120,0.03769
360.24141,0.02583
358.75162,0.04969
357.26183,0.03678
355.77204,0.02388
354.28225,0.04138
352.79247,0.02835
351.30268,0.03651
349.81289,0.04469
348.32310,0.06283
346.83331,0.03738
345.34352,0.03432
343.85374,0.03128
342.36395,0.02743
340.87416,0.00687
339.38437,0.00883
337.89458,0.01081
336.40479,0.02120
334.91501,0.01449
333.42522,0.02216
331.93543,0.02985
330.44564,0.03131
328.95585,0.03556
327.46606,0.03412
325.97627,0.03271
324.48649,0.05525
322.99670,0.05535
321.50691,0.05015
320.01712,0.04497
318.52733,0.07496
317.03754,0.04278
315.54776,0.03758
314.05797,0.03240
312.56818,0.05182
311.07839,0.06316
309.58860,0.05603
308.09881,0.04892
306.60902,0.03862
305.11924,0.02485
303.62945,0.02085
302.13966,0.00687
300.64987,0.02194
299.16008,0.00687
