1778.52000,0.00085
1777.03021,0.00474
1775.54042,0.00470
1774.05063,0.00270
1772.56085,0.00248
1771.07106,0.00009
1769.58127,0.00916
1768.09148,0.00000
1766.60169,0.00208
1765.11190,0.00879
1763.62212,0.01004
1762.13233,0.00581
1760.64254,0.00908
1759.15275,0.00601
1757.66296,0.00778
1756.17317,0.00717
1754.68339,0.00284
1753.19360,0.00667
1751.70381,0.00217
1750.21402,0.00803
1748.72423,0.00555
1747.23444,0.01497
1745.74465,0.00397
1744.25487,0.00641
1742.76508,0.00601
1741.27529,0.01879
1739.78550,0.01643
1738.29571,0.01365
1736.80592,0.01222
1735.31614,0.01367
1733.82635,0.01558
1732.33656,0.01158
1730.84677,0.01750
1729.35698,0.00365
1727.86719,0.00984
1726.37740,0.01099
1724.88762,0.00733
1723.39783,0.01402
1721.90804,0.01129
1720.41825,0.00264
1718.92846,0.01202
1717.43867,0.00801
1715.94889,0.02007
1714.45910,0.00601
1712.96931,0.01440
1711.47952,0.00854
1709.98973,0.01149
1708.49994,0.00391
1707.01016,0.00688
1705.52037,0.00988
1704.03058,0.01037
1702.54079,0.01177
1701.05100,0.01780
1699.56121,0.01595
1698.07142,0.01610
1696.58164,0.01363
1695.09185,0.01976
1693.60206,0.02394
1692.11227,0.01737
1690.62248,0.01082
1689.13269,0.00980
1687.64291,0.01890
1686.15312,0.01726
1684.66333,0.01960
1683.17354,0.02548
1681.68375,0.02259
1680.19396,0.03863
1678.70417,0.02612
1677.21439,0.04770
1675.72460,0.04623
1674.23481,0.03159
1672.74502,0.04181
1671.25523,0.04085
1669.76544,0.04980
1668.27566,0.06383
1666.78587,0.06008
1665.29608,0.06888
1663.80629,0.07199
1662.31650,0.07491
1660.82671,0.08048
1659.33693,0.06916
1657.84714,0.07962
1656.35735,0.06351
1654.86756,0.06478
1653.37777,0.07795
1651.88798,0.07136
1650.39819,0.06633
1648.90841,0.06924
1647.41862,0.07789
1645.92883,0.07337
1644.43904,0.06888
1642.94925,0.08199
1641.45946,0.07864
1639.96968,0.07664
1638.47989,0.08191
1636.99010,0.06896
1635.50031,0.07253
1634.01052,0.07787
1632.52073,0.08170
1631.03094,0.07610
1629.54116,0.07250
1628.05137,0.06695
1626.56158,0.09088
1625.07179,0.09944
1623.58200,0.08824
1622.09221,0.08740
1620.60243,0.07713
1619.11264,0.07964
1617.62285,0.08590
1616.13306,0.08581
1614.64327,0.06926
1613.15348,0.08021
1611.66370,0.09141
1610.17391,0.08504
1608.68412,0.09035
1607.19433,0.07788
1605.70454,0.07004
1604.21475,0.07465
1602.72496,0.07928
1601.23518,0.07548
1599.74539,0.06906
1598.25560,0.07321
1596.76581,0.07453
1595.27602,0.07961
1593.78623,0.06867
1592.29645,0.06874
1590.80666,0.06796
1589.31687,0.06368
1587.82708,0.06360
1586.33729,0.06663
1584.84750,0.07847
1583.35771,0.07275
1581.86793,0.06244
1580.37814,0.07149
1578.88835,0.06167
1577.39856,0.06351
1575.90877,0.06517
1574.41898,0.05343
1572.92920,0.04898
1571.43941,0.03531
1569.94962,0.03684
1568.45983,0.03839
1566.97004,0.03689
1565.48025,0.03629
1563.99047,0.03461
1562.50068,0.04263
1561.01089,0.03397
1559.52110,0.02687
1558.03131,0.02529
1556.54152,0.02373
1555.05173,0.02022
1553.56195,0.01344
1552.07216,0.01437
1550.58237,0.01005
1549.09258,0.00355
1547.60279,0.00038
1546.11300,0.00492
1544.62322,0.01081
1543.13343,0.00243
1541.64364,0.00778
1540.15385,0.00909
1538.66406,0.01041
1537.17427,0.01144
1535.68448,0.01358
1534.19470,0.00608
1532.70491,0.01438
1531.21512,0.00601
1529.72533,0.01662
1528.23554,0.02814
1526.74575,0.02738
1525.25597,0.02181
1523.76618,0.03516
1522.27639,0.03095
1520.78660,0.02764
1519.29681,0.03513
1517.80702,0.04593
1516.31724,0.04358
1514.82745,0.04146
1513.33766,0.04971
1511.84787,0.05797
1510.35808,0.04824
1508.86829,0.04226
1507.37850,0.04576
1505.88872,0.04907
1504.39893,0.05393
1502.90914,0.04608
1501.41935,0.05780
1499.92956,0.06670
1498.43977,0.05473
1496.94999,0.06543
1495.46020,0.07418
1493.97041,0.07877
1492.48062,0.06866
1490.99083,0.07396
1489.50104,0.08984
1488.01125,0.09892
1486.52147,0.10803
1485.03168,0.12661
1483.54189,0.15819
1482.05210,0.15110
1480.56231,0.16799
1479.07252,0.18074
1477.58274,0.19109
1476.09295,0.19047
1474.60316,0.18658
1473.11337,0.19963
1471.62358,0.18656
1470.13379,0.21615
1468.64401,0.23411
1467.15422,0.23803
1465.66443,0.25385
1464.17464,0.26968
1462.68485,0.30247
1461.19506,0.33044
1459.70527,0.37229
1458.21549,0.37855
1456.72570,0.41121
1455.23591,0.46389
1453.74612,0.52935
1452.25633,0.55219
1450.76654,0.60012
1449.27676,0.60080
1447.78697,0.60042
1446.29718,0.57060
1444.80739,0.56443
1443.31760,0.55829
1441.82781,0.50833
1440.33802,0.47663
1438.84824,0.44429
1437.35845,0.42011
1435.86866,0.40474
1434.37887,0.43095
1432.88908,0.48487
1431.39929,0.53046
1429.90951,0.60509
1428.41972,0.63974
1426.92993,0.65573
1425.44014,0.68735
1423.95035,0.71449
1422.46056,0.74165
1420.97078,0.74894
1419.48099,0.78351
1417.99120,0.78997
1416.50141,0.79294
1415.01162,0.73944
1413.52183,0.70113
1412.03204,0.65669
1410.54226,0.62591
1409.05247,0.60877
1407.56268,0.57386
1406.07289,0.52314
1404.58310,0.49893
1403.09331,0.47475
1401.60353,0.42564
1400.11374,0.37743
1398.62395,0.32398
1397.13416,0.27758
1395.64437,0.22944
1394.15458,0.18946
1392.66479,0.17567
1391.17501,0.15046
1389.68522,0.11517
1388.19543,0.11551
1386.70564,0.10445
1385.21585,0.09340
1383.72606,0.07008
1382.23628,0.03600
1380.74649,0.02283
1379.25670,0.03914
1377.76691,0.03415
1376.27712,0.01930
1374.78733,0.00601
1373.29755,0.01841
1371.80776,0.02380
1370.31797,0.02218
1368.82818,0.02806
1367.33839,0.03397
1365.84860,0.03923
1364.35881,0.03991
1362.86903,0.04017
1361.37924,0.04859
1359.88945,0.07571
1358.39966,0.09077
1356.90987,0.13574
1355.42008,0.14447
1353.93030,0.19653
1352.44051,0.21794
1350.95072,0.23938
1349.46093,0.32470
1347.97114,0.39114
1346.48135,0.44529
1344.99156,0.50562
1343.50178,0.55476
1342.01199,0.61470
1340.52220,0.63796
1339.03241,0.65068
1337.54262,0.71333
1336.05283,0.73655
1334.56305,0.75978
1333.07326,0.80997
1331.58347,0.81842
1330.09368,0.80646
1328.60389,0.77561
1327.11410,0.75006
1325.62432,0.71531
1324.13453,0.75003
1322.64474,0.71906
1321.15495,0.65448
1319.66516,0.62773
1318.17537,0.60101
1316.68558,0.55958
1315.19580,0.50543
1313.70601,0.47812
1312.21622,0.44621
1310.72643,0.41741
1309.23664,0.38951
1307.74685,0.36888
1306.25707,0.32498
1304.76728,0.30309
1303.27749,0.28121
1301.78770,0.25497
1300.29791,0.20765
1298.80812,0.18255
1297.31834,0.17682
1295.82855,0.15177
1294.33876,0.11729
1292.84897,0.08306
1291.35918,0.07193
1289.86939,0.07126
1288.37960,0.07061
1286.88982,0.06285
1285.40003,0.07203
1283.91024,0.06652
1282.42045,0.05245
1280.93066,0.03973
1279.44087,0.03010
1277.95109,0.02490
1276.46130,0.03247
1274.97151,0.02918
1273.48172,0.02591
1271.99193,0.02762
1270.50214,0.02693
1269.01235,0.03374
1267.52257,0.02452
1266.03278,0.03665
1264.54299,0.02881
1263.05320,0.01988
1261.56341,0.01384
1260.07362,0.00782
1258.58384,0.00601
1257.09405,0.01822
1255.60426,0.01001
1254.11447,0.00842
1252.62468,0.01740
1251.13489,0.01278
1249.64511,0.01830
1248.15532,0.02230
1246.66553,0.02082
1245.17574,0.01938
1243.68595,0.01421
1242.19616,0.01677
1240.70637,0.02067
1239.21659,0.01470
1237.72680,0.01491
1236.23701,0.01404
1234.74722,0.01914
1233.25743,0.01370
1231.76764,0.00829
1230.27786,0.02246
1228.78807,0.01644
1227.29828,0.01770
1225.80849,0.00601
1224.31870,0.01296
1222.82891,0.01819
1221.33912,0.01684
1219.84934,0.02893
1218.35955,0.04104
1216.86976,0.04196
1215.37997,0.04445
1213.89018,0.04256
1212.40039,0.04993
1210.91061,0.06612
1209.42082,0.06628
1207.93103,0.06119
1206.44124,0.05612
1204.95145,0.05306
1203.46166,0.05486
1201.97188,0.04635
1200.48209,0.05105
1198.99230,0.03115
1197.50251,0.03722
1196.01272,0.03914
1194.52293,0.04031
1193.03314,0.04150
1191.54336,0.03293
1190.05357,0.01582
1188.56378,0.01785
1187.07399,0.02079
1185.58420,0.01628
1184.09441,0.01948
1182.60463,0.02336
1181.11484,0.02727
1179.62505,0.02242
1178.13526,0.02176
1176.64547,0.01914
1175.15568,0.00601
1173.66589,0.01129
1172.17611,0.01615
1170.68632,0.01851
1169.19653,0.02089
1167.70674,0.02935
1166.21695,0.02397
1164.72716,0.02522
1163.23738,0.02847
1161.74759,0.03174
1160.25780,0.04756
1158.76801,0.05539
1157.27822,0.06324
1155.78843,0.07957
1154.29865,0.08274
1152.80886,0.10088
1151.31907,0.09772
1149.82928,0.08756
1148.33949,0.10929
1146.84970,0.11620
1145.35991,0.12314
1143.87013,0.12120
1142.38034,0.13819
1140.89055,0.14443
1139.40076,0.15399
1137.91097,0.16490
1136.42118,0.17385
1134.93140,0.17194
1133.44161,0.17005
1131.95182,0.19952
1130.46203,0.18988
1128.97224,0.20048
1127.48245,0.21463
1125.99266,0.19517
1124.50288,0.20585
1123.01309,0.20886
1121.52330,0.21189
1120.03351,0.21759
1118.54372,0.21099
1117.05393,0.21761
1115.56415,0.20623
1114.07436,0.21796
1112.58457,0.20981
1111.09478,0.20169
1109.60499,0.22074
1108.11520,0.22442
1106.62542,0.21582
1105.13563,0.20746
1103.64584,0.19100
1102.15605,0.18005
1100.66626,0.18451
1099.17647,0.18900
1097.68668,0.19219
1096.19690,0.17123
1094.70711,0.17666
1093.21732,0.16828
1091.72753,0.14013
1090.23774,0.13927
1088.74795,0.13842
1087.25817,0.16134
1085.76838,0.14362
1084.27859,0.14747
1082.78880,0.14034
1081.29901,0.17325
1079.80922,0.16376
1078.31943,0.16088
1076.82965,0.15803
1075.33986,0.16400
1073.85007,0.17416
1072.36028,0.16830
1070.87049,0.19676
1069.38070,0.21095
1067.89092,0.21582
1066.40113,0.22072
1064.91134,0.25279
1063.42155,0.32401
1061.93176,0.39766
1060.44197,0.47200
1058.95219,0.53823
1057.46240,0.59833
1055.97261,0.65846
1054.48282,0.75202
1052.99303,0.81900
1051.50324,0.81567
1050.01345,0.82424
1048.52367,0.83283
1047.03388,0.81583
1045.54409,0.79886
1044.05430,0.75147
1042.56451,0.71378
1041.07472,0.67875
1039.58494,0.63121
1038.09515,0.53644
1036.60536,0.50961
1035.11557,0.48280
1033.62578,0.43778
1032.13599,0.36750
1030.64620,0.32296
1029.15642,0.28658
1027.66663,0.26418
1026.17684,0.24180
1024.68705,0.18505
1023.19726,0.15359
1021.70747,0.13426
1020.21769,0.12659
1018.72790,0.11521
1017.23811,0.11430
1015.74832,0.11341
1014.25853,0.09001
1012.76874,0.08972
1011.27896,0.07560
1009.78917,0.08612
1008.29938,0.06128
1006.80959,0.05031
1005.31980,0.03937
1003.83001,0.02251
1002.34022,0.02678
1000.85044,0.02096
999.36065,0.03473
997.87086,0.03489
996.38107,0.03508
994.89128,0.04210
993.40149,0.02981
991.91171,0.05622
990.42192,0.07650
988.93213,0.08011
987.44234,0.08120
985.95255,0.08233
984.46276,0.08974
982.97297,0.07893
981.48319,0.07385
979.99340,0.05496
978.50361,0.04928
977.01382,0.04362
975.52403,0.03798
974.03424,0.01786
972.54446,0.02019
971.05467,0.01396
969.56488,0.01040
968.07509,0.00873
966.58530,0.00708
965.09551,0.00601
963.60573,0.01127
962.11594,0.00666
960.62615,0.00538
959.13636,0.00778
957.64657,0.01020
956.15678,0.02451
954.66699,0.00566
953.17721,0.02969
951.68742,0.03243
950.19763,0.04090
948.70784,0.04940
947.21805,0.06122
945.72826,0.06361
944.23848,0.10010
942.74869,0.11133
941.25890,0.12522
939.76911,0.13529
938.27932,0.14538
936.78953,0.16858
935.29974,0.16586
933.80996,0.18448
932.32017,0.17764
930.83038,0.19840
929.34059,0.21918
927.85080,0.24098
926.36101,0.24676
924.87123,0.26179
923.38144,0.31289
921.89165,0.34424
920.40186,0.37560
918.91207,0.48766
917.42228,0.59535
915.93250,0.68855
914.44271,0.87783
912.95292,0.99318
911.46313,1.10854
909.97334,1.32581
908.48355,1.51540
906.99376,1.71491
905.50398,1.85070
904.01419,1.91398
902.52440,1.97729
901.03461,1.99797
899.54482,2.00000
898.05503,1.89259
896.56525,1.68014
895.07546,1.55211
893.58567,1.42411
892.09588,1.12996
890.60609,0.89035
889.11630,0.68087
887.62651,0.51516
886.13673,0.43113
884.64694,0.34712
883.15715,0.27445
881.66736,0.21016
880.17757,0.14458
878.68778,0.11902
877.19800,0.09349
875.70821,0.06798
874.21842,0.04228
872.72863,0.02539
871.23884,0.02523
869.74905,0.02124
868.25927,0.01728
866.76948,0.02005
865.27969,0.02438
863.78990,0.02478
862.30011,0.02630
860.81032,0.03323
859.32053,0.04018
857.83075,0.05342
856.34096,0.08580
854.85117,0.07162
853.36138,0.09086
851.87159,0.09958
850.38180,0.10833
848.89202,0.12171
847.40223,0.12896
845.91244,0.14107
844.42265,0.15475
842.93286,0.16844
841.44307,0.16524
839.95329,0.19305
838.46350,0.18550
836.97371,0.19182
835.48392,0.19541
833.99413,0.19903
832.50434,0.22300
831.01455,0.20942
829.52477,0.18486
828.03498,0.17264
826.54519,0.16330
825.05540,0.15398
823.56561,0.12315
822.07582,0.12047
820.58604,0.09650
819.09625,0.09277
817.60646,0.08907
816.11667,0.08055
814.62688,0.08085
813.13709,0.07744
811.64730,0.09273
810.15752,0.09244
808.66773,0.09218
807.17794,0.07809
805.68815,0.10095
804.19836,0.11416
802.70857,0.11378
801.21879,0.11341
799.72900,0.10186
798.23921,0.10220
796.74942,0.10146
795.25963,0.09756
793.76984,0.09369
792.28006,0.10863
790.79027,0.11459
789.30048,0.12320
787.81069,0.15690
786.32090,0.16787
784.83111,0.17886
783.34132,0.21307
781.85154,0.24532
780.36175,0.24375
778.87196,0.26253
777.38217,0.28134
775.89238,0.30775
774.40259,0.32891
772.91281,0.30548
771.42302,0.30020
769.93323,0.29495
768.44344,0.25356
766.95365,0.20209
765.46386,0.17833
763.97407,0.14295
762.48429,0.13551
760.99450,0.12809
759.50471,0.12355
758.01492,0.10629
756.52513,0.09146
755.03534,0.08436
753.54556,0.07728
752.05577,0.07352
750.56598,0.05835
749.07619,0.03683
747.58640,0.03798
746.09661,0.03915
744.60683,0.02584
743.11704,0.03277
741.62725,0.02280
740.13746,0.02044
738.64767,0.01810
737.15788,0.00601
735.66809,0.00593
734.17831,0.01006
732.68852,0.01487
731.19873,0.01971
729.70894,0.01732
728.21915,0.01802
726.72936,0.00601
725.23958,0.02885
723.74979,0.02105
722.26000,0.01327
720.77021,0.01267
719.28042,0.01714
717.79063,0.00625
716.30084,0.00791
714.81106,0.00959
713.32127,0.01218
711.83148,0.00556
710.34169,0.00798
708.85190,0.01372
707.36211,0.01948
705.87233,0.02856
704.38254,0.03503
702.89275,0.04174
701.40296,0.04616
699.91317,0.05061
698.42338,0.05871
696.93360,0.06816
695.44381,0.08246
693.95402,0.09602
692.46423,0.10960
690.97444,0.12353
689.48465,0.12166
687.99486,0.14136
686.50508,0.15723
685.01529,0.17313
683.52550,0.19092
682.03571,0.22456
680.54592,0.24020
679.05613,0.24157
677.56635,0.24297
676.07656,0.24132
674.58677,0.23155
673.09698,0.21390
671.60719,0.19495
670.11740,0.17603
668.62761,0.13690
667.13783,0.11891
665.64804,0.10841
664.15825,0.09793
662.66846,0.08418
661.17867,0.06584
659.68888,0.06202
658.19910,0.05615
656.70931,0.05029
655.21952,0.03293
653.72973,0.03866
652.23994,0.03211
650.75015,0.02811
649.26037,0.02413
647.77058,0.03018
646.28079,0.03428
644.79100,0.04015
643.30121,0.02429
641.81142,0.00846
640.32163,0.02078
638.83185,0.00763
637.34206,0.01153
635.85227,0.00876
634.36248,0.00601
632.87269,0.01285
631.38290,0.01049
629.89312,0.00684
628.40333,0.00815
626.91354,0.00949
625.42375,0.01404
623.93396,0.01179
622.44417,0.00683
620.95438,0.00188
619.46460,0.01180
617.97481,0.03647
616.48502,0.04160
614.99523,0.04291
613.50544,0.04424
612.01565,0.09120
610.52587,0.11225
609.03608,0.14761
607.54629,0.16333
606.05650,0.17906
604.56671,0.22812
603.07692,0.28644
601.58714,0.30763
600.09735,0.32885
598.60756,0.35558
597.11777,0.35904
595.62798,0.35725
594.13819,0.35152
592.64840,0.34582
591.15862,0.32608
589.66883,0.29932
588.17904,0.23193
586.68925,0.19676
585.19946,0.16161
583.70967,0.12990
582.21989,0.08876
580.73010,0.08335
579.24031,0.07798
577.75052,0.05954
576.26073,0.04487
574.77094,0.03154
573.28115,0.02604
571.79137,0.02056
570.30158,0.01675
568.81179,0.02660
567.32200,0.03361
565.83221,0.04064
564.34242,0.04199
562.85264,0.06248
561.36285,0.08453
559.87306,0.08715
558.38327,0.08980
556.89348,0.12291
555.40369,0.11561
553.91391,0.12250
552.42412,0.12942
550.93433,0.11493
549.44454,0.13014
547.95475,0.12581
546.46496,0.12447
544.97517,0.12315
543.48539,0.14746
541.99560,0.16367
540.50581,0.19243
539.01602,0.22121
537.52623,0.27375
536.03644,0.31665
534.54666,0.32770
533.05687,0.36295
531.56708,0.39822
530.07729,0.44056
528.58750,0.48863
527.09771,0.50276
525.60792,0.51692
524.11814,0.55407
522.62835,0.61960
521.13856,0.64163
519.64877,0.66094
518.15898,0.68027
516.66919,0.69732
515.17941,0.73747
513.68962,0.73512
512.19983,0.73278
510.71004,0.71695
509.22025,0.65983
507.73046,0.57943
506.24068,0.53586
504.75089,0.49233
503.26110,0.38980
501.77131,0.31696
500.28152,0.27701
498.79173,0.23709
497.30194,0.17136
495.81216,0.12939
494.32237,0.12196
492.83258,0.11455
491.34279,0.07946
489.85300,0.06485
488.36321,0.05069
486.87343,0.04492
485.38364,0.03916
483.89385,0.04772
482.40406,0.06795
480.91427,0.07765
479.42448,0.08738
477.93469,0.09999
476.44491,0.10471
474.95512,0.11066
473.46533,0.11664
471.97554,0.14187
470.48575,0.14317
468.99596,0.11130
467.50618,0.09781
466.01639,0.08434
464.52660,0.09496
463.03681,0.06319
461.54702,0.06045
460.05723,0.05774
458.56745,0.03900
457.07766,0.00601
455.58787,0.00743
454.09808,0.00888
452.60829,0.01189
451.11850,0.00350
449.62871,0.00579
448.13893,0.00810
446.64914,0.01033
445.15935,0.00533
443.66956,0.01903
442.17977,0.01210
440.68998,0.00519
439.20020,0.02226
437.71041,0.02397
436.22062,0.03373
434.73083,0.04351
433.24104,0.03628
431.75125,0.03171
430.26146,0.03376
428.77168,0.03583
427.28189,0.03375
425.79210,0.02818
424.30231,0.02823
422.81252,0.02831
421.32273,0.01116
419.83295,0.01909
418.34316,0.01254
416.85337,0.00601
415.36358,0.00978
413.87379,0.02435
412.38400,0.02708
410.89422,0.02983
409.40443,0.03700
407.91464,0.01913
406.42485,0.01756
404.93506,0.01557
403.44527,0.01360
401.95548,0.04441
400.46570,0.02974
398.97591,0.03070
397.48612,0.03168
395.99633,0.02368
394.50654,0.01064
393.01675,0.01038
391.52697,0.00623
390.03718,0.00584
388.54739,0.00591
387.05760,0.00578
385.56781,0.00568
384.07802,0.01967
382.58824,0.02555
381.09845,0.01497
379.60866,0.00442
378.11887,0.02509
376.62908,0.01437
375.13929,0.02047
373.64950,0.02661
372.15972,0.03617
370.66993,0.02158
369.18014,0.02548
367.69035,0.02941
366.20056,0.02611
364.71077,0.03645
363.22099,0.02122
361.73120,0.00601
360.24141,0.04685
358.75162,0.05146
357.26183,0.04257
355.77204,0.03370
354.28225,0.03838
352.79247,0.01758
351.30268,0.02044
349.81289,0.02331
348.32310,0.05006
346.83331,0.06739
345.34352,0.05033
343.85374,0.03331
342.36395,0.02300
340.87416,0.03075
339.38437,0.03061
337.89458,0.03049
336.40479,0.03105
334.91501,0.00658
333.42522,0.00862
331.93543,0.01069
330.44564,0.01486
328.95585,0.01401
327.46606,0.01581
325.97627,0.01764
324.48649,0.02251
322.99670,0.05642
321.50691,0.06024
320.01712,0.06408
318.52733,0.09981
317.03754,0.06810
315.54776,0.06421
314.05797,0.06034
312.56818,0.05924
311.07839,0.05136
309.58860,0.04712
308.09881,0.04291
306.60902,0.02587
305.11924,0.01610
303.62945,0.01745
302.13966,0.01254
300.64987,0.00601
299.16008,0.00601
