1778.52000,0.01047
1777.03021,0.02541
1775.54042,0.01867
1774.05063,0.01502
1772.56085,0.02060
1771.07106,0.01349
1769.58127,0.01211
1768.09148,0.00636
1766.60169,0.00919
1765.11190,0.01249
1763.62212,0.00506
1762.13233,0.01366
1760.64254,0.00957
1759.15275,0.00529
1757.66296,0.00695
1756.17317,0.01148
1754.68339,0.00507
1753.19360,0.00987
1751.70381,0.00593
1750.21402,0.01275
1748.72423,0.00578
1747.23444,0.00915
1745.74465,0.00595
1744.25487,0.00630
1742.76508,0.00973
1741.27529,0.00837
1739.78550,0.01053
1738.29571,0.00900
1736.80592,0.00836
1735.31614,0.00775
1733.82635,0.00826
1732.33656,0.01121
1730.84677,0.00782
1729.35698,0.00906
1727.86719,0.00769
1726.37740,0.00305
1724.88762,0.00722
1723.39783,0.00000
1721.90804,0.00933
1720.41825,0.00860
1718.92846,0.00438
1717.43867,0.01224
1715.94889,0.01684
1714.45910,0.01796
1712.96931,0.00529
1711.47952,0.00795
1709.98973,0.00626
1708.49994,0.01183
1707.01016,0.01545
1705.52037,0.01909
1704.03058,0.01398
1702.54079,0.00956
1701.05100,0.01678
1699.56121,0.00912
1698.07142,0.01617
1696.58164,0.01601
1695.09185,0.01653
1693.60206,0.01817
1692.11227,0.02313
1690.62248,0.01407
1689.13269,0.02302
1687.64291,0.02717
1686.15312,0.02871
1684.66333,0.03160
1683.17354,0.02990
1681.68375,0.04357
1680.19396,0.03644
1678.70417,0.04030
1677.21439,0.04747
1675.72460,0.06058
1674.23481,0.06232
1672.74502,0.05881
1671.25523,0.06761
1669.76544,0.07534
1668.27566,0.06972
1666.78587,0.08254
1665.29608,0.07521
1663.80629,0.08961
1662.31650,0.09264
1660.82671,0.08340
1659.33693,0.08341
1657.84714,0.08760
1656.35735,0.08304
1654.86756,0.08290
1653.37777,0.07949
1651.88798,0.08422
1650.39819,0.08480
1648.90841,0.09089
1647.41862,0.09548
1645.92883,0.08791
1644.43904,0.08037
1642.94925,0.08107
1641.45946,0.07764
1639.96968,0.07598
1638.47989,0.08377
1636.99010,0.09094
1635.50031,0.08628
1634.01052,0.07068
1632.52073,0.07265
1631.03094,0.07925
1629.54116,0.08259
1628.05137,0.08858
1626.56158,0.09810
1625.07179,0.09888
1623.58200,0.08893
1622.09221,0.08471
1620.60243,0.09455
1619.11264,0.08051
1617.62285,0.08557
1616.13306,0.07377
1614.64327,0.07801
1613.15348,0.08753
1611.66370,0.08698
1610.17391,0.08888
1608.68412,0.08816
1607.19433,0.09581
1605.70454,0.08725
1604.21475,0.08419
1602.72496,0.08116
1601.23518,0.08035
1599.74539,0.08131
1598.25560,0.08471
1596.76581,0.08178
1595.27602,0.08808
1593.78623,0.07840
1592.29645,0.08409
1590.80666,0.06393
1589.31687,0.08392
1587.82708,0.08815
1586.33729,0.07486
1584.84750,0.07584
1583.35771,0.06501
1581.86793,0.06934
1580.37814,0.08882
1578.88835,0.08135
1577.39856,0.06820
1575.90877,0.06999
1574.41898,0.04987
1572.92920,0.04206
1571.43941,0.03033
1569.94962,0.03024
1568.45983,0.03017
1566.97004,0.03956
1565.48025,0.04306
1563.99047,0.04482
1562.50068,0.04704
1561.01089,0.03219
1559.52110,0.03622
1558.03131,0.03829
1556.54152,0.03776
1555.05173,0.03901
1553.56195,0.02581
1552.07216,0.02294
1550.58237,0.02076
1549.09258,0.01355
1547.60279,0.00637
1546.11300,0.01171
1544.62322,0.01159
1543.13343,0.01829
1541.64364,0.00529
1540.15385,0.00914
1538.66406,0.01301
1537.17427,0.01768
1535.68448,0.01754
1534.19470,0.01875
1532.70491,0.00529
1531.21512,0.02107
1529.72533,0.02415
1528.23554,0.00971
1526.74575,0.02293
1525.25597,0.01578
1523.76618,0.02116
1522.27639,0.02261
1520.78660,0.03066
1519.29681,0.05167
1517.80702,0.05342
1516.31724,0.04159
1514.82745,0.03373
1513.33766,0.03982
1511.84787,0.04593
1510.35808,0.04165
1508.86829,0.02797
1507.37850,0.04413
1505.88872,0.04914
1504.39893,0.04035
1502.90914,0.05439
1501.41935,0.06802
1499.92956,0.07181
1498.43977,0.05983
1496.94999,0.07923
1495.46020,0.08024
1493.97041,0.09771
1492.48062,0.08342
1490.99083,0.09919
1489.50104,0.11849
1488.01125,0.12576
1486.52147,0.13305
1485.03168,0.15440
1483.54189,0.16525
1482.05210,0.16581
1480.56231,0.19118
1479.07252,0.21614
1477.58274,0.22007
1476.09295,0.22226
1474.60316,0.22580
1473.11337,0.23462
1471.62358,0.26123
1470.13379,0.27296
1468.64401,0.28295
1467.15422,0.28704
1465.66443,0.30355
1464.17464,0.32009
1462.68485,0.33719
1461.19506,0.36748
1459.70527,0.42718
1458.21549,0.47396
1456.72570,0.54270
1455.23591,0.60203
1453.74612,0.66665
1452.25633,0.70564
1450.76654,0.69224
1449.27676,0.72623
1447.78697,0.71155
1446.29718,0.69603
1444.80739,0.67713
1443.31760,0.65826
1441.82781,0.60640
1440.33802,0.59229
1438.84824,0.54487
1437.35845,0.50690
1435.86866,0.49176
1434.37887,0.50516
1432.88908,0.56617
1431.39929,0.63554
1429.90951,0.70778
1428.41972,0.72785
1426.92993,0.78413
1425.44014,0.82180
1423.95035,0.84249
1422.46056,0.86320
1420.97078,0.90577
1419.48099,0.93344
1417.99120,0.95039
1416.50141,0.91122
1415.01162,0.86594
1413.52183,0.82266
1412.03204,0.75747
1410.54226,0.73660
1409.05247,0.71883
1407.56268,0.68704
1406.07289,0.58511
1404.58310,0.54888
1403.09331,0.51267
1401.60353,0.46322
1400.11374,0.42388
1398.62395,0.37776
1397.13416,0.32071
1395.64437,0.29109
1394.15458,0.22882
1392.66479,0.19903
1391.17501,0.17365
1389.68522,0.13690
1388.19543,0.11113
1386.70564,0.10314
1385.21585,0.09519
1383.72606,0.06313
1382.23628,0.04601
1380.74649,0.02540
1379.25670,0.03048
1377.76691,0.02791
1376.27712,0.01264
1374.78733,0.00529
1373.29755,0.00945
1371.80776,0.02790
1370.31797,0.03102
1368.82818,0.02890
1367.33839,0.02680
1365.84860,0.01859
1364.35881,0.04659
1362.86903,0.05969
1361.37924,0.06252
1359.88945,0.08226
1358.39966,0.11517
1356.90987,0.13737
1355.42008,0.17099
1353.93030,0.23490
1352.44051,0.27186
1350.95072,0.30885
1349.46093,0.39937
1347.97114,0.49057
1346.48135,0.55920
1344.99156,0.60901
1343.50178,0.67045
1342.01199,0.72513
1340.52220,0.79364
1339.03241,0.83849
1337.54262,0.88271
1336.05283,0.90327
1334.56305,0.92386
1333.07326,0.97473
1331.58347,1.00391
1330.09368,0.97851
1328.60389,0.97573
1327.11410,0.92143
1325.62432,0.89018
1324.13453,0.89229
1322.64474,0.86789
1321.15495,0.80536
1319.66516,0.78430
1318.17537,0.76326
1316.68558,0.70650
1315.19580,0.61972
1313.70601,0.57441
1312.21622,0.55741
1310.72643,0.51720
1309.23664,0.48073
1307.74685,0.46293
1306.25707,0.40217
1304.76728,0.37335
1303.27749,0.34455
1301.78770,0.30162
1300.29791,0.25675
1298.80812,0.25620
1297.31834,0.19515
1295.82855,0.17316
1294.33876,0.13474
1292.84897,0.12003
1291.35918,0.09745
1289.86939,0.10319
1288.37960,0.10895
1286.88982,0.10881
1285.40003,0.08106
1283.91024,0.07593
1282.42045,0.06819
1280.93066,0.05411
1279.44087,0.04401
1277.95109,0.06068
1276.46130,0.04295
1274.97151,0.05046
1273.48172,0.05799
1271.99193,0.04340
1270.50214,0.04309
1269.01235,0.03513
1267.52257,0.04188
1266.03278,0.02673
1264.54299,0.01708
1263.05320,0.01382
1261.56341,0.01069
1260.07362,0.00759
1258.58384,0.00923
1257.09405,0.01308
1255.60426,0.01498
1254.11447,0.00529
1252.62468,0.01333
1251.13489,0.01657
1249.64511,0.00711
1248.15532,0.00645
1246.66553,0.00713
1245.17574,0.00784
1243.68595,0.02041
1242.19616,0.00340
1240.70637,0.01668
1239.21659,0.00849
1237.72680,0.00668
1236.23701,0.01148
1234.74722,0.00555
1233.25743,0.00568
1231.76764,0.00584
1230.27786,0.04867
1228.78807,0.01674
1227.29828,0.02410
1225.80849,0.01525
1224.31870,0.00949
1222.82891,0.01560
1221.33912,0.00529
1219.84934,0.01588
1218.35955,0.02649
1216.86976,0.04843
1215.37997,0.05876
1213.89018,0.04982
1212.40039,0.07468
1210.91061,0.06031
1209.42082,0.07074
1207.93103,0.06880
1206.44124,0.06689
1204.95145,0.05678
1203.46166,0.05174
1201.97188,0.06032
1200.48209,0.05313
1198.99230,0.04070
1197.50251,0.03817
1196.01272,0.02448
1194.52293,0.03054
1193.03314,0.03663
1191.54336,0.01928
1190.05357,0.01358
1188.56378,0.02391
1187.07399,0.01321
1185.58420,0.03280
1184.09441,0.02017
1182.60463,0.01931
1181.11484,0.01846
1179.62505,0.01161
1178.13526,0.01487
1176.64547,0.00720
1175.15568,0.01796
1173.66589,0.00529
1172.17611,0.00625
1170.68632,0.01514
1169.19653,0.02404
1167.70674,0.02421
1166.21695,0.02044
1164.72716,0.03271
1163.23738,0.03448
1161.74759,0.05908
1160.25780,0.05739
1158.76801,0.05879
1157.27822,0.06021
1155.78843,0.07855
1154.29865,0.09252
1152.80886,0.09293
1151.31907,0.09225
1149.82928,0.11156
1148.33949,0.15173
1146.84970,0.14806
1145.35991,0.14442
1143.87013,0.15505
1142.38034,0.14729
1140.89055,0.14547
1139.40076,0.16604
1137.91097,0.19015
1136.42118,0.18709
1134.93140,0.19666
1133.44161,0.20626
1131.95182,0.21533
1130.46203,0.25732
1128.97224,0.25591
1127.48245,0.26615
1125.99266,0.23826
1124.50288,0.24965
1123.01309,0.24735
1121.52330,0.24508
1120.03351,0.25697
1118.54372,0.23687
1117.05393,0.24685
1115.56415,0.24302
1114.07436,0.23660
1112.58457,0.22876
1111.09478,0.22096
1109.60499,0.26723
1108.11520,0.26002
1106.62542,0.25701
1105.13563,0.24217
1103.64584,0.22911
1102.15605,0.23011
1100.66626,0.21787
1099.17647,0.20565
1097.68668,0.20913
1096.19690,0.17909
1094.70711,0.20894
1093.21732,0.17522
1091.72753,0.18582
1090.23774,0.18175
1088.74795,0.17770
1087.25817,0.17784
1085.76838,0.18437
1084.27859,0.17601
1082.78880,0.20189
1081.29901,0.19643
1079.80922,0.19691
1078.31943,0.19336
1076.82965,0.18984
1075.33986,0.19851
1073.85007,0.19580
1072.36028,0.22864
1070.87049,0.23212
1069.38070,0.22225
1067.89092,0.23455
1066.40113,0.24688
1064.91134,0.32107
1063.42155,0.42094
1061.93176,0.49430
1060.44197,0.60080
1058.95219,0.67684
1057.46240,0.70916
1055.97261,0.74150
1054.48282,0.79503
1052.99303,0.87972
1051.50324,0.89513
1050.01345,0.90816
1048.52367,0.90169
1047.03388,0.91038
1045.54409,0.91910
1044.05430,0.86731
1042.56451,0.79756
1041.07472,0.74626
1039.58494,0.65923
1038.09515,0.57903
1036.60536,0.54118
1035.11557,0.50335
1033.62578,0.47191
1032.13599,0.40715
1030.64620,0.35295
1029.15642,0.30579
1027.66663,0.28069
1026.17684,0.25561
1024.68705,0.21905
1023.19726,0.19984
1021.70747,0.17034
1020.21769,0.15314
1018.72790,0.13817
1017.23811,0.13056
1015.74832,0.12298
1014.25853,0.11466
1012.76874,0.10592
1011.27896,0.09326
1009.78917,0.09531
1008.29938,0.07371
1006.80959,0.06342
1005.31980,0.05315
1003.83001,0.03118
1002.34022,0.02524
1000.85044,0.02284
999.36065,0.03559
997.87086,0.04069
996.38107,0.04581
994.89128,0.05490
993.40149,0.06139
991.91171,0.06724
990.42192,0.09571
988.93213,0.09437
987.44234,0.08714
985.95255,0.07993
984.46276,0.09248
982.97297,0.07830
981.48319,0.07643
979.99340,0.05045
978.50361,0.05345
977.01382,0.05648
975.52403,0.02926
974.03424,0.02970
972.54446,0.01503
971.05467,0.00543
969.56488,0.01298
968.07509,0.01310
966.58530,0.01324
965.09551,0.00968
963.60573,0.01536
962.11594,0.01470
960.62615,0.00529
959.13636,0.00934
957.64657,0.01341
956.15678,0.03418
954.66699,0.02888
953.17721,0.03785
951.68742,0.04619
950.19763,0.04732
948.70784,0.04847
947.21805,0.06894
945.72826,0.07475
944.23848,0.08649
942.74869,0.09849
941.25890,0.12849
939.76911,0.13603
938.27932,0.14360
936.78953,0.16446
935.29974,0.17680
933.80996,0.18806
932.32017,0.22763
930.83038,0.23433
929.34059,0.24106
927.85080,0.25176
926.36101,0.25897
924.87123,0.27937
923.38144,0.33641
921.89165,0.35949
920.40186,0.38259
918.91207,0.47413
917.42228,0.54421
915.93250,0.68515
914.44271,0.89672
912.95292,0.99363
911.46313,1.09056
909.97334,1.32194
908.48355,1.54787
906.99376,1.74772
905.50398,1.91514
904.01419,1.95079
902.52440,1.98646
901.03461,2.00000
899.54482,1.96203
898.05503,1.81948
896.56525,1.60261
895.07546,1.49794
893.58567,1.39329
892.09588,1.15084
890.60609,0.90951
889.11630,0.69473
887.62651,0.48700
886.13673,0.41800
884.64694,0.34902
883.15715,0.26088
881.66736,0.17496
880.17757,0.12041
878.68778,0.10614
877.19800,0.09189
875.70821,0.05189
874.21842,0.02530
872.72863,0.02527
871.23884,0.03250
869.74905,0.03394
868.25927,0.03540
866.76948,0.01397
865.27969,0.00529
863.78990,0.03299
862.30011,0.03485
860.81032,0.04704
859.32053,0.05925
857.83075,0.06205
856.34096,0.07891
854.85117,0.10435
853.36138,0.10394
851.87159,0.10300
850.38180,0.10209
848.89202,0.11776
847.40223,0.12906
845.91244,0.13776
844.42265,0.15142
842.93286,0.16510
841.44307,0.18243
839.95329,0.18486
838.46350,0.20684
836.97371,0.20011
835.48392,0.20689
833.99413,0.21370
832.50434,0.21253
831.01455,0.20721
829.52477,0.19907
828.03498,0.16267
826.54519,0.15150
825.05540,0.14036
823.56561,0.12245
822.07582,0.14008
820.58604,0.10270
819.09625,0.10503
817.60646,0.10739
816.11667,0.08806
814.62688,0.08389
813.13709,0.08961
811.64730,0.10720
810.15752,0.10068
808.66773,0.09419
807.17794,0.09957
805.68815,0.10958
804.19836,0.12312
802.70857,0.12089
801.21879,0.11869
799.72900,0.11695
798.23921,0.09199
796.74942,0.08218
795.25963,0.09170
793.76984,0.10124
792.28006,0.10752
790.79027,0.12807
789.30048,0.14558
787.81069,0.18219
786.32090,0.18593
784.83111,0.18970
783.34132,0.20708
781.85154,0.22142
780.36175,0.27723
778.87196,0.28767
777.38217,0.29814
775.89238,0.33977
774.40259,0.35313
772.91281,0.33011
771.42302,0.31502
769.93323,0.29994
768.44344,0.28774
766.95365,0.26131
765.46386,0.22197
763.97407,0.18397
762.48429,0.16781
760.99450,0.15167
759.50471,0.13326
758.01492,0.10390
756.52513,0.08839
755.03534,0.08331
753.54556,0.07826
752.05577,0.06041
750.56598,0.04280
749.07619,0.03223
747.58640,0.02859
746.09661,0.02498
744.60683,0.01141
743.11704,0.01585
741.62725,0.01154
740.13746,0.01559
738.64767,0.01966
737.15788,0.00621
735.66809,0.01494
734.17831,0.01733
732.68852,0.01327
731.19873,0.00924
729.70894,0.00512
728.21915,0.00529
726.72936,0.00675
725.23958,0.00452
723.74979,0.00559
722.26000,0.00670
720.77021,0.00322
719.28042,0.01549
717.79063,0.00959
716.30084,0.01556
714.81106,0.02155
713.32127,0.02384
711.83148,0.02987
710.34169,0.04164
708.85190,0.03161
707.36211,0.02160
705.87233,0.02620
704.38254,0.01657
702.89275,0.03722
701.40296,0.04321
699.91317,0.04922
698.42338,0.05592
696.93360,0.08764
695.44381,0.10644
693.95402,0.11342
692.46423,0.12043
690.97444,0.12966
689.48465,0.14066
687.99486,0.16792
686.50508,0.18358
685.01529,0.19926
683.52550,0.23251
682.03571,0.24320
680.54592,0.25808
679.05613,0.26004
677.56635,0.26203
676.07656,0.26250
674.58677,0.23208
673.09698,0.20629
671.60719,0.20278
670.11740,0.19929
668.62761,0.17072
667.13783,0.15621
665.64804,0.14227
664.15825,0.12836
662.66846,0.11458
661.17867,0.08503
659.68888,0.07261
658.19910,0.05529
656.70931,0.03798
655.21952,0.04077
653.72973,0.03854
652.23994,0.04400
650.75015,0.04675
649.26037,0.04952
647.77058,0.03291
646.28079,0.04001
644.79100,0.02476
643.30121,0.02752
641.81142,0.03031
640.32163,0.02719
638.83185,0.02718
637.34206,0.01556
635.85227,0.01822
634.36248,0.02090
632.87269,0.01243
631.38290,0.02920
629.89312,0.01682
628.40333,0.01588
626.91354,0.01495
625.42375,0.02327
623.93396,0.00529
622.44417,0.01337
620.95438,0.02148
619.46460,0.02710
617.97481,0.03931
616.48502,0.05769
614.99523,0.06689
613.50544,0.07611
612.01565,0.13447
610.52587,0.16304
609.03608,0.18614
607.54629,0.20533
606.05650,0.22453
604.56671,0.27644
603.07692,0.36850
601.58714,0.36520
600.09735,0.36191
598.60756,0.43299
597.11777,0.45432
595.62798,0.47238
594.13819,0.45823
592.64840,0.44410
591.15862,0.39951
589.66883,0.32863
588.17904,0.27137
586.68925,0.25032
585.19946,0.22929
583.70967,0.16158
582.21989,0.14455
580.73010,0.12864
579.24031,0.11275
577.75052,0.09689
576.26073,0.06899
574.77094,0.05142
573.28115,0.04605
571.79137,0.04070
570.30158,0.04075
568.81179,0.05990
567.32200,0.06723
565.83221,0.07459
564.34242,0.12978
562.85264,0.14091
561.36285,0.13869
559.87306,0.14187
558.38327,0.14507
556.89348,0.17143
555.40369,0.17260
553.91391,0.16951
552.42412,0.16645
550.93433,0.17602
549.44454,0.19395
547.95475,0.18383
546.46496,0.18679
544.97517,0.18977
543.48539,0.22161
541.99560,0.23702
540.50581,0.27703
539.01602,0.31706
537.52623,0.36391
536.03644,0.36780
534.54666,0.39649
533.05687,0.43969
531.56708,0.48291
530.07729,0.51474
528.58750,0.56481
527.09771,0.58123
525.60792,0.59768
524.11814,0.69124
522.62835,0.75719
521.13856,0.81111
519.64877,0.83851
518.15898,0.86593
516.66919,0.91597
515.17941,0.91450
513.68962,0.90088
512.19983,0.88728
510.71004,0.81044
509.22025,0.79678
507.73046,0.73249
506.24068,0.67283
504.75089,0.61319
503.26110,0.48296
501.77131,0.40802
500.28152,0.36172
498.79173,0.31544
497.30194,0.24211
495.81216,0.20652
494.32237,0.17950
492.83258,0.15251
491.34279,0.12599
489.85300,0.08413
488.36321,0.06401
486.87343,0.06727
485.38364,0.07056
483.89385,0.07003
482.40406,0.10790
480.91427,0.11433
479.42448,0.12078
477.93469,0.13877
476.44491,0.13375
474.95512,0.14916
473.46533,0.16459
471.97554,0.18004
470.48575,0.16657
468.99596,0.19040
467.50618,0.17994
466.01639,0.16950
464.52660,0.13771
463.03681,0.11339
461.54702,0.09732
460.05723,0.08128
458.56745,0.02524
457.07766,0.03150
455.58787,0.03878
454.09808,0.04608
452.60829,0.04101
451.11850,0.02873
449.62871,0.02908
448.13893,0.02946
446.64914,0.02865
445.15935,0.00529
443.66956,0.02479
442.17977,0.02503
440.68998,0.02529
439.20020,0.03368
437.71041,0.01995
436.22062,0.03289
434.73083,0.04586
433.24104,0.05150
431.75125,0.05870
430.26146,0.05244
428.77168,0.04620
427.28189,0.05545
425.79210,0.03467
424.30231,0.04956
422.81252,0.06447
421.32273,0.04574
419.83295,0.02770
418.34316,0.02031
416.85337,0.01295
415.36358,0.00529
413.87379,0.02866
412.38400,0.03748
410.89422,0.04632
409.40443,0.03227
407.91464,0.05070
406.42485,0.06718
404.93506,0.05934
403.44527,0.05153
401.95548,0.03781
400.46570,0.04584
398.97591,0.03393
397.48612,0.02204
395.99633,0.04417
394.50654,0.04111
393.01675,0.03434
391.52697,0.02759
390.03718,0.03883
388.54739,0.02049
387.05760,0.01698
385.56781,0.01349
384.07802,0.03206
382.58824,0.02127
381.09845,0.02695
379.60866,0.03266
378.11887,0.04475
376.62908,0.02046
375.13929,0.01286
373.64950,0.00529
372.15972,0.04061
370.66993,0.04548
369.18014,0.04707
367.69035,0.04867
366.20056,0.03605
364.71077,0.04691
363.22099,0.04092
361.73120,0.03494
360.24141,0.05707
358.75162,0.06101
357.26183,0.04963
355.77204,0.03827
354.28225,0.04272
352.79247,0.04808
351.30268,0.05620
349.81289,0.06435
348.32310,0.08074
346.83331,0.06843
345.34352,0.06261
343.85374,0.05682
342.36395,0.06673
340.87416,0.02732
339.38437,0.02684
337.89458,0.02638
336.40479,0.01629
334.91501,0.01741
333.42522,0.02810
331.93543,0.03881
330.44564,0.04088
328.95585,0.05372
327.46606,0.05212
325.97627,0.05053
324.48649,0.02968
322.99670,0.04261
321.50691,0.05371
320.01712,0.06484
318.52733,0.10307
317.03754,0.05382
315.54776,0.04155
314.05797,0.02930
312.56818,0.02684
311.07839,0.04129
309.58860,0.03240
308.09881,0.02354
306.60902,0.02052
305.11924,0.02322
303.62945,0.01607
302.13966,0.00529
300.64987,0.01350
299.16008,0.00529
