1778.52000,0.01103
1777.03021,0.01874
1775.54042,0.01782
1774.05063,0.01943
1772.56085,0.01060
1771.07106,0.01248
1769.58127,0.01030
1768.09148,0.00700
1766.60169,0.00805
1765.11190,0.01594
1763.62212,0.01067
1762.13233,0.01338
1760.64254,0.00315
1759.15275,0.01637
1757.66296,0.01005
1756.17317,0.01036
1754.68339,0.01251
1753.19360,0.00740
1751.70381,0.00709
1750.21402,0.00863
1748.72423,0.00860
1747.23444,0.00404
1745.74465,0.00451
1744.25487,0.01047
1742.76508,0.01440
1741.27529,0.01677
1739.78550,0.00528
1738.29571,0.01110
1736.80592,0.00967
1735.31614,0.00348
1733.82635,0.01311
1732.33656,0.01729
1730.84677,0.01308
1729.35698,0.01003
1727.86719,0.00450
1726.37740,0.00583
1724.88762,0.00558
1723.39783,0.01105
1721.90804,0.00721
1720.41825,0.00112
1718.92846,0.01204
1717.43867,0.00524
1715.94889,0.01235
1714.45910,0.00423
1712.96931,0.00706
1711.47952,0.00924
1709.98973,0.00825
1708.49994,0.00000
1707.01016,0.00111
1705.52037,0.00224
1704.03058,0.00566
1702.54079,0.00297
1701.05100,0.01305
1699.56121,0.00790
1698.07142,0.00528
1696.58164,0.00315
1695.09185,0.00894
1693.60206,0.00725
1692.11227,0.01310
1690.62248,0.01032
1689.13269,0.01416
1687.64291,0.01484
1686.15312,0.02101
1684.66333,0.02220
1683.17354,0.02022
1681.68375,0.02009
1680.19396,0.01816
1678.70417,0.03377
1677.21439,0.03963
1675.72460,0.03663
1674.23481,0.04754
1672.74502,0.04323
1671.25523,0.04554
1669.76544,0.03650
1668.27566,0.05183
1666.78587,0.05444
1665.29608,0.05252
1663.80629,0.07088
1662.31650,0.07538
1660.82671,0.07718
1659.33693,0.07513
1657.84714,0.08766
1656.35735,0.07907
1654.86756,0.07709
1653.37777,0.08128
1651.88798,0.08914
1650.39819,0.07062
1648.90841,0.08148
1647.41862,0.09282
1645.92883,0.08996
1644.43904,0.08713
1642.94925,0.08216
1641.45946,0.08996
1639.96968,0.08594
1638.47989,0.10698
1636.99010,0.09187
1635.50031,0.07564
1634.01052,0.07946
1632.52073,0.08240
1631.03094,0.09218
1629.54116,0.07673
1628.05137,0.07905
1626.56158,0.09004
1625.07179,0.10197
1623.58200,0.09481
1622.09221,0.08153
1620.60243,0.08715
1619.11264,0.09053
1617.62285,0.09461
1616.13306,0.09326
1614.64327,0.09056
1613.15348,0.08971
1611.66370,0.09890
1610.17391,0.09741
1608.68412,0.09527
1607.19433,0.09974
1605.70454,0.09082
1604.21475,0.09239
1602.72496,0.09398
1601.23518,0.08172
1599.74539,0.08609
1598.25560,0.08798
1596.76581,0.09467
1595.27602,0.09229
1593.78623,0.08628
1592.29645,0.08395
1590.80666,0.07572
1589.31687,0.07275
1587.82708,0.07754
1586.33729,0.07917
1584.84750,0.07194
1583.35771,0.08454
1581.86793,0.08829
1580.37814,0.09183
1578.88835,0.09130
1577.39856,0.08261
1575.90877,0.06870
1574.41898,0.06938
1572.92920,0.05939
1571.43941,0.06376
1569.94962,0.05906
1568.45983,0.05437
1566.97004,0.05222
1565.48025,0.04258
1563.99047,0.05048
1562.50068,0.04430
1561.01089,0.03541
1559.52110,0.04407
1558.03131,0.04660
1556.54152,0.04006
1555.05173,0.03810
1553.56195,0.02387
1552.07216,0.02878
1550.58237,0.00846
1549.09258,0.00522
1547.60279,0.00565
1546.11300,0.00315
1544.62322,0.00998
1543.13343,0.00751
1541.64364,0.01166
1540.15385,0.01173
1538.66406,0.01184
1537.17427,0.01537
1535.68448,0.01234
1534.19470,0.01320
1532.70491,0.00725
1531.21512,0.01908
1529.72533,0.00886
1528.23554,0.00526
1526.74575,0.00828
1525.25597,0.01474
1523.76618,0.00576
1522.27639,0.02228
1520.78660,0.01971
1519.29681,0.03332
1517.80702,0.04149
1516.31724,0.04923
1514.82745,0.04153
1513.33766,0.04568
1511.84787,0.04985
1510.35808,0.03880
1508.86829,0.03415
1507.37850,0.03385
1505.88872,0.03083
1504.39893,0.03172
1502.90914,0.03990
1501.41935,0.06290
1499.92956,0.05634
1498.43977,0.05186
1496.94999,0.06560
1495.46020,0.08710
1493.97041,0.08633
1492.48062,0.10901
1490.99083,0.10738
1489.50104,0.10440
1488.01125,0.11362
1486.52147,0.12287
1485.03168,0.16296
1483.54189,0.16691
1482.05210,0.19522
1480.56231,0.20331
1479.07252,0.21552
1477.58274,0.21979
1476.09295,0.22658
1474.60316,0.23682
1473.11337,0.23456
1471.62358,0.24188
1470.13379,0.24809
1468.64401,0.24955
1467.15422,0.28925
1465.66443,0.29587
1464.17464,0.30251
1462.68485,0.33091
1461.19506,0.38368
1459.70527,0.44534
1458.21549,0.46016
1456.72570,0.50663
1455.23591,0.55084
1453.74612,0.61465
1452.25633,0.67734
1450.76654,0.66794
1449.27676,0.68608
1447.78697,0.67741
1446.29718,0.64122
1444.80739,0.63533
1443.31760,0.62945
1441.82781,0.56308
1440.33802,0.52768
1438.84824,0.50117
1437.35845,0.47355
1435.86866,0.47804
1434.37887,0.48209
1432.88908,0.52826
1431.39929,0.61153
1429.90951,0.67436
1428.41972,0.73106
1426.92993,0.75685
1425.44014,0.78175
1423.95035,0.81521
1422.46056,0.84869
1420.97078,0.86775
1419.48099,0.88182
1417.99120,0.88705
1416.50141,0.84497
1415.01162,0.80429
1413.52183,0.78069
1412.03204,0.72458
1410.54226,0.68670
1409.05247,0.63110
1407.56268,0.58007
1406.07289,0.54203
1404.58310,0.51084
1403.09331,0.47967
1401.60353,0.43966
1400.11374,0.37669
1398.62395,0.33217
1397.13416,0.26971
1395.64437,0.21204
1394.15458,0.18352
1392.66479,0.16322
1391.17501,0.15613
1389.68522,0.12701
1388.19543,0.10768
1386.70564,0.09373
1385.21585,0.07980
1383.72606,0.05305
1382.23628,0.03587
1380.74649,0.03737
1379.25670,0.01978
1377.76691,0.01974
1376.27712,0.00311
1374.78733,0.00266
1373.29755,0.00315
1371.80776,0.00681
1370.31797,0.02052
1368.82818,0.02389
1367.33839,0.02729
1365.84860,0.03174
1364.35881,0.03030
1362.86903,0.05367
1361.37924,0.05524
1359.88945,0.06365
1358.39966,0.08095
1356.90987,0.11967
1355.42008,0.17025
1353.93030,0.22903
1352.44051,0.26669
1350.95072,0.30436
1349.46093,0.37960
1347.97114,0.46625
1346.48135,0.54085
1344.99156,0.60570
1343.50178,0.66124
1342.01199,0.71681
1340.52220,0.77172
1339.03241,0.79184
1337.54262,0.82040
1336.05283,0.85547
1334.56305,0.89057
1333.07326,0.93104
1331.58347,0.88530
1330.09368,0.89646
1328.60389,0.86488
1327.11410,0.83741
1325.62432,0.79632
1324.13453,0.78938
1322.64474,0.79588
1321.15495,0.75600
1319.66516,0.70761
1318.17537,0.65924
1316.68558,0.63718
1315.19580,0.58556
1313.70601,0.54716
1312.21622,0.53313
1310.72643,0.49819
1309.23664,0.44325
1307.74685,0.40495
1306.25707,0.38374
1304.76728,0.36471
1303.27749,0.34570
1301.78770,0.30385
1300.29791,0.26590
1298.80812,0.24935
1297.31834,0.21963
1295.82855,0.19563
1294.33876,0.15754
1292.84897,0.13176
1291.35918,0.12398
1289.86939,0.11691
1288.37960,0.10986
1286.88982,0.10966
1285.40003,0.10425
1283.91024,0.08499
1282.42045,0.07371
1280.93066,0.07520
1279.44087,0.06625
1277.95109,0.06460
1276.46130,0.04932
1274.97151,0.04147
1273.48172,0.03363
1271.99193,0.04163
1270.50214,0.04033
1269.01235,0.05384
1267.52257,0.04008
1266.03278,0.05295
1264.54299,0.03741
1263.05320,0.04010
1261.56341,0.03200
1260.07362,0.02393
1258.58384,0.01326
1257.09405,0.00785
1255.60426,0.01930
1254.11447,0.00803
1252.62468,0.00315
1251.13489,0.02413
1249.64511,0.02124
1248.15532,0.01633
1246.66553,0.01804
1245.17574,0.01978
1243.68595,0.03337
1242.19616,0.01536
1240.70637,0.02513
1239.21659,0.03857
1237.72680,0.02973
1236.23701,0.01205
1234.74722,0.03010
1233.25743,0.02054
1231.76764,0.01101
1230.27786,0.02481
1228.78807,0.02044
1227.29828,0.01974
1225.80849,0.00381
1224.31870,0.02681
1222.82891,0.00434
1221.33912,0.02898
1219.84934,0.03260
1218.35955,0.03625
1216.86976,0.05323
1215.37997,0.05476
1213.89018,0.08362
1212.40039,0.06518
1210.91061,0.07566
1209.42082,0.08252
1207.93103,0.08144
1206.44124,0.08039
1204.95145,0.07117
1203.46166,0.06561
1201.97188,0.05985
1200.48209,0.05912
1198.99230,0.06114
1197.50251,0.05250
1196.01272,0.06162
1194.52293,0.06190
1193.03314,0.06220
1191.54336,0.06002
1190.05357,0.04012
1188.56378,0.04367
1187.07399,0.04907
1185.58420,0.03948
1184.09441,0.01763
1182.60463,0.01991
1181.11484,0.02222
1179.62505,0.02388
1178.13526,0.03761
1176.64547,0.02429
1175.15568,0.02238
1173.66589,0.01593
1172.17611,0.00315
1170.68632,0.01613
1169.19653,0.02914
1167.70674,0.04570
1166.21695,0.03407
1164.72716,0.04704
1163.23738,0.06367
1161.74759,0.05985
1160.25780,0.06015
1158.76801,0.06434
1157.27822,0.06856
1155.78843,0.07143
1154.29865,0.09162
1152.80886,0.10842
1151.31907,0.12683
1149.82928,0.12616
1148.33949,0.14463
1146.84970,0.13889
1145.35991,0.13317
1143.87013,0.15056
1142.38034,0.18164
1140.89055,0.16587
1139.40076,0.17901
1137.91097,0.19719
1136.42118,0.22563
1134.93140,0.23430
1133.44161,0.24299
1131.95182,0.24010
1130.46203,0.24179
1128.97224,0.21757
1127.48245,0.24774
1125.99266,0.23471
1124.50288,0.22921
1123.01309,0.23023
1121.52330,0.23126
1120.03351,0.25177
1118.54372,0.26048
1117.05393,0.23621
1115.56415,0.25202
1114.07436,0.25761
1112.58457,0.24502
1111.09478,0.23246
1109.60499,0.22607
1108.11520,0.25769
1106.62542,0.26841
1105.13563,0.26481
1103.64584,0.24327
1102.15605,0.21447
1100.66626,0.21277
1099.17647,0.21109
1097.68668,0.23241
1096.19690,0.22305
1094.70711,0.21098
1093.21732,0.21122
1091.72753,0.19328
1090.23774,0.18628
1088.74795,0.17931
1087.25817,0.19102
1085.76838,0.18979
1084.27859,0.20655
1082.78880,0.19649
1081.29901,0.21285
1079.80922,0.19828
1078.31943,0.19523
1076.82965,0.19221
1075.33986,0.22072
1073.85007,0.24766
1072.36028,0.23367
1070.87049,0.25657
1069.38070,0.30224
1067.89092,0.32688
1066.40113,0.35156
1064.91134,0.39957
1063.42155,0.47469
1061.93176,0.55142
1060.44197,0.65252
1058.95219,0.71042
1057.46240,0.76003
1055.97261,0.80967
1054.48282,0.90199
1052.99303,0.96180
1051.50324,0.99297
1050.01345,0.94226
1048.52367,0.91068
1047.03388,0.89562
1045.54409,0.88058
1044.05430,0.84271
1042.56451,0.79575
1041.07472,0.71765
1039.58494,0.65004
1038.09515,0.60020
1036.60536,0.55562
1035.11557,0.51106
1033.62578,0.47312
1032.13599,0.40950
1030.64620,0.34544
1029.15642,0.30052
1027.66663,0.27861
1026.17684,0.25672
1024.68705,0.23007
1023.19726,0.17637
1021.70747,0.16024
1020.21769,0.14823
1018.72790,0.12031
1017.23811,0.11768
1015.74832,0.11507
1014.25853,0.09792
1012.76874,0.10172
1011.27896,0.10282
1009.78917,0.09029
1008.29938,0.06414
1006.80959,0.05803
1005.31980,0.05194
1003.83001,0.03701
1002.34022,0.01118
1000.85044,0.03019
999.36065,0.04309
997.87086,0.05043
996.38107,0.05780
994.89128,0.08214
993.40149,0.09900
991.91171,0.13021
990.42192,0.15941
988.93213,0.14334
987.44234,0.15541
985.95255,0.16749
984.46276,0.16379
982.97297,0.12462
981.48319,0.11550
979.99340,0.08093
978.50361,0.08108
977.01382,0.08125
975.52403,0.06336
974.03424,0.04048
972.54446,0.02764
971.05467,0.02347
969.56488,0.03139
968.07509,0.03773
966.58530,0.04410
965.09551,0.03798
963.60573,0.00844
962.11594,0.00647
960.62615,0.00315
959.13636,0.01485
957.64657,0.02659
956.15678,0.01753
954.66699,0.01759
953.17721,0.03702
951.68742,0.04600
950.19763,0.04455
948.70784,0.04311
947.21805,0.07128
945.72826,0.08901
944.23848,0.09129
942.74869,0.10656
941.25890,0.12459
939.76911,0.13206
938.27932,0.13955
936.78953,0.16265
935.29974,0.17600
933.80996,0.18686
932.32017,0.21550
930.83038,0.21560
929.34059,0.21573
927.85080,0.26605
926.36101,0.25952
924.87123,0.30079
923.38144,0.34663
921.89165,0.37134
920.40186,0.39607
918.91207,0.49818
917.42228,0.60077
915.93250,0.74661
914.44271,0.94299
912.95292,1.06306
911.46313,1.18315
909.97334,1.39575
908.48355,1.61088
906.99376,1.79554
905.50398,1.91630
904.01419,1.94061
902.52440,1.96495
901.03461,2.00000
899.54482,1.97592
898.05503,1.83151
896.56525,1.61773
895.07546,1.46643
893.58567,1.31515
892.09588,1.05025
890.60609,0.85864
889.11630,0.64953
887.62651,0.47070
886.13673,0.41021
884.64694,0.34974
883.15715,0.25244
881.66736,0.20294
880.17757,0.17781
878.68778,0.14314
877.19800,0.10850
875.70821,0.07776
874.21842,0.05545
872.72863,0.05296
871.23884,0.04276
869.74905,0.03953
868.25927,0.03632
866.76948,0.02710
865.27969,0.04270
863.78990,0.05060
862.30011,0.06216
860.81032,0.07772
859.32053,0.09331
857.83075,0.09311
856.34096,0.11455
854.85117,0.12077
853.36138,0.15044
851.87159,0.15364
850.38180,0.15685
848.89202,0.18410
847.40223,0.19499
845.91244,0.23479
844.42265,0.23606
842.93286,0.23735
841.44307,0.23901
839.95329,0.27914
838.46350,0.27356
836.97371,0.29258
835.48392,0.29512
833.99413,0.29770
832.50434,0.28971
831.01455,0.28039
829.52477,0.25015
828.03498,0.22063
826.54519,0.21558
825.05540,0.21056
823.56561,0.19749
822.07582,0.18580
820.58604,0.17346
819.09625,0.17013
817.60646,0.16682
816.11667,0.15227
814.62688,0.13593
813.13709,0.16079
811.64730,0.16793
810.15752,0.16122
808.66773,0.15453
807.17794,0.13876
805.68815,0.13371
804.19836,0.15826
802.70857,0.16167
801.21879,0.16511
799.72900,0.16061
798.23921,0.13748
796.74942,0.14463
795.25963,0.14771
793.76984,0.15081
792.28006,0.17192
790.79027,0.17097
789.30048,0.20350
787.81069,0.23491
786.32090,0.25167
784.83111,0.26846
783.34132,0.28015
781.85154,0.33236
780.36175,0.37185
778.87196,0.38896
777.38217,0.40609
775.89238,0.45499
774.40259,0.46386
772.91281,0.44364
771.42302,0.42071
769.93323,0.39781
768.44344,0.36218
766.95365,0.29246
765.46386,0.23823
763.97407,0.19653
762.48429,0.19411
760.99450,0.19171
759.50471,0.15942
758.01492,0.13329
756.52513,0.11925
755.03534,0.11399
753.54556,0.10875
752.05577,0.10911
750.56598,0.07719
749.07619,0.05211
747.58640,0.05061
746.09661,0.04914
744.60683,0.04803
743.11704,0.02965
741.62725,0.01948
740.13746,0.01969
738.64767,0.01993
737.15788,0.01211
735.66809,0.00545
734.17831,0.00315
732.68852,0.00880
731.19873,0.01449
729.70894,0.01189
728.21915,0.01387
726.72936,0.00790
725.23958,0.00697
723.74979,0.01170
722.26000,0.01646
720.77021,0.00315
719.28042,0.01683
717.79063,0.00233
716.30084,0.01221
714.81106,0.02212
713.32127,0.03046
711.83148,0.02722
710.34169,0.02378
708.85190,0.02560
707.36211,0.02743
705.87233,0.02702
704.38254,0.04188
702.89275,0.04606
701.40296,0.04504
699.91317,0.04404
698.42338,0.06127
696.93360,0.07237
695.44381,0.09351
693.95402,0.09830
692.46423,0.10311
690.97444,0.12432
689.48465,0.14897
687.99486,0.17273
686.50508,0.19243
685.01529,0.21214
683.52550,0.22119
682.03571,0.26166
680.54592,0.25483
679.05613,0.25678
677.56635,0.25875
676.07656,0.24767
674.58677,0.24321
673.09698,0.22967
671.60719,0.21195
670.11740,0.19425
668.62761,0.16850
667.13783,0.13185
665.64804,0.11537
664.15825,0.09890
662.66846,0.09895
661.17867,0.07878
659.68888,0.07388
658.19910,0.06741
656.70931,0.06096
655.21952,0.05044
653.72973,0.04563
652.23994,0.05495
650.75015,0.05292
649.26037,0.05092
647.77058,0.04939
646.28079,0.05540
644.79100,0.05437
643.30121,0.05201
641.81142,0.04966
640.32163,0.03643
638.83185,0.00660
637.34206,0.00411
635.85227,0.00361
634.36248,0.00315
632.87269,0.00953
631.38290,0.02710
629.89312,0.00760
628.40333,0.01121
626.91354,0.01485
625.42375,0.01818
623.93396,0.01197
622.44417,0.00601
620.95438,0.00008
619.46460,0.00191
617.97481,0.02219
616.48502,0.06524
614.99523,0.07385
613.50544,0.08249
612.01565,0.09786
610.52587,0.12531
609.03608,0.16052
607.54629,0.17517
606.05650,0.18984
604.56671,0.25038
603.07692,0.30571
601.58714,0.33239
600.09735,0.35910
598.60756,0.39994
597.11777,0.41146
595.62798,0.39478
594.13819,0.39269
592.64840,0.39063
591.15862,0.36128
589.66883,0.29442
588.17904,0.25762
586.68925,0.21913
585.19946,0.18067
583.70967,0.13325
582.21989,0.09472
580.73010,0.08022
579.24031,0.06574
577.75052,0.06869
576.26073,0.03390
574.77094,0.04304
573.28115,0.03344
571.79137,0.02386
570.30158,0.04195
568.81179,0.07075
567.32200,0.07376
565.83221,0.07679
564.34242,0.10544
562.85264,0.10089
561.36285,0.12208
559.87306,0.12521
558.38327,0.12836
556.89348,0.14234
555.40369,0.18888
553.91391,0.18072
552.42412,0.17259
550.93433,0.15732
549.44454,0.15413
547.95475,0.15756
546.46496,0.16772
544.97517,0.17791
543.48539,0.19439
541.99560,0.22044
540.50581,0.23297
539.01602,0.24553
537.52623,0.28963
536.03644,0.34991
534.54666,0.38176
533.05687,0.41137
531.56708,0.44100
530.07729,0.47703
528.58750,0.51035
527.09771,0.54198
525.60792,0.57364
524.11814,0.63024
522.62835,0.68846
521.13856,0.71029
519.64877,0.74444
518.15898,0.77861
516.66919,0.77253
515.17941,0.79856
513.68962,0.78991
512.19983,0.78129
510.71004,0.78577
509.22025,0.74887
507.73046,0.65739
506.24068,0.58982
504.75089,0.52228
503.26110,0.43588
501.77131,0.36087
500.28152,0.31752
498.79173,0.27419
497.30194,0.19812
495.81216,0.13367
494.32237,0.12306
492.83258,0.11248
491.34279,0.09884
489.85300,0.07022
488.36321,0.05094
486.87343,0.04671
485.38364,0.04250
483.89385,0.05310
482.40406,0.06987
480.91427,0.07268
479.42448,0.07550
477.93469,0.09257
476.44491,0.12832
474.95512,0.14077
473.46533,0.15325
471.97554,0.17701
470.48575,0.18851
468.99596,0.17160
467.50618,0.15448
466.01639,0.13738
464.52660,0.10939
463.03681,0.08529
461.54702,0.07817
460.05723,0.07106
458.56745,0.04544
457.07766,0.01917
455.58787,0.01839
454.09808,0.01764
452.60829,0.02943
451.11850,0.00461
449.62871,0.01212
448.13893,0.01966
446.64914,0.02244
445.15935,0.01615
443.66956,0.00579
442.17977,0.00887
440.68998,0.01197
439.20020,0.02853
437.71041,0.01280
436.22062,0.01552
434.73083,0.01827
433.24104,0.03810
431.75125,0.03157
430.26146,0.03200
428.77168,0.03245
427.28189,0.08879
425.79210,0.07393
424.30231,0.05546
422.81252,0.03701
421.32273,0.03861
419.83295,0.00951
418.34316,0.01616
416.85337,0.02284
415.36358,0.00315
413.87379,0.01652
412.38400,0.03310
410.89422,0.04970
409.40443,0.02584
407.91464,0.03999
406.42485,0.05234
404.93506,0.04948
403.44527,0.04663
401.95548,0.05041
400.46570,0.03329
398.97591,0.03598
397.48612,0.03869
395.99633,0.04598
394.50654,0.04601
393.01675,0.03765
391.52697,0.02932
390.03718,0.01213
388.54739,0.02041
387.05760,0.01177
385.56781,0.00315
384.07802,0.02744
382.58824,0.06063
381.09845,0.04083
379.60866,0.02105
378.11887,0.02633
376.62908,0.01115
375.13929,0.01511
373.64950,0.01909
372.15972,0.02424
370.66993,0.05261
369.18014,0.03528
367.69035,0.01797
366.20056,0.04451
364.71077,0.04628
363.22099,0.04306
361.73120,0.03987
360.24141,0.07174
358.75162,0.09112
357.26183,0.07446
355.77204,0.05782
354.28225,0.06613
352.79247,0.06490
351.30268,0.06449
349.81289,0.06410
348.32310,0.07978
346.83331,0.10254
345.34352,0.10177
343.85374,0.10103
342.36395,0.04468
340.87416,0.04637
339.38437,0.04888
337.89458,0.05142
336.40479,0.03521
334.91501,0.04928
333.42522,0.03403
331.93543,0.01880
330.44564,0.00315
328.95585,0.03054
327.46606,0.03281
325.97627,0.03511
324.48649,0.05097
322.99670,0.05547
321.50691,0.06296
320.01712,0.07047
318.52733,0.08256
317.03754,0.10081
315.54776,0.10146
314.05797,0.10213
312.56818,0.10066
311.07839,0.10240
309.58860,0.08175
308.09881,0.06113
306.60902,0.06658
305.11924,0.05613
303.62945,0.03342
302.13966,0.01073
300.64987,0.00315
299.16008,0.00315
