1778.52000,0.02334
1777.03021,0.02719
1775.54042,0.02720
1774.05063,0.01746
1772.56085,0.01124
1771.07106,0.01242
1769.58127,0.01179
1768.09148,0.00933
1766.60169,0.01630
1765.11190,0.01371
1763.62212,0.00727
1762.13233,0.00786
1760.64254,0.00736
1759.15275,0.01427
1757.66296,0.00239
1756.17317,0.00474
1754.68339,0.01172
1753.19360,0.01503
1751.70381,0.00325
1750.21402,0.00182
1748.72423,0.01055
1747.23444,0.00309
1745.74465,0.01131
1744.25487,0.00242
1742.76508,0.00351
1741.27529,0.00886
1739.78550,0.01202
1738.29571,0.00506
1736.80592,0.00809
1735.31614,0.00837
1733.82635,0.01532
1732.33656,0.00791
1730.84677,0.00439
1729.35698,0.01657
1727.86719,0.01034
1726.37740,0.00137
1724.88762,0.00643
1723.39783,0.00598
1721.90804,0.00372
1720.41825,0.00609
1718.92846,0.00239
1717.43867,0.01199
1715.94889,0.00741
1714.45910,0.00691
1712.96931,0.00946
1711.47952,0.00945
1709.98973,0.01555
1708.49994,0.00858
1707.01016,0.00902
1705.52037,0.00947
1704.03058,0.00239
1702.54079,0.00822
1701.05100,0.01277
1699.56121,0.01182
1698.07142,0.01809
1696.58164,0.01221
1695.09185,0.01041
1693.60206,0.01306
1692.11227,0.01112
1690.62248,0.00921
1689.13269,0.01710
1687.64291,0.01560
1686.15312,0.02427
1684.66333,0.01784
1683.17354,0.02343
1681.68375,0.02498
1680.19396,0.01899
1678.70417,0.02133
1677.21439,0.03033
1675.72460,0.03879
1674.23481,0.04415
1672.74502,0.03258
1671.25523,0.04572
1669.76544,0.04599
1668.27566,0.04960
1666.78587,0.04955
1665.29608,0.05984
1663.80629,0.05929
1662.31650,0.06060
1660.82671,0.05953
1659.33693,0.06181
1657.84714,0.06098
1656.35735,0.06497
1654.86756,0.06013
1653.37777,0.06749
1651.88798,0.06251
1650.39819,0.07084
1648.90841,0.07328
1647.41862,0.07152
1645.92883,0.06765
1644.43904,0.06381
1642.94925,0.05069
1641.45946,0.05860
1639.96968,0.06580
1638.47989,0.06473
1636.99010,0.06534
1635.50031,0.06193
1634.01052,0.07475
1632.52073,0.07359
1631.03094,0.07172
1629.54116,0.08204
1628.05137,0.07690
1626.56158,0.08579
1625.07179,0.08235
1623.58200,0.07470
1622.09221,0.07113
1620.60243,0.06777
1619.11264,0.07438
1617.62285,0.08434
1616.13306,0.07884
1614.64327,0.05566
1613.15348,0.06256
1611.66370,0.07777
1610.17391,0.08416
1608.68412,0.08542
1607.19433,0.06900
1605.70454,0.06790
1604.21475,0.07135
1602.72496,0.07482
1601.23518,0.06992
1599.74539,0.07464
1598.25560,0.08048
1596.76581,0.06700
1595.27602,0.07086
1593.78623,0.07051
1592.29645,0.06447
1590.80666,0.06546
1589.31687,0.06021
1587.82708,0.07783
1586.33729,0.07852
1584.84750,0.07537
1583.35771,0.07390
1581.86793,0.07540
1580.37814,0.08319
1578.88835,0.06741
1577.39856,0.06364
1575.90877,0.06782
1574.41898,0.05562
1572.92920,0.05708
1571.43941,0.03828
1569.94962,0.04108
1568.45983,0.04391
1566.97004,0.04454
1565.48025,0.03783
1563.99047,0.04238
1562.50068,0.03756
1561.01089,0.02760
1559.52110,0.04034
1558.03131,0.03024
1556.54152,0.00985
1555.05173,0.00625
1553.56195,0.01337
1552.07216,0.02402
1550.58237,0.01293
1549.09258,0.01146
1547.60279,0.01407
1546.11300,0.00711
1544.62322,0.00239
1543.13343,0.00316
1541.64364,0.00434
1540.15385,0.00730
1538.66406,0.01029
1537.17427,0.01265
1535.68448,0.00858
1534.19470,0.01063
1532.70491,0.01011
1531.21512,0.00188
1529.72533,0.00989
1528.23554,0.00447
1526.74575,0.00239
1525.25597,0.00614
1523.76618,0.01396
1522.27639,0.02845
1520.78660,0.02821
1519.29681,0.03168
1517.80702,0.03813
1516.31724,0.02838
1514.82745,0.02437
1513.33766,0.02729
1511.84787,0.03024
1510.35808,0.03404
1508.86829,0.04266
1507.37850,0.04854
1505.88872,0.04909
1504.39893,0.04764
1502.90914,0.04935
1501.41935,0.04814
1499.92956,0.05174
1498.43977,0.05758
1496.94999,0.07468
1495.46020,0.07043
1493.97041,0.07910
1492.48062,0.07785
1490.99083,0.10224
1489.50104,0.11670
1488.01125,0.12003
1486.52147,0.12338
1485.03168,0.13183
1483.54189,0.15358
1482.05210,0.15526
1480.56231,0.16876
1479.07252,0.18633
1477.58274,0.19435
1476.09295,0.19944
1474.60316,0.20529
1473.11337,0.21983
1471.62358,0.21873
1470.13379,0.22871
1468.64401,0.24996
1467.15422,0.25741
1465.66443,0.27870
1464.17464,0.30002
1462.68485,0.30164
1461.19506,0.34753
1459.70527,0.38846
1458.21549,0.43200
1456.72570,0.48459
1455.23591,0.52633
1453.74612,0.59021
1452.25633,0.61965
1450.76654,0.65557
1449.27676,0.68358
1447.78697,0.66129
1446.29718,0.63129
1444.80739,0.61182
1443.31760,0.59237
1441.82781,0.54584
1440.33802,0.52534
1438.84824,0.47720
1437.35845,0.46098
1435.86866,0.44645
1434.37887,0.50622
1432.88908,0.53505
1431.39929,0.58658
1429.90951,0.62448
1428.41972,0.68141
1426.92993,0.74038
1425.44014,0.76324
1423.95035,0.79710
1422.46056,0.83098
1420.97078,0.85355
1419.48099,0.90859
1417.99120,0.90061
1416.50141,0.81910
1415.01162,0.79550
1413.52183,0.74907
1412.03204,0.71814
1410.54226,0.69959
1409.05247,0.65452
1407.56268,0.60762
1406.07289,0.52960
1404.58310,0.49603
1403.09331,0.46248
1401.60353,0.42896
1400.11374,0.36560
1398.62395,0.31480
1397.13416,0.26402
1395.64437,0.22230
1394.15458,0.18668
1392.66479,0.16104
1391.17501,0.13285
1389.68522,0.11721
1388.19543,0.09165
1386.70564,0.07855
1385.21585,0.06547
1383.72606,0.04643
1382.23628,0.01857
1380.74649,0.00768
1379.25670,0.01083
1377.76691,0.00239
1376.27712,0.00865
1374.78733,0.00369
1373.29755,0.00759
1371.80776,0.01189
1370.31797,0.00239
1368.82818,0.00485
1367.33839,0.00733
1365.84860,0.01029
1364.35881,0.02231
1362.86903,0.02864
1361.37924,0.04532
1359.88945,0.06368
1358.39966,0.08353
1356.90987,0.12996
1355.42008,0.14470
1353.93030,0.20353
1352.44051,0.23519
1350.95072,0.26687
1349.46093,0.33867
1347.97114,0.42487
1346.48135,0.49469
1344.99156,0.57228
1343.50178,0.60878
1342.01199,0.65176
1340.52220,0.71891
1339.03241,0.75586
1337.54262,0.80278
1336.05283,0.81655
1334.56305,0.83034
1333.07326,0.85871
1331.58347,0.84969
1330.09368,0.86135
1328.60389,0.79154
1327.11410,0.76435
1325.62432,0.73976
1324.13453,0.75796
1322.64474,0.68530
1321.15495,0.67461
1319.66516,0.64495
1318.17537,0.61532
1316.68558,0.56986
1315.19580,0.54912
1313.70601,0.50887
1312.21622,0.46477
1310.72643,0.43563
1309.23664,0.39508
1307.74685,0.35106
1306.25707,0.30835
1304.76728,0.29801
1303.27749,0.28769
1301.78770,0.26072
1300.29791,0.21645
1298.80812,0.19284
1297.31834,0.15746
1295.82855,0.13169
1294.33876,0.11203
1292.84897,0.09405
1291.35918,0.08955
1289.86939,0.08434
1288.37960,0.07915
1286.88982,0.07749
1285.40003,0.07382
1283.91024,0.06668
1282.42045,0.06528
1280.93066,0.05799
1279.44087,0.05424
1277.95109,0.04572
1276.46130,0.05215
1274.97151,0.03916
1273.48172,0.02619
1271.99193,0.01021
1270.50214,0.01858
1269.01235,0.02292
1267.52257,0.02471
1266.03278,0.01785
1264.54299,0.01249
1263.05320,0.01251
1261.56341,0.00987
1260.07362,0.00726
1258.58384,0.00863
1257.09405,0.00874
1255.60426,0.01956
1254.11447,0.00239
1252.62468,0.01217
1251.13489,0.01330
1249.64511,0.00801
1248.15532,0.01619
1246.66553,0.01177
1245.17574,0.00738
1243.68595,0.00458
1242.19616,0.00333
1240.70637,0.00543
1239.21659,0.00828
1237.72680,0.01319
1236.23701,0.01978
1234.74722,0.01884
1233.25743,0.02124
1231.76764,0.02366
1230.27786,0.02242
1228.78807,0.02139
1227.29828,0.01541
1225.80849,0.00982
1224.31870,0.00849
1222.82891,0.00239
1221.33912,0.02091
1219.84934,0.02506
1218.35955,0.02924
1216.86976,0.04045
1215.37997,0.04302
1213.89018,0.06055
1212.40039,0.04639
1210.91061,0.05346
1209.42082,0.05723
1207.93103,0.05633
1206.44124,0.05545
1204.95145,0.04676
1203.46166,0.04528
1201.97188,0.05286
1200.48209,0.04553
1198.99230,0.02274
1197.50251,0.02653
1196.01272,0.01485
1194.52293,0.01858
1193.03314,0.02234
1191.54336,0.02161
1190.05357,0.01482
1188.56378,0.01653
1187.07399,0.01366
1185.58420,0.00786
1184.09441,0.01352
1182.60463,0.01192
1181.11484,0.01034
1179.62505,0.01994
1178.13526,0.00689
1176.64547,0.00658
1175.15568,0.00445
1173.66589,0.00217
1172.17611,0.00560
1170.68632,0.00398
1169.19653,0.00239
1167.70674,0.00986
1166.21695,0.01015
1164.72716,0.02209
1163.23738,0.02722
1161.74759,0.03441
1160.25780,0.04568
1158.76801,0.04665
1157.27822,0.04764
1155.78843,0.06120
1154.29865,0.06592
1152.80886,0.06773
1151.31907,0.07416
1149.82928,0.08892
1148.33949,0.11789
1146.84970,0.11721
1145.35991,0.11655
1143.87013,0.12698
1142.38034,0.13319
1140.89055,0.13021
1139.40076,0.14034
1137.91097,0.14275
1136.42118,0.17228
1134.93140,0.17686
1133.44161,0.18146
1131.95182,0.19632
1130.46203,0.20715
1128.97224,0.22648
1127.48245,0.21818
1125.99266,0.21894
1124.50288,0.22895
1123.01309,0.21648
1121.52330,0.20404
1120.03351,0.20398
1118.54372,0.21057
1117.05393,0.21498
1115.56415,0.21075
1114.07436,0.22018
1112.58457,0.21701
1111.09478,0.21386
1109.60499,0.21655
1108.11520,0.23695
1106.62542,0.20595
1105.13563,0.22143
1103.64584,0.20743
1102.15605,0.20028
1100.66626,0.18265
1099.17647,0.16504
1097.68668,0.16994
1096.19690,0.16400
1094.70711,0.17485
1093.21732,0.15070
1091.72753,0.15588
1090.23774,0.16118
1088.74795,0.16651
1087.25817,0.16457
1085.76838,0.14184
1084.27859,0.14769
1082.78880,0.15708
1081.29901,0.15432
1079.80922,0.15841
1078.31943,0.16491
1076.82965,0.17144
1075.33986,0.18537
1073.85007,0.18992
1072.36028,0.19818
1070.87049,0.20813
1069.38070,0.21662
1067.89092,0.22707
1066.40113,0.23755
1064.91134,0.30695
1063.42155,0.38945
1061.93176,0.45263
1060.44197,0.52800
1058.95219,0.61555
1057.46240,0.64111
1055.97261,0.66668
1054.48282,0.74565
1052.99303,0.77524
1051.50324,0.77001
1050.01345,0.80407
1048.52367,0.81216
1047.03388,0.80019
1045.54409,0.78823
1044.05430,0.74036
1042.56451,0.69344
1041.07472,0.62183
1039.58494,0.59099
1038.09515,0.51298
1036.60536,0.48339
1035.11557,0.45382
1033.62578,0.41736
1032.13599,0.39161
1030.64620,0.34303
1029.15642,0.28287
1027.66663,0.25830
1026.17684,0.23376
1024.68705,0.21717
1023.19726,0.17074
1021.70747,0.14405
1020.21769,0.13730
1018.72790,0.11012
1017.23811,0.10194
1015.74832,0.09379
1014.25853,0.09487
1012.76874,0.06631
1011.27896,0.07869
1009.78917,0.08353
1008.29938,0.05836
1006.80959,0.05192
1005.31980,0.04550
1003.83001,0.02814
1002.34022,0.02794
1000.85044,0.02814
999.36065,0.04053
997.87086,0.04538
996.38107,0.05026
994.89128,0.06567
993.40149,0.06562
991.91171,0.06780
990.42192,0.07739
988.93213,0.09086
987.44234,0.09672
985.95255,0.10259
984.46276,0.08831
982.97297,0.08050
981.48319,0.07124
979.99340,0.07970
978.50361,0.07012
977.01382,0.06056
975.52403,0.04587
974.03424,0.02530
972.54446,0.01268
971.05467,0.00599
969.56488,0.01480
968.07509,0.01608
966.58530,0.01738
965.09551,0.00231
963.60573,0.01260
962.11594,0.00245
960.62615,0.00239
959.13636,0.01054
957.64657,0.01872
956.15678,0.01023
954.66699,0.02334
953.17721,0.03333
951.68742,0.03561
950.19763,0.03819
948.70784,0.04079
947.21805,0.06084
945.72826,0.06801
944.23848,0.08239
942.74869,0.10158
941.25890,0.11343
939.76911,0.12613
938.27932,0.13886
936.78953,0.15225
935.29974,0.16493
933.80996,0.17081
932.32017,0.20935
930.83038,0.21888
929.34059,0.22843
927.85080,0.23736
926.36101,0.24779
924.87123,0.28312
923.38144,0.31848
921.89165,0.35083
920.40186,0.38320
918.91207,0.49107
917.42228,0.57520
915.93250,0.74266
914.44271,0.93319
912.95292,1.01176
911.46313,1.09036
909.97334,1.28612
908.48355,1.55453
906.99376,1.75901
905.50398,1.88461
904.01419,1.90148
902.52440,1.91838
901.03461,2.00000
899.54482,1.91980
898.05503,1.76294
896.56525,1.52685
895.07546,1.41769
893.58567,1.30855
892.09588,1.08819
890.60609,0.84168
889.11630,0.62672
887.62651,0.45418
886.13673,0.38636
884.64694,0.31857
883.15715,0.22094
881.66736,0.15172
880.17757,0.11515
878.68778,0.09307
877.19800,0.07102
875.70821,0.06033
874.21842,0.03566
872.72863,0.02796
871.23884,0.03117
869.74905,0.02445
868.25927,0.01775
866.76948,0.01623
865.27969,0.01290
863.78990,0.01954
862.30011,0.03266
860.81032,0.03908
859.32053,0.04552
857.83075,0.04894
856.34096,0.06732
854.85117,0.08425
853.36138,0.10378
851.87159,0.09882
850.38180,0.09388
848.89202,0.10132
847.40223,0.11892
845.91244,0.13950
844.42265,0.14747
842.93286,0.15546
841.44307,0.17813
839.95329,0.17023
838.46350,0.18835
836.97371,0.21588
835.48392,0.21810
833.99413,0.22034
832.50434,0.20187
831.01455,0.21236
829.52477,0.18822
828.03498,0.14770
826.54519,0.14490
825.05540,0.14212
823.56561,0.10849
822.07582,0.11784
820.58604,0.08942
819.09625,0.08591
817.60646,0.08242
816.11667,0.08449
814.62688,0.09082
813.13709,0.09625
811.64730,0.09028
810.15752,0.08471
808.66773,0.07915
807.17794,0.07786
805.68815,0.11604
804.19836,0.11775
802.70857,0.11736
801.21879,0.11699
799.72900,0.10642
798.23921,0.07781
796.74942,0.06194
795.25963,0.07356
793.76984,0.08521
792.28006,0.10683
790.79027,0.11060
789.30048,0.12434
787.81069,0.14217
786.32090,0.15651
784.83111,0.17088
783.34132,0.18970
781.85154,0.23988
780.36175,0.26482
778.87196,0.27487
777.38217,0.28493
775.89238,0.32691
774.40259,0.32172
772.91281,0.31214
771.42302,0.29944
769.93323,0.28677
768.44344,0.27486
766.95365,0.22740
765.46386,0.18402
763.97407,0.16978
762.48429,0.15723
760.99450,0.14470
759.50471,0.10860
758.01492,0.08230
756.52513,0.07759
755.03534,0.07022
753.54556,0.06289
752.05577,0.05327
750.56598,0.03925
749.07619,0.04590
747.58640,0.03571
746.09661,0.02554
744.60683,0.01402
743.11704,0.01339
741.62725,0.02772
740.13746,0.02428
738.64767,0.02087
737.15788,0.01868
735.66809,0.00361
734.17831,0.00239
732.68852,0.01088
731.19873,0.01940
729.70894,0.00913
728.21915,0.00239
726.72936,0.00839
725.23958,0.01496
723.74979,0.01455
722.26000,0.01416
720.77021,0.01767
719.28042,0.00000
717.79063,0.00910
716.30084,0.01409
714.81106,0.01909
713.32127,0.00891
711.83148,0.02714
710.34169,0.01812
708.85190,0.02359
707.36211,0.02908
705.87233,0.03672
704.38254,0.02890
702.89275,0.03677
701.40296,0.04236
699.91317,0.04797
698.42338,0.03877
696.93360,0.05595
695.44381,0.09565
693.95402,0.09924
692.46423,0.10285
690.97444,0.10759
689.48465,0.13282
687.99486,0.13725
686.50508,0.15580
685.01529,0.17437
683.52550,0.19103
682.03571,0.20772
680.54592,0.21447
679.05613,0.21959
677.56635,0.22474
676.07656,0.23967
674.58677,0.22201
673.09698,0.19939
671.60719,0.19800
670.11740,0.19662
668.62761,0.13482
667.13783,0.13865
665.64804,0.13017
664.15825,0.12170
662.66846,0.09391
661.17867,0.06945
659.68888,0.04650
658.19910,0.03933
656.70931,0.03218
655.21952,0.03363
653.72973,0.03382
652.23994,0.03144
650.75015,0.02347
649.26037,0.01552
647.77058,0.02373
646.28079,0.03896
644.79100,0.03579
643.30121,0.03070
641.81142,0.02564
640.32163,0.00871
638.83185,0.01337
637.34206,0.01843
635.85227,0.02056
634.36248,0.02271
632.87269,0.00609
631.38290,0.00239
629.89312,0.01129
628.40333,0.01025
626.91354,0.00924
625.42375,0.00733
623.93396,0.01282
622.44417,0.01187
620.95438,0.01096
619.46460,0.00914
617.97481,0.02450
616.48502,0.05093
614.99523,0.06173
613.50544,0.07254
612.01565,0.10643
610.52587,0.11545
609.03608,0.17002
607.54629,0.18250
606.05650,0.19500
604.56671,0.25555
603.07692,0.31243
601.58714,0.31893
600.09735,0.32544
598.60756,0.36673
597.11777,0.38537
595.62798,0.38910
594.13819,0.38253
592.64840,0.37599
591.15862,0.34311
589.66883,0.27726
588.17904,0.21273
586.68925,0.19218
585.19946,0.17165
583.70967,0.11585
582.21989,0.12625
580.73010,0.10774
579.24031,0.08924
577.75052,0.06948
576.26073,0.05528
574.77094,0.03501
573.28115,0.03302
571.79137,0.03106
570.30158,0.03722
568.81179,0.06277
567.32200,0.05848
565.83221,0.05421
564.34242,0.07854
562.85264,0.09662
561.36285,0.10552
559.87306,0.12088
558.38327,0.13628
556.89348,0.14598
555.40369,0.13524
553.91391,0.14241
552.42412,0.14961
550.93433,0.13784
549.44454,0.13844
547.95475,0.14552
546.46496,0.14599
544.97517,0.14648
543.48539,0.17078
541.99560,0.19565
540.50581,0.22331
539.01602,0.25100
537.52623,0.30194
536.03644,0.33262
534.54666,0.36406
533.05687,0.37719
531.56708,0.39034
530.07729,0.44343
528.58750,0.49856
527.09771,0.52579
525.60792,0.55305
524.11814,0.63167
522.62835,0.68045
521.13856,0.72446
519.64877,0.74647
518.15898,0.76850
516.66919,0.79378
515.17941,0.82904
513.68962,0.81013
512.19983,0.79124
510.71004,0.74455
509.22025,0.73253
507.73046,0.67279
506.24068,0.60607
504.75089,0.53938
503.26110,0.41391
501.77131,0.34579
500.28152,0.29613
498.79173,0.24649
497.30194,0.23061
495.81216,0.16351
494.32237,0.14196
492.83258,0.12043
491.34279,0.09414
489.85300,0.07377
488.36321,0.06006
486.87343,0.05817
485.38364,0.05631
483.89385,0.07419
482.40406,0.11330
480.91427,0.11584
479.42448,0.11840
477.93469,0.11057
476.44491,0.12489
474.95512,0.12633
473.46533,0.12779
471.97554,0.17628
470.48575,0.18258
468.99596,0.17379
467.50618,0.15590
466.01639,0.13804
464.52660,0.10352
463.03681,0.08321
461.54702,0.07150
460.05723,0.05981
458.56745,0.03939
457.07766,0.02011
455.58787,0.03282
454.09808,0.04557
452.60829,0.02229
451.11850,0.01029
449.62871,0.00633
448.13893,0.00239
446.64914,0.02398
445.15935,0.01553
443.66956,0.02832
442.17977,0.02951
440.68998,0.03072
439.20020,0.03233
437.71041,0.03618
436.22062,0.04291
434.73083,0.04966
433.24104,0.05320
431.75125,0.03152
430.26146,0.03125
428.77168,0.03100
427.28189,0.03538
425.79210,0.04126
424.30231,0.03454
422.81252,0.02784
421.32273,0.04172
419.83295,0.01931
418.34316,0.01858
416.85337,0.01788
415.36358,0.01674
413.87379,0.02594
412.38400,0.03610
410.89422,0.04627
409.40443,0.06735
407.91464,0.05121
406.42485,0.05372
404.93506,0.04666
403.44527,0.03963
401.95548,0.04000
400.46570,0.03541
398.97591,0.03574
397.48612,0.03608
395.99633,0.03912
394.50654,0.03261
393.01675,0.02657
391.52697,0.02056
390.03718,0.01997
388.54739,0.03967
387.05760,0.03580
385.56781,0.03196
384.07802,0.01837
382.58824,0.02065
381.09845,0.02011
379.60866,0.01959
378.11887,0.01697
376.62908,0.00239
375.13929,0.00184
373.64950,0.00132
372.15972,0.01335
370.66993,0.03481
369.18014,0.03013
367.69035,0.02548
366.20056,0.01597
364.71077,0.01791
363.22099,0.01969
361.73120,0.02149
360.24141,0.03862
358.75162,0.03734
357.26183,0.03618
355.77204,0.03504
354.28225,0.02129
352.79247,0.03449
351.30268,0.03425
349.81289,0.03403
348.32310,0.04287
346.83331,0.04529
345.34352,0.03814
343.85374,0.03102
342.36395,0.02078
340.87416,0.00818
339.38437,0.00527
337.89458,0.00239
336.40479,0.02021
334.91501,0.01317
333.42522,0.01915
331.93543,0.02515
330.44564,0.02353
328.95585,0.03391
327.46606,0.03132
325.97627,0.02876
324.48649,0.02025
322.99670,0.02614
321.50691,0.03676
320.01712,0.04740
318.52733,0.04193
317.03754,0.04958
315.54776,0.03246
314.05797,0.01536
312.56818,0.04298
311.07839,0.04944
309.58860,0.03693
308.09881,0.02444
306.60902,0.00239
305.11924,0.00753
303.62945,0.00698
302.13966,0.00377
300.64987,0.00611
299.16008,0.00239
