1778.52000,0.00429
1777.03021,0.00988
1775.54042,0.01131
1774.05063,0.00331
1772.56085,0.01007
1771.07106,0.00190
1769.58127,0.00980
1768.09148,0.00410
1766.60169,0.00655
1765.11190,0.00463
1763.62212,0.00867
1762.13233,0.01119
1760.64254,0.00869
1759.15275,0.01236
1757.66296,0.01210
1756.17317,0.00856
1754.68339,0.00000
1753.19360,0.00311
1751.70381,0.00360
1750.21402,0.00873
1748.72423,0.00180
1747.23444,0.00215
1745.74465,0.01086
1744.25487,0.00928
1742.76508,0.00706
1741.27529,0.01365
1739.78550,0.01280
1738.29571,0.00515
1736.80592,0.01302
1735.31614,0.01235
1733.82635,0.00642
1732.33656,0.01019
1730.84677,0.01728
1729.35698,0.01076
1727.86719,0.01109
1726.37740,0.00879
1724.88762,0.00587
1723.39783,0.00538
1721.90804,0.00404
1720.41825,0.00976
1718.92846,0.00803
1717.43867,0.00764
1715.94889,0.01013
1714.45910,0.01374
1712.96931,0.00463
1711.47952,0.01871
1709.98973,0.01172
1708.49994,0.01420
1707.01016,0.00913
1705.52037,0.00408
1704.03058,0.00817
1702.54079,0.00327
1701.05100,0.00703
1699.56121,0.01279
1698.07142,0.00648
1696.58164,0.00701
1695.09185,0.01328
1693.60206,0.01869
1692.11227,0.00743
1690.62248,0.00784
1689.13269,0.01134
1687.64291,0.01092
1686.15312,0.01227
1684.66333,0.01761
1683.17354,0.02143
1681.68375,0.02242
1680.19396,0.02673
1678.70417,0.02469
1677.21439,0.03300
1675.72460,0.03892
1674.23481,0.03409
1672.74502,0.04379
1671.25523,0.04627
1669.76544,0.04085
1668.27566,0.04909
1666.78587,0.05185
1665.29608,0.06453
1663.80629,0.05701
1662.31650,0.08050
1660.82671,0.07875
1659.33693,0.08251
1657.84714,0.07839
1656.35735,0.06330
1654.86756,0.06274
1653.37777,0.07319
1651.88798,0.07399
1650.39819,0.07065
1648.90841,0.08271
1647.41862,0.06974
1645.92883,0.07987
1644.43904,0.09002
1642.94925,0.07735
1641.45946,0.07327
1639.96968,0.08503
1638.47989,0.08956
1636.99010,0.08533
1635.50031,0.07541
1634.01052,0.07760
1632.52073,0.07278
1631.03094,0.07524
1629.54116,0.08629
1628.05137,0.08132
1626.56158,0.08671
1625.07179,0.09475
1623.58200,0.09381
1622.09221,0.07839
1620.60243,0.08343
1619.11264,0.09245
1617.62285,0.08897
1616.13306,0.09145
1614.64327,0.07856
1613.15348,0.08614
1611.66370,0.08451
1610.17391,0.10004
1608.68412,0.10396
1607.19433,0.09053
1605.70454,0.09054
1604.21475,0.08804
1602.72496,0.08556
1601.23518,0.07355
1599.74539,0.07871
1598.25560,0.08125
1596.76581,0.07744
1595.27602,0.08574
1593.78623,0.08198
1592.29645,0.08572
1590.80666,0.06816
1589.31687,0.07040
1587.82708,0.06081
1586.33729,0.07057
1584.84750,0.06234
1583.35771,0.07764
1581.86793,0.08264
1580.37814,0.09162
1578.88835,0.08150
1577.39856,0.06548
1575.90877,0.06442
1574.41898,0.05240
1572.92920,0.05337
1571.43941,0.04864
1569.94962,0.04680
1568.45983,0.04499
1566.97004,0.04297
1565.48025,0.05065
1563.99047,0.04802
1562.50068,0.03268
1561.01089,0.05054
1559.52110,0.03546
1558.03131,0.03578
1556.54152,0.03372
1555.05173,0.02926
1553.56195,0.02086
1552.07216,0.02260
1550.58237,0.01712
1549.09258,0.00462
1547.60279,0.01170
1546.11300,0.00519
1544.62322,0.00463
1543.13343,0.01718
1541.64364,0.01108
1540.15385,0.01006
1538.66406,0.00906
1537.17427,0.01248
1535.68448,0.00757
1534.19470,0.02950
1532.70491,0.02817
1531.21512,0.01257
1529.72533,0.01766
1528.23554,0.02079
1526.74575,0.02438
1525.25597,0.01592
1523.76618,0.02791
1522.27639,0.03553
1520.78660,0.04032
1519.29681,0.03722
1517.80702,0.04908
1516.31724,0.06933
1514.82745,0.05421
1513.33766,0.06231
1511.84787,0.07042
1510.35808,0.06835
1508.86829,0.05025
1507.37850,0.05218
1505.88872,0.05435
1504.39893,0.06445
1502.90914,0.06865
1501.41935,0.07550
1499.92956,0.08282
1498.43977,0.09324
1496.94999,0.09533
1495.46020,0.11942
1493.97041,0.11629
1492.48062,0.12087
1490.99083,0.12569
1489.50104,0.14526
1488.01125,0.14881
1486.52147,0.15239
1485.03168,0.20104
1483.54189,0.21631
1482.05210,0.23314
1480.56231,0.23484
1479.07252,0.25721
1477.58274,0.27675
1476.09295,0.27940
1474.60316,0.28668
1473.11337,0.29465
1471.62358,0.29978
1470.13379,0.29527
1468.64401,0.32814
1467.15422,0.34125
1465.66443,0.36065
1464.17464,0.38008
1462.68485,0.42513
1461.19506,0.45591
1459.70527,0.52276
1458.21549,0.56195
1456.72570,0.59545
1455.23591,0.63776
1453.74612,0.69459
1452.25633,0.75036
1450.76654,0.78483
1449.27676,0.78043
1447.78697,0.78528
1446.29718,0.73259
1444.80739,0.70838
1443.31760,0.68419
1441.82781,0.64278
1440.33802,0.62314
1438.84824,0.57453
1437.35845,0.54747
1435.86866,0.54394
1434.37887,0.55802
1432.88908,0.60398
1431.39929,0.69633
1429.90951,0.81156
1428.41972,0.81035
1426.92993,0.87619
1425.44014,0.86909
1423.95035,0.89685
1422.46056,0.92463
1420.97078,0.96354
1419.48099,0.98994
1417.99120,0.98824
1416.50141,0.94283
1415.01162,0.89306
1413.52183,0.87077
1412.03204,0.80764
1410.54226,0.75816
1409.05247,0.71024
1407.56268,0.66190
1406.07289,0.60414
1404.58310,0.57936
1403.09331,0.55461
1401.60353,0.49098
1400.11374,0.42782
1398.62395,0.36820
1397.13416,0.31410
1395.64437,0.26244
1394.15458,0.22947
1392.66479,0.18863
1391.17501,0.16538
1389.68522,0.14260
1388.19543,0.10446
1386.70564,0.10479
1385.21585,0.10515
1383.72606,0.07522
1382.23628,0.04794
1380.74649,0.04485
1379.25670,0.03476
1377.76691,0.03239
1376.27712,0.02322
1374.78733,0.00463
1373.29755,0.00917
1371.80776,0.01747
1370.31797,0.02579
1368.82818,0.02909
1367.33839,0.03240
1365.84860,0.03816
1364.35881,0.05844
1362.86903,0.06117
1361.37924,0.07030
1359.88945,0.08648
1358.39966,0.09873
1356.90987,0.12067
1355.42008,0.18218
1353.93030,0.24724
1352.44051,0.28068
1350.95072,0.31414
1349.46093,0.38762
1347.97114,0.48134
1346.48135,0.56738
1344.99156,0.63280
1343.50178,0.67386
1342.01199,0.74416
1340.52220,0.79207
1339.03241,0.80440
1337.54262,0.85039
1336.05283,0.88244
1334.56305,0.91451
1333.07326,0.94321
1331.58347,0.91985
1330.09368,0.93321
1328.60389,0.90199
1327.11410,0.86156
1325.62432,0.82203
1324.13453,0.80846
1322.64474,0.79469
1321.15495,0.76667
1319.66516,0.73361
1318.17537,0.70058
1316.68558,0.64691
1315.19580,0.58976
1313.70601,0.55526
1312.21622,0.52715
1310.72643,0.48457
1309.23664,0.44355
1307.74685,0.42694
1306.25707,0.38663
1304.76728,0.36678
1303.27749,0.34694
1301.78770,0.29352
1300.29791,0.26121
1298.80812,0.22453
1297.31834,0.22281
1295.82855,0.17981
1294.33876,0.15397
1292.84897,0.13277
1291.35918,0.11796
1289.86939,0.11098
1288.37960,0.10402
1286.88982,0.09434
1285.40003,0.09457
1283.91024,0.08274
1282.42045,0.07005
1280.93066,0.06596
1279.44087,0.05617
1277.95109,0.04268
1276.46130,0.03558
1274.97151,0.03939
1273.48172,0.04321
1271.99193,0.03904
1270.50214,0.03797
1269.01235,0.03934
1267.52257,0.03590
1266.03278,0.03952
1264.54299,0.03283
1263.05320,0.04375
1261.56341,0.03755
1260.07362,0.03137
1258.58384,0.02610
1257.09405,0.01271
1255.60426,0.00463
1254.11447,0.00917
1252.62468,0.02207
1251.13489,0.01303
1249.64511,0.00907
1248.15532,0.02358
1246.66553,0.02021
1245.17574,0.01687
1243.68595,0.02069
1242.19616,0.01970
1240.70637,0.02027
1239.21659,0.01560
1237.72680,0.02808
1236.23701,0.02323
1234.74722,0.01709
1233.25743,0.01866
1231.76764,0.02025
1230.27786,0.03022
1228.78807,0.01077
1227.29828,0.01287
1225.80849,0.01039
1224.31870,0.00463
1222.82891,0.01647
1221.33912,0.03273
1219.84934,0.03561
1218.35955,0.03852
1216.86976,0.05726
1215.37997,0.06549
1213.89018,0.07813
1212.40039,0.08091
1210.91061,0.06746
1209.42082,0.06611
1207.93103,0.07379
1206.44124,0.08150
1204.95145,0.08066
1203.46166,0.06930
1201.97188,0.06763
1200.48209,0.05171
1198.99230,0.05624
1197.50251,0.05728
1196.01272,0.06471
1194.52293,0.06217
1193.03314,0.05966
1191.54336,0.05200
1190.05357,0.04547
1188.56378,0.03237
1187.07399,0.02281
1185.58420,0.03766
1184.09441,0.00903
1182.60463,0.01251
1181.11484,0.01601
1179.62505,0.02700
1178.13526,0.03033
1176.64547,0.02357
1175.15568,0.02409
1173.66589,0.00463
1172.17611,0.00685
1170.68632,0.01591
1169.19653,0.02498
1167.70674,0.03189
1166.21695,0.04871
1164.72716,0.04116
1163.23738,0.05319
1161.74759,0.06590
1160.25780,0.05974
1158.76801,0.06712
1157.27822,0.07452
1155.78843,0.07283
1154.29865,0.07687
1152.80886,0.10818
1151.31907,0.12568
1149.82928,0.13484
1148.33949,0.13876
1146.84970,0.14699
1145.35991,0.15524
1143.87013,0.16275
1142.38034,0.17797
1140.89055,0.18662
1139.40076,0.18958
1137.91097,0.20487
1136.42118,0.22722
1134.93140,0.23300
1133.44161,0.23880
1131.95182,0.25177
1130.46203,0.26564
1128.97224,0.23383
1127.48245,0.26841
1125.99266,0.24346
1124.50288,0.24864
1123.01309,0.25208
1121.52330,0.25555
1120.03351,0.25662
1118.54372,0.25992
1117.05393,0.25511
1115.56415,0.26438
1114.07436,0.27061
1112.58457,0.27576
1111.09478,0.28093
1109.60499,0.26547
1108.11520,0.28409
1106.62542,0.27549
1105.13563,0.27834
1103.64584,0.25990
1102.15605,0.25863
1100.66626,0.25067
1099.17647,0.24274
1097.68668,0.25626
1096.19690,0.25463
1094.70711,0.24798
1093.21732,0.22004
1091.72753,0.22069
1090.23774,0.21180
1088.74795,0.20294
1087.25817,0.24409
1085.76838,0.23538
1084.27859,0.23900
1082.78880,0.22683
1081.29901,0.23358
1079.80922,0.23727
1078.31943,0.23681
1076.82965,0.23638
1075.33986,0.27530
1073.85007,0.29535
1072.36028,0.29060
1070.87049,0.32124
1069.38070,0.35279
1067.89092,0.36766
1066.40113,0.38255
1064.91134,0.44581
1063.42155,0.54052
1061.93176,0.65766
1060.44197,0.75483
1058.95219,0.79270
1057.46240,0.86630
1055.97261,0.93992
1054.48282,1.02048
1052.99303,1.10151
1051.50324,1.09401
1050.01345,1.08104
1048.52367,1.04151
1047.03388,1.02716
1045.54409,1.01283
1044.05430,0.96370
1042.56451,0.89174
1041.07472,0.81959
1039.58494,0.77602
1038.09515,0.68107
1036.60536,0.63865
1035.11557,0.59625
1033.62578,0.51543
1032.13599,0.45638
1030.64620,0.40724
1029.15642,0.34912
1027.66663,0.31651
1026.17684,0.28393
1024.68705,0.26587
1023.19726,0.21949
1021.70747,0.19137
1020.21769,0.16570
1018.72790,0.15564
1017.23811,0.14638
1015.74832,0.13715
1014.25853,0.12585
1012.76874,0.12160
1011.27896,0.11716
1009.78917,0.10549
1008.29938,0.09539
1006.80959,0.07410
1005.31980,0.05284
1003.83001,0.04412
1002.34022,0.03565
1000.85044,0.03357
999.36065,0.05261
997.87086,0.06256
996.38107,0.07253
994.89128,0.09186
993.40149,0.11869
991.91171,0.13917
990.42192,0.16473
988.93213,0.16987
987.44234,0.17218
985.95255,0.17452
984.46276,0.16304
982.97297,0.14652
981.48319,0.13685
979.99340,0.10939
978.50361,0.09976
977.01382,0.09016
975.52403,0.06563
974.03424,0.04575
972.54446,0.04522
971.05467,0.02560
969.56488,0.02007
968.07509,0.02357
966.58530,0.02710
965.09551,0.03372
963.60573,0.00939
962.11594,0.00463
960.62615,0.01414
959.13636,0.02050
957.64657,0.02687
956.15678,0.02151
954.66699,0.02277
953.17721,0.04097
951.68742,0.03327
950.19763,0.03273
948.70784,0.03222
947.21805,0.06744
945.72826,0.07763
944.23848,0.10168
942.74869,0.10204
941.25890,0.13032
939.76911,0.13752
938.27932,0.14476
936.78953,0.15839
935.29974,0.16479
933.80996,0.18704
932.32017,0.21326
930.83038,0.21062
929.34059,0.20799
927.85080,0.24748
926.36101,0.27468
924.87123,0.30080
923.38144,0.35156
921.89165,0.37828
920.40186,0.40503
918.91207,0.52002
917.42228,0.62910
915.93250,0.75139
914.44271,0.94073
912.95292,1.07548
911.46313,1.21026
909.97334,1.42801
908.48355,1.60711
906.99376,1.82996
905.50398,1.92297
904.01419,1.93504
902.52440,1.94713
901.03461,2.00000
899.54482,1.98280
898.05503,1.86982
896.56525,1.59844
895.07546,1.45925
893.58567,1.32009
892.09588,1.04263
890.60609,0.82540
889.11630,0.63258
887.62651,0.47253
886.13673,0.40489
884.64694,0.33729
883.15715,0.25179
881.66736,0.18720
880.17757,0.13603
878.68778,0.12422
877.19800,0.11243
875.70821,0.05958
874.21842,0.04696
872.72863,0.04052
871.23884,0.02597
869.74905,0.02804
868.25927,0.03013
866.76948,0.01345
865.27969,0.02910
863.78990,0.04192
862.30011,0.05322
860.81032,0.05477
859.32053,0.05634
857.83075,0.08002
856.34096,0.09933
854.85117,0.10592
853.36138,0.12572
851.87159,0.12993
850.38180,0.13418
848.89202,0.17272
847.40223,0.19393
845.91244,0.20835
844.42265,0.21763
842.93286,0.22694
841.44307,0.23484
839.95329,0.27177
838.46350,0.26675
836.97371,0.28747
835.48392,0.28492
833.99413,0.28239
832.50434,0.28648
831.01455,0.27081
829.52477,0.26067
828.03498,0.21275
826.54519,0.20188
825.05540,0.19104
823.56561,0.18802
822.07582,0.18392
820.58604,0.16930
819.09625,0.16174
817.60646,0.15420
816.11667,0.14031
814.62688,0.14666
813.13709,0.15282
811.64730,0.14779
810.15752,0.15279
808.66773,0.15780
807.17794,0.14010
805.68815,0.13319
804.19836,0.13949
802.70857,0.14164
801.21879,0.14381
799.72900,0.15853
798.23921,0.14493
796.74942,0.15025
795.25963,0.15218
793.76984,0.15414
792.28006,0.16964
790.79027,0.16209
789.30048,0.19675
787.81069,0.23319
786.32090,0.24780
784.83111,0.26243
783.34132,0.28620
781.85154,0.34669
780.36175,0.39358
778.87196,0.40291
777.38217,0.41228
775.89238,0.46429
774.40259,0.44690
772.91281,0.43436
771.42302,0.42723
769.93323,0.42012
768.44344,0.35228
766.95365,0.30841
765.46386,0.24501
763.97407,0.20273
762.48429,0.19673
760.99450,0.19076
759.50471,0.17250
758.01492,0.14482
756.52513,0.13562
755.03534,0.12633
753.54556,0.11707
752.05577,0.10969
750.56598,0.10081
749.07619,0.07217
747.58640,0.06762
746.09661,0.06309
744.60683,0.05913
743.11704,0.03784
741.62725,0.03107
740.13746,0.03125
738.64767,0.03146
737.15788,0.02476
735.66809,0.02248
734.17831,0.00463
732.68852,0.01318
731.19873,0.02175
729.70894,0.01837
728.21915,0.02358
726.72936,0.01981
725.23958,0.00463
723.74979,0.00707
722.26000,0.00953
720.77021,0.00740
719.28042,0.00771
717.79063,0.00343
716.30084,0.00984
714.81106,0.01626
713.32127,0.01271
711.83148,0.02105
710.34169,0.02349
708.85190,0.02825
707.36211,0.03304
705.87233,0.03027
704.38254,0.02774
702.89275,0.03249
701.40296,0.04132
699.91317,0.05019
698.42338,0.07214
696.93360,0.07940
695.44381,0.07922
693.95402,0.09301
692.46423,0.10682
690.97444,0.13285
689.48465,0.14990
687.99486,0.16807
686.50508,0.19484
685.01529,0.22162
683.52550,0.23173
682.03571,0.24758
680.54592,0.27598
679.05613,0.27078
677.56635,0.26561
676.07656,0.26815
674.58677,0.25709
673.09698,0.22188
671.60719,0.21164
670.11740,0.20142
668.62761,0.15793
667.13783,0.13864
665.64804,0.12662
664.15825,0.11463
662.66846,0.08289
661.17867,0.08259
659.68888,0.06803
658.19910,0.06437
656.70931,0.06074
655.21952,0.05812
653.72973,0.05289
652.23994,0.04548
650.75015,0.04590
649.26037,0.04634
647.77058,0.04977
646.28079,0.05652
644.79100,0.06110
643.30121,0.05691
641.81142,0.05274
640.32163,0.03015
638.83185,0.00515
637.34206,0.00463
635.85227,0.00603
634.36248,0.00746
632.87269,0.00836
631.38290,0.01741
629.89312,0.01770
628.40333,0.01241
626.91354,0.00714
625.42375,0.01827
623.93396,0.01118
622.44417,0.01466
620.95438,0.01817
619.46460,0.01731
617.97481,0.03624
616.48502,0.06883
614.99523,0.08001
613.50544,0.09122
612.01565,0.11245
610.52587,0.13590
609.03608,0.17915
607.54629,0.19825
606.05650,0.21737
604.56671,0.26905
603.07692,0.33986
601.58714,0.36466
600.09735,0.38948
598.60756,0.41774
597.11777,0.45876
595.62798,0.43235
594.13819,0.42354
592.64840,0.41475
591.15862,0.39808
589.66883,0.34364
588.17904,0.28263
586.68925,0.23966
585.19946,0.19672
583.70967,0.15511
582.21989,0.11881
580.73010,0.09769
579.24031,0.07659
577.75052,0.06870
576.26073,0.08347
574.77094,0.05959
573.28115,0.06276
571.79137,0.06595
570.30158,0.05643
568.81179,0.09505
567.32200,0.09677
565.83221,0.09852
564.34242,0.11458
562.85264,0.13154
561.36285,0.14808
559.87306,0.16114
558.38327,0.17421
556.89348,0.19259
555.40369,0.21955
553.91391,0.21007
552.42412,0.20061
550.93433,0.18699
549.44454,0.19867
547.95475,0.20752
546.46496,0.21343
544.97517,0.21936
543.48539,0.23069
541.99560,0.27062
540.50581,0.28222
539.01602,0.29385
537.52623,0.34066
536.03644,0.40726
534.54666,0.44247
533.05687,0.45826
531.56708,0.47407
530.07729,0.52430
528.58750,0.56400
527.09771,0.58394
525.60792,0.60392
524.11814,0.67753
522.62835,0.71337
521.13856,0.77230
519.64877,0.77644
518.15898,0.78060
516.66919,0.82356
515.17941,0.86633
513.68962,0.85266
512.19983,0.83900
510.71004,0.82867
509.22025,0.80540
507.73046,0.69491
506.24068,0.63279
504.75089,0.57070
503.26110,0.46446
501.77131,0.39187
500.28152,0.34489
498.79173,0.29794
497.30194,0.21927
495.81216,0.17248
494.32237,0.15032
492.83258,0.12819
491.34279,0.12673
489.85300,0.09608
488.36321,0.06457
486.87343,0.06890
485.38364,0.07325
483.89385,0.07433
482.40406,0.08818
480.91427,0.09447
479.42448,0.10079
477.93469,0.12306
476.44491,0.14162
474.95512,0.16559
473.46533,0.18958
471.97554,0.21568
470.48575,0.22994
468.99596,0.19039
467.50618,0.17525
466.01639,0.16014
464.52660,0.12879
463.03681,0.11526
461.54702,0.10340
460.05723,0.09157
458.56745,0.06098
457.07766,0.03876
455.58787,0.03743
454.09808,0.03613
452.60829,0.02761
451.11850,0.02767
449.62871,0.02798
448.13893,0.02832
446.64914,0.03768
445.15935,0.02378
443.66956,0.00463
442.17977,0.01362
440.68998,0.02264
439.20020,0.04683
437.71041,0.04227
436.22062,0.04070
434.73083,0.03915
433.24104,0.03378
431.75125,0.04426
430.26146,0.04465
428.77168,0.04506
427.28189,0.07517
425.79210,0.08090
424.30231,0.06623
422.81252,0.05157
421.32273,0.03914
419.83295,0.01597
418.34316,0.01029
416.85337,0.00463
415.36358,0.01820
413.87379,0.03904
412.38400,0.05398
410.89422,0.06894
409.40443,0.04854
407.91464,0.03015
406.42485,0.04122
404.93506,0.04606
403.44527,0.05092
401.95548,0.04976
400.46570,0.04313
398.97591,0.04235
397.48612,0.04159
395.99633,0.04273
394.50654,0.03092
393.01675,0.03781
391.52697,0.04473
390.03718,0.01696
388.54739,0.03839
387.05760,0.03447
385.56781,0.03057
384.07802,0.02351
382.58824,0.03647
381.09845,0.02429
379.60866,0.01214
378.11887,0.01000
376.62908,0.01954
375.13929,0.01208
373.64950,0.00463
372.15972,0.02722
370.66993,0.04611
369.18014,0.03645
367.69035,0.02681
366.20056,0.01679
364.71077,0.03141
363.22099,0.03133
361.73120,0.03128
360.24141,0.05959
358.75162,0.06903
357.26183,0.05609
355.77204,0.04316
354.28225,0.06234
352.79247,0.04200
351.30268,0.04266
349.81289,0.04334
348.32310,0.06613
346.83331,0.08829
345.34352,0.06883
343.85374,0.04939
342.36395,0.05053
340.87416,0.04531
339.38437,0.03935
337.89458,0.03341
336.40479,0.04123
334.91501,0.02667
333.42522,0.01564
331.93543,0.00463
330.44564,0.01101
328.95585,0.01784
327.46606,0.01614
325.97627,0.01445
324.48649,0.05407
322.99670,0.06603
321.50691,0.07130
320.01712,0.07660
318.52733,0.06556
317.03754,0.06948
315.54776,0.07551
314.05797,0.08157
312.56818,0.09237
311.07839,0.09331
309.58860,0.08395
308.09881,0.07461
306.60902,0.05980
305.11924,0.04237
303.62945,0.02387
302.13966,0.00540
300.64987,0.01357
299.16008,0.00463
