1778.52000,0.01554
1777.03021,0.01228
1775.54042,0.01950
1774.05063,0.01667
1772.56085,0.01503
1771.07106,0.01574
1769.58127,0.00756
1768.09148,0.00560
1766.60169,0.00212
1765.11190,0.00332
1763.62212,0.00957
1762.13233,0.01896
1760.64254,0.01674
1759.15275,0.01571
1757.66296,0.01587
1756.17317,0.00481
1754.68339,0.00734
1753.19360,0.01300
1751.70381,0.00007
1750.21402,0.01702
1748.72423,0.01423
1747.23444,0.01649
1745.74465,0.00212
1744.25487,0.00697
1742.76508,0.00603
1741.27529,0.00511
1739.78550,0.01740
1738.29571,0.00879
1736.80592,0.01182
1735.31614,0.01837
1733.82635,0.02339
1732.33656,0.01798
1730.84677,0.01995
1729.35698,0.01497
1727.86719,0.00032
1726.37740,0.00159
1724.88762,0.00328
1723.39783,0.00615
1721.90804,0.02920
1720.41825,0.01158
1718.92846,0.00212
1717.43867,0.01074
1715.94889,0.01938
1714.45910,0.01758
1712.96931,0.01270
1711.47952,0.01754
1709.98973,0.02319
1708.49994,0.00327
1707.01016,0.00566
1705.52037,0.00808
1704.03058,0.01188
1702.54079,0.00447
1701.05100,0.00212
1699.56121,0.02111
1698.07142,0.02191
1696.58164,0.01808
1695.09185,0.01467
1693.60206,0.02058
1692.11227,0.01954
1690.62248,0.01116
1689.13269,0.02955
1687.64291,0.01153
1686.15312,0.02958
1684.66333,0.03331
1683.17354,0.04870
1681.68375,0.03466
1680.19396,0.02606
1678.70417,0.03765
1677.21439,0.05624
1675.72460,0.05004
1674.23481,0.05977
1672.74502,0.04936
1671.25523,0.06107
1669.76544,0.06040
1668.27566,0.06557
1666.78587,0.05372
1665.29608,0.06010
1663.80629,0.07426
1662.31650,0.07565
1660.82671,0.09141
1659.33693,0.08666
1657.84714,0.07727
1656.35735,0.08264
1654.86756,0.07990
1653.37777,0.06749
1651.88798,0.08184
1650.39819,0.06561
1648.90841,0.06296
1647.41862,0.08747
1645.92883,0.07945
1644.43904,0.07145
1642.94925,0.08131
1641.45946,0.06987
1639.96968,0.08559
1638.47989,0.08738
1636.99010,0.06827
1635.50031,0.07050
1634.01052,0.05802
1632.52073,0.07891
1631.03094,0.08005
1629.54116,0.08354
1628.05137,0.05217
1626.56158,0.08633
1625.07179,0.08563
1623.58200,0.08147
1622.09221,0.06919
1620.60243,0.07826
1619.11264,0.07146
1617.62285,0.08716
1616.13306,0.09785
1614.64327,0.08182
1613.15348,0.07629
1611.66370,0.11108
1610.17391,0.07032
1608.68412,0.09587
1607.19433,0.09469
1605.70454,0.06834
1604.21475,0.06102
1602.72496,0.05371
1601.23518,0.07396
1599.74539,0.07368
1598.25560,0.07265
1596.76581,0.08677
1595.27602,0.06912
1593.78623,0.08174
1592.29645,0.08003
1590.80666,0.06053
1589.31687,0.05849
1587.82708,0.05376
1586.33729,0.07192
1584.84750,0.05367
1583.35771,0.07964
1581.86793,0.08703
1580.37814,0.08126
1578.88835,0.08094
1577.39856,0.06476
1575.90877,0.06294
1574.41898,0.05456
1572.92920,0.05318
1571.43941,0.04446
1569.94962,0.05127
1568.45983,0.05810
1566.97004,0.04868
1565.48025,0.06913
1563.99047,0.05782
1562.50068,0.04576
1561.01089,0.04613
1559.52110,0.04614
1558.03131,0.04656
1556.54152,0.02878
1555.05173,0.04980
1553.56195,0.02703
1552.07216,0.02445
1550.58237,0.00677
1549.09258,0.00463
1547.60279,0.00212
1546.11300,0.00463
1544.62322,0.01376
1543.13343,0.00818
1541.64364,0.01038
1540.15385,0.01241
1538.66406,0.01446
1537.17427,0.01635
1535.68448,0.03066
1534.19470,0.02213
1532.70491,0.02061
1531.21512,0.01135
1529.72533,0.00212
1528.23554,0.02497
1526.74575,0.03274
1525.25597,0.03510
1523.76618,0.01267
1522.27639,0.01780
1520.78660,0.02101
1519.29681,0.03044
1517.80702,0.04029
1516.31724,0.06063
1514.82745,0.06007
1513.33766,0.05856
1511.84787,0.05707
1510.35808,0.03758
1508.86829,0.03867
1507.37850,0.03202
1505.88872,0.03742
1504.39893,0.02850
1502.90914,0.05604
1501.41935,0.06073
1499.92956,0.05615
1498.43977,0.06942
1496.94999,0.07226
1495.46020,0.08364
1493.97041,0.08303
1492.48062,0.07315
1490.99083,0.08655
1489.50104,0.08950
1488.01125,0.10469
1486.52147,0.11991
1485.03168,0.12681
1483.54189,0.15894
1482.05210,0.16435
1480.56231,0.19885
1479.07252,0.19345
1477.58274,0.19971
1476.09295,0.20521
1474.60316,0.19989
1473.11337,0.21746
1471.62358,0.21490
1470.13379,0.22903
1468.64401,0.25443
1467.15422,0.27365
1465.66443,0.26847
1464.17464,0.26333
1462.68485,0.33999
1461.19506,0.37093
1459.70527,0.41353
1458.21549,0.42438
1456.72570,0.46819
1455.23591,0.48800
1453.74612,0.56829
1452.25633,0.58931
1450.76654,0.64912
1449.27676,0.64732
1447.78697,0.66221
1446.29718,0.61782
1444.80739,0.61338
1443.31760,0.60897
1441.82781,0.58559
1440.33802,0.53742
1438.84824,0.48928
1437.35845,0.48574
1435.86866,0.48572
1434.37887,0.48068
1432.88908,0.52721
1431.39929,0.59083
1429.90951,0.65292
1428.41972,0.70341
1426.92993,0.73531
1425.44014,0.76531
1423.95035,0.80501
1422.46056,0.84475
1420.97078,0.86474
1419.48099,0.90064
1417.99120,0.90595
1416.50141,0.88648
1415.01162,0.83215
1413.52183,0.78482
1412.03204,0.75186
1410.54226,0.70923
1409.05247,0.65771
1407.56268,0.65157
1406.07289,0.59351
1404.58310,0.57113
1403.09331,0.54878
1401.60353,0.52297
1400.11374,0.46501
1398.62395,0.39312
1397.13416,0.32630
1395.64437,0.28431
1394.15458,0.24931
1392.66479,0.20698
1391.17501,0.17321
1389.68522,0.15767
1388.19543,0.13285
1386.70564,0.11136
1385.21585,0.08989
1383.72606,0.09267
1382.23628,0.05710
1380.74649,0.04443
1379.25670,0.04457
1377.76691,0.03388
1376.27712,0.02322
1374.78733,0.00212
1373.29755,0.00410
1371.80776,0.03828
1370.31797,0.06164
1368.82818,0.05633
1367.33839,0.05105
1365.84860,0.06789
1364.35881,0.07971
1362.86903,0.05939
1361.37924,0.07126
1359.88945,0.08781
1358.39966,0.10516
1356.90987,0.15083
1355.42008,0.18140
1353.93030,0.25581
1352.44051,0.28430
1350.95072,0.31282
1349.46093,0.39854
1347.97114,0.49281
1346.48135,0.52315
1344.99156,0.61320
1343.50178,0.65638
1342.01199,0.71586
1340.52220,0.76181
1339.03241,0.75312
1337.54262,0.80454
1336.05283,0.85676
1334.56305,0.90900
1333.07326,0.92522
1331.58347,0.93798
1330.09368,0.93681
1328.60389,0.93876
1327.11410,0.89616
1325.62432,0.86483
1324.13453,0.92539
1322.64474,0.87357
1321.15495,0.80432
1319.66516,0.77580
1318.17537,0.74731
1316.68558,0.67504
1315.19580,0.59388
1313.70601,0.56702
1312.21622,0.52854
1310.72643,0.51103
1309.23664,0.44625
1307.74685,0.44932
1306.25707,0.39157
1304.76728,0.36601
1303.27749,0.34048
1301.78770,0.28203
1300.29791,0.23019
1298.80812,0.22062
1297.31834,0.20682
1295.82855,0.18683
1294.33876,0.14517
1292.84897,0.12524
1291.35918,0.12549
1289.86939,0.12440
1288.37960,0.12335
1286.88982,0.12289
1285.40003,0.08991
1283.91024,0.08873
1282.42045,0.07595
1280.93066,0.06823
1279.44087,0.05279
1277.95109,0.04706
1276.46130,0.04174
1274.97151,0.03722
1273.48172,0.03273
1271.99193,0.02710
1270.50214,0.04397
1269.01235,0.03258
1267.52257,0.04950
1266.03278,0.04475
1264.54299,0.04506
1263.05320,0.03880
1261.56341,0.02850
1260.07362,0.01822
1258.58384,0.00894
1257.09405,0.00549
1255.60426,0.01409
1254.11447,0.00837
1252.62468,0.02709
1251.13489,0.03072
1249.64511,0.01423
1248.15532,0.02333
1246.66553,0.03169
1245.17574,0.04007
1243.68595,0.02057
1242.19616,0.03753
1240.70637,0.02390
1239.21659,0.03393
1237.72680,0.03701
1236.23701,0.02887
1234.74722,0.01921
1233.25743,0.02159
1231.76764,0.02400
1230.27786,0.04387
1228.78807,0.04128
1227.29828,0.01353
1225.80849,0.03696
1224.31870,0.01817
1222.82891,0.00212
1221.33912,0.04755
1219.84934,0.04999
1218.35955,0.05245
1216.86976,0.08904
1215.37997,0.07915
1213.89018,0.09525
1212.40039,0.05246
1210.91061,0.05427
1209.42082,0.05843
1207.93103,0.06203
1206.44124,0.06566
1204.95145,0.04935
1203.46166,0.05283
1201.97188,0.06021
1200.48209,0.06607
1198.99230,0.05296
1197.50251,0.04375
1196.01272,0.04426
1194.52293,0.05487
1193.03314,0.06550
1191.54336,0.03352
1190.05357,0.01630
1188.56378,0.02546
1187.07399,0.00828
1185.58420,0.01013
1184.09441,0.00347
1182.60463,0.00865
1181.11484,0.01387
1179.62505,0.01930
1178.13526,0.03871
1176.64547,0.01124
1175.15568,0.00861
1173.66589,0.00212
1172.17611,0.01741
1170.68632,0.01548
1169.19653,0.01357
1167.70674,0.03242
1166.21695,0.04432
1164.72716,0.06439
1163.23738,0.03525
1161.74759,0.04684
1160.25780,0.03248
1158.76801,0.03908
1157.27822,0.04571
1155.78843,0.04073
1154.29865,0.05515
1152.80886,0.11805
1151.31907,0.10733
1149.82928,0.11331
1148.33949,0.12396
1146.84970,0.11680
1145.35991,0.10967
1143.87013,0.13318
1142.38034,0.16215
1140.89055,0.14424
1139.40076,0.17441
1137.91097,0.18911
1136.42118,0.21701
1134.93140,0.21451
1133.44161,0.21204
1131.95182,0.22761
1130.46203,0.20988
1128.97224,0.20806
1127.48245,0.20704
1125.99266,0.19558
1124.50288,0.20468
1123.01309,0.22060
1121.52330,0.23654
1120.03351,0.22518
1118.54372,0.24214
1117.05393,0.22269
1115.56415,0.25171
1114.07436,0.24316
1112.58457,0.22786
1111.09478,0.21257
1109.60499,0.21767
1108.11520,0.24565
1106.62542,0.24149
1105.13563,0.26255
1103.64584,0.22317
1102.15605,0.21908
1100.66626,0.21250
1099.17647,0.20594
1097.68668,0.20968
1096.19690,0.22120
1094.70711,0.19476
1093.21732,0.17454
1091.72753,0.12916
1090.23774,0.14426
1088.74795,0.15939
1087.25817,0.18927
1085.76838,0.18585
1084.27859,0.17353
1082.78880,0.15698
1081.29901,0.16526
1079.80922,0.15922
1078.31943,0.16134
1076.82965,0.16349
1075.33986,0.17807
1073.85007,0.17833
1072.36028,0.19257
1070.87049,0.20335
1069.38070,0.21803
1067.89092,0.23428
1066.40113,0.25056
1064.91134,0.27849
1063.42155,0.33513
1061.93176,0.43210
1060.44197,0.51592
1058.95219,0.57457
1057.46240,0.61794
1055.97261,0.66133
1054.48282,0.82083
1052.99303,0.84082
1051.50324,0.84145
1050.01345,0.87661
1048.52367,0.87148
1047.03388,0.85378
1045.54409,0.83610
1044.05430,0.81554
1042.56451,0.80392
1041.07472,0.76092
1039.58494,0.69005
1038.09515,0.56803
1036.60536,0.54217
1035.11557,0.51633
1033.62578,0.46959
1032.13599,0.44303
1030.64620,0.34284
1029.15642,0.30160
1027.66663,0.27821
1026.17684,0.25485
1024.68705,0.20360
1023.19726,0.18339
1021.70747,0.14731
1020.21769,0.13955
1018.72790,0.13879
1017.23811,0.13573
1015.74832,0.13270
1014.25853,0.13318
1012.76874,0.10926
1011.27896,0.11677
1009.78917,0.10763
1008.29938,0.10046
1006.80959,0.07315
1005.31980,0.04587
1003.83001,0.02249
1002.34022,0.02278
1000.85044,0.02194
999.36065,0.00212
997.87086,0.02574
996.38107,0.04938
994.89128,0.07053
993.40149,0.06302
991.91171,0.07026
990.42192,0.08915
988.93213,0.09877
987.44234,0.10628
985.95255,0.11382
984.46276,0.09367
982.97297,0.10726
981.48319,0.09840
979.99340,0.06049
978.50361,0.05478
977.01382,0.04909
975.52403,0.04614
974.03424,0.03934
972.54446,0.02326
971.05467,0.01070
969.56488,0.02645
968.07509,0.02886
966.58530,0.03129
965.09551,0.04596
963.60573,0.02731
962.11594,0.00908
960.62615,0.00212
959.13636,0.01653
957.64657,0.03097
956.15678,0.02974
954.66699,0.02775
953.17721,0.04207
951.68742,0.03044
950.19763,0.04966
948.70784,0.06890
947.21805,0.07595
945.72826,0.09117
944.23848,0.11998
942.74869,0.11199
941.25890,0.16449
939.76911,0.16392
938.27932,0.16337
936.78953,0.17486
935.29974,0.18831
933.80996,0.18241
932.32017,0.21375
930.83038,0.22127
929.34059,0.22881
927.85080,0.24472
926.36101,0.26336
924.87123,0.26846
923.38144,0.34490
921.89165,0.36730
920.40186,0.38973
918.91207,0.44958
917.42228,0.57225
915.93250,0.72440
914.44271,0.87154
912.95292,0.99700
911.46313,1.12248
909.97334,1.38636
908.48355,1.51810
906.99376,1.69482
905.50398,1.82350
904.01419,1.87546
902.52440,1.92745
901.03461,2.00000
899.54482,1.99041
898.05503,1.88471
896.56525,1.66586
895.07546,1.52087
893.58567,1.37590
892.09588,1.12767
890.60609,0.90271
889.11630,0.69677
887.62651,0.51644
886.13673,0.43672
884.64694,0.35703
883.15715,0.27135
881.66736,0.20352
880.17757,0.14192
878.68778,0.11620
877.19800,0.09051
875.70821,0.05689
874.21842,0.05353
872.72863,0.03741
871.23884,0.00387
869.74905,0.00329
868.25927,0.00275
866.76948,0.00959
865.27969,0.01724
863.78990,0.01987
862.30011,0.01283
860.81032,0.02307
859.32053,0.03333
857.83075,0.04769
856.34096,0.07254
854.85117,0.06795
853.36138,0.06765
851.87159,0.07533
850.38180,0.08302
848.89202,0.10179
847.40223,0.11477
845.91244,0.12235
844.42265,0.13383
842.93286,0.14534
841.44307,0.17043
839.95329,0.18819
838.46350,0.17690
836.97371,0.17687
835.48392,0.18657
833.99413,0.19628
832.50434,0.19672
831.01455,0.19253
829.52477,0.17558
828.03498,0.16678
826.54519,0.15705
825.05540,0.14734
823.56561,0.10141
822.07582,0.11559
820.58604,0.09879
819.09625,0.08956
817.60646,0.08036
816.11667,0.06092
814.62688,0.08181
813.13709,0.09614
811.64730,0.09964
810.15752,0.10393
808.66773,0.10826
807.17794,0.05330
805.68815,0.07047
804.19836,0.07486
802.70857,0.07560
801.21879,0.07637
799.72900,0.08821
798.23921,0.08340
796.74942,0.06467
795.25963,0.07677
793.76984,0.08890
792.28006,0.09737
790.79027,0.09967
789.30048,0.13067
787.81069,0.15550
786.32090,0.15438
784.83111,0.15329
783.34132,0.20493
781.85154,0.21087
780.36175,0.23698
778.87196,0.25944
777.38217,0.28192
775.89238,0.30965
774.40259,0.30486
772.91281,0.29156
771.42302,0.28681
769.93323,0.28209
768.44344,0.25685
766.95365,0.21575
765.46386,0.17117
763.97407,0.15182
762.48429,0.15168
760.99450,0.15157
759.50471,0.10787
758.01492,0.08746
756.52513,0.08529
755.03534,0.08624
753.54556,0.08722
752.05577,0.07543
750.56598,0.05436
749.07619,0.03332
747.58640,0.02936
746.09661,0.02542
744.60683,0.01105
743.11704,0.00212
741.62725,0.01682
740.13746,0.01624
738.64767,0.01568
737.15788,0.00448
735.66809,0.00300
734.17831,0.00000
732.68852,0.00124
731.19873,0.00251
729.70894,0.01931
728.21915,0.02567
726.72936,0.00220
725.23958,0.00706
723.74979,0.01311
722.26000,0.01917
720.77021,0.02953
719.28042,0.00038
717.79063,0.00383
716.30084,0.01042
714.81106,0.01702
713.32127,0.04149
711.83148,0.01985
710.34169,0.00792
708.85190,0.01889
707.36211,0.02989
705.87233,0.04168
704.38254,0.04691
702.89275,0.04403
701.40296,0.04873
699.91317,0.05345
698.42338,0.09211
696.93360,0.07227
695.44381,0.10440
693.95402,0.10224
692.46423,0.10011
690.97444,0.13231
689.48465,0.15562
687.99486,0.14950
686.50508,0.18429
685.01529,0.21911
683.52550,0.21189
682.03571,0.21711
680.54592,0.23553
679.05613,0.24447
677.56635,0.25344
676.07656,0.26302
674.58677,0.25131
673.09698,0.24000
671.60719,0.22621
670.11740,0.21243
668.62761,0.15895
667.13783,0.11248
665.64804,0.11138
664.15825,0.11030
662.66846,0.09297
661.17867,0.08380
659.68888,0.06342
658.19910,0.05353
656.70931,0.04366
655.21952,0.05862
653.72973,0.05346
652.23994,0.07584
650.75015,0.06781
649.26037,0.05981
647.77058,0.05979
646.28079,0.06133
644.79100,0.04120
643.30121,0.04028
641.81142,0.03938
640.32163,0.03754
638.83185,0.01789
637.34206,0.01997
635.85227,0.01103
634.36248,0.00212
632.87269,0.03215
631.38290,0.01803
629.89312,0.02718
628.40333,0.02338
626.91354,0.01959
625.42375,0.03347
623.93396,0.03149
622.44417,0.01635
620.95438,0.00123
619.46460,0.02063
617.97481,0.03309
616.48502,0.04169
614.99523,0.05380
613.50544,0.06595
612.01565,0.08935
610.52587,0.12751
609.03608,0.14864
607.54629,0.16224
606.05650,0.17586
604.56671,0.25675
603.07692,0.30860
601.58714,0.33703
600.09735,0.36548
598.60756,0.36934
597.11777,0.36702
595.62798,0.39535
594.13819,0.38204
592.64840,0.36875
591.15862,0.33708
589.66883,0.30077
588.17904,0.25907
586.68925,0.22728
585.19946,0.19551
583.70967,0.14458
582.21989,0.11732
580.73010,0.10519
579.24031,0.09310
577.75052,0.07676
576.26073,0.09263
574.77094,0.05735
573.28115,0.04458
571.79137,0.03183
570.30158,0.05632
568.81179,0.07385
567.32200,0.07165
565.83221,0.06946
564.34242,0.07583
562.85264,0.07215
561.36285,0.08787
559.87306,0.10711
558.38327,0.12637
556.89348,0.13713
555.40369,0.14830
553.91391,0.14186
552.42412,0.13544
550.93433,0.11994
549.44454,0.12811
547.95475,0.12700
546.46496,0.14258
544.97517,0.15819
543.48539,0.16258
541.99560,0.16429
540.50581,0.19509
539.01602,0.22591
537.52623,0.27691
536.03644,0.32988
534.54666,0.36776
533.05687,0.39267
531.56708,0.41761
530.07729,0.47649
528.58750,0.51059
527.09771,0.52940
525.60792,0.54824
524.11814,0.59675
522.62835,0.61118
521.13856,0.66401
519.64877,0.69477
518.15898,0.72555
516.66919,0.75830
515.17941,0.74766
513.68962,0.77251
512.19983,0.79738
510.71004,0.77092
509.22025,0.73945
507.73046,0.61730
506.24068,0.56398
504.75089,0.51068
503.26110,0.43396
501.77131,0.36036
500.28152,0.29861
498.79173,0.23689
497.30194,0.18236
495.81216,0.17243
494.32237,0.14237
492.83258,0.11233
491.34279,0.10557
489.85300,0.06590
488.36321,0.06578
486.87343,0.05387
485.38364,0.04198
483.89385,0.05046
482.40406,0.05975
480.91427,0.07391
479.42448,0.08809
477.93469,0.10287
476.44491,0.09171
474.95512,0.10733
473.46533,0.12296
471.97554,0.16498
470.48575,0.15160
468.99596,0.15568
467.50618,0.14041
466.01639,0.12516
464.52660,0.09559
463.03681,0.06140
461.54702,0.06289
460.05723,0.06441
458.56745,0.04735
457.07766,0.01752
455.58787,0.01485
454.09808,0.01221
452.60829,0.02858
451.11850,0.01590
449.62871,0.02089
448.13893,0.02590
446.64914,0.04896
445.15935,0.00576
443.66956,0.01570
442.17977,0.01364
440.68998,0.01160
439.20020,0.01540
437.71041,0.03396
436.22062,0.02599
434.73083,0.01805
433.24104,0.02893
431.75125,0.02937
430.26146,0.04030
428.77168,0.05125
427.28189,0.05371
425.79210,0.06587
424.30231,0.03582
422.81252,0.00578
421.32273,0.05795
419.83295,0.00626
418.34316,0.00576
416.85337,0.00528
415.36358,0.00212
413.87379,0.02410
412.38400,0.02750
410.89422,0.03093
409.40443,0.04252
407.91464,0.04715
406.42485,0.05414
404.93506,0.03693
403.44527,0.01974
401.95548,0.05549
400.46570,0.01761
398.97591,0.04100
397.48612,0.06442
395.99633,0.05104
394.50654,0.00590
393.01675,0.01040
391.52697,0.01178
390.03718,0.01087
388.54739,0.02820
387.05760,0.03160
385.56781,0.03502
384.07802,0.04312
382.58824,0.05279
381.09845,0.04350
379.60866,0.03423
378.11887,0.00212
376.62908,0.03760
375.13929,0.05294
373.64950,0.06831
372.15972,0.05812
370.66993,0.04990
369.18014,0.03201
367.69035,0.01414
366.20056,0.03923
364.71077,0.06124
363.22099,0.05575
361.73120,0.05029
360.24141,0.06307
358.75162,0.07472
357.26183,0.06894
355.77204,0.06319
354.28225,0.03538
352.79247,0.04557
351.30268,0.04144
349.81289,0.03734
348.32310,0.07629
346.83331,0.09124
345.34352,0.09244
343.85374,0.09368
342.36395,0.05714
340.87416,0.05590
339.38437,0.04965
337.89458,0.04343
336.40479,0.02676
334.91501,0.06361
333.42522,0.04524
331.93543,0.02691
330.44564,0.04639
328.95585,0.03217
327.46606,0.05286
325.97627,0.07358
324.48649,0.04703
322.99670,0.05268
321.50691,0.06650
320.01712,0.08034
318.52733,0.05621
317.03754,0.10072
315.54776,0.09661
314.05797,0.09253
312.56818,0.07936
311.07839,0.07513
309.58860,0.07092
308.09881,0.06675
306.60902,0.03623
305.11924,0.05846
303.62945,0.03672
302.13966,0.01500
300.64987,0.00212
299.16008,0.00212
