1778.52000,0.01534
1777.03021,0.01426
1775.54042,0.01930
1774.05063,0.01280
1772.56085,0.01642
1771.07106,0.01270
1769.58127,0.01679
1768.09148,0.01732
1766.60169,0.00968
1765.11190,0.01131
1763.62212,0.01108
1762.13233,0.01234
1760.64254,0.00816
1759.15275,0.00526
1757.66296,0.01270
1756.17317,0.01111
1754.68339,0.00745
1753.19360,0.00254
1751.70381,0.00923
1750.21402,0.00753
1748.72423,0.00817
1747.23444,0.00000
1745.74465,0.00342
1744.25487,0.00308
1742.76508,0.01076
1741.27529,0.01025
1739.78550,0.00578
1738.29571,0.01437
1736.80592,0.00573
1735.31614,0.01079
1733.82635,0.01335
1732.33656,0.01720
1730.84677,0.01182
1729.35698,0.01572
1727.86719,0.00134
1726.37740,0.00465
1724.88762,0.01282
1723.39783,0.00798
1721.90804,0.01305
1720.41825,0.01057
1718.92846,0.00875
1717.43867,0.00526
1715.94889,0.01275
1714.45910,0.01037
1712.96931,0.01306
1711.47952,0.00842
1709.98973,0.00801
1708.49994,0.01266
1707.01016,0.01009
1705.52037,0.00754
1704.03058,0.00617
1702.54079,0.00798
1701.05100,0.00751
1699.56121,0.00390
1698.07142,0.01819
1696.58164,0.00390
1695.09185,0.00962
1693.60206,0.00526
1692.11227,0.00964
1690.62248,0.00963
1689.13269,0.01890
1687.64291,0.01978
1686.15312,0.00869
1684.66333,0.01193
1683.17354,0.02445
1681.68375,0.01954
1680.19396,0.02095
1678.70417,0.02282
1677.21439,0.04090
1675.72460,0.04471
1674.23481,0.03865
1672.74502,0.04608
1671.25523,0.04344
1669.76544,0.04082
1668.27566,0.05253
1666.78587,0.05606
1665.29608,0.05856
1663.80629,0.06676
1662.31650,0.07752
1660.82671,0.07714
1659.33693,0.08837
1657.84714,0.08005
1656.35735,0.07765
1654.86756,0.06791
1653.37777,0.07712
1651.88798,0.06596
1650.39819,0.06597
1648.90841,0.07147
1647.41862,0.07762
1645.92883,0.07665
1644.43904,0.07570
1642.94925,0.08067
1641.45946,0.07641
1639.96968,0.08689
1638.47989,0.08856
1636.99010,0.07596
1635.50031,0.06989
1634.01052,0.07416
1632.52073,0.07236
1631.03094,0.06763
1629.54116,0.07471
1628.05137,0.07760
1626.56158,0.08262
1625.07179,0.09587
1623.58200,0.08306
1622.09221,0.08352
1620.60243,0.08486
1619.11264,0.08958
1617.62285,0.08759
1616.13306,0.09867
1614.64327,0.08600
1613.15348,0.09145
1611.66370,0.07631
1610.17391,0.09380
1608.68412,0.09322
1607.19433,0.09918
1605.70454,0.09255
1604.21475,0.09047
1602.72496,0.08840
1601.23518,0.08395
1599.74539,0.08457
1598.25560,0.07869
1596.76581,0.09912
1595.27602,0.08046
1593.78623,0.09295
1592.29645,0.07854
1590.80666,0.07741
1589.31687,0.06684
1587.82708,0.07228
1586.33729,0.07921
1584.84750,0.07313
1583.35771,0.08326
1581.86793,0.07554
1580.37814,0.09477
1578.88835,0.08900
1577.39856,0.07609
1575.90877,0.06573
1574.41898,0.05709
1572.92920,0.05035
1571.43941,0.03986
1569.94962,0.04495
1568.45983,0.05007
1566.97004,0.04869
1565.48025,0.05155
1563.99047,0.04580
1562.50068,0.05901
1561.01089,0.03922
1559.52110,0.03396
1558.03131,0.04178
1556.54152,0.03994
1555.05173,0.04001
1553.56195,0.03570
1552.07216,0.03540
1550.58237,0.00526
1549.09258,0.00635
1547.60279,0.00893
1546.11300,0.02143
1544.62322,0.01627
1543.13343,0.02440
1541.64364,0.02140
1540.15385,0.01968
1538.66406,0.01799
1537.17427,0.00960
1535.68448,0.02536
1534.19470,0.02116
1532.70491,0.03086
1531.21512,0.01283
1529.72533,0.01648
1528.23554,0.03026
1526.74575,0.03018
1525.25597,0.01834
1523.76618,0.03156
1522.27639,0.04080
1520.78660,0.02588
1519.29681,0.05137
1517.80702,0.05459
1516.31724,0.06372
1514.82745,0.06109
1513.33766,0.06417
1511.84787,0.06728
1510.35808,0.06641
1508.86829,0.05294
1507.37850,0.04833
1505.88872,0.06352
1504.39893,0.07011
1502.90914,0.05864
1501.41935,0.06675
1499.92956,0.07404
1498.43977,0.08220
1496.94999,0.09374
1495.46020,0.10595
1493.97041,0.10513
1492.48062,0.12916
1490.99083,0.12713
1489.50104,0.12092
1488.01125,0.13440
1486.52147,0.14791
1485.03168,0.19372
1483.54189,0.19770
1482.05210,0.22905
1480.56231,0.25391
1479.07252,0.25586
1477.58274,0.25215
1476.09295,0.26236
1474.60316,0.28205
1473.11337,0.28872
1471.62358,0.29037
1470.13379,0.31813
1468.64401,0.30910
1467.15422,0.34132
1465.66443,0.34370
1464.17464,0.34610
1462.68485,0.38408
1461.19506,0.42775
1459.70527,0.49396
1458.21549,0.52654
1456.72570,0.56251
1455.23591,0.62753
1453.74612,0.68710
1452.25633,0.72966
1450.76654,0.76194
1449.27676,0.76437
1447.78697,0.76725
1446.29718,0.72913
1444.80739,0.70251
1443.31760,0.67590
1441.82781,0.64354
1440.33802,0.56681
1438.84824,0.55784
1437.35845,0.53712
1435.86866,0.52378
1434.37887,0.54560
1432.88908,0.59625
1431.39929,0.67722
1429.90951,0.76074
1428.41972,0.80600
1426.92993,0.84035
1425.44014,0.84779
1423.95035,0.88303
1422.46056,0.91829
1420.97078,0.94684
1419.48099,0.96238
1417.99120,0.97835
1416.50141,0.92684
1415.01162,0.89680
1413.52183,0.84638
1412.03204,0.79472
1410.54226,0.73384
1409.05247,0.69275
1407.56268,0.65315
1406.07289,0.58813
1404.58310,0.57309
1403.09331,0.55808
1401.60353,0.47104
1400.11374,0.42105
1398.62395,0.37971
1397.13416,0.31777
1395.64437,0.25397
1394.15458,0.21375
1392.66479,0.18492
1391.17501,0.17293
1389.68522,0.14772
1388.19543,0.11875
1386.70564,0.11073
1385.21585,0.10273
1383.72606,0.07699
1382.23628,0.05442
1380.74649,0.03630
1379.25670,0.03166
1377.76691,0.01926
1376.27712,0.01214
1374.78733,0.00526
1373.29755,0.00816
1371.80776,0.01066
1370.31797,0.02118
1368.82818,0.02552
1367.33839,0.02988
1365.84860,0.05120
1364.35881,0.04646
1362.86903,0.06320
1361.37924,0.07070
1359.88945,0.08749
1358.39966,0.09421
1356.90987,0.14954
1355.42008,0.18659
1353.93030,0.24155
1352.44051,0.27213
1350.95072,0.30273
1349.46093,0.38637
1347.97114,0.46898
1346.48135,0.54719
1344.99156,0.60692
1343.50178,0.66352
1342.01199,0.71257
1340.52220,0.77005
1339.03241,0.79075
1337.54262,0.81253
1336.05283,0.84474
1334.56305,0.87698
1333.07326,0.92134
1331.58347,0.89946
1330.09368,0.90305
1328.60389,0.88038
1327.11410,0.83712
1325.62432,0.79262
1324.13453,0.79000
1322.64474,0.76511
1321.15495,0.74171
1319.66516,0.69731
1318.17537,0.65293
1316.68558,0.62014
1315.19580,0.56803
1313.70601,0.53234
1312.21622,0.50846
1310.72643,0.47725
1309.23664,0.42817
1307.74685,0.40226
1306.25707,0.37658
1304.76728,0.36166
1303.27749,0.34676
1301.78770,0.29949
1300.29791,0.24761
1298.80812,0.22710
1297.31834,0.20389
1295.82855,0.18322
1294.33876,0.14700
1292.84897,0.11734
1291.35918,0.11083
1289.86939,0.10866
1288.37960,0.10652
1286.88982,0.09104
1285.40003,0.08632
1283.91024,0.07110
1282.42045,0.07189
1280.93066,0.06240
1279.44087,0.06008
1277.95109,0.04559
1276.46130,0.02692
1274.97151,0.03109
1273.48172,0.03528
1271.99193,0.04550
1270.50214,0.04144
1269.01235,0.04097
1267.52257,0.04158
1266.03278,0.03801
1264.54299,0.02984
1263.05320,0.02000
1261.56341,0.01524
1260.07362,0.01051
1258.58384,0.01126
1257.09405,0.00552
1255.60426,0.01895
1254.11447,0.00526
1252.62468,0.01030
1251.13489,0.01242
1249.64511,0.01919
1248.15532,0.02830
1246.66553,0.02292
1245.17574,0.01757
1243.68595,0.02675
1242.19616,0.03469
1240.70637,0.00858
1239.21659,0.01258
1237.72680,0.02943
1236.23701,0.01706
1234.74722,0.02113
1233.25743,0.02007
1231.76764,0.01903
1230.27786,0.02002
1228.78807,0.01429
1227.29828,0.02079
1225.80849,0.01112
1224.31870,0.00526
1222.82891,0.01561
1221.33912,0.03146
1219.84934,0.04743
1218.35955,0.06343
1216.86976,0.07199
1215.37997,0.07173
1213.89018,0.07571
1212.40039,0.07235
1210.91061,0.07700
1209.42082,0.07790
1207.93103,0.07745
1206.44124,0.07702
1204.95145,0.06789
1203.46166,0.06741
1201.97188,0.07010
1200.48209,0.05620
1198.99230,0.07241
1197.50251,0.04994
1196.01272,0.06030
1194.52293,0.05534
1193.03314,0.05040
1191.54336,0.05494
1190.05357,0.04816
1188.56378,0.03172
1187.07399,0.04012
1185.58420,0.02478
1184.09441,0.00526
1182.60463,0.01346
1181.11484,0.02168
1179.62505,0.01258
1178.13526,0.02495
1176.64547,0.03566
1175.15568,0.02600
1173.66589,0.01698
1172.17611,0.00526
1170.68632,0.01443
1169.19653,0.02361
1167.70674,0.01452
1166.21695,0.02881
1164.72716,0.03028
1163.23738,0.05597
1161.74759,0.04887
1160.25780,0.06410
1158.76801,0.06209
1157.27822,0.06011
1155.78843,0.06826
1154.29865,0.07810
1152.80886,0.11301
1151.31907,0.12122
1149.82928,0.14103
1148.33949,0.12657
1146.84970,0.13507
1145.35991,0.14359
1143.87013,0.13762
1142.38034,0.15418
1140.89055,0.17014
1139.40076,0.17665
1137.91097,0.20570
1136.42118,0.21773
1134.93140,0.22884
1133.44161,0.23997
1131.95182,0.24766
1130.46203,0.24821
1128.97224,0.23092
1127.48245,0.24225
1125.99266,0.24393
1124.50288,0.24312
1123.01309,0.24022
1121.52330,0.23734
1120.03351,0.26205
1118.54372,0.25460
1117.05393,0.24843
1115.56415,0.25743
1114.07436,0.26057
1112.58457,0.25511
1111.09478,0.24967
1109.60499,0.25330
1108.11520,0.26915
1106.62542,0.28040
1105.13563,0.26244
1103.64584,0.24766
1102.15605,0.23857
1100.66626,0.23372
1099.17647,0.22890
1097.68668,0.23504
1096.19690,0.23657
1094.70711,0.23771
1093.21732,0.22099
1091.72753,0.21165
1090.23774,0.22033
1088.74795,0.22903
1087.25817,0.20736
1085.76838,0.20717
1084.27859,0.21436
1082.78880,0.20601
1081.29901,0.22209
1079.80922,0.21905
1078.31943,0.22182
1076.82965,0.22461
1075.33986,0.25193
1073.85007,0.27150
1072.36028,0.26879
1070.87049,0.28588
1069.38070,0.33075
1067.89092,0.34358
1066.40113,0.35643
1064.91134,0.41358
1063.42155,0.49894
1061.93176,0.61629
1060.44197,0.68719
1058.95219,0.77830
1057.46240,0.83000
1055.97261,0.88172
1054.48282,0.99036
1052.99303,1.03613
1051.50324,1.02745
1050.01345,1.00197
1048.52367,0.96262
1047.03388,0.94844
1045.54409,0.93428
1044.05430,0.90216
1042.56451,0.84818
1041.07472,0.76920
1039.58494,0.71759
1038.09515,0.63445
1036.60536,0.58510
1035.11557,0.53577
1033.62578,0.49372
1032.13599,0.43360
1030.64620,0.36215
1029.15642,0.30714
1027.66663,0.28906
1026.17684,0.27100
1024.68705,0.23057
1023.19726,0.17376
1021.70747,0.16261
1020.21769,0.14791
1018.72790,0.14460
1017.23811,0.14173
1015.74832,0.13888
1014.25853,0.11314
1012.76874,0.10760
1011.27896,0.09789
1009.78917,0.08757
1008.29938,0.07180
1006.80959,0.05417
1005.31980,0.03655
1003.83001,0.04084
1002.34022,0.03190
1000.85044,0.02383
999.36065,0.03429
997.87086,0.04152
996.38107,0.04876
994.89128,0.09169
993.40149,0.11003
991.91171,0.11704
990.42192,0.14615
988.93213,0.14858
987.44234,0.15482
985.95255,0.16108
984.46276,0.16252
982.97297,0.14780
981.48319,0.12026
979.99340,0.09318
978.50361,0.08441
977.01382,0.07567
975.52403,0.05665
974.03424,0.03344
972.54446,0.03803
971.05467,0.01697
969.56488,0.00983
968.07509,0.02027
966.58530,0.03073
965.09551,0.01461
963.60573,0.01724
962.11594,0.00769
960.62615,0.02046
959.13636,0.01285
957.64657,0.00526
956.15678,0.02083
954.66699,0.02611
953.17721,0.02804
951.68742,0.03464
950.19763,0.03294
948.70784,0.03127
947.21805,0.06065
945.72826,0.08985
944.23848,0.09130
942.74869,0.11023
941.25890,0.11720
939.76911,0.12535
938.27932,0.13353
936.78953,0.15550
935.29974,0.16825
933.80996,0.18144
932.32017,0.18750
930.83038,0.20905
929.34059,0.23062
927.85080,0.23086
926.36101,0.25427
924.87123,0.27497
923.38144,0.34007
921.89165,0.36934
920.40186,0.39862
918.91207,0.49241
917.42228,0.56897
915.93250,0.72969
914.44271,0.93187
912.95292,1.04427
911.46313,1.15668
909.97334,1.41531
908.48355,1.56543
906.99376,1.75742
905.50398,1.85100
904.01419,1.89959
902.52440,1.94821
901.03461,2.00000
899.54482,1.96095
898.05503,1.81359
896.56525,1.61093
895.07546,1.46667
893.58567,1.32244
892.09588,1.03382
890.60609,0.83042
889.11630,0.64030
887.62651,0.46913
886.13673,0.39800
884.64694,0.32690
883.15715,0.24899
881.66736,0.18835
880.17757,0.14456
878.68778,0.12509
877.19800,0.10565
875.70821,0.07497
874.21842,0.04790
872.72863,0.04146
871.23884,0.05062
869.74905,0.03644
868.25927,0.02230
866.76948,0.01764
865.27969,0.03047
863.78990,0.04984
862.30011,0.06671
860.81032,0.06614
859.32053,0.06560
857.83075,0.08444
856.34096,0.09194
854.85117,0.10662
853.36138,0.13836
851.87159,0.14698
850.38180,0.15563
848.89202,0.17545
847.40223,0.20918
845.91244,0.21180
844.42265,0.21582
842.93286,0.21985
841.44307,0.22865
839.95329,0.27743
838.46350,0.29385
836.97371,0.27368
835.48392,0.28499
833.99413,0.29633
832.50434,0.30106
831.01455,0.27616
829.52477,0.24875
828.03498,0.22895
826.54519,0.21400
825.05540,0.19908
823.56561,0.17135
822.07582,0.17604
820.58604,0.14310
819.09625,0.15289
817.60646,0.16270
816.11667,0.15255
814.62688,0.14180
813.13709,0.16009
811.64730,0.15654
810.15752,0.15238
808.66773,0.14824
807.17794,0.14560
805.68815,0.14087
804.19836,0.14754
802.70857,0.15096
801.21879,0.15441
799.72900,0.17103
798.23921,0.14729
796.74942,0.14734
795.25963,0.14605
793.76984,0.14478
792.28006,0.16320
790.79027,0.17240
789.30048,0.19276
787.81069,0.24702
786.32090,0.25113
784.83111,0.25526
783.34132,0.28519
781.85154,0.35321
780.36175,0.39770
778.87196,0.41203
777.38217,0.42638
775.89238,0.45496
774.40259,0.46484
772.91281,0.43120
771.42302,0.42030
769.93323,0.40942
768.44344,0.36260
766.95365,0.29625
765.46386,0.23706
763.97407,0.19726
762.48429,0.19481
760.99450,0.19239
759.50471,0.17517
758.01492,0.14618
756.52513,0.11891
755.03534,0.12163
753.54556,0.12438
752.05577,0.11422
750.56598,0.07505
749.07619,0.05925
747.58640,0.05432
746.09661,0.04940
744.60683,0.04041
743.11704,0.02387
741.62725,0.02250
740.13746,0.02388
738.64767,0.02530
737.15788,0.01180
735.66809,0.00526
734.17831,0.00681
732.68852,0.00776
731.19873,0.00872
729.70894,0.01813
728.21915,0.01536
726.72936,0.01598
725.23958,0.00526
723.74979,0.00669
722.26000,0.00813
720.77021,0.00403
719.28042,0.01489
717.79063,0.00370
716.30084,0.01419
714.81106,0.02470
713.32127,0.01652
711.83148,0.02898
710.34169,0.03179
708.85190,0.02694
707.36211,0.02212
705.87233,0.02226
704.38254,0.03105
702.89275,0.05228
701.40296,0.04397
699.91317,0.03569
698.42338,0.06015
696.93360,0.06086
695.44381,0.08347
693.95402,0.09053
692.46423,0.09763
690.97444,0.13335
689.48465,0.15185
687.99486,0.18236
686.50508,0.19491
685.01529,0.20749
683.52550,0.21956
682.03571,0.22850
680.54592,0.26250
679.05613,0.25414
677.56635,0.24580
676.07656,0.24474
674.58677,0.24119
673.09698,0.22987
671.60719,0.21679
670.11740,0.20373
668.62761,0.16010
667.13783,0.13520
665.64804,0.11885
664.15825,0.10253
662.66846,0.09117
661.17867,0.05817
659.68888,0.04518
658.19910,0.04599
656.70931,0.04682
655.21952,0.04379
653.72973,0.04730
652.23994,0.04726
650.75015,0.04303
649.26037,0.03883
647.77058,0.04875
646.28079,0.05386
644.79100,0.05120
643.30121,0.05109
641.81142,0.05101
640.32163,0.03265
638.83185,0.00885
637.34206,0.00526
635.85227,0.00794
634.36248,0.01063
632.87269,0.00736
631.38290,0.02389
629.89312,0.01435
628.40333,0.01241
626.91354,0.01050
625.42375,0.01681
623.93396,0.00801
622.44417,0.00806
620.95438,0.00813
619.46460,0.01433
617.97481,0.02076
616.48502,0.07245
614.99523,0.07756
613.50544,0.08270
612.01565,0.09533
610.52587,0.12250
609.03608,0.15074
607.54629,0.17544
606.05650,0.20015
604.56671,0.26255
603.07692,0.31129
601.58714,0.33093
600.09735,0.35059
598.60756,0.38215
597.11777,0.40575
595.62798,0.42328
594.13819,0.40180
592.64840,0.38036
591.15862,0.35062
589.66883,0.32912
588.17904,0.26283
586.68925,0.22896
585.19946,0.19512
583.70967,0.12743
582.21989,0.10163
580.73010,0.08658
579.24031,0.07156
577.75052,0.05845
576.26073,0.05546
574.77094,0.04450
573.28115,0.04829
571.79137,0.05211
570.30158,0.05258
568.81179,0.05287
567.32200,0.06706
565.83221,0.08128
564.34242,0.09195
562.85264,0.10306
561.36285,0.12009
559.87306,0.14071
558.38327,0.16136
556.89348,0.17257
555.40369,0.19495
553.91391,0.19821
552.42412,0.20150
550.93433,0.17915
549.44454,0.17807
547.95475,0.17596
546.46496,0.17955
544.97517,0.18317
543.48539,0.20238
541.99560,0.22897
540.50581,0.24034
539.01602,0.25173
537.52623,0.32593
536.03644,0.37156
534.54666,0.40773
533.05687,0.43153
531.56708,0.45535
530.07729,0.50885
528.58750,0.55017
527.09771,0.56733
525.60792,0.58451
524.11814,0.64737
522.62835,0.72181
521.13856,0.75190
519.64877,0.76865
518.15898,0.78543
516.66919,0.82064
515.17941,0.82747
513.68962,0.83727
512.19983,0.84710
510.71004,0.83592
509.22025,0.81214
507.73046,0.69730
506.24068,0.62645
504.75089,0.55562
503.26110,0.46463
501.77131,0.39070
500.28152,0.34792
498.79173,0.30517
497.30194,0.20711
495.81216,0.15600
494.32237,0.14003
492.83258,0.12409
491.34279,0.12457
489.85300,0.08575
488.36321,0.06420
486.87343,0.06255
485.38364,0.06093
483.89385,0.05838
482.40406,0.07500
480.91427,0.09175
479.42448,0.10853
477.93469,0.12543
476.44491,0.15245
474.95512,0.16930
473.46533,0.18616
471.97554,0.21663
470.48575,0.20525
468.99596,0.21073
467.50618,0.19404
466.01639,0.17737
464.52660,0.11961
463.03681,0.11319
461.54702,0.09807
460.05723,0.08297
458.56745,0.05328
457.07766,0.02025
455.58787,0.02184
454.09808,0.02346
452.60829,0.02226
451.11850,0.00888
449.62871,0.01152
448.13893,0.01418
446.64914,0.03853
445.15935,0.01852
443.66956,0.00526
442.17977,0.00777
440.68998,0.01031
439.20020,0.00529
437.71041,0.03249
436.22062,0.02048
434.73083,0.00849
433.24104,0.03786
431.75125,0.04096
430.26146,0.03851
428.77168,0.03608
427.28189,0.05840
425.79210,0.05991
424.30231,0.05251
422.81252,0.04513
421.32273,0.03767
419.83295,0.01951
418.34316,0.01851
416.85337,0.01754
415.36358,0.01460
413.87379,0.03628
412.38400,0.03454
410.89422,0.03283
409.40443,0.03734
407.91464,0.03578
406.42485,0.04665
404.93506,0.04440
403.44527,0.04217
401.95548,0.02325
400.46570,0.02159
398.97591,0.02954
397.48612,0.03750
395.99633,0.04097
394.50654,0.03773
393.01675,0.03220
391.52697,0.02670
390.03718,0.01701
388.54739,0.01370
387.05760,0.00947
385.56781,0.00526
384.07802,0.02251
382.58824,0.04063
381.09845,0.02964
379.60866,0.01867
378.11887,0.01604
376.62908,0.00312
375.13929,0.00968
373.64950,0.01627
372.15972,0.01731
370.66993,0.02741
369.18014,0.02710
367.69035,0.02682
366.20056,0.02530
364.71077,0.04168
363.22099,0.04168
361.73120,0.04170
360.24141,0.08172
358.75162,0.08074
357.26183,0.07673
355.77204,0.07275
354.28225,0.04533
352.79247,0.05854
351.30268,0.05001
349.81289,0.04149
348.32310,0.07307
346.83331,0.08175
345.34352,0.08015
343.85374,0.07857
342.36395,0.04567
340.87416,0.04119
339.38437,0.05462
337.89458,0.06807
336.40479,0.04200
334.91501,0.06328
333.42522,0.05177
331.93543,0.04028
330.44564,0.00526
328.95585,0.01015
327.46606,0.02768
325.97627,0.04523
324.48649,0.05182
322.99670,0.04182
321.50691,0.05761
320.01712,0.07342
318.52733,0.09504
317.03754,0.09481
315.54776,0.09660
314.05797,0.09841
312.56818,0.09973
311.07839,0.08129
309.58860,0.06530
308.09881,0.04933
306.60902,0.04990
305.11924,0.07111
303.62945,0.04333
302.13966,0.01557
300.64987,0.00526
299.16008,0.00526
