1778.52000,0.02128
1777.03021,0.01274
1775.54042,0.01884
1774.05063,0.01728
1772.56085,0.01439
1771.07106,0.00999
1769.58127,0.01695
1768.09148,0.00837
1766.60169,0.00365
1765.11190,0.00992
1763.62212,0.00756
1762.13233,0.01311
1760.64254,0.00657
1759.15275,0.01255
1757.66296,0.01355
1756.17317,0.01170
1754.68339,0.00775
1753.19360,0.00248
1751.70381,0.01069
1750.21402,0.01278
1748.72423,0.00739
1747.23444,0.00568
1745.74465,0.00726
1744.25487,0.00617
1742.76508,0.00491
1741.27529,0.01598
1739.78550,0.01285
1738.29571,0.00590
1736.80592,0.01435
1735.31614,0.00706
1733.82635,0.01808
1732.33656,0.00529
1730.84677,0.00828
1729.35698,0.00996
1727.86719,0.01069
1726.37740,0.00626
1724.88762,0.00570
1723.39783,0.00631
1721.90804,0.00926
1720.41825,0.00857
1718.92846,0.00657
1717.43867,0.00817
1715.94889,0.01018
1714.45910,0.00971
1712.96931,0.01177
1711.47952,0.00789
1709.98973,0.00635
1708.49994,0.00809
1707.01016,0.01447
1705.52037,0.02088
1704.03058,0.01539
1702.54079,0.01127
1701.05100,0.02371
1699.56121,0.02156
1698.07142,0.02578
1696.58164,0.00657
1695.09185,0.01512
1693.60206,0.02216
1692.11227,0.01788
1690.62248,0.01939
1689.13269,0.01804
1687.64291,0.02498
1686.15312,0.02041
1684.66333,0.02779
1683.17354,0.03173
1681.68375,0.03434
1680.19396,0.04044
1678.70417,0.05041
1677.21439,0.05099
1675.72460,0.04447
1674.23481,0.04682
1672.74502,0.05881
1671.25523,0.06428
1669.76544,0.06920
1668.27566,0.06127
1666.78587,0.06739
1665.29608,0.08315
1663.80629,0.07701
1662.31650,0.07321
1660.82671,0.08347
1659.33693,0.07798
1657.84714,0.08309
1656.35735,0.08727
1654.86756,0.08262
1653.37777,0.08973
1651.88798,0.09033
1650.39819,0.08748
1648.90841,0.10120
1647.41862,0.08629
1645.92883,0.07717
1644.43904,0.06808
1642.94925,0.08555
1641.45946,0.07189
1639.96968,0.08901
1638.47989,0.09078
1636.99010,0.08950
1635.50031,0.08690
1634.01052,0.08547
1632.52073,0.08349
1631.03094,0.07577
1629.54116,0.09691
1628.05137,0.09500
1626.56158,0.10330
1625.07179,0.11298
1623.58200,0.09115
1622.09221,0.08645
1620.60243,0.09293
1619.11264,0.09828
1617.62285,0.09058
1616.13306,0.08905
1614.64327,0.08101
1613.15348,0.08607
1611.66370,0.09923
1610.17391,0.10453
1608.68412,0.10486
1607.19433,0.10078
1605.70454,0.09270
1604.21475,0.08588
1602.72496,0.07909
1601.23518,0.07415
1599.74539,0.09116
1598.25560,0.09645
1596.76581,0.09101
1595.27602,0.09078
1593.78623,0.07981
1592.29645,0.07963
1590.80666,0.07466
1589.31687,0.06511
1587.82708,0.07615
1586.33729,0.09144
1584.84750,0.09580
1583.35771,0.08788
1581.86793,0.08114
1580.37814,0.07596
1578.88835,0.08118
1577.39856,0.08258
1575.90877,0.06901
1574.41898,0.06566
1572.92920,0.06252
1571.43941,0.05171
1569.94962,0.04554
1568.45983,0.03940
1566.97004,0.04366
1565.48025,0.04545
1563.99047,0.04745
1562.50068,0.03698
1561.01089,0.03076
1559.52110,0.02918
1558.03131,0.03263
1556.54152,0.03590
1555.05173,0.03709
1553.56195,0.01714
1552.07216,0.02741
1550.58237,0.01194
1549.09258,0.01880
1547.60279,0.00645
1546.11300,0.00797
1544.62322,0.00221
1543.13343,0.01127
1541.64364,0.00440
1540.15385,0.00871
1538.66406,0.01304
1537.17427,0.01528
1535.68448,0.01659
1534.19470,0.00657
1532.70491,0.01271
1531.21512,0.01753
1529.72533,0.01892
1528.23554,0.01533
1526.74575,0.00753
1525.25597,0.00937
1523.76618,0.02354
1522.27639,0.04408
1520.78660,0.03407
1519.29681,0.04197
1517.80702,0.04393
1516.31724,0.04514
1514.82745,0.04869
1513.33766,0.04572
1511.84787,0.04278
1510.35808,0.04620
1508.86829,0.04388
1507.37850,0.05293
1505.88872,0.04970
1504.39893,0.05630
1502.90914,0.05542
1501.41935,0.06572
1499.92956,0.06546
1498.43977,0.07331
1496.94999,0.08637
1495.46020,0.09388
1493.97041,0.08834
1492.48062,0.09397
1490.99083,0.11194
1489.50104,0.12608
1488.01125,0.13102
1486.52147,0.13598
1485.03168,0.14942
1483.54189,0.17750
1482.05210,0.18446
1480.56231,0.18125
1479.07252,0.19613
1477.58274,0.19758
1476.09295,0.20156
1474.60316,0.22171
1473.11337,0.22592
1471.62358,0.24727
1470.13379,0.26307
1468.64401,0.27870
1467.15422,0.29531
1465.66443,0.29945
1464.17464,0.30362
1462.68485,0.34626
1461.19506,0.37220
1459.70527,0.41335
1458.21549,0.44703
1456.72570,0.51130
1455.23591,0.55849
1453.74612,0.62896
1452.25633,0.67273
1450.76654,0.67942
1449.27676,0.67440
1447.78697,0.68248
1446.29718,0.64906
1444.80739,0.63229
1443.31760,0.61554
1441.82781,0.57738
1440.33802,0.54732
1438.84824,0.50613
1437.35845,0.48131
1435.86866,0.48305
1434.37887,0.52999
1432.88908,0.55503
1431.39929,0.62048
1429.90951,0.64173
1428.41972,0.72664
1426.92993,0.73256
1425.44014,0.76292
1423.95035,0.79426
1422.46056,0.82563
1420.97078,0.87605
1419.48099,0.90823
1417.99120,0.89526
1416.50141,0.85424
1415.01162,0.80786
1413.52183,0.77303
1412.03204,0.74170
1410.54226,0.72249
1409.05247,0.67544
1407.56268,0.63206
1406.07289,0.54199
1404.58310,0.51529
1403.09331,0.48861
1401.60353,0.43379
1400.11374,0.37188
1398.62395,0.34768
1397.13416,0.28774
1395.64437,0.24302
1394.15458,0.19831
1392.66479,0.15671
1391.17501,0.14455
1389.68522,0.11646
1388.19543,0.09185
1386.70564,0.08389
1385.21585,0.07596
1383.72606,0.05219
1382.23628,0.03709
1380.74649,0.02568
1379.25670,0.01217
1377.76691,0.00657
1376.27712,0.00817
1374.78733,0.01134
1373.29755,0.01568
1371.80776,0.00832
1370.31797,0.01175
1368.82818,0.00915
1367.33839,0.00657
1365.84860,0.01747
1364.35881,0.03859
1362.86903,0.04609
1361.37924,0.04610
1359.88945,0.06037
1358.39966,0.10178
1356.90987,0.11975
1355.42008,0.17120
1353.93030,0.20979
1352.44051,0.25350
1350.95072,0.29723
1349.46093,0.37838
1347.97114,0.44687
1346.48135,0.52788
1344.99156,0.58353
1343.50178,0.61595
1342.01199,0.66203
1340.52220,0.73525
1339.03241,0.77831
1337.54262,0.81678
1336.05283,0.83509
1334.56305,0.85342
1333.07326,0.88946
1331.58347,0.87880
1330.09368,0.90970
1328.60389,0.86141
1327.11410,0.84006
1325.62432,0.78374
1324.13453,0.78147
1322.64474,0.74769
1321.15495,0.68356
1319.66516,0.66069
1318.17537,0.63785
1316.68558,0.60359
1315.19580,0.58070
1313.70601,0.51996
1312.21622,0.49539
1310.72643,0.44853
1309.23664,0.42478
1307.74685,0.39508
1306.25707,0.35099
1304.76728,0.32673
1303.27749,0.30250
1301.78770,0.27617
1300.29791,0.23294
1298.80812,0.23589
1297.31834,0.18002
1295.82855,0.15033
1294.33876,0.10316
1292.84897,0.09735
1291.35918,0.08696
1289.86939,0.09389
1288.37960,0.10085
1286.88982,0.08572
1285.40003,0.08099
1283.91024,0.05591
1282.42045,0.05392
1280.93066,0.04946
1279.44087,0.04695
1277.95109,0.05023
1276.46130,0.05065
1274.97151,0.04455
1273.48172,0.03848
1271.99193,0.02570
1270.50214,0.03160
1269.01235,0.02098
1267.52257,0.01981
1266.03278,0.02867
1264.54299,0.01966
1263.05320,0.01837
1261.56341,0.01749
1260.07362,0.01663
1258.58384,0.00657
1257.09405,0.01115
1255.60426,0.02287
1254.11447,0.01096
1252.62468,0.00831
1251.13489,0.01141
1249.64511,0.01511
1248.15532,0.01865
1246.66553,0.01701
1245.17574,0.01540
1243.68595,0.01440
1242.19616,0.00861
1240.70637,0.01110
1239.21659,0.02574
1237.72680,0.01368
1236.23701,0.01663
1234.74722,0.02077
1233.25743,0.02069
1231.76764,0.02065
1230.27786,0.03504
1228.78807,0.02947
1227.29828,0.03045
1225.80849,0.02184
1224.31870,0.00634
1222.82891,0.00657
1221.33912,0.03334
1219.84934,0.03168
1218.35955,0.03005
1216.86976,0.03383
1215.37997,0.04743
1213.89018,0.05067
1212.40039,0.07471
1210.91061,0.05723
1209.42082,0.06267
1207.93103,0.06379
1206.44124,0.06495
1204.95145,0.05622
1203.46166,0.04810
1201.97188,0.05153
1200.48209,0.04154
1198.99230,0.04713
1197.50251,0.03353
1196.01272,0.03552
1194.52293,0.03591
1193.03314,0.03631
1191.54336,0.02723
1190.05357,0.02355
1188.56378,0.01931
1187.07399,0.02164
1185.58420,0.01804
1184.09441,0.01676
1182.60463,0.01656
1181.11484,0.01639
1179.62505,0.01442
1178.13526,0.01477
1176.64547,0.01592
1175.15568,0.01691
1173.66589,0.00657
1172.17611,0.00843
1170.68632,0.01272
1169.19653,0.01704
1167.70674,0.01398
1166.21695,0.02132
1164.72716,0.02484
1163.23738,0.04012
1161.74759,0.04003
1160.25780,0.06709
1158.76801,0.07109
1157.27822,0.07511
1155.78843,0.07436
1154.29865,0.08708
1152.80886,0.08503
1151.31907,0.09703
1149.82928,0.11252
1148.33949,0.14053
1146.84970,0.14405
1145.35991,0.14760
1143.87013,0.16222
1142.38034,0.15053
1140.89055,0.17154
1139.40076,0.17259
1137.91097,0.18211
1136.42118,0.19609
1134.93140,0.20634
1133.44161,0.21661
1131.95182,0.23854
1130.46203,0.26049
1128.97224,0.26247
1127.48245,0.25025
1125.99266,0.25420
1124.50288,0.24913
1123.01309,0.25505
1121.52330,0.26100
1120.03351,0.26216
1118.54372,0.24854
1117.05393,0.24629
1115.56415,0.25464
1114.07436,0.27455
1112.58457,0.26554
1111.09478,0.25656
1109.60499,0.27366
1108.11520,0.28097
1106.62542,0.25831
1105.13563,0.25645
1103.64584,0.25249
1102.15605,0.24029
1100.66626,0.23801
1099.17647,0.23576
1097.68668,0.21267
1096.19690,0.20710
1094.70711,0.22347
1093.21732,0.19699
1091.72753,0.18553
1090.23774,0.18727
1088.74795,0.18903
1087.25817,0.19418
1085.76838,0.18435
1084.27859,0.18839
1082.78880,0.19554
1081.29901,0.19847
1079.80922,0.20297
1078.31943,0.20778
1076.82965,0.21262
1075.33986,0.22891
1073.85007,0.24062
1072.36028,0.24351
1070.87049,0.25603
1069.38070,0.25955
1067.89092,0.27664
1066.40113,0.29375
1064.91134,0.36098
1063.42155,0.46860
1061.93176,0.53529
1060.44197,0.61605
1058.95219,0.69433
1057.46240,0.72956
1055.97261,0.76482
1054.48282,0.84106
1052.99303,0.85021
1051.50324,0.88958
1050.01345,0.91705
1048.52367,0.89879
1047.03388,0.89708
1045.54409,0.89540
1044.05430,0.85164
1042.56451,0.80540
1041.07472,0.73765
1039.58494,0.62916
1038.09515,0.58492
1036.60536,0.54252
1035.11557,0.50015
1033.62578,0.46847
1032.13599,0.42278
1030.64620,0.38193
1029.15642,0.31802
1027.66663,0.29346
1026.17684,0.26892
1024.68705,0.24142
1023.19726,0.19972
1021.70747,0.16689
1020.21769,0.17350
1018.72790,0.13995
1017.23811,0.13805
1015.74832,0.13617
1014.25853,0.11980
1012.76874,0.12153
1011.27896,0.11886
1009.78917,0.08968
1008.29938,0.07725
1006.80959,0.06840
1005.31980,0.05958
1003.83001,0.05472
1002.34022,0.03969
1000.85044,0.04603
999.36065,0.04663
997.87086,0.05946
996.38107,0.07231
994.89128,0.07875
993.40149,0.08482
991.91171,0.09535
990.42192,0.11089
988.93213,0.09877
987.44234,0.10437
985.95255,0.10998
984.46276,0.11774
982.97297,0.09130
981.48319,0.08045
979.99340,0.08040
978.50361,0.07595
977.01382,0.07152
975.52403,0.06288
974.03424,0.04139
972.54446,0.03280
971.05467,0.02020
969.56488,0.02320
968.07509,0.02170
966.58530,0.02023
965.09551,0.00657
963.60573,0.02228
962.11594,0.01437
960.62615,0.02494
959.13636,0.02438
957.64657,0.02384
956.15678,0.01814
954.66699,0.02496
953.17721,0.03680
951.68742,0.04905
950.19763,0.05132
948.70784,0.05362
947.21805,0.07402
945.72826,0.09213
944.23848,0.10027
942.74869,0.10998
941.25890,0.11739
939.76911,0.12887
938.27932,0.14038
936.78953,0.14998
935.29974,0.16307
933.80996,0.18733
932.32017,0.21431
930.83038,0.22219
929.34059,0.23009
927.85080,0.24387
926.36101,0.25191
924.87123,0.28132
923.38144,0.34478
921.89165,0.37991
920.40186,0.41506
918.91207,0.49897
917.42228,0.58695
915.93250,0.72936
914.44271,0.92370
912.95292,1.01934
911.46313,1.11501
909.97334,1.32539
908.48355,1.56366
906.99376,1.74083
905.50398,1.88456
904.01419,1.93429
902.52440,1.98405
901.03461,2.00000
899.54482,1.99001
898.05503,1.82220
896.56525,1.55078
895.07546,1.44223
893.58567,1.33371
892.09588,1.09024
890.60609,0.86179
889.11630,0.63490
887.62651,0.46783
886.13673,0.40490
884.64694,0.34199
883.15715,0.24036
881.66736,0.17490
880.17757,0.11216
878.68778,0.09818
877.19800,0.08423
875.70821,0.03463
874.21842,0.02851
872.72863,0.01511
871.23884,0.02288
869.74905,0.01933
868.25927,0.01581
866.76948,0.02596
865.27969,0.02633
863.78990,0.01941
862.30011,0.03636
860.81032,0.04372
859.32053,0.05111
857.83075,0.05294
856.34096,0.08902
854.85117,0.08764
853.36138,0.09569
851.87159,0.10060
850.38180,0.10554
848.89202,0.11482
847.40223,0.13335
845.91244,0.14499
844.42265,0.15829
842.93286,0.17161
841.44307,0.17063
839.95329,0.18544
838.46350,0.19373
836.97371,0.21474
835.48392,0.21693
833.99413,0.21915
832.50434,0.22793
831.01455,0.21096
829.52477,0.20344
828.03498,0.15327
826.54519,0.14791
825.05540,0.14258
823.56561,0.12035
822.07582,0.11680
820.58604,0.10346
819.09625,0.10082
817.60646,0.09820
816.11667,0.08167
814.62688,0.08939
813.13709,0.10271
811.64730,0.10432
810.15752,0.09211
808.66773,0.07993
807.17794,0.08988
805.68815,0.11408
804.19836,0.12447
802.70857,0.13093
801.21879,0.13742
799.72900,0.10923
798.23921,0.09587
796.74942,0.07926
795.25963,0.09190
793.76984,0.10457
792.28006,0.12533
790.79027,0.13939
789.30048,0.15194
787.81069,0.16547
786.32090,0.17700
784.83111,0.18856
783.34132,0.21101
781.85154,0.24117
780.36175,0.28558
778.87196,0.30464
777.38217,0.32372
775.89238,0.35301
774.40259,0.36041
772.91281,0.34957
771.42302,0.33789
769.93323,0.32623
768.44344,0.28970
766.95365,0.24069
765.46386,0.21171
763.97407,0.18024
762.48429,0.17812
760.99450,0.17603
759.50471,0.12503
758.01492,0.10866
756.52513,0.08347
755.03534,0.07964
753.54556,0.07584
752.05577,0.06341
750.56598,0.05370
749.07619,0.05054
747.58640,0.04405
746.09661,0.03758
744.60683,0.01604
743.11704,0.02317
741.62725,0.02591
740.13746,0.02117
738.64767,0.01645
737.15788,0.00657
735.66809,0.00767
734.17831,0.02418
732.68852,0.02302
731.19873,0.02188
729.70894,0.01789
728.21915,0.00680
726.72936,0.01605
725.23958,0.02435
723.74979,0.02028
722.26000,0.01624
720.77021,0.01250
719.28042,0.00475
717.79063,0.01395
716.30084,0.02000
714.81106,0.02608
713.32127,0.01458
711.83148,0.02753
710.34169,0.02493
708.85190,0.03273
707.36211,0.04056
705.87233,0.04342
704.38254,0.03745
702.89275,0.02766
701.40296,0.03616
699.91317,0.04469
698.42338,0.06131
696.93360,0.08123
695.44381,0.10174
693.95402,0.10575
692.46423,0.10978
690.97444,0.12921
689.48465,0.14386
687.99486,0.17065
686.50508,0.18910
685.01529,0.20757
683.52550,0.23040
682.03571,0.23671
680.54592,0.23478
679.05613,0.23816
677.56635,0.24156
676.07656,0.24547
674.58677,0.23286
673.09698,0.23259
671.60719,0.22032
670.11740,0.20808
668.62761,0.16288
667.13783,0.15828
665.64804,0.14092
664.15825,0.12358
662.66846,0.10329
661.17867,0.07379
659.68888,0.07161
658.19910,0.06427
656.70931,0.05695
655.21952,0.04331
653.72973,0.03777
652.23994,0.04533
650.75015,0.05301
649.26037,0.06071
647.77058,0.03604
646.28079,0.04043
644.79100,0.01888
643.30121,0.02120
641.81142,0.02354
640.32163,0.03109
638.83185,0.01695
637.34206,0.02167
635.85227,0.02295
634.36248,0.02426
632.87269,0.01079
631.38290,0.00657
629.89312,0.02300
628.40333,0.02427
626.91354,0.02556
625.42375,0.01265
623.93396,0.01284
622.44417,0.01373
620.95438,0.01463
619.46460,0.01893
617.97481,0.03440
616.48502,0.06893
614.99523,0.07763
613.50544,0.08634
612.01565,0.12191
610.52587,0.15826
609.03608,0.17445
607.54629,0.19894
606.05650,0.22344
604.56671,0.28239
603.07692,0.34194
601.58714,0.35873
600.09735,0.37555
598.60756,0.38960
597.11777,0.42982
595.62798,0.43046
594.13819,0.42161
592.64840,0.41278
591.15862,0.38119
589.66883,0.31983
588.17904,0.26752
586.68925,0.23024
585.19946,0.19298
583.70967,0.16074
582.21989,0.13718
580.73010,0.11912
579.24031,0.10108
577.75052,0.09124
576.26073,0.06701
574.77094,0.05145
573.28115,0.04322
571.79137,0.03501
570.30158,0.04125
568.81179,0.07520
567.32200,0.07264
565.83221,0.07011
564.34242,0.11912
562.85264,0.11356
561.36285,0.12667
559.87306,0.13086
558.38327,0.13508
556.89348,0.15884
555.40369,0.15512
553.91391,0.15365
552.42412,0.15219
550.93433,0.17104
549.44454,0.17742
547.95475,0.18114
546.46496,0.18651
544.97517,0.19190
543.48539,0.19318
541.99560,0.22910
540.50581,0.26975
539.01602,0.31043
537.52623,0.33334
536.03644,0.36820
534.54666,0.40635
533.05687,0.42280
531.56708,0.43927
530.07729,0.48422
528.58750,0.52343
527.09771,0.55045
525.60792,0.57749
524.11814,0.63331
522.62835,0.72029
521.13856,0.78538
519.64877,0.81099
518.15898,0.83661
516.66919,0.87236
515.17941,0.87179
513.68962,0.85692
512.19983,0.84207
510.71004,0.78966
509.22025,0.76535
507.73046,0.67030
506.24068,0.60730
504.75089,0.54431
503.26110,0.47049
501.77131,0.37515
500.28152,0.32503
498.79173,0.27492
497.30194,0.21254
495.81216,0.17132
494.32237,0.15542
492.83258,0.13954
491.34279,0.08936
489.85300,0.06786
488.36321,0.06003
486.87343,0.05607
485.38364,0.05213
483.89385,0.07590
482.40406,0.09009
480.91427,0.10141
479.42448,0.11276
477.93469,0.11221
476.44491,0.12668
474.95512,0.14262
473.46533,0.15858
471.97554,0.17004
470.48575,0.18057
468.99596,0.16229
467.50618,0.15748
466.01639,0.15270
464.52660,0.11334
463.03681,0.06669
461.54702,0.06640
460.05723,0.06614
458.56745,0.02783
457.07766,0.01262
455.58787,0.01954
454.09808,0.02649
452.60829,0.03384
451.11850,0.00969
449.62871,0.01786
448.13893,0.02606
446.64914,0.01025
445.15935,0.00657
443.66956,0.02472
442.17977,0.01886
440.68998,0.01303
439.20020,0.01087
437.71041,0.02239
436.22062,0.03287
434.73083,0.04338
433.24104,0.04786
431.75125,0.04543
430.26146,0.04294
428.77168,0.04047
427.28189,0.06600
425.79210,0.04156
424.30231,0.04695
422.81252,0.05236
421.32273,0.05068
419.83295,0.02307
418.34316,0.01481
416.85337,0.00657
415.36358,0.01114
413.87379,0.02074
412.38400,0.02920
410.89422,0.03769
409.40443,0.05216
407.91464,0.07454
406.42485,0.05600
404.93506,0.04632
403.44527,0.03666
401.95548,0.04298
400.46570,0.04260
398.97591,0.03965
397.48612,0.03673
395.99633,0.02680
394.50654,0.00556
393.01675,0.00847
391.52697,0.00657
390.03718,0.02458
388.54739,0.03511
387.05760,0.02577
385.56781,0.01646
384.07802,0.01130
382.58824,0.00424
381.09845,0.00211
379.60866,0.00000
378.11887,0.01685
376.62908,0.00508
375.13929,0.00717
373.64950,0.00929
372.15972,0.00374
370.66993,0.01475
369.18014,0.01297
367.69035,0.01121
366.20056,0.03025
364.71077,0.02412
363.22099,0.02926
361.73120,0.03443
360.24141,0.03952
358.75162,0.04714
357.26183,0.04161
355.77204,0.03610
354.28225,0.03245
352.79247,0.02017
351.30268,0.03473
349.81289,0.04932
348.32310,0.08940
346.83331,0.07952
345.34352,0.06120
343.85374,0.04291
342.36395,0.05329
340.87416,0.02447
339.38437,0.01551
337.89458,0.00657
336.40479,0.00966
334.91501,0.01086
333.42522,0.01102
331.93543,0.01121
330.44564,0.04613
328.95585,0.03531
327.46606,0.03864
325.97627,0.04200
324.48649,0.04317
322.99670,0.03572
321.50691,0.03876
320.01712,0.04183
318.52733,0.05560
317.03754,0.04093
315.54776,0.03359
314.05797,0.02628
312.56818,0.02303
311.07839,0.04672
309.58860,0.03621
308.09881,0.02572
306.60902,0.04083
305.11924,0.02962
303.62945,0.02690
302.13966,0.02420
300.64987,0.02672
299.16008,0.00657
