1778.52000,0.02047
1777.03021,0.01569
1775.54042,0.01782
1774.05063,0.01291
1772.56085,0.01490
1771.07106,0.01152
1769.58127,0.00742
1768.09148,0.01004
1766.60169,0.00971
1765.11190,0.01461
1763.62212,0.00950
1762.13233,0.01166
1760.64254,0.00491
1759.15275,0.01065
1757.66296,0.01028
1756.17317,0.01477
1754.68339,0.00477
1753.19360,0.01470
1751.70381,0.01499
1750.21402,0.00990
1748.72423,0.01581
1747.23444,0.00817
1745.74465,0.00985
1744.25487,0.01230
1742.76508,0.00491
1741.27529,0.01605
1739.78550,0.01140
1738.29571,0.01514
1736.80592,0.01259
1735.31614,0.01284
1733.82635,0.01220
1732.33656,0.00655
1730.84677,0.00055
1729.35698,0.00184
1727.86719,0.00185
1726.37740,0.00839
1724.88762,0.00937
1723.39783,0.00759
1721.90804,0.00044
1720.41825,0.00298
1718.92846,0.00779
1717.43867,0.00666
1715.94889,0.00983
1714.45910,0.00597
1712.96931,0.00491
1711.47952,0.00766
1709.98973,0.00840
1708.49994,0.00990
1707.01016,0.00770
1705.52037,0.00553
1704.03058,0.01175
1702.54079,0.01744
1701.05100,0.01441
1699.56121,0.02666
1698.07142,0.01103
1696.58164,0.00491
1695.09185,0.00819
1693.60206,0.02246
1692.11227,0.01406
1690.62248,0.02541
1689.13269,0.02469
1687.64291,0.02064
1686.15312,0.02481
1684.66333,0.01802
1683.17354,0.02800
1681.68375,0.02107
1680.19396,0.02700
1678.70417,0.02906
1677.21439,0.03876
1675.72460,0.04160
1674.23481,0.03573
1672.74502,0.04011
1671.25523,0.04135
1669.76544,0.04689
1668.27566,0.05005
1666.78587,0.06401
1665.29608,0.06070
1663.80629,0.06113
1662.31650,0.05991
1660.82671,0.07453
1659.33693,0.07336
1657.84714,0.07296
1656.35735,0.07370
1654.86756,0.06962
1653.37777,0.08083
1651.88798,0.07624
1650.39819,0.07596
1648.90841,0.07980
1647.41862,0.08440
1645.92883,0.07675
1644.43904,0.06913
1642.94925,0.08013
1641.45946,0.08278
1639.96968,0.06872
1638.47989,0.08146
1636.99010,0.08289
1635.50031,0.07373
1634.01052,0.08469
1632.52073,0.08340
1631.03094,0.08882
1629.54116,0.08628
1628.05137,0.09249
1626.56158,0.08293
1625.07179,0.09161
1623.58200,0.08990
1622.09221,0.08915
1620.60243,0.08321
1619.11264,0.10092
1617.62285,0.10545
1616.13306,0.08693
1614.64327,0.07719
1613.15348,0.09220
1611.66370,0.09590
1610.17391,0.09720
1608.68412,0.09815
1607.19433,0.08982
1605.70454,0.09417
1604.21475,0.08478
1602.72496,0.07541
1601.23518,0.07611
1599.74539,0.08222
1598.25560,0.09451
1596.76581,0.08430
1595.27602,0.08008
1593.78623,0.08852
1592.29645,0.08174
1590.80666,0.08726
1589.31687,0.08332
1587.82708,0.08163
1586.33729,0.07885
1584.84750,0.07628
1583.35771,0.07485
1581.86793,0.06935
1580.37814,0.06834
1578.88835,0.08001
1577.39856,0.07142
1575.90877,0.07122
1574.41898,0.06845
1572.92920,0.05733
1571.43941,0.05088
1569.94962,0.04753
1568.45983,0.04420
1566.97004,0.04564
1565.48025,0.04543
1563.99047,0.03985
1562.50068,0.03244
1561.01089,0.03286
1559.52110,0.03367
1558.03131,0.02763
1556.54152,0.01268
1555.05173,0.01190
1553.56195,0.02416
1552.07216,0.02881
1550.58237,0.01098
1549.09258,0.01476
1547.60279,0.01465
1546.11300,0.02201
1544.62322,0.00000
1543.13343,0.00783
1541.64364,0.01011
1540.15385,0.01836
1538.66406,0.02663
1537.17427,0.01354
1535.68448,0.01275
1534.19470,0.00491
1532.70491,0.01611
1531.21512,0.02175
1529.72533,0.02221
1528.23554,0.01247
1526.74575,0.01521
1525.25597,0.02057
1523.76618,0.03750
1522.27639,0.04087
1520.78660,0.05040
1519.29681,0.04061
1517.80702,0.03475
1516.31724,0.03431
1514.82745,0.03557
1513.33766,0.04365
1511.84787,0.05174
1510.35808,0.04619
1508.86829,0.04513
1507.37850,0.04929
1505.88872,0.04828
1504.39893,0.05938
1502.90914,0.06902
1501.41935,0.05338
1499.92956,0.06008
1498.43977,0.06272
1496.94999,0.08622
1495.46020,0.08537
1493.97041,0.08883
1492.48062,0.10756
1490.99083,0.11814
1489.50104,0.13915
1488.01125,0.14252
1486.52147,0.14591
1485.03168,0.15174
1483.54189,0.16950
1482.05210,0.18599
1480.56231,0.20863
1479.07252,0.21661
1477.58274,0.23837
1476.09295,0.25570
1474.60316,0.24291
1473.11337,0.24484
1471.62358,0.26708
1470.13379,0.26571
1468.64401,0.29580
1467.15422,0.29839
1465.66443,0.31598
1464.17464,0.33359
1462.68485,0.36601
1461.19506,0.39102
1459.70527,0.43614
1458.21549,0.47422
1456.72570,0.53148
1455.23591,0.58170
1453.74612,0.62710
1452.25633,0.69857
1450.76654,0.70645
1449.27676,0.71993
1447.78697,0.70869
1446.29718,0.67720
1444.80739,0.66136
1443.31760,0.64554
1441.82781,0.59552
1440.33802,0.54868
1438.84824,0.52159
1437.35845,0.50215
1435.86866,0.49911
1434.37887,0.49274
1432.88908,0.57122
1431.39929,0.61680
1429.90951,0.66928
1428.41972,0.73110
1426.92993,0.79684
1425.44014,0.83358
1423.95035,0.84738
1422.46056,0.86120
1420.97078,0.91681
1419.48099,0.94584
1417.99120,0.95852
1416.50141,0.89589
1415.01162,0.86100
1413.52183,0.82408
1412.03204,0.78887
1410.54226,0.72707
1409.05247,0.69619
1407.56268,0.63760
1406.07289,0.56360
1404.58310,0.52879
1403.09331,0.49400
1401.60353,0.43905
1400.11374,0.40551
1398.62395,0.35117
1397.13416,0.29703
1395.64437,0.25352
1394.15458,0.20651
1392.66479,0.18388
1391.17501,0.15105
1389.68522,0.12215
1388.19543,0.09513
1386.70564,0.08851
1385.21585,0.08191
1383.72606,0.04994
1382.23628,0.04256
1380.74649,0.02868
1379.25670,0.01985
1377.76691,0.01440
1376.27712,0.02794
1374.78733,0.01026
1373.29755,0.02013
1371.80776,0.00491
1370.31797,0.02622
1368.82818,0.02429
1367.33839,0.02240
1365.84860,0.03150
1364.35881,0.03281
1362.86903,0.04996
1361.37924,0.04760
1359.88945,0.07205
1358.39966,0.09709
1356.90987,0.12772
1355.42008,0.15522
1353.93030,0.22293
1352.44051,0.25792
1350.95072,0.29294
1349.46093,0.37634
1347.97114,0.44340
1346.48135,0.52443
1344.99156,0.58540
1343.50178,0.63951
1342.01199,0.72173
1340.52220,0.76789
1339.03241,0.82468
1337.54262,0.85675
1336.05283,0.87377
1334.56305,0.89082
1333.07326,0.91273
1331.58347,0.92071
1330.09368,0.87030
1328.60389,0.85787
1327.11410,0.83895
1325.62432,0.82824
1324.13453,0.79374
1322.64474,0.72969
1321.15495,0.67979
1319.66516,0.67160
1318.17537,0.66343
1316.68558,0.61156
1315.19580,0.60902
1313.70601,0.54511
1312.21622,0.48718
1310.72643,0.45699
1309.23664,0.42496
1307.74685,0.39166
1306.25707,0.35057
1304.76728,0.34159
1303.27749,0.33263
1301.78770,0.29738
1300.29791,0.24876
1298.80812,0.22899
1297.31834,0.19456
1295.82855,0.15940
1294.33876,0.12389
1292.84897,0.12153
1291.35918,0.10244
1289.86939,0.10068
1288.37960,0.09894
1286.88982,0.08848
1285.40003,0.09033
1283.91024,0.09015
1282.42045,0.08330
1280.93066,0.06141
1279.44087,0.05795
1277.95109,0.04950
1276.46130,0.05409
1274.97151,0.04848
1273.48172,0.04289
1271.99193,0.02523
1270.50214,0.03253
1269.01235,0.03315
1267.52257,0.03026
1266.03278,0.03093
1264.54299,0.02177
1263.05320,0.01504
1261.56341,0.01569
1260.07362,0.01636
1258.58384,0.01027
1257.09405,0.01109
1255.60426,0.01713
1254.11447,0.00721
1252.62468,0.00679
1251.13489,0.00491
1249.64511,0.01011
1248.15532,0.01459
1246.66553,0.01231
1245.17574,0.01004
1243.68595,0.00660
1242.19616,0.01266
1240.70637,0.00833
1239.21659,0.02059
1237.72680,0.02765
1236.23701,0.01614
1234.74722,0.02679
1233.25743,0.02984
1231.76764,0.03291
1230.27786,0.02336
1228.78807,0.02406
1227.29828,0.01325
1225.80849,0.01716
1224.31870,0.00491
1222.82891,0.02087
1221.33912,0.01843
1219.84934,0.02365
1218.35955,0.02889
1216.86976,0.04996
1215.37997,0.04725
1213.89018,0.06596
1212.40039,0.05957
1210.91061,0.05917
1209.42082,0.07087
1207.93103,0.06754
1206.44124,0.06423
1204.95145,0.05108
1203.46166,0.07554
1201.97188,0.05946
1200.48209,0.06015
1198.99230,0.03817
1197.50251,0.03780
1196.01272,0.05363
1194.52293,0.05005
1193.03314,0.04649
1191.54336,0.04751
1190.05357,0.02233
1188.56378,0.02470
1187.07399,0.03138
1185.58420,0.01352
1184.09441,0.02527
1182.60463,0.02606
1181.11484,0.02688
1179.62505,0.02140
1178.13526,0.02096
1176.64547,0.01925
1175.15568,0.00491
1173.66589,0.01169
1172.17611,0.01161
1170.68632,0.01035
1169.19653,0.00911
1167.70674,0.01506
1166.21695,0.02029
1164.72716,0.02108
1163.23738,0.02933
1161.74759,0.04319
1160.25780,0.06302
1158.76801,0.06530
1157.27822,0.06760
1155.78843,0.07765
1154.29865,0.08735
1152.80886,0.09409
1151.31907,0.09621
1149.82928,0.11082
1148.33949,0.13048
1146.84970,0.13341
1145.35991,0.13637
1143.87013,0.13731
1142.38034,0.14478
1140.89055,0.14856
1139.40076,0.15831
1137.91097,0.16121
1136.42118,0.18310
1134.93140,0.19414
1133.44161,0.20520
1131.95182,0.22047
1130.46203,0.22832
1128.97224,0.24085
1127.48245,0.23368
1125.99266,0.22467
1124.50288,0.22797
1123.01309,0.23241
1121.52330,0.23687
1120.03351,0.22052
1118.54372,0.21759
1117.05393,0.23143
1115.56415,0.24789
1114.07436,0.23927
1112.58457,0.23829
1111.09478,0.23734
1109.60499,0.23474
1108.11520,0.23309
1106.62542,0.22664
1105.13563,0.24625
1103.64584,0.23277
1102.15605,0.20313
1100.66626,0.19555
1099.17647,0.18801
1097.68668,0.18392
1096.19690,0.18526
1094.70711,0.19388
1093.21732,0.19415
1091.72753,0.18012
1090.23774,0.19346
1088.74795,0.20682
1087.25817,0.18598
1085.76838,0.16553
1084.27859,0.17413
1082.78880,0.19708
1081.29901,0.19512
1079.80922,0.19542
1078.31943,0.20486
1076.82965,0.21432
1075.33986,0.24092
1073.85007,0.23444
1072.36028,0.22370
1070.87049,0.25297
1069.38070,0.26442
1067.89092,0.28788
1066.40113,0.31138
1064.91134,0.39154
1063.42155,0.47432
1061.93176,0.55751
1060.44197,0.63551
1058.95219,0.74199
1057.46240,0.79586
1055.97261,0.84975
1054.48282,0.88804
1052.99303,0.90105
1051.50324,0.95594
1050.01345,0.97979
1048.52367,0.98766
1047.03388,0.96040
1045.54409,0.93316
1044.05430,0.86391
1042.56451,0.78463
1041.07472,0.72622
1039.58494,0.66522
1038.09515,0.58323
1036.60536,0.55660
1035.11557,0.53000
1033.62578,0.46798
1032.13599,0.43501
1030.64620,0.36653
1029.15642,0.31537
1027.66663,0.28499
1026.17684,0.25462
1024.68705,0.21749
1023.19726,0.18280
1021.70747,0.16563
1020.21769,0.15126
1018.72790,0.12688
1017.23811,0.11879
1015.74832,0.11074
1014.25853,0.09033
1012.76874,0.09153
1011.27896,0.08736
1009.78917,0.08897
1008.29938,0.05973
1006.80959,0.05573
1005.31980,0.05174
1003.83001,0.02369
1002.34022,0.03157
1000.85044,0.05249
999.36065,0.06098
997.87086,0.06948
996.38107,0.07802
994.89128,0.09159
993.40149,0.09738
991.91171,0.10803
990.42192,0.11666
988.93213,0.13331
987.44234,0.14097
985.95255,0.14864
984.46276,0.15588
982.97297,0.14435
981.48319,0.12522
979.99340,0.09793
978.50361,0.08963
977.01382,0.08136
975.52403,0.05303
974.03424,0.04797
972.54446,0.01893
971.05467,0.01467
969.56488,0.02735
968.07509,0.02499
966.58530,0.02266
965.09551,0.00491
963.60573,0.01075
962.11594,0.01606
960.62615,0.01692
959.13636,0.01855
957.64657,0.02021
956.15678,0.00961
954.66699,0.01709
953.17721,0.01454
951.68742,0.03396
950.19763,0.02756
948.70784,0.02117
947.21805,0.05983
945.72826,0.06280
944.23848,0.09035
942.74869,0.09838
941.25890,0.11519
939.76911,0.12197
938.27932,0.12878
936.78953,0.13505
935.29974,0.16367
933.80996,0.18153
932.32017,0.20127
930.83038,0.20717
929.34059,0.21310
927.85080,0.21598
926.36101,0.25256
924.87123,0.27819
923.38144,0.33007
921.89165,0.36821
920.40186,0.40637
918.91207,0.48157
917.42228,0.60982
915.93250,0.72228
914.44271,0.93764
912.95292,1.02782
911.46313,1.11803
909.97334,1.35895
908.48355,1.59151
906.99376,1.80513
905.50398,1.92892
904.01419,1.94753
902.52440,1.96618
901.03461,2.00000
899.54482,1.89898
898.05503,1.73269
896.56525,1.52977
895.07546,1.42073
893.58567,1.31172
892.09588,1.09083
890.60609,0.82644
889.11630,0.61862
887.62651,0.43966
886.13673,0.37839
884.64694,0.31714
883.15715,0.24355
881.66736,0.15788
880.17757,0.12861
878.68778,0.11424
877.19800,0.09990
875.70821,0.06289
874.21842,0.02720
872.72863,0.03377
871.23884,0.04463
869.74905,0.03311
868.25927,0.02161
866.76948,0.02808
865.27969,0.02733
863.78990,0.03422
862.30011,0.04021
860.81032,0.05088
859.32053,0.06156
857.83075,0.05330
856.34096,0.08413
854.85117,0.10958
853.36138,0.10623
851.87159,0.11816
850.38180,0.13010
848.89202,0.16087
847.40223,0.17156
845.91244,0.20200
844.42265,0.20642
842.93286,0.21086
841.44307,0.23021
839.95329,0.24660
838.46350,0.25372
836.97371,0.28933
835.48392,0.28124
833.99413,0.27318
832.50434,0.28746
831.01455,0.28242
829.52477,0.24392
828.03498,0.20526
826.54519,0.20178
825.05540,0.19833
823.56561,0.17016
822.07582,0.15987
820.58604,0.13714
819.09625,0.13285
817.60646,0.12859
816.11667,0.12602
814.62688,0.14488
813.13709,0.15427
811.64730,0.13894
810.15752,0.13991
808.66773,0.14091
807.17794,0.14128
805.68815,0.14985
804.19836,0.15399
802.70857,0.15388
801.21879,0.15378
799.72900,0.14200
798.23921,0.13302
796.74942,0.12947
795.25963,0.13998
793.76984,0.15052
792.28006,0.15467
790.79027,0.16739
789.30048,0.17252
787.81069,0.20315
786.32090,0.21995
784.83111,0.23677
783.34132,0.28217
781.85154,0.31811
780.36175,0.36114
778.87196,0.36755
777.38217,0.37398
775.89238,0.41894
774.40259,0.42189
772.91281,0.39696
771.42302,0.38944
769.93323,0.38195
768.44344,0.33792
766.95365,0.28444
765.46386,0.25535
763.97407,0.22442
762.48429,0.19844
760.99450,0.17249
759.50471,0.13475
758.01492,0.09908
756.52513,0.10232
755.03534,0.09349
753.54556,0.08468
752.05577,0.08426
750.56598,0.07346
749.07619,0.06398
747.58640,0.05471
746.09661,0.04546
744.60683,0.04684
743.11704,0.03988
741.62725,0.03944
740.13746,0.03820
738.64767,0.03698
737.15788,0.02937
735.66809,0.00820
734.17831,0.00491
732.68852,0.00537
731.19873,0.00586
729.70894,0.00665
728.21915,0.02253
726.72936,0.02133
725.23958,0.02684
723.74979,0.02373
722.26000,0.02064
720.77021,0.01729
719.28042,0.00746
717.79063,0.00491
716.30084,0.01349
714.81106,0.02210
713.32127,0.03082
711.83148,0.02953
710.34169,0.02584
708.85190,0.02673
707.36211,0.02764
705.87233,0.02904
704.38254,0.04033
702.89275,0.04718
701.40296,0.04614
699.91317,0.04513
698.42338,0.04219
696.93360,0.08410
695.44381,0.09051
693.95402,0.09043
692.46423,0.09038
690.97444,0.10821
689.48465,0.13201
687.99486,0.16701
686.50508,0.17523
685.01529,0.18348
683.52550,0.20143
682.03571,0.22034
680.54592,0.22308
679.05613,0.22659
677.56635,0.23013
676.07656,0.26512
674.58677,0.25327
673.09698,0.23083
671.60719,0.21149
670.11740,0.19217
668.62761,0.15976
667.13783,0.13258
665.64804,0.12348
664.15825,0.11439
662.66846,0.10087
661.17867,0.05705
659.68888,0.05455
658.19910,0.05225
656.70931,0.04999
655.21952,0.04886
653.72973,0.04274
652.23994,0.04464
650.75015,0.04172
649.26037,0.03883
647.77058,0.04248
646.28079,0.02475
644.79100,0.04500
643.30121,0.03421
641.81142,0.02344
640.32163,0.02181
638.83185,0.02430
637.34206,0.03053
635.85227,0.01949
634.36248,0.00847
632.87269,0.00491
631.38290,0.02146
629.89312,0.02110
628.40333,0.01258
626.91354,0.00409
625.42375,0.01422
623.93396,0.00652
622.44417,0.00628
620.95438,0.00607
619.46460,0.01406
617.97481,0.05259
616.48502,0.06157
614.99523,0.07726
613.50544,0.09298
612.01565,0.12119
610.52587,0.14049
609.03608,0.18028
607.54629,0.19526
606.05650,0.21026
604.56671,0.28603
603.07692,0.32442
601.58714,0.33662
600.09735,0.34883
598.60756,0.37577
597.11777,0.40291
595.62798,0.42767
594.13819,0.42324
592.64840,0.41883
591.15862,0.36013
589.66883,0.30517
588.17904,0.23926
586.68925,0.20826
585.19946,0.17728
583.70967,0.16334
582.21989,0.13380
580.73010,0.12364
579.24031,0.11350
577.75052,0.07027
576.26073,0.06036
574.77094,0.03689
573.28115,0.03810
571.79137,0.03934
570.30158,0.05482
568.81179,0.07871
567.32200,0.08541
565.83221,0.09213
564.34242,0.11423
562.85264,0.12890
561.36285,0.15068
559.87306,0.16494
558.38327,0.17922
556.89348,0.17074
555.40369,0.19224
553.91391,0.19171
552.42412,0.19121
550.93433,0.21018
549.44454,0.19494
547.95475,0.18325
546.46496,0.20024
544.97517,0.21726
543.48539,0.22165
541.99560,0.25322
540.50581,0.26909
539.01602,0.28499
537.52623,0.34678
536.03644,0.38458
534.54666,0.40437
533.05687,0.42362
531.56708,0.44290
530.07729,0.47931
528.58750,0.52226
527.09771,0.56338
525.60792,0.60452
524.11814,0.66335
522.62835,0.69505
521.13856,0.73459
519.64877,0.76029
518.15898,0.78601
516.66919,0.82990
515.17941,0.83270
513.68962,0.84008
512.19983,0.84749
510.71004,0.82952
509.22025,0.78833
507.73046,0.67777
506.24068,0.61505
504.75089,0.55235
503.26110,0.45340
501.77131,0.35336
500.28152,0.30580
498.79173,0.25826
497.30194,0.23382
495.81216,0.16959
494.32237,0.15012
492.83258,0.13068
491.34279,0.09108
489.85300,0.07848
488.36321,0.06664
486.87343,0.07669
485.38364,0.08676
483.89385,0.10327
482.40406,0.10604
480.91427,0.10670
479.42448,0.10738
477.93469,0.12678
476.44491,0.14881
474.95512,0.16946
473.46533,0.19015
471.97554,0.20276
470.48575,0.20256
468.99596,0.19271
467.50618,0.18270
466.01639,0.17272
464.52660,0.12220
463.03681,0.10017
461.54702,0.09165
460.05723,0.08316
458.56745,0.04930
457.07766,0.05508
455.58787,0.05122
454.09808,0.04738
452.60829,0.03091
451.11850,0.02749
449.62871,0.02251
448.13893,0.01756
446.64914,0.00491
445.15935,0.01243
443.66956,0.02369
442.17977,0.02902
440.68998,0.03438
439.20020,0.04776
437.71041,0.04163
436.22062,0.04530
434.73083,0.04898
433.24104,0.03437
431.75125,0.02015
430.26146,0.03070
428.77168,0.04128
427.28189,0.03104
425.79210,0.01394
424.30231,0.02226
422.81252,0.03060
421.32273,0.02474
419.83295,0.02355
418.34316,0.02834
416.85337,0.03315
415.36358,0.03520
413.87379,0.04025
412.38400,0.04774
410.89422,0.05525
409.40443,0.04177
407.91464,0.04245
406.42485,0.03441
404.93506,0.03550
403.44527,0.03663
401.95548,0.04205
400.46570,0.02667
398.97591,0.02414
397.48612,0.02164
395.99633,0.01768
394.50654,0.02471
393.01675,0.02321
391.52697,0.02174
390.03718,0.01829
388.54739,0.03012
387.05760,0.03221
385.56781,0.03432
384.07802,0.02949
382.58824,0.02021
381.09845,0.02249
379.60866,0.02479
378.11887,0.02042
376.62908,0.00491
375.13929,0.01584
373.64950,0.02680
372.15972,0.03118
370.66993,0.03205
369.18014,0.03284
367.69035,0.03366
366.20056,0.04065
364.71077,0.04747
363.22099,0.04678
361.73120,0.04611
360.24141,0.03831
358.75162,0.04337
357.26183,0.04017
355.77204,0.03700
354.28225,0.02482
352.79247,0.04542
351.30268,0.04669
349.81289,0.04798
348.32310,0.04149
346.83331,0.04134
345.34352,0.03899
343.85374,0.03666
342.36395,0.02840
340.87416,0.01552
339.38437,0.02005
337.89458,0.02461
336.40479,0.00491
334.91501,0.02038
333.42522,0.02406
331.93543,0.02777
330.44564,0.03122
328.95585,0.00884
327.46606,0.00927
325.97627,0.00973
324.48649,0.01730
322.99670,0.03401
321.50691,0.05112
320.01712,0.06825
318.52733,0.04615
317.03754,0.04641
315.54776,0.05338
314.05797,0.06038
312.56818,0.04973
311.07839,0.06533
309.58860,0.06021
308.09881,0.05512
306.60902,0.03285
305.11924,0.03962
303.62945,0.03339
302.13966,0.02718
300.64987,0.00500
299.16008,0.00491
