1778.52000,0.02690
1777.03021,0.01646
1775.54042,0.02269
1774.05063,0.02248
1772.56085,0.02229
1771.07106,0.02536
1769.58127,0.02036
1768.09148,0.01492
1766.60169,0.01229
1765.11190,0.00528
1763.62212,0.01888
1762.13233,0.02071
1760.64254,0.01470
1759.15275,0.01288
1757.66296,0.01663
1756.17317,0.01277
1754.68339,0.00570
1753.19360,0.01531
1751.70381,0.00991
1750.21402,0.00777
1748.72423,0.00935
1747.23444,0.00310
1745.74465,0.01283
1744.25487,0.01425
1742.76508,0.00576
1741.27529,0.01371
1739.78550,0.01474
1738.29571,0.01280
1736.80592,0.00579
1735.31614,0.00528
1733.82635,0.01590
1732.33656,0.01059
1730.84677,0.01363
1729.35698,0.01623
1727.86719,0.00938
1726.37740,0.00000
1724.88762,0.00499
1723.39783,0.00768
1721.90804,0.00254
1720.41825,0.00830
1718.92846,0.00945
1717.43867,0.00577
1715.94889,0.00396
1714.45910,0.00611
1712.96931,0.00528
1711.47952,0.00690
1709.98973,0.00021
1708.49994,0.01808
1707.01016,0.01111
1705.52037,0.00416
1704.03058,0.00938
1702.54079,0.00999
1701.05100,0.01064
1699.56121,0.01130
1698.07142,0.00621
1696.58164,0.00577
1695.09185,0.01714
1693.60206,0.00704
1692.11227,0.00528
1690.62248,0.01278
1689.13269,0.01683
1687.64291,0.01928
1686.15312,0.02061
1684.66333,0.01548
1683.17354,0.03004
1681.68375,0.02935
1680.19396,0.02245
1678.70417,0.02829
1677.21439,0.03947
1675.72460,0.02547
1674.23481,0.03902
1672.74502,0.04796
1671.25523,0.04213
1669.76544,0.04626
1668.27566,0.03770
1666.78587,0.04975
1665.29608,0.05974
1663.80629,0.06397
1662.31650,0.07216
1660.82671,0.07505
1659.33693,0.07797
1657.84714,0.07351
1656.35735,0.07971
1654.86756,0.06836
1653.37777,0.07531
1651.88798,0.06724
1650.39819,0.06915
1648.90841,0.07594
1647.41862,0.07072
1645.92883,0.07733
1644.43904,0.08396
1642.94925,0.08760
1641.45946,0.08688
1639.96968,0.08317
1638.47989,0.09799
1636.99010,0.08647
1635.50031,0.07798
1634.01052,0.08339
1632.52073,0.07726
1631.03094,0.07879
1629.54116,0.07734
1628.05137,0.09649
1626.56158,0.08005
1625.07179,0.08607
1623.58200,0.09396
1622.09221,0.09517
1620.60243,0.07860
1619.11264,0.09188
1617.62285,0.09247
1616.13306,0.09239
1614.64327,0.07314
1613.15348,0.08537
1611.66370,0.08999
1610.17391,0.09278
1608.68412,0.11039
1607.19433,0.10560
1605.70454,0.10824
1604.21475,0.09956
1602.72496,0.09091
1601.23518,0.07650
1599.74539,0.08178
1598.25560,0.07690
1596.76581,0.08176
1595.27602,0.08711
1593.78623,0.08832
1592.29645,0.09232
1590.80666,0.08225
1589.31687,0.07104
1587.82708,0.08507
1586.33729,0.07553
1584.84750,0.05884
1583.35771,0.07456
1581.86793,0.07434
1580.37814,0.08224
1578.88835,0.08554
1577.39856,0.09303
1575.90877,0.08806
1574.41898,0.05998
1572.92920,0.04996
1571.43941,0.05084
1569.94962,0.04850
1568.45983,0.04619
1566.97004,0.03951
1565.48025,0.03771
1563.99047,0.05212
1562.50068,0.04066
1561.01089,0.04078
1559.52110,0.03283
1558.03131,0.03023
1556.54152,0.03043
1555.05173,0.03088
1553.56195,0.01840
1552.07216,0.02353
1550.58237,0.01434
1549.09258,0.01581
1547.60279,0.00528
1546.11300,0.00585
1544.62322,0.02007
1543.13343,0.02321
1541.64364,0.01319
1540.15385,0.01222
1538.66406,0.01127
1537.17427,0.00988
1535.68448,0.01939
1534.19470,0.00973
1532.70491,0.01477
1531.21512,0.02445
1529.72533,0.02168
1528.23554,0.01037
1526.74575,0.01851
1525.25597,0.02391
1523.76618,0.01498
1522.27639,0.03916
1520.78660,0.02681
1519.29681,0.03554
1517.80702,0.05400
1516.31724,0.05145
1514.82745,0.05099
1513.33766,0.05033
1511.84787,0.04970
1510.35808,0.04562
1508.86829,0.04226
1507.37850,0.04216
1505.88872,0.05157
1504.39893,0.05591
1502.90914,0.05311
1501.41935,0.05588
1499.92956,0.06330
1498.43977,0.06705
1496.94999,0.07290
1495.46020,0.10237
1493.97041,0.11659
1492.48062,0.10656
1490.99083,0.10465
1489.50104,0.11987
1488.01125,0.12610
1486.52147,0.13235
1485.03168,0.17448
1483.54189,0.18494
1482.05210,0.20630
1480.56231,0.21080
1479.07252,0.23359
1477.58274,0.24762
1476.09295,0.25613
1474.60316,0.25101
1473.11337,0.24870
1471.62358,0.25519
1470.13379,0.26726
1468.64401,0.27496
1467.15422,0.31899
1465.66443,0.32258
1464.17464,0.32619
1462.68485,0.35526
1461.19506,0.38760
1459.70527,0.44031
1458.21549,0.52103
1456.72570,0.55043
1455.23591,0.58564
1453.74612,0.63822
1452.25633,0.66677
1450.76654,0.71338
1449.27676,0.73226
1447.78697,0.68781
1446.29718,0.67413
1444.80739,0.66580
1443.31760,0.65749
1441.82781,0.59810
1440.33802,0.54289
1438.84824,0.49927
1437.35845,0.50933
1435.86866,0.47131
1434.37887,0.49899
1432.88908,0.56209
1431.39929,0.62775
1429.90951,0.70638
1428.41972,0.77001
1426.92993,0.80915
1425.44014,0.80946
1423.95035,0.83500
1422.46056,0.86056
1420.97078,0.90882
1419.48099,0.92842
1417.99120,0.92353
1416.50141,0.91242
1415.01162,0.87867
1413.52183,0.82667
1412.03204,0.74811
1410.54226,0.72946
1409.05247,0.66621
1407.56268,0.61084
1406.07289,0.57146
1404.58310,0.53892
1403.09331,0.50640
1401.60353,0.46038
1400.11374,0.40999
1398.62395,0.35454
1397.13416,0.30513
1395.64437,0.26198
1394.15458,0.22764
1392.66479,0.15332
1391.17501,0.14008
1389.68522,0.13704
1388.19543,0.10673
1386.70564,0.09056
1385.21585,0.07441
1383.72606,0.05898
1382.23628,0.05051
1380.74649,0.02310
1379.25670,0.02346
1377.76691,0.00951
1376.27712,0.00947
1374.78733,0.00528
1373.29755,0.01116
1371.80776,0.00619
1370.31797,0.00652
1368.82818,0.02053
1367.33839,0.03456
1365.84860,0.01971
1364.35881,0.03957
1362.86903,0.06085
1361.37924,0.07243
1359.88945,0.07040
1358.39966,0.09336
1356.90987,0.13277
1355.42008,0.16249
1353.93030,0.23155
1352.44051,0.25982
1350.95072,0.28811
1349.46093,0.39655
1347.97114,0.45785
1346.48135,0.53096
1344.99156,0.59647
1343.50178,0.65182
1342.01199,0.74767
1340.52220,0.81417
1339.03241,0.83236
1337.54262,0.84295
1336.05283,0.86107
1334.56305,0.87922
1333.07326,0.93313
1331.58347,0.92785
1330.09368,0.92145
1328.60389,0.90743
1327.11410,0.87841
1325.62432,0.83091
1324.13453,0.84009
1322.64474,0.82224
1321.15495,0.77204
1319.66516,0.73342
1318.17537,0.69483
1316.68558,0.64909
1315.19580,0.58881
1313.70601,0.53804
1312.21622,0.53331
1310.72643,0.49599
1309.23664,0.44090
1307.74685,0.43555
1306.25707,0.37795
1304.76728,0.36190
1303.27749,0.34587
1301.78770,0.29529
1300.29791,0.24820
1298.80812,0.23351
1297.31834,0.20104
1295.82855,0.17438
1294.33876,0.15560
1292.84897,0.12783
1291.35918,0.11419
1289.86939,0.11456
1288.37960,0.11496
1286.88982,0.10070
1285.40003,0.10103
1283.91024,0.07664
1282.42045,0.06569
1280.93066,0.06471
1279.44087,0.06444
1277.95109,0.04801
1276.46130,0.05104
1274.97151,0.04657
1273.48172,0.04212
1271.99193,0.03989
1270.50214,0.04001
1269.01235,0.02742
1267.52257,0.02573
1266.03278,0.03471
1264.54299,0.04000
1263.05320,0.04093
1261.56341,0.03286
1260.07362,0.02482
1258.58384,0.01056
1257.09405,0.01759
1255.60426,0.00661
1254.11447,0.00537
1252.62468,0.00647
1251.13489,0.00528
1249.64511,0.01179
1248.15532,0.00607
1246.66553,0.01090
1245.17574,0.01575
1243.68595,0.02283
1242.19616,0.02021
1240.70637,0.01970
1239.21659,0.02430
1237.72680,0.03934
1236.23701,0.02918
1234.74722,0.02114
1233.25743,0.01751
1231.76764,0.01391
1230.27786,0.03369
1228.78807,0.02667
1227.29828,0.02291
1225.80849,0.01015
1224.31870,0.00528
1222.82891,0.01022
1221.33912,0.03299
1219.84934,0.03855
1218.35955,0.04414
1216.86976,0.06536
1215.37997,0.07134
1213.89018,0.07804
1212.40039,0.08014
1210.91061,0.07903
1209.42082,0.08118
1207.93103,0.07387
1206.44124,0.06658
1204.95145,0.08661
1203.46166,0.06758
1201.97188,0.06453
1200.48209,0.05758
1198.99230,0.05041
1197.50251,0.05345
1196.01272,0.05165
1194.52293,0.04583
1193.03314,0.04004
1191.54336,0.04387
1190.05357,0.03569
1188.56378,0.03055
1187.07399,0.04162
1185.58420,0.03560
1184.09441,0.00832
1182.60463,0.01414
1181.11484,0.01999
1179.62505,0.00528
1178.13526,0.01820
1176.64547,0.01889
1175.15568,0.02816
1173.66589,0.02890
1172.17611,0.00515
1170.68632,0.00528
1169.19653,0.00533
1167.70674,0.02183
1166.21695,0.02840
1164.72716,0.02945
1163.23738,0.05064
1161.74759,0.04573
1160.25780,0.06997
1158.76801,0.06985
1157.27822,0.06974
1155.78843,0.05961
1154.29865,0.07100
1152.80886,0.07548
1151.31907,0.10172
1149.82928,0.11365
1148.33949,0.13971
1146.84970,0.13157
1145.35991,0.12345
1143.87013,0.14265
1142.38034,0.15863
1140.89055,0.13578
1139.40076,0.14742
1137.91097,0.16717
1136.42118,0.19320
1134.93140,0.19982
1133.44161,0.20646
1131.95182,0.22724
1130.46203,0.24203
1128.97224,0.23048
1127.48245,0.23144
1125.99266,0.23242
1124.50288,0.22788
1123.01309,0.22440
1121.52330,0.22095
1120.03351,0.22620
1118.54372,0.21597
1117.05393,0.23028
1115.56415,0.24323
1114.07436,0.23331
1112.58457,0.22931
1111.09478,0.22533
1109.60499,0.25040
1108.11520,0.24960
1106.62542,0.25113
1105.13563,0.27234
1103.64584,0.24640
1102.15605,0.22257
1100.66626,0.21679
1099.17647,0.21104
1097.68668,0.21619
1096.19690,0.21211
1094.70711,0.21915
1093.21732,0.21096
1091.72753,0.20071
1090.23774,0.19117
1088.74795,0.18166
1087.25817,0.19808
1085.76838,0.18838
1084.27859,0.20161
1082.78880,0.19012
1081.29901,0.19622
1079.80922,0.19865
1078.31943,0.19926
1076.82965,0.19988
1075.33986,0.21811
1073.85007,0.24700
1072.36028,0.24146
1070.87049,0.25629
1069.38070,0.28942
1067.89092,0.31991
1066.40113,0.35043
1064.91134,0.37854
1063.42155,0.47328
1061.93176,0.58308
1060.44197,0.65936
1058.95219,0.73868
1057.46240,0.78183
1055.97261,0.82501
1054.48282,0.96522
1052.99303,1.04787
1051.50324,1.05793
1050.01345,1.03518
1048.52367,0.98631
1047.03388,0.96268
1045.54409,0.93907
1044.05430,0.89352
1042.56451,0.83226
1041.07472,0.76293
1039.58494,0.70982
1038.09515,0.63985
1036.60536,0.58829
1035.11557,0.53675
1033.62578,0.46477
1032.13599,0.41571
1030.64620,0.37107
1029.15642,0.31234
1027.66663,0.29238
1026.17684,0.27244
1024.68705,0.23136
1023.19726,0.16510
1021.70747,0.14928
1020.21769,0.12886
1018.72790,0.13853
1017.23811,0.12336
1015.74832,0.10821
1014.25853,0.10546
1012.76874,0.10020
1011.27896,0.08709
1009.78917,0.08164
1008.29938,0.04522
1006.80959,0.04410
1005.31980,0.04300
1003.83001,0.03603
1002.34022,0.01289
1000.85044,0.00990
999.36065,0.02081
997.87086,0.02943
996.38107,0.03807
994.89128,0.05576
993.40149,0.08827
991.91171,0.11317
990.42192,0.14273
988.93213,0.14872
987.44234,0.15346
985.95255,0.15823
984.46276,0.14694
982.97297,0.13754
981.48319,0.09716
979.99340,0.09567
978.50361,0.07939
977.01382,0.06314
975.52403,0.04507
974.03424,0.02655
972.54446,0.02726
971.05467,0.02013
969.56488,0.01163
968.07509,0.00929
966.58530,0.00697
965.09551,0.00548
963.60573,0.01790
962.11594,0.01531
960.62615,0.01021
959.13636,0.01229
957.64657,0.01440
956.15678,0.01931
954.66699,0.00528
953.17721,0.00873
951.68742,0.01105
950.19763,0.02218
948.70784,0.03334
947.21805,0.03943
945.72826,0.06358
944.23848,0.08105
942.74869,0.10965
941.25890,0.11607
939.76911,0.12379
938.27932,0.13153
936.78953,0.15467
935.29974,0.17853
933.80996,0.18854
932.32017,0.19997
930.83038,0.20933
929.34059,0.21872
927.85080,0.23183
926.36101,0.26671
924.87123,0.28542
923.38144,0.34972
921.89165,0.37889
920.40186,0.40808
918.91207,0.48008
917.42228,0.62310
915.93250,0.76037
914.44271,0.95987
912.95292,1.06990
911.46313,1.17995
909.97334,1.40357
908.48355,1.63902
906.99376,1.80349
905.50398,1.87987
904.01419,1.92771
902.52440,1.97558
901.03461,2.00000
899.54482,1.97518
898.05503,1.82481
896.56525,1.60763
895.07546,1.47026
893.58567,1.33291
892.09588,1.07348
890.60609,0.83188
889.11630,0.63864
887.62651,0.48127
886.13673,0.41482
884.64694,0.34838
883.15715,0.25538
881.66736,0.19663
880.17757,0.16681
878.68778,0.14198
877.19800,0.11718
875.70821,0.05945
874.21842,0.05956
872.72863,0.05322
871.23884,0.05060
869.74905,0.04500
868.25927,0.03943
866.76948,0.03203
865.27969,0.03575
863.78990,0.05916
862.30011,0.08629
860.81032,0.08812
859.32053,0.08998
857.83075,0.10354
856.34096,0.11296
854.85117,0.11061
853.36138,0.13256
851.87159,0.15304
850.38180,0.17354
848.89202,0.17684
847.40223,0.20583
845.91244,0.21843
844.42265,0.23914
842.93286,0.25988
841.44307,0.28412
839.95329,0.28039
838.46350,0.27831
836.97371,0.30215
835.48392,0.30647
833.99413,0.31082
832.50434,0.30236
831.01455,0.26617
829.52477,0.26539
828.03498,0.23572
826.54519,0.22157
825.05540,0.20745
823.56561,0.19821
822.07582,0.17812
820.58604,0.18026
819.09625,0.17664
817.60646,0.17305
816.11667,0.16092
814.62688,0.15668
813.13709,0.17860
811.64730,0.17441
810.15752,0.16735
808.66773,0.16032
807.17794,0.16221
805.68815,0.15395
804.19836,0.15867
802.70857,0.15578
801.21879,0.15292
799.72900,0.16742
798.23921,0.14171
796.74942,0.15719
795.25963,0.15904
793.76984,0.16093
792.28006,0.17231
790.79027,0.17933
789.30048,0.19770
787.81069,0.24455
786.32090,0.25626
784.83111,0.26800
783.34132,0.28578
781.85154,0.34914
780.36175,0.38316
778.87196,0.40517
777.38217,0.42721
775.89238,0.44788
774.40259,0.46858
772.91281,0.44050
771.42302,0.42378
769.93323,0.40709
768.44344,0.36868
766.95365,0.30578
765.46386,0.23781
763.97407,0.20688
762.48429,0.19655
760.99450,0.18624
759.50471,0.16856
758.01492,0.13911
756.52513,0.12841
755.03534,0.12769
753.54556,0.12699
752.05577,0.12191
750.56598,0.10738
749.07619,0.07415
747.58640,0.07215
746.09661,0.07018
744.60683,0.04743
743.11704,0.04458
741.62725,0.03390
740.13746,0.03954
738.64767,0.04521
737.15788,0.03252
735.66809,0.00528
734.17831,0.01084
732.68852,0.01931
731.19873,0.02780
729.70894,0.01840
728.21915,0.01596
726.72936,0.01609
725.23958,0.01022
723.74979,0.00774
722.26000,0.00528
720.77021,0.00546
719.28042,0.00890
717.79063,0.00496
716.30084,0.00544
714.81106,0.00595
713.32127,0.01503
711.83148,0.03131
710.34169,0.02727
708.85190,0.02498
707.36211,0.02272
705.87233,0.01689
704.38254,0.01965
702.89275,0.04602
701.40296,0.04154
699.91317,0.03708
698.42338,0.05566
696.93360,0.08675
695.44381,0.09128
693.95402,0.09293
692.46423,0.09461
690.97444,0.13204
689.48465,0.14568
687.99486,0.15634
686.50508,0.17962
685.01529,0.20293
683.52550,0.23586
682.03571,0.24961
680.54592,0.25947
679.05613,0.25847
677.56635,0.25750
676.07656,0.25170
674.58677,0.26049
673.09698,0.22837
671.60719,0.22207
670.11740,0.21578
668.62761,0.18351
667.13783,0.14640
665.64804,0.12411
664.15825,0.10185
662.66846,0.09396
661.17867,0.07915
659.68888,0.04493
658.19910,0.04844
656.70931,0.05197
655.21952,0.06594
653.72973,0.06304
652.23994,0.05162
650.75015,0.04935
649.26037,0.04710
647.77058,0.05957
646.28079,0.03691
644.79100,0.05081
643.30121,0.05259
641.81142,0.05440
640.32163,0.05843
638.83185,0.02317
637.34206,0.00528
635.85227,0.00647
634.36248,0.00769
632.87269,0.02350
631.38290,0.01135
629.89312,0.02259
628.40333,0.02182
626.91354,0.02108
625.42375,0.02383
623.93396,0.02383
622.44417,0.02454
620.95438,0.02529
619.46460,0.02767
617.97481,0.03609
616.48502,0.05263
614.99523,0.07209
613.50544,0.09157
612.01565,0.12853
610.52587,0.14055
609.03608,0.17386
607.54629,0.18754
606.05650,0.20124
604.56671,0.26400
603.07692,0.31429
601.58714,0.35351
600.09735,0.39275
598.60756,0.42993
597.11777,0.44146
595.62798,0.45349
594.13819,0.41685
592.64840,0.38024
591.15862,0.38124
589.66883,0.32560
588.17904,0.28802
586.68925,0.25104
585.19946,0.21409
583.70967,0.14282
582.21989,0.11228
580.73010,0.09540
579.24031,0.07855
577.75052,0.06497
576.26073,0.05557
574.77094,0.05683
573.28115,0.05511
571.79137,0.05341
570.30158,0.05058
568.81179,0.08871
567.32200,0.09553
565.83221,0.10237
564.34242,0.11421
562.85264,0.11428
561.36285,0.13125
559.87306,0.13796
558.38327,0.14469
556.89348,0.16035
555.40369,0.19986
553.91391,0.20400
552.42412,0.20817
550.93433,0.17420
549.44454,0.16917
547.95475,0.21412
546.46496,0.20624
544.97517,0.19839
543.48539,0.23323
541.99560,0.25399
540.50581,0.26864
539.01602,0.28332
537.52623,0.33191
536.03644,0.38190
534.54666,0.40833
533.05687,0.42889
531.56708,0.44947
530.07729,0.50187
528.58750,0.53696
527.09771,0.55565
525.60792,0.57436
524.11814,0.65785
522.62835,0.73281
521.13856,0.73448
519.64877,0.74971
518.15898,0.76496
516.66919,0.80486
515.17941,0.80131
513.68962,0.80160
512.19983,0.80191
510.71004,0.77114
509.22025,0.76607
507.73046,0.70159
506.24068,0.62476
504.75089,0.54795
503.26110,0.46827
501.77131,0.39834
500.28152,0.35005
498.79173,0.30178
497.30194,0.22428
495.81216,0.15097
494.32237,0.13840
492.83258,0.12584
491.34279,0.11135
489.85300,0.09387
488.36321,0.07133
486.87343,0.06662
485.38364,0.06194
483.89385,0.06398
482.40406,0.09057
480.91427,0.09232
479.42448,0.09409
477.93469,0.12306
476.44491,0.13031
474.95512,0.15991
473.46533,0.18953
471.97554,0.21652
470.48575,0.20999
468.99596,0.20927
467.50618,0.19355
466.01639,0.17785
464.52660,0.13234
463.03681,0.12108
461.54702,0.09585
460.05723,0.07065
458.56745,0.04720
457.07766,0.03442
455.58787,0.02826
454.09808,0.02212
452.60829,0.01889
451.11850,0.00528
449.62871,0.00624
448.13893,0.00722
446.64914,0.02163
445.15935,0.00809
443.66956,0.00845
442.17977,0.01057
440.68998,0.01271
439.20020,0.01962
437.71041,0.03534
436.22062,0.03166
434.73083,0.02800
433.24104,0.03616
431.75125,0.04874
430.26146,0.04180
428.77168,0.03488
427.28189,0.04476
425.79210,0.06969
424.30231,0.06146
422.81252,0.05326
421.32273,0.05120
419.83295,0.02744
418.34316,0.01734
416.85337,0.00726
415.36358,0.01472
413.87379,0.03215
412.38400,0.04000
410.89422,0.04788
409.40443,0.05682
407.91464,0.04151
406.42485,0.05721
404.93506,0.04980
403.44527,0.04242
401.95548,0.03321
400.46570,0.04600
398.97591,0.03592
397.48612,0.02586
395.99633,0.02462
394.50654,0.04745
393.01675,0.04602
391.52697,0.04461
390.03718,0.02404
388.54739,0.02074
387.05760,0.01620
385.56781,0.01169
384.07802,0.01009
382.58824,0.02793
381.09845,0.02799
379.60866,0.02807
378.11887,0.02332
376.62908,0.02322
375.13929,0.01424
373.64950,0.00528
372.15972,0.04193
370.66993,0.02657
369.18014,0.02928
367.69035,0.03201
366.20056,0.02402
364.71077,0.02738
363.22099,0.02891
361.73120,0.03047
360.24141,0.08733
358.75162,0.09888
357.26183,0.07658
355.77204,0.05430
354.28225,0.03817
352.79247,0.05907
351.30268,0.05282
349.81289,0.04660
348.32310,0.07382
346.83331,0.09204
345.34352,0.08658
343.85374,0.08115
342.36395,0.04741
340.87416,0.04884
339.38437,0.04568
337.89458,0.04254
336.40479,0.03179
334.91501,0.06547
333.42522,0.04274
331.93543,0.02004
330.44564,0.01610
328.95585,0.01865
327.46606,0.01834
325.97627,0.01806
324.48649,0.04337
322.99670,0.04050
321.50691,0.04886
320.01712,0.05725
318.52733,0.08313
317.03754,0.07827
315.54776,0.07748
314.05797,0.07672
312.56818,0.07378
311.07839,0.07966
309.58860,0.07249
308.09881,0.06535
306.60902,0.08124
305.11924,0.06709
303.62945,0.04407
302.13966,0.02106
300.64987,0.00535
299.16008,0.00528
