1778.52000,0.00826
1777.03021,0.01339
1775.54042,0.01447
1774.05063,0.02564
1772.56085,0.00715
1771.07106,0.01511
1769.58127,0.00865
1768.09148,0.00603
1766.60169,0.01787
1765.11190,0.01557
1763.62212,0.01139
1762.13233,0.01432
1760.64254,0.01046
1759.15275,0.01697
1757.66296,0.02052
1756.17317,0.00693
1754.68339,0.01624
1753.19360,0.00433
1751.70381,0.01641
1750.21402,0.02007
1748.72423,0.00960
1747.23444,0.00705
1745.74465,0.01433
1744.25487,0.00720
1742.76508,0.01818
1741.27529,0.02292
1739.78550,0.02197
1738.29571,0.02104
1736.80592,0.01524
1735.31614,0.01735
1733.82635,0.02766
1732.33656,0.02248
1730.84677,0.02330
1729.35698,0.02007
1727.86719,0.01250
1726.37740,0.00360
1724.88762,0.01372
1723.39783,0.01296
1721.90804,0.01250
1720.41825,0.00744
1718.92846,0.01057
1717.43867,0.01100
1715.94889,0.02126
1714.45910,0.01874
1712.96931,0.01135
1711.47952,0.01134
1709.98973,0.00971
1708.49994,0.01601
1707.01016,0.01171
1705.52037,0.00743
1704.03058,0.01189
1702.54079,0.00603
1701.05100,0.01661
1699.56121,0.01768
1698.07142,0.01333
1696.58164,0.01962
1695.09185,0.02648
1693.60206,0.02793
1692.11227,0.02149
1690.62248,0.01427
1689.13269,0.02123
1687.64291,0.01977
1686.15312,0.01044
1684.66333,0.02155
1683.17354,0.03297
1681.68375,0.03542
1680.19396,0.02755
1678.70417,0.02733
1677.21439,0.04129
1675.72460,0.03893
1674.23481,0.04396
1672.74502,0.03430
1671.25523,0.03965
1669.76544,0.04583
1668.27566,0.06620
1666.78587,0.06781
1665.29608,0.06998
1663.80629,0.08307
1662.31650,0.08502
1660.82671,0.07828
1659.33693,0.08001
1657.84714,0.07931
1656.35735,0.08163
1654.86756,0.06845
1653.37777,0.07681
1651.88798,0.06396
1650.39819,0.07291
1648.90841,0.06582
1647.41862,0.06175
1645.92883,0.07132
1644.43904,0.08091
1642.94925,0.08400
1641.45946,0.08792
1639.96968,0.08288
1638.47989,0.08822
1636.99010,0.07533
1635.50031,0.07799
1634.01052,0.07005
1632.52073,0.07712
1631.03094,0.07059
1629.54116,0.08424
1628.05137,0.07368
1626.56158,0.08792
1625.07179,0.08694
1623.58200,0.08190
1622.09221,0.08423
1620.60243,0.08850
1619.11264,0.07045
1617.62285,0.07831
1616.13306,0.07747
1614.64327,0.05759
1613.15348,0.07669
1611.66370,0.07647
1610.17391,0.08036
1608.68412,0.07828
1607.19433,0.08167
1605.70454,0.07610
1604.21475,0.07873
1602.72496,0.08138
1601.23518,0.07125
1599.74539,0.07068
1598.25560,0.08267
1596.76581,0.08242
1595.27602,0.07184
1593.78623,0.07682
1592.29645,0.06085
1590.80666,0.06151
1589.31687,0.06710
1587.82708,0.06782
1586.33729,0.06229
1584.84750,0.06796
1583.35771,0.07256
1581.86793,0.06928
1580.37814,0.08346
1578.88835,0.06962
1577.39856,0.06641
1575.90877,0.05343
1574.41898,0.03612
1572.92920,0.04824
1571.43941,0.03425
1569.94962,0.02940
1568.45983,0.02457
1566.97004,0.03788
1565.48025,0.03351
1563.99047,0.04415
1562.50068,0.03656
1561.01089,0.03689
1559.52110,0.03044
1558.03131,0.01721
1556.54152,0.01762
1555.05173,0.01832
1553.56195,0.01306
1552.07216,0.01517
1550.58237,0.01377
1549.09258,0.01048
1547.60279,0.00396
1546.11300,0.00508
1544.62322,0.00867
1543.13343,0.00603
1541.64364,0.01887
1540.15385,0.01663
1538.66406,0.01441
1537.17427,0.02187
1535.68448,0.02283
1534.19470,0.01183
1532.70491,0.00603
1531.21512,0.01268
1529.72533,0.01092
1528.23554,0.02061
1526.74575,0.02107
1525.25597,0.02401
1523.76618,0.02206
1522.27639,0.03431
1520.78660,0.03132
1519.29681,0.04008
1517.80702,0.02380
1516.31724,0.04703
1514.82745,0.05803
1513.33766,0.05504
1511.84787,0.05206
1510.35808,0.03291
1508.86829,0.04210
1507.37850,0.03825
1505.88872,0.04913
1504.39893,0.05649
1502.90914,0.03909
1501.41935,0.04596
1499.92956,0.05366
1498.43977,0.04805
1496.94999,0.06288
1495.46020,0.06086
1493.97041,0.05586
1492.48062,0.07213
1490.99083,0.06963
1489.50104,0.08840
1488.01125,0.09562
1486.52147,0.10286
1485.03168,0.12633
1483.54189,0.13812
1482.05210,0.15102
1480.56231,0.13970
1479.07252,0.16245
1477.58274,0.18142
1476.09295,0.17971
1474.60316,0.17067
1473.11337,0.18862
1471.62358,0.19460
1470.13379,0.20661
1468.64401,0.22681
1467.15422,0.25901
1465.66443,0.25652
1464.17464,0.25405
1462.68485,0.29232
1461.19506,0.32979
1459.70527,0.34632
1458.21549,0.36288
1456.72570,0.42630
1455.23591,0.46251
1453.74612,0.53741
1452.25633,0.56414
1450.76654,0.61350
1449.27676,0.58826
1447.78697,0.60608
1446.29718,0.57680
1444.80739,0.56444
1443.31760,0.55210
1441.82781,0.50465
1440.33802,0.50489
1438.84824,0.42917
1437.35845,0.42509
1435.86866,0.42159
1434.37887,0.44289
1432.88908,0.49853
1431.39929,0.52805
1429.90951,0.60470
1428.41972,0.62120
1426.92993,0.64752
1425.44014,0.69702
1423.95035,0.71972
1422.46056,0.74244
1420.97078,0.79173
1419.48099,0.81001
1417.99120,0.81878
1416.50141,0.79081
1415.01162,0.77648
1413.52183,0.75019
1412.03204,0.68553
1410.54226,0.64758
1409.05247,0.62899
1407.56268,0.58537
1406.07289,0.52979
1404.58310,0.50896
1403.09331,0.48816
1401.60353,0.44055
1400.11374,0.38643
1398.62395,0.31572
1397.13416,0.27228
1395.64437,0.23185
1394.15458,0.20560
1392.66479,0.17421
1391.17501,0.15564
1389.68522,0.11966
1388.19543,0.09842
1386.70564,0.08877
1385.21585,0.07915
1383.72606,0.05852
1382.23628,0.03819
1380.74649,0.03830
1379.25670,0.01720
1377.76691,0.02091
1376.27712,0.02627
1374.78733,0.01451
1373.29755,0.00603
1371.80776,0.02265
1370.31797,0.02595
1368.82818,0.02982
1367.33839,0.03372
1365.84860,0.02701
1364.35881,0.03259
1362.86903,0.04500
1361.37924,0.04790
1359.88945,0.07588
1358.39966,0.09653
1356.90987,0.10876
1355.42008,0.14281
1353.93030,0.20002
1352.44051,0.23793
1350.95072,0.27586
1349.46093,0.34622
1347.97114,0.42286
1346.48135,0.48075
1344.99156,0.52068
1343.50178,0.60121
1342.01199,0.63003
1340.52220,0.66486
1339.03241,0.70244
1337.54262,0.73487
1336.05283,0.77249
1334.56305,0.81014
1333.07326,0.84183
1331.58347,0.87653
1330.09368,0.83283
1328.60389,0.83600
1327.11410,0.80242
1325.62432,0.78657
1324.13453,0.79117
1322.64474,0.76747
1321.15495,0.69832
1319.66516,0.67222
1318.17537,0.64614
1316.68558,0.58441
1315.19580,0.53142
1313.70601,0.49888
1312.21622,0.45139
1310.72643,0.43769
1309.23664,0.39787
1307.74685,0.39211
1306.25707,0.35289
1304.76728,0.33152
1303.27749,0.31018
1301.78770,0.25741
1300.29791,0.22918
1298.80812,0.20886
1297.31834,0.18013
1295.82855,0.16422
1294.33876,0.13172
1292.84897,0.10905
1291.35918,0.07851
1289.86939,0.07414
1288.37960,0.06979
1286.88982,0.08289
1285.40003,0.08404
1283.91024,0.07322
1282.42045,0.05590
1280.93066,0.04731
1279.44087,0.04583
1277.95109,0.04056
1276.46130,0.04893
1274.97151,0.04630
1273.48172,0.04369
1271.99193,0.03416
1270.50214,0.04426
1269.01235,0.02961
1267.52257,0.03703
1266.03278,0.04176
1264.54299,0.03971
1263.05320,0.03713
1261.56341,0.02695
1260.07362,0.01680
1258.58384,0.02574
1257.09405,0.01427
1255.60426,0.01672
1254.11447,0.02083
1252.62468,0.02250
1251.13489,0.02802
1249.64511,0.03574
1248.15532,0.03286
1246.66553,0.03886
1245.17574,0.04488
1243.68595,0.04997
1242.19616,0.03467
1240.70637,0.02211
1239.21659,0.00603
1237.72680,0.03986
1236.23701,0.03015
1234.74722,0.01583
1233.25743,0.02427
1231.76764,0.03274
1230.27786,0.02040
1228.78807,0.02034
1227.29828,0.03473
1225.80849,0.01184
1224.31870,0.01403
1222.82891,0.00808
1221.33912,0.04149
1219.84934,0.04210
1218.35955,0.04275
1216.86976,0.05172
1215.37997,0.04710
1213.89018,0.05094
1212.40039,0.04937
1210.91061,0.06034
1209.42082,0.06644
1207.93103,0.07025
1206.44124,0.07408
1204.95145,0.06609
1203.46166,0.05813
1201.97188,0.05182
1200.48209,0.05452
1198.99230,0.03519
1197.50251,0.03522
1196.01272,0.02792
1194.52293,0.02745
1193.03314,0.02701
1191.54336,0.02741
1190.05357,0.01639
1188.56378,0.00949
1187.07399,0.00887
1185.58420,0.01672
1184.09441,0.01696
1182.60463,0.01928
1181.11484,0.02162
1179.62505,0.02194
1178.13526,0.01411
1176.64547,0.01040
1175.15568,0.01024
1173.66589,0.00603
1172.17611,0.00870
1170.68632,0.01126
1169.19653,0.01385
1167.70674,0.01496
1166.21695,0.01092
1164.72716,0.02106
1163.23738,0.02524
1161.74759,0.03870
1160.25780,0.04293
1158.76801,0.05236
1157.27822,0.06181
1155.78843,0.07782
1154.29865,0.07751
1152.80886,0.10610
1151.31907,0.08651
1149.82928,0.10479
1148.33949,0.10213
1146.84970,0.10889
1145.35991,0.11568
1143.87013,0.11936
1142.38034,0.14403
1140.89055,0.14040
1139.40076,0.16321
1137.91097,0.19041
1136.42118,0.17623
1134.93140,0.18033
1133.44161,0.18445
1131.95182,0.21365
1130.46203,0.19875
1128.97224,0.20485
1127.48245,0.21315
1125.99266,0.21358
1124.50288,0.19879
1123.01309,0.20144
1121.52330,0.20412
1120.03351,0.21990
1118.54372,0.21882
1117.05393,0.22783
1115.56415,0.20501
1114.07436,0.22851
1112.58457,0.21717
1111.09478,0.20586
1109.60499,0.22181
1108.11520,0.23615
1106.62542,0.21783
1105.13563,0.20689
1103.64584,0.19325
1102.15605,0.19543
1100.66626,0.18878
1099.17647,0.18216
1097.68668,0.17025
1096.19690,0.17960
1094.70711,0.16475
1093.21732,0.16707
1091.72753,0.13838
1090.23774,0.13449
1088.74795,0.13062
1087.25817,0.14121
1085.76838,0.13522
1084.27859,0.13987
1082.78880,0.13555
1081.29901,0.13753
1079.80922,0.17275
1078.31943,0.17042
1076.82965,0.16811
1075.33986,0.16909
1073.85007,0.16329
1072.36028,0.15588
1070.87049,0.18253
1069.38070,0.19368
1067.89092,0.20582
1066.40113,0.21797
1064.91134,0.25480
1063.42155,0.31099
1061.93176,0.38490
1060.44197,0.44603
1058.95219,0.52762
1057.46240,0.57927
1055.97261,0.63095
1054.48282,0.69763
1052.99303,0.77550
1051.50324,0.77387
1050.01345,0.82592
1048.52367,0.80446
1047.03388,0.78426
1045.54409,0.76408
1044.05430,0.72309
1042.56451,0.68975
1041.07472,0.67440
1039.58494,0.61333
1038.09515,0.54194
1036.60536,0.50529
1035.11557,0.46867
1033.62578,0.43166
1032.13599,0.38106
1030.64620,0.31851
1029.15642,0.29165
1027.66663,0.26563
1026.17684,0.23964
1024.68705,0.20604
1023.19726,0.16022
1021.70747,0.12450
1020.21769,0.13182
1018.72790,0.12011
1017.23811,0.11060
1015.74832,0.10112
1014.25853,0.08540
1012.76874,0.09530
1011.27896,0.07581
1009.78917,0.07841
1008.29938,0.05461
1006.80959,0.03887
1005.31980,0.02316
1003.83001,0.01605
1002.34022,0.01114
1000.85044,0.02668
999.36065,0.02754
997.87086,0.03142
996.38107,0.03532
994.89128,0.05151
993.40149,0.04103
991.91171,0.05835
990.42192,0.06262
988.93213,0.06501
987.44234,0.07696
985.95255,0.08893
984.46276,0.09439
982.97297,0.08026
981.48319,0.07461
979.99340,0.06026
978.50361,0.06295
977.01382,0.06568
975.52403,0.02880
974.03424,0.03334
972.54446,0.00631
971.05467,0.02888
969.56488,0.02314
968.07509,0.02192
966.58530,0.02073
965.09551,0.01534
963.60573,0.00616
962.11594,0.01202
960.62615,0.01544
959.13636,0.01072
957.64657,0.00603
956.15678,0.01359
954.66699,0.02390
953.17721,0.04023
951.68742,0.04405
950.19763,0.04871
948.70784,0.05340
947.21805,0.06928
945.72826,0.09090
944.23848,0.09158
942.74869,0.11216
941.25890,0.16054
939.76911,0.17055
938.27932,0.18058
936.78953,0.17239
935.29974,0.19255
933.80996,0.19203
932.32017,0.19998
930.83038,0.20482
929.34059,0.20969
927.85080,0.24141
926.36101,0.24020
924.87123,0.28313
923.38144,0.32227
921.89165,0.35531
920.40186,0.38837
918.91207,0.46653
917.42228,0.61088
915.93250,0.70161
914.44271,0.88196
912.95292,0.98472
911.46313,1.08751
909.97334,1.26848
908.48355,1.48106
906.99376,1.67079
905.50398,1.81479
904.01419,1.87413
902.52440,1.93349
901.03461,1.98770
899.54482,2.00000
898.05503,1.86990
896.56525,1.70523
895.07546,1.56592
893.58567,1.42663
892.09588,1.14440
890.60609,0.88452
889.11630,0.68049
887.62651,0.50563
886.13673,0.43086
884.64694,0.35612
883.15715,0.28536
881.66736,0.19637
880.17757,0.15888
878.68778,0.13761
877.19800,0.11637
875.70821,0.07704
874.21842,0.05108
872.72863,0.04012
871.23884,0.02511
869.74905,0.01815
868.25927,0.01121
866.76948,0.01533
865.27969,0.01947
863.78990,0.04869
862.30011,0.04335
860.81032,0.03885
859.32053,0.03438
857.83075,0.03510
856.34096,0.05055
854.85117,0.07529
853.36138,0.08888
851.87159,0.09774
850.38180,0.10661
848.89202,0.12682
847.40223,0.14868
845.91244,0.15178
844.42265,0.15163
842.93286,0.15151
841.44307,0.16802
839.95329,0.17012
838.46350,0.18178
836.97371,0.21117
835.48392,0.21239
833.99413,0.21364
832.50434,0.22730
831.01455,0.21457
829.52477,0.18471
828.03498,0.15923
826.54519,0.14426
825.05540,0.12932
823.56561,0.13060
822.07582,0.11802
820.58604,0.11472
819.09625,0.10790
817.60646,0.10111
816.11667,0.07773
814.62688,0.08325
813.13709,0.09314
811.64730,0.09516
810.15752,0.09639
808.66773,0.09764
807.17794,0.07986
805.68815,0.09178
804.19836,0.10863
802.70857,0.10330
801.21879,0.09801
799.72900,0.09750
798.23921,0.11308
796.74942,0.11616
795.25963,0.10946
793.76984,0.10279
792.28006,0.11956
790.79027,0.11620
789.30048,0.12866
787.81069,0.15694
786.32090,0.17340
784.83111,0.18988
783.34132,0.21279
781.85154,0.23408
780.36175,0.24560
778.87196,0.26313
777.38217,0.28069
775.89238,0.33122
774.40259,0.32105
772.91281,0.30382
771.42302,0.28962
769.93323,0.27543
768.44344,0.26264
766.95365,0.22318
765.46386,0.17203
763.97407,0.15005
762.48429,0.14974
760.99450,0.14945
759.50471,0.15314
758.01492,0.11845
756.52513,0.11021
755.03534,0.10076
753.54556,0.09134
752.05577,0.06601
750.56598,0.06875
749.07619,0.06254
747.58640,0.05947
746.09661,0.05644
744.60683,0.03913
743.11704,0.03682
741.62725,0.02146
740.13746,0.02506
738.64767,0.02868
737.15788,0.03246
735.66809,0.00603
734.17831,0.02406
732.68852,0.02686
731.19873,0.02968
729.70894,0.03335
728.21915,0.01090
726.72936,0.00699
725.23958,0.02180
723.74979,0.01391
722.26000,0.00603
720.77021,0.02199
719.28042,0.00774
717.79063,0.01558
716.30084,0.01908
714.81106,0.02261
713.32127,0.01663
711.83148,0.01395
710.34169,0.01809
708.85190,0.02226
707.36211,0.02645
705.87233,0.03067
704.38254,0.03900
702.89275,0.04082
701.40296,0.04919
699.91317,0.05759
698.42338,0.06139
696.93360,0.08672
695.44381,0.08757
693.95402,0.10560
692.46423,0.12365
690.97444,0.12702
689.48465,0.14240
687.99486,0.14745
686.50508,0.16002
685.01529,0.17261
683.52550,0.19599
682.03571,0.22728
680.54592,0.26051
679.05613,0.26203
677.56635,0.26358
676.07656,0.24050
674.58677,0.26184
673.09698,0.22575
671.60719,0.20234
670.11740,0.17896
668.62761,0.13640
667.13783,0.12681
665.64804,0.11780
664.15825,0.10881
662.66846,0.10801
661.17867,0.07102
659.68888,0.07082
658.19910,0.06070
656.70931,0.05061
655.21952,0.06137
653.72973,0.01579
652.23994,0.03341
650.75015,0.04724
649.26037,0.06109
647.77058,0.03086
646.28079,0.03795
644.79100,0.02410
643.30121,0.02131
641.81142,0.01854
640.32163,0.01457
638.83185,0.00980
637.34206,0.01467
635.85227,0.01465
634.36248,0.01466
632.87269,0.00789
631.38290,0.00739
629.89312,0.01617
628.40333,0.01109
626.91354,0.00603
625.42375,0.01897
623.93396,0.00716
622.44417,0.00612
620.95438,0.00511
619.46460,0.01297
617.97481,0.02195
616.48502,0.05247
614.99523,0.05441
613.50544,0.05638
612.01565,0.08942
610.52587,0.12548
609.03608,0.15857
607.54629,0.17806
606.05650,0.19758
604.56671,0.27676
603.07692,0.29306
601.58714,0.32587
600.09735,0.35869
598.60756,0.37506
597.11777,0.37539
595.62798,0.39427
594.13819,0.39247
592.64840,0.39069
591.15862,0.37451
589.66883,0.29953
588.17904,0.24336
586.68925,0.21295
585.19946,0.18257
583.70967,0.15398
582.21989,0.12678
580.73010,0.11648
579.24031,0.10621
577.75052,0.09324
576.26073,0.05633
574.77094,0.04559
573.28115,0.02915
571.79137,0.01274
570.30158,0.03502
568.81179,0.04317
567.32200,0.04494
565.83221,0.04673
564.34242,0.04814
562.85264,0.07572
561.36285,0.09433
559.87306,0.11079
558.38327,0.12728
556.89348,0.14705
555.40369,0.15051
553.91391,0.14951
552.42412,0.14852
550.93433,0.12374
549.44454,0.13356
547.95475,0.13905
546.46496,0.14007
544.97517,0.14111
543.48539,0.16873
541.99560,0.18821
540.50581,0.21261
539.01602,0.23703
537.52623,0.31922
536.03644,0.35513
534.54666,0.39106
533.05687,0.39584
531.56708,0.40065
530.07729,0.49411
528.58750,0.55166
527.09771,0.55872
525.60792,0.56580
524.11814,0.64057
522.62835,0.66199
521.13856,0.72375
519.64877,0.72793
518.15898,0.73213
516.66919,0.78742
515.17941,0.79808
513.68962,0.80412
512.19983,0.81020
510.71004,0.76673
509.22025,0.72574
507.73046,0.63957
506.24068,0.59073
504.75089,0.54191
503.26110,0.44683
501.77131,0.37028
500.28152,0.32372
498.79173,0.27718
497.30194,0.18764
495.81216,0.14360
494.32237,0.14302
492.83258,0.14246
491.34279,0.10775
489.85300,0.08777
488.36321,0.05638
486.87343,0.05510
485.38364,0.05385
483.89385,0.03343
482.40406,0.09390
480.91427,0.10403
479.42448,0.11417
477.93469,0.13769
476.44491,0.12528
474.95512,0.13673
473.46533,0.14820
471.97554,0.15220
470.48575,0.15214
468.99596,0.12842
467.50618,0.11739
466.01639,0.10637
464.52660,0.08436
463.03681,0.08415
461.54702,0.06899
460.05723,0.05385
458.56745,0.03411
457.07766,0.03455
455.58787,0.03011
454.09808,0.02569
452.60829,0.01067
451.11850,0.00603
449.62871,0.00838
448.13893,0.01075
446.64914,0.02798
445.15935,0.00875
443.66956,0.03311
442.17977,0.02863
440.68998,0.02418
439.20020,0.00968
437.71041,0.03550
436.22062,0.03997
434.73083,0.04446
433.24104,0.04721
431.75125,0.05461
430.26146,0.04938
428.77168,0.04416
427.28189,0.05164
425.79210,0.02673
424.30231,0.02568
422.81252,0.02465
421.32273,0.03821
419.83295,0.02947
418.34316,0.02619
416.85337,0.02295
415.36358,0.00801
413.87379,0.03504
412.38400,0.04439
410.89422,0.05377
409.40443,0.05010
407.91464,0.05734
406.42485,0.05345
404.93506,0.04359
403.44527,0.03375
401.95548,0.03810
400.46570,0.04084
398.97591,0.04469
397.48612,0.04856
395.99633,0.04157
394.50654,0.03487
393.01675,0.02044
391.52697,0.00603
390.03718,0.02430
388.54739,0.03224
387.05760,0.03163
385.56781,0.03105
384.07802,0.05104
382.58824,0.05555
381.09845,0.03883
379.60866,0.02214
378.11887,0.00111
376.62908,0.00707
375.13929,0.00352
373.64950,0.00000
372.15972,0.02128
370.66993,0.01862
369.18014,0.01769
367.69035,0.01678
366.20056,0.03564
364.71077,0.02102
363.22099,0.01352
361.73120,0.00603
360.24141,0.04935
358.75162,0.05946
357.26183,0.05531
355.77204,0.05118
354.28225,0.02106
352.79247,0.02229
351.30268,0.04111
349.81289,0.05995
348.32310,0.06261
346.83331,0.09525
345.34352,0.08189
343.85374,0.06856
342.36395,0.06587
340.87416,0.05068
339.38437,0.04614
337.89458,0.04162
336.40479,0.05210
334.91501,0.04980
333.42522,0.03787
331.93543,0.02595
330.44564,0.00603
328.95585,0.04970
327.46606,0.04465
325.97627,0.03962
324.48649,0.07365
322.99670,0.09381
321.50691,0.09766
320.01712,0.10153
318.52733,0.11415
317.03754,0.10391
315.54776,0.09655
314.05797,0.08922
312.56818,0.04665
311.07839,0.07354
309.58860,0.06792
308.09881,0.06232
306.60902,0.02964
305.11924,0.02940
303.62945,0.01829
302.13966,0.00721
300.64987,0.00603
299.16008,0.00603
