1778.52000,0.01184
1777.03021,0.01803
1775.54042,0.02029
1774.05063,0.02455
1772.56085,0.02950
1771.07106,0.01570
1769.58127,0.01148
1768.09148,0.01419
1766.60169,0.01462
1765.11190,0.00784
1763.62212,0.02083
1762.13233,0.02035
1760.64254,0.00442
1759.15275,0.01058
1757.66296,0.01181
1756.17317,0.02065
1754.68339,0.01470
1753.19360,0.01173
1751.70381,0.02492
1750.21402,0.02102
1748.72423,0.01483
1747.23444,0.01031
1745.74465,0.00912
1744.25487,0.00531
1742.76508,0.01568
1741.27529,0.02345
1739.78550,0.01675
1738.29571,0.01173
1736.80592,0.00442
1735.31614,0.01465
1733.82635,0.01667
1732.33656,0.01477
1730.84677,0.02112
1729.35698,0.01992
1727.86719,0.02829
1726.37740,0.00607
1724.88762,0.01088
1723.39783,0.01537
1721.90804,0.00442
1720.41825,0.01704
1718.92846,0.01322
1717.43867,0.01535
1715.94889,0.01487
1714.45910,0.01573
1712.96931,0.01464
1711.47952,0.01621
1709.98973,0.01847
1708.49994,0.01877
1707.01016,0.02420
1705.52037,0.02965
1704.03058,0.01653
1702.54079,0.00442
1701.05100,0.01018
1699.56121,0.02453
1698.07142,0.02309
1696.58164,0.01674
1695.09185,0.01634
1693.60206,0.04198
1692.11227,0.01727
1690.62248,0.02682
1689.13269,0.02685
1687.64291,0.02657
1686.15312,0.02731
1684.66333,0.02741
1683.17354,0.01997
1681.68375,0.03197
1680.19396,0.02721
1678.70417,0.03795
1677.21439,0.04805
1675.72460,0.03744
1674.23481,0.04825
1672.74502,0.05876
1671.25523,0.03900
1669.76544,0.04889
1668.27566,0.04367
1666.78587,0.06876
1665.29608,0.06655
1663.80629,0.06700
1662.31650,0.06977
1660.82671,0.06599
1659.33693,0.08330
1657.84714,0.07101
1656.35735,0.06565
1654.86756,0.06361
1653.37777,0.05995
1651.88798,0.05895
1650.39819,0.05534
1648.90841,0.06163
1647.41862,0.05378
1645.92883,0.06358
1644.43904,0.07340
1642.94925,0.06431
1641.45946,0.05426
1639.96968,0.06004
1638.47989,0.07144
1636.99010,0.05818
1635.50031,0.05646
1634.01052,0.06069
1632.52073,0.07186
1631.03094,0.06758
1629.54116,0.05970
1628.05137,0.04987
1626.56158,0.06904
1625.07179,0.06881
1623.58200,0.08506
1622.09221,0.06974
1620.60243,0.06925
1619.11264,0.07208
1617.62285,0.06901
1616.13306,0.05180
1614.64327,0.06195
1613.15348,0.06850
1611.66370,0.07047
1610.17391,0.06587
1608.68412,0.06624
1607.19433,0.07421
1605.70454,0.05125
1604.21475,0.06157
1602.72496,0.07191
1601.23518,0.05660
1599.74539,0.05218
1598.25560,0.05667
1596.76581,0.05592
1595.27602,0.07626
1593.78623,0.06173
1592.29645,0.04722
1590.80666,0.04196
1589.31687,0.04331
1587.82708,0.04764
1586.33729,0.05068
1584.84750,0.05473
1583.35771,0.06441
1581.86793,0.06094
1580.37814,0.05848
1578.88835,0.05111
1577.39856,0.05463
1575.90877,0.04138
1574.41898,0.03902
1572.92920,0.05875
1571.43941,0.03076
1569.94962,0.03061
1568.45983,0.03049
1566.97004,0.02628
1565.48025,0.03164
1563.99047,0.05118
1562.50068,0.03190
1561.01089,0.03503
1559.52110,0.02831
1558.03131,0.02457
1556.54152,0.03337
1555.05173,0.03101
1553.56195,0.00825
1552.07216,0.01679
1550.58237,0.00528
1549.09258,0.00531
1547.60279,0.01591
1546.11300,0.00710
1544.62322,0.00128
1543.13343,0.00635
1541.64364,0.00750
1540.15385,0.01229
1538.66406,0.01711
1537.17427,0.01437
1535.68448,0.00442
1534.19470,0.01037
1532.70491,0.02689
1531.21512,0.00984
1529.72533,0.02476
1528.23554,0.00678
1526.74575,0.02899
1525.25597,0.02027
1523.76618,0.03792
1522.27639,0.01510
1520.78660,0.03642
1519.29681,0.04657
1517.80702,0.04555
1516.31724,0.04587
1514.82745,0.04292
1513.33766,0.04148
1511.84787,0.04007
1510.35808,0.03193
1508.86829,0.04982
1507.37850,0.03613
1505.88872,0.01753
1504.39893,0.03319
1502.90914,0.03308
1501.41935,0.05669
1499.92956,0.05498
1498.43977,0.04802
1496.94999,0.02792
1495.46020,0.06118
1493.97041,0.05661
1492.48062,0.06226
1490.99083,0.06761
1489.50104,0.07891
1488.01125,0.08003
1486.52147,0.08117
1485.03168,0.10802
1483.54189,0.12699
1482.05210,0.12952
1480.56231,0.11891
1479.07252,0.14322
1477.58274,0.16262
1476.09295,0.15373
1474.60316,0.17713
1473.11337,0.16104
1471.62358,0.18514
1470.13379,0.18557
1468.64401,0.19886
1467.15422,0.20263
1465.66443,0.21926
1464.17464,0.23591
1462.68485,0.24634
1461.19506,0.28905
1459.70527,0.32686
1458.21549,0.33307
1456.72570,0.35841
1455.23591,0.41736
1453.74612,0.47337
1452.25633,0.50899
1450.76654,0.52949
1449.27676,0.51906
1447.78697,0.52249
1446.29718,0.53055
1444.80739,0.51938
1443.31760,0.50823
1441.82781,0.44096
1440.33802,0.40040
1438.84824,0.39212
1437.35845,0.37958
1435.86866,0.38156
1434.37887,0.37237
1432.88908,0.42872
1431.39929,0.46699
1429.90951,0.52207
1428.41972,0.57619
1426.92993,0.60532
1425.44014,0.60582
1423.95035,0.64026
1422.46056,0.67473
1420.97078,0.69736
1419.48099,0.70685
1417.99120,0.70978
1416.50141,0.68772
1415.01162,0.69037
1413.52183,0.64432
1412.03204,0.58578
1410.54226,0.58850
1409.05247,0.55701
1407.56268,0.51402
1406.07289,0.48949
1404.58310,0.45247
1403.09331,0.41548
1401.60353,0.37819
1400.11374,0.35376
1398.62395,0.31190
1397.13416,0.24867
1395.64437,0.21345
1394.15458,0.19208
1392.66479,0.14176
1391.17501,0.13130
1389.68522,0.11626
1388.19543,0.07623
1386.70564,0.07029
1385.21585,0.06438
1383.72606,0.05273
1382.23628,0.03715
1380.74649,0.06078
1379.25670,0.03110
1377.76691,0.02152
1376.27712,0.00802
1374.78733,0.00442
1373.29755,0.00913
1371.80776,0.03066
1370.31797,0.04036
1368.82818,0.03279
1367.33839,0.02526
1365.84860,0.04359
1364.35881,0.04351
1362.86903,0.05465
1361.37924,0.07239
1359.88945,0.07568
1358.39966,0.07339
1356.90987,0.10636
1355.42008,0.12783
1353.93030,0.18093
1352.44051,0.21841
1350.95072,0.25592
1349.46093,0.30646
1347.97114,0.37777
1346.48135,0.41288
1344.99156,0.47008
1343.50178,0.55134
1342.01199,0.58554
1340.52220,0.62075
1339.03241,0.63557
1337.54262,0.65470
1336.05283,0.69114
1334.56305,0.72760
1333.07326,0.78697
1331.58347,0.77360
1330.09368,0.74676
1328.60389,0.74035
1327.11410,0.73825
1325.62432,0.69667
1324.13453,0.72754
1322.64474,0.68271
1321.15495,0.63593
1319.66516,0.61272
1318.17537,0.58953
1316.68558,0.54217
1315.19580,0.49746
1313.70601,0.45574
1312.21622,0.42228
1310.72643,0.38885
1309.23664,0.36728
1307.74685,0.33686
1306.25707,0.31667
1304.76728,0.29567
1303.27749,0.27470
1301.78770,0.22857
1300.29791,0.23185
1298.80812,0.18544
1297.31834,0.18581
1295.82855,0.17204
1294.33876,0.13032
1292.84897,0.12351
1291.35918,0.09303
1289.86939,0.09418
1288.37960,0.09535
1286.88982,0.08502
1285.40003,0.07472
1283.91024,0.05029
1282.42045,0.08547
1280.93066,0.03013
1279.44087,0.05384
1277.95109,0.03938
1276.46130,0.03252
1274.97151,0.03984
1273.48172,0.04718
1271.99193,0.03875
1270.50214,0.02738
1269.01235,0.03348
1267.52257,0.03203
1266.03278,0.04213
1264.54299,0.03086
1263.05320,0.03014
1261.56341,0.01727
1260.07362,0.00442
1258.58384,0.01211
1257.09405,0.02081
1255.60426,0.00813
1254.11447,0.01820
1252.62468,0.01644
1251.13489,0.02062
1249.64511,0.01891
1248.15532,0.02348
1246.66553,0.02461
1245.17574,0.02577
1243.68595,0.02317
1242.19616,0.01302
1240.70637,0.01837
1239.21659,0.01617
1237.72680,0.02387
1236.23701,0.03291
1234.74722,0.01894
1233.25743,0.02144
1231.76764,0.02398
1230.27786,0.02884
1228.78807,0.00442
1227.29828,0.02623
1225.80849,0.00624
1224.31870,0.00834
1222.82891,0.00882
1221.33912,0.02117
1219.84934,0.02746
1218.35955,0.03377
1216.86976,0.03797
1215.37997,0.04416
1213.89018,0.05763
1212.40039,0.04050
1210.91061,0.05566
1209.42082,0.05734
1207.93103,0.05461
1206.44124,0.05190
1204.95145,0.03851
1203.46166,0.04063
1201.97188,0.04606
1200.48209,0.04295
1198.99230,0.03559
1197.50251,0.05723
1196.01272,0.04662
1194.52293,0.04230
1193.03314,0.03800
1191.54336,0.02911
1190.05357,0.01103
1188.56378,0.02525
1187.07399,0.01775
1185.58420,0.00469
1184.09441,0.01634
1182.60463,0.01896
1181.11484,0.02161
1179.62505,0.03926
1178.13526,0.02335
1176.64547,0.02031
1175.15568,0.00774
1173.66589,0.00442
1172.17611,0.00759
1170.68632,0.01277
1169.19653,0.01797
1167.70674,0.00969
1166.21695,0.03074
1164.72716,0.03700
1163.23738,0.02024
1161.74759,0.03214
1160.25780,0.04473
1158.76801,0.05454
1157.27822,0.06438
1155.78843,0.06289
1154.29865,0.07558
1152.80886,0.10376
1151.31907,0.11156
1149.82928,0.10325
1148.33949,0.11175
1146.84970,0.11320
1145.35991,0.11468
1143.87013,0.11700
1142.38034,0.13614
1140.89055,0.13687
1139.40076,0.15803
1137.91097,0.15749
1136.42118,0.17673
1134.93140,0.17738
1133.44161,0.17807
1131.95182,0.18750
1130.46203,0.17819
1128.97224,0.19130
1127.48245,0.19949
1125.99266,0.20079
1124.50288,0.21068
1123.01309,0.20577
1121.52330,0.20089
1120.03351,0.21710
1118.54372,0.20931
1117.05393,0.20384
1115.56415,0.19906
1114.07436,0.19167
1112.58457,0.19648
1111.09478,0.20132
1109.60499,0.21178
1108.11520,0.21700
1106.62542,0.23311
1105.13563,0.23080
1103.64584,0.19987
1102.15605,0.19268
1100.66626,0.19259
1099.17647,0.19252
1097.68668,0.19099
1096.19690,0.19707
1094.70711,0.20678
1093.21732,0.16517
1091.72753,0.13575
1090.23774,0.13715
1088.74795,0.13857
1087.25817,0.15862
1085.76838,0.14610
1084.27859,0.14677
1082.78880,0.11948
1081.29901,0.11230
1079.80922,0.14235
1078.31943,0.13949
1076.82965,0.13667
1075.33986,0.14078
1073.85007,0.16763
1072.36028,0.17344
1070.87049,0.19442
1069.38070,0.22167
1067.89092,0.21801
1066.40113,0.21436
1064.91134,0.25157
1063.42155,0.27629
1061.93176,0.36623
1060.44197,0.46179
1058.95219,0.48658
1057.46240,0.55865
1055.97261,0.63074
1054.48282,0.73331
1052.99303,0.79573
1051.50324,0.81012
1050.01345,0.79753
1048.52367,0.82085
1047.03388,0.79793
1045.54409,0.77504
1044.05430,0.72765
1042.56451,0.71452
1041.07472,0.67936
1039.58494,0.60669
1038.09515,0.51692
1036.60536,0.48957
1035.11557,0.46225
1033.62578,0.45355
1032.13599,0.36882
1030.64620,0.33416
1029.15642,0.26956
1027.66663,0.24515
1026.17684,0.22077
1024.68705,0.19477
1023.19726,0.16353
1021.70747,0.14251
1020.21769,0.11296
1018.72790,0.11867
1017.23811,0.11913
1015.74832,0.11961
1014.25853,0.09279
1012.76874,0.09366
1011.27896,0.09553
1009.78917,0.10073
1008.29938,0.07664
1006.80959,0.06756
1005.31980,0.05850
1003.83001,0.03252
1002.34022,0.02565
1000.85044,0.01552
999.36065,0.02944
997.87086,0.03763
996.38107,0.04584
994.89128,0.04897
993.40149,0.06596
991.91171,0.07573
990.42192,0.07959
988.93213,0.08019
987.44234,0.07324
985.95255,0.06632
984.46276,0.09464
982.97297,0.09699
981.48319,0.05984
979.99340,0.06849
978.50361,0.05922
977.01382,0.04997
975.52403,0.02478
974.03424,0.02464
972.54446,0.02353
971.05467,0.00467
969.56488,0.01775
968.07509,0.02213
966.58530,0.02653
965.09551,0.03640
963.60573,0.00941
962.11594,0.00812
960.62615,0.01543
959.13636,0.00991
957.64657,0.00442
956.15678,0.02542
954.66699,0.03591
953.17721,0.03984
951.68742,0.02140
950.19763,0.03032
948.70784,0.03926
947.21805,0.06732
945.72826,0.08026
944.23848,0.11034
942.74869,0.09304
941.25890,0.11593
939.76911,0.12913
938.27932,0.14236
936.78953,0.16961
935.29974,0.18074
933.80996,0.19092
932.32017,0.19618
930.83038,0.20755
929.34059,0.21895
927.85080,0.22758
926.36101,0.24874
924.87123,0.27223
923.38144,0.31747
921.89165,0.33328
920.40186,0.34910
918.91207,0.45862
917.42228,0.54249
915.93250,0.68301
914.44271,0.86998
912.95292,0.98618
911.46313,1.10241
909.97334,1.30295
908.48355,1.44853
906.99376,1.65538
905.50398,1.84809
904.01419,1.91258
902.52440,1.97710
901.03461,2.00000
899.54482,1.95082
898.05503,1.85655
896.56525,1.62106
895.07546,1.48487
893.58567,1.34870
892.09588,1.10506
890.60609,0.85946
889.11630,0.68106
887.62651,0.50432
886.13673,0.43264
884.64694,0.36099
883.15715,0.28705
881.66736,0.21248
880.17757,0.16460
878.68778,0.13618
877.19800,0.10778
875.70821,0.05833
874.21842,0.05104
872.72863,0.05827
871.23884,0.02865
869.74905,0.02424
868.25927,0.01986
866.76948,0.01204
865.27969,0.03652
863.78990,0.03402
862.30011,0.03220
860.81032,0.05115
859.32053,0.07012
857.83075,0.05389
856.34096,0.05415
854.85117,0.07023
853.36138,0.09918
851.87159,0.10906
850.38180,0.11897
848.89202,0.11836
847.40223,0.13490
845.91244,0.14421
844.42265,0.15586
842.93286,0.16753
841.44307,0.16211
839.95329,0.18338
838.46350,0.21916
836.97371,0.22797
835.48392,0.23054
833.99413,0.23314
832.50434,0.21371
831.01455,0.22788
829.52477,0.19697
828.03498,0.16971
826.54519,0.15696
825.05540,0.14423
823.56561,0.12956
822.07582,0.11787
820.58604,0.11378
819.09625,0.11530
817.60646,0.11686
816.11667,0.09769
814.62688,0.08152
813.13709,0.09072
811.64730,0.10587
810.15752,0.09668
808.66773,0.08752
807.17794,0.06587
805.68815,0.07552
804.19836,0.11055
802.70857,0.12288
801.21879,0.13524
799.72900,0.12557
798.23921,0.10637
796.74942,0.09872
795.25963,0.10690
793.76984,0.11510
792.28006,0.10325
790.79027,0.12335
789.30048,0.13064
787.81069,0.16100
786.32090,0.18151
784.83111,0.20204
783.34132,0.22984
781.85154,0.26392
780.36175,0.30691
778.87196,0.30713
777.38217,0.30737
775.89238,0.32772
774.40259,0.35534
772.91281,0.31944
771.42302,0.31632
769.93323,0.31323
768.44344,0.28432
766.95365,0.22942
765.46386,0.19166
763.97407,0.18159
762.48429,0.17582
760.99450,0.17008
759.50471,0.13835
758.01492,0.11027
756.52513,0.09768
755.03534,0.11097
753.54556,0.12428
752.05577,0.09597
750.56598,0.08908
749.07619,0.07299
747.58640,0.07323
746.09661,0.07350
744.60683,0.06045
743.11704,0.03228
741.62725,0.05254
740.13746,0.04665
738.64767,0.04078
737.15788,0.02028
735.66809,0.00442
734.17831,0.01755
732.68852,0.02230
731.19873,0.02708
729.70894,0.02941
728.21915,0.01564
726.72936,0.00716
725.23958,0.00989
723.74979,0.00953
722.26000,0.00918
720.77021,0.00442
719.28042,0.01706
717.79063,0.01688
716.30084,0.01508
714.81106,0.01331
713.32127,0.04152
711.83148,0.03848
710.34169,0.01142
708.85190,0.01205
707.36211,0.01270
705.87233,0.03116
704.38254,0.03384
702.89275,0.05498
701.40296,0.05639
699.91317,0.05782
698.42338,0.06488
696.93360,0.07755
695.44381,0.09091
693.95402,0.11236
692.46423,0.13384
690.97444,0.13674
689.48465,0.18213
687.99486,0.15775
686.50508,0.17439
685.01529,0.19105
683.52550,0.23490
682.03571,0.25737
680.54592,0.25451
679.05613,0.25711
677.56635,0.25974
676.07656,0.28000
674.58677,0.27955
673.09698,0.22809
671.60719,0.20941
670.11740,0.19076
668.62761,0.15880
667.13783,0.13773
665.64804,0.12227
664.15825,0.10685
662.66846,0.10593
661.17867,0.09121
659.68888,0.08804
658.19910,0.08045
656.70931,0.07289
655.21952,0.05761
653.72973,0.06375
652.23994,0.05873
650.75015,0.05274
649.26037,0.04678
647.77058,0.04974
646.28079,0.04876
644.79100,0.05407
643.30121,0.04129
641.81142,0.02854
640.32163,0.02602
638.83185,0.00442
637.34206,0.01365
635.85227,0.01517
634.36248,0.01671
632.87269,0.01877
631.38290,0.03271
629.89312,0.02362
628.40333,0.02938
626.91354,0.03516
625.42375,0.01133
623.93396,0.02638
622.44417,0.02384
620.95438,0.02132
619.46460,0.03249
617.97481,0.04665
616.48502,0.06610
614.99523,0.06796
613.50544,0.06985
612.01565,0.10155
610.52587,0.15205
609.03608,0.15911
607.54629,0.17921
606.05650,0.19932
604.56671,0.26342
603.07692,0.31173
601.58714,0.33621
600.09735,0.36070
598.60756,0.36826
597.11777,0.43117
595.62798,0.41870
594.13819,0.40394
592.64840,0.38922
591.15862,0.38834
589.66883,0.34930
588.17904,0.28592
586.68925,0.24314
585.19946,0.20039
583.70967,0.17758
582.21989,0.14228
580.73010,0.12034
579.24031,0.09843
577.75052,0.08823
576.26073,0.08563
574.77094,0.05901
573.28115,0.05580
571.79137,0.05261
570.30158,0.06196
568.81179,0.05948
567.32200,0.04748
565.83221,0.03550
564.34242,0.07293
562.85264,0.08602
561.36285,0.10473
559.87306,0.11211
558.38327,0.11952
556.89348,0.16036
555.40369,0.18346
553.91391,0.17546
552.42412,0.16749
550.93433,0.15180
549.44454,0.13153
547.95475,0.16199
546.46496,0.15873
544.97517,0.15549
543.48539,0.19820
541.99560,0.22020
540.50581,0.24666
539.01602,0.27315
537.52623,0.34000
536.03644,0.38646
534.54666,0.39113
533.05687,0.42792
531.56708,0.46474
530.07729,0.52710
528.58750,0.57368
527.09771,0.60037
525.60792,0.62708
524.11814,0.67966
522.62835,0.69770
521.13856,0.73420
519.64877,0.77006
518.15898,0.80595
516.66919,0.83429
515.17941,0.85311
513.68962,0.84726
512.19983,0.84143
510.71004,0.82246
509.22025,0.77486
507.73046,0.68022
506.24068,0.62510
504.75089,0.57001
503.26110,0.50276
501.77131,0.41512
500.28152,0.35270
498.79173,0.29030
497.30194,0.20932
495.81216,0.16294
494.32237,0.15592
492.83258,0.14893
491.34279,0.10822
489.85300,0.08762
488.36321,0.07494
486.87343,0.06344
485.38364,0.05196
483.89385,0.07558
482.40406,0.08670
480.91427,0.08567
479.42448,0.08466
477.93469,0.12451
476.44491,0.13540
474.95512,0.15505
473.46533,0.17472
471.97554,0.19161
470.48575,0.17726
468.99596,0.17642
467.50618,0.15981
466.01639,0.14322
464.52660,0.09834
463.03681,0.11044
461.54702,0.09607
460.05723,0.08172
458.56745,0.03957
457.07766,0.04124
455.58787,0.03190
454.09808,0.02258
452.60829,0.06910
451.11850,0.02675
449.62871,0.03660
448.13893,0.04648
446.64914,0.01276
445.15935,0.00442
443.66956,0.02539
442.17977,0.02745
440.68998,0.02954
439.20020,0.04696
437.71041,0.03478
436.22062,0.03809
434.73083,0.04143
433.24104,0.00594
431.75125,0.03402
430.26146,0.02871
428.77168,0.02342
427.28189,0.04564
425.79210,0.03596
424.30231,0.02218
422.81252,0.00843
421.32273,0.00409
419.83295,0.01525
418.34316,0.01655
416.85337,0.01788
415.36358,0.01265
413.87379,0.04365
412.38400,0.04934
410.89422,0.05504
409.40443,0.01600
407.91464,0.04151
406.42485,0.05354
404.93506,0.04157
403.44527,0.02962
401.95548,0.00551
400.46570,0.02950
398.97591,0.04017
397.48612,0.05088
395.99633,0.03115
394.50654,0.00815
393.01675,0.01119
391.52697,0.01244
390.03718,0.00515
388.54739,0.01074
387.05760,0.01141
385.56781,0.01211
384.07802,0.02567
382.58824,0.02938
381.09845,0.01468
379.60866,-0.00000
378.11887,0.01718
376.62908,0.01562
375.13929,0.01309
373.64950,0.01059
372.15972,0.01469
370.66993,0.03266
369.18014,0.02150
367.69035,0.01037
366.20056,0.02288
364.71077,0.04562
363.22099,0.03892
361.73120,0.03224
360.24141,0.05209
358.75162,0.07789
357.26183,0.06881
355.77204,0.05977
354.28225,0.03856
352.79247,0.03548
351.30268,0.04264
349.81289,0.04982
348.32310,0.07184
346.83331,0.07216
345.34352,0.08501
343.85374,0.09789
342.36395,0.06305
340.87416,0.08124
339.38437,0.05501
337.89458,0.02881
336.40479,0.03555
334.91501,0.03903
333.42522,0.03051
331.93543,0.02202
330.44564,0.04335
328.95585,0.03178
327.46606,0.04558
325.97627,0.05941
324.48649,0.05779
322.99670,0.11052
321.50691,0.12262
320.01712,0.13473
318.52733,0.15856
317.03754,0.10505
315.54776,0.12415
314.05797,0.14328
312.56818,0.10630
311.07839,0.08153
309.58860,0.09135
308.09881,0.10119
306.60902,0.08834
305.11924,0.04062
303.62945,0.02782
302.13966,0.01504
300.64987,0.00442
299.16008,0.00442
