1778.52000,0.00000
1777.03021,0.01143
1775.54042,0.00760
1774.05063,0.00982
1772.56085,0.00805
1771.07106,0.00630
1769.58127,0.00679
1768.09148,0.00549
1766.60169,0.00422
1765.11190,0.01664
1763.62212,0.00858
1762.13233,0.01341
1760.64254,0.00862
1759.15275,0.01470
1757.66296,0.00935
1756.17317,0.00523
1754.68339,0.00998
1753.19360,0.01435
1751.70381,0.01874
1750.21402,0.01995
1748.72423,0.01956
1747.23444,0.00955
1745.74465,0.00882
1744.25487,0.02082
1742.76508,0.01274
1741.27529,0.02459
1739.78550,0.01615
1738.29571,0.01357
1736.80592,0.02107
1735.31614,0.02477
1733.82635,0.02286
1732.33656,0.02178
1730.84677,0.02154
1729.35698,0.01789
1727.86719,0.01850
1726.37740,0.01671
1724.88762,0.01817
1723.39783,0.01241
1721.90804,0.01592
1720.41825,0.02147
1718.92846,0.00935
1717.43867,0.01875
1715.94889,0.02455
1714.45910,0.01569
1712.96931,0.02315
1711.47952,0.01274
1709.98973,0.02145
1708.49994,0.01088
1707.01016,0.01411
1705.52037,0.01737
1704.03058,0.01090
1702.54079,0.00565
1701.05100,0.01210
1699.56121,0.01233
1698.07142,0.00776
1696.58164,0.01488
1695.09185,0.02102
1693.60206,0.02718
1692.11227,0.00984
1690.62248,0.01766
1689.13269,0.01565
1687.64291,0.02371
1686.15312,0.02014
1684.66333,0.03590
1683.17354,0.02574
1681.68375,0.02847
1680.19396,0.03445
1678.70417,0.04005
1677.21439,0.04185
1675.72460,0.06157
1674.23481,0.04652
1672.74502,0.04940
1671.25523,0.04788
1669.76544,0.04960
1668.27566,0.05456
1666.78587,0.07443
1665.29608,0.07159
1663.80629,0.08065
1662.31650,0.07806
1660.82671,0.08053
1659.33693,0.08845
1657.84714,0.08714
1656.35735,0.08244
1654.86756,0.07515
1653.37777,0.07553
1651.88798,0.08015
1650.39819,0.06911
1648.90841,0.06815
1647.41862,0.07687
1645.92883,0.08108
1644.43904,0.08532
1642.94925,0.08365
1641.45946,0.08884
1639.96968,0.07355
1638.47989,0.08764
1636.99010,0.08526
1635.50031,0.08833
1634.01052,0.09324
1632.52073,0.09657
1631.03094,0.07880
1629.54116,0.09344
1628.05137,0.07693
1626.56158,0.08920
1625.07179,0.10631
1623.58200,0.09812
1622.09221,0.08693
1620.60243,0.08985
1619.11264,0.08293
1617.62285,0.09434
1616.13306,0.08124
1614.64327,0.09591
1613.15348,0.08447
1611.66370,0.09778
1610.17391,0.08819
1608.68412,0.09170
1607.19433,0.09001
1605.70454,0.10241
1604.21475,0.09895
1602.72496,0.09552
1601.23518,0.09291
1599.74539,0.07404
1598.25560,0.08657
1596.76581,0.08343
1595.27602,0.09560
1593.78623,0.08406
1592.29645,0.08019
1590.80666,0.07414
1589.31687,0.07574
1587.82708,0.07295
1586.33729,0.07461
1584.84750,0.09036
1583.35771,0.08342
1581.86793,0.07751
1580.37814,0.08187
1578.88835,0.10094
1577.39856,0.07942
1575.90877,0.06455
1574.41898,0.06238
1572.92920,0.05782
1571.43941,0.05308
1569.94962,0.05349
1568.45983,0.05392
1566.97004,0.05328
1565.48025,0.04642
1563.99047,0.05266
1562.50068,0.05068
1561.01089,0.03585
1559.52110,0.03834
1558.03131,0.03261
1556.54152,0.02851
1555.05173,0.02424
1553.56195,0.01416
1552.07216,0.02200
1550.58237,0.00935
1549.09258,0.01753
1547.60279,0.01950
1546.11300,0.02471
1544.62322,0.02110
1543.13343,0.02656
1541.64364,0.01536
1540.15385,0.01433
1538.66406,0.01333
1537.17427,0.02847
1535.68448,0.03057
1534.19470,0.01740
1532.70491,0.01452
1531.21512,0.01266
1529.72533,0.02435
1528.23554,0.02861
1526.74575,0.02969
1525.25597,0.02737
1523.76618,0.02688
1522.27639,0.03567
1520.78660,0.03563
1519.29681,0.03984
1517.80702,0.05433
1516.31724,0.05276
1514.82745,0.05644
1513.33766,0.05250
1511.84787,0.04859
1510.35808,0.06541
1508.86829,0.04606
1507.37850,0.05609
1505.88872,0.05609
1504.39893,0.05914
1502.90914,0.06140
1501.41935,0.06932
1499.92956,0.06901
1498.43977,0.07296
1496.94999,0.06868
1495.46020,0.06583
1493.97041,0.07427
1492.48062,0.07570
1490.99083,0.09122
1489.50104,0.10335
1488.01125,0.11470
1486.52147,0.12608
1485.03168,0.14793
1483.54189,0.17544
1482.05210,0.17864
1480.56231,0.17825
1479.07252,0.19799
1477.58274,0.20267
1476.09295,0.18928
1474.60316,0.20808
1473.11337,0.21183
1471.62358,0.22002
1470.13379,0.23206
1468.64401,0.25639
1467.15422,0.27612
1465.66443,0.29105
1464.17464,0.30600
1462.68485,0.34410
1461.19506,0.37358
1459.70527,0.42158
1458.21549,0.42356
1456.72570,0.47824
1455.23591,0.53596
1453.74612,0.60558
1452.25633,0.61911
1450.76654,0.65901
1449.27676,0.67662
1447.78697,0.66448
1446.29718,0.65941
1444.80739,0.64240
1443.31760,0.62542
1441.82781,0.57357
1440.33802,0.51531
1438.84824,0.47798
1437.35845,0.46280
1435.86866,0.45106
1434.37887,0.47836
1432.88908,0.53705
1431.39929,0.60762
1429.90951,0.68184
1428.41972,0.71366
1426.92993,0.72559
1425.44014,0.75564
1423.95035,0.78813
1422.46056,0.82065
1420.97078,0.84635
1419.48099,0.86906
1417.99120,0.91612
1416.50141,0.88559
1415.01162,0.83055
1413.52183,0.81214
1412.03204,0.76660
1410.54226,0.71787
1409.05247,0.67720
1407.56268,0.64823
1406.07289,0.61163
1404.58310,0.57245
1403.09331,0.53329
1401.60353,0.46781
1400.11374,0.41623
1398.62395,0.36467
1397.13416,0.30349
1395.64437,0.25841
1394.15458,0.22141
1392.66479,0.20091
1391.17501,0.17079
1389.68522,0.14231
1388.19543,0.12148
1386.70564,0.10883
1385.21585,0.09619
1383.72606,0.05895
1382.23628,0.04506
1380.74649,0.03361
1379.25670,0.03806
1377.76691,0.03169
1376.27712,0.02513
1374.78733,0.00935
1373.29755,0.01432
1371.80776,0.02475
1370.31797,0.02918
1368.82818,0.03191
1367.33839,0.03467
1365.84860,0.03273
1364.35881,0.03483
1362.86903,0.04460
1361.37924,0.05520
1359.88945,0.07085
1358.39966,0.09034
1356.90987,0.12373
1355.42008,0.16821
1353.93030,0.21492
1352.44051,0.25633
1350.95072,0.29776
1349.46093,0.37852
1347.97114,0.43679
1346.48135,0.51982
1344.99156,0.57069
1343.50178,0.61616
1342.01199,0.69082
1340.52220,0.70477
1339.03241,0.76599
1337.54262,0.80010
1336.05283,0.83302
1334.56305,0.86597
1333.07326,0.92448
1331.58347,0.92510
1330.09368,0.91006
1328.60389,0.89223
1327.11410,0.85512
1325.62432,0.84076
1324.13453,0.86040
1322.64474,0.82095
1321.15495,0.74895
1319.66516,0.71658
1318.17537,0.68424
1316.68558,0.61050
1315.19580,0.58364
1313.70601,0.52724
1312.21622,0.48172
1310.72643,0.46096
1309.23664,0.43239
1307.74685,0.41067
1306.25707,0.37510
1304.76728,0.34841
1303.27749,0.32173
1301.78770,0.27297
1300.29791,0.23709
1298.80812,0.24005
1297.31834,0.19618
1295.82855,0.17305
1294.33876,0.13064
1292.84897,0.10655
1291.35918,0.08992
1289.86939,0.08387
1288.37960,0.07785
1286.88982,0.08221
1285.40003,0.08136
1283.91024,0.06626
1282.42045,0.05883
1280.93066,0.04659
1279.44087,0.03036
1277.95109,0.03184
1276.46130,0.03275
1274.97151,0.03147
1273.48172,0.03021
1271.99193,0.03461
1270.50214,0.02415
1269.01235,0.03583
1267.52257,0.02482
1266.03278,0.02850
1264.54299,0.03021
1263.05320,0.02228
1261.56341,0.01880
1260.07362,0.01535
1258.58384,0.01734
1257.09405,0.01132
1255.60426,0.00935
1254.11447,0.01515
1252.62468,0.01393
1251.13489,0.01093
1249.64511,0.03389
1248.15532,0.02672
1246.66553,0.02489
1245.17574,0.02309
1243.68595,0.02645
1242.19616,0.02460
1240.70637,0.01814
1239.21659,0.00689
1237.72680,0.01589
1236.23701,0.03337
1234.74722,0.02553
1233.25743,0.02355
1231.76764,0.02159
1230.27786,0.02609
1228.78807,0.03223
1227.29828,0.02009
1225.80849,0.02003
1224.31870,0.00935
1222.82891,0.01032
1221.33912,0.02820
1219.84934,0.02952
1218.35955,0.03086
1216.86976,0.04801
1215.37997,0.06036
1213.89018,0.06127
1212.40039,0.05256
1210.91061,0.05834
1209.42082,0.06395
1207.93103,0.06958
1206.44124,0.07524
1204.95145,0.05679
1203.46166,0.06250
1201.97188,0.06400
1200.48209,0.04944
1198.99230,0.04738
1197.50251,0.04333
1196.01272,0.04030
1194.52293,0.03610
1193.03314,0.03192
1191.54336,0.03158
1190.05357,0.01056
1188.56378,0.01228
1187.07399,0.02106
1185.58420,0.01740
1184.09441,0.02121
1182.60463,0.02292
1181.11484,0.02466
1179.62505,0.02834
1178.13526,0.02098
1176.64547,0.01586
1175.15568,0.00935
1173.66589,0.01337
1172.17611,0.01239
1170.68632,0.01686
1169.19653,0.02136
1167.70674,0.03191
1166.21695,0.02198
1164.72716,0.03339
1163.23738,0.03516
1161.74759,0.02410
1160.25780,0.04744
1158.76801,0.05401
1157.27822,0.06061
1155.78843,0.07437
1154.29865,0.08193
1152.80886,0.11705
1151.31907,0.10696
1149.82928,0.10171
1148.33949,0.11961
1146.84970,0.12558
1145.35991,0.13156
1143.87013,0.11515
1142.38034,0.14904
1140.89055,0.14052
1139.40076,0.16983
1137.91097,0.18569
1136.42118,0.17905
1134.93140,0.18560
1133.44161,0.19219
1131.95182,0.21277
1130.46203,0.20622
1128.97224,0.20614
1127.48245,0.21634
1125.99266,0.22656
1124.50288,0.22333
1123.01309,0.22073
1121.52330,0.21815
1120.03351,0.21720
1118.54372,0.22654
1117.05393,0.23208
1115.56415,0.22799
1114.07436,0.22694
1112.58457,0.21646
1111.09478,0.20601
1109.60499,0.21810
1108.11520,0.22801
1106.62542,0.22547
1105.13563,0.20827
1103.64584,0.18487
1102.15605,0.19286
1100.66626,0.18559
1099.17647,0.17835
1097.68668,0.19445
1096.19690,0.17358
1094.70711,0.18089
1093.21732,0.16932
1091.72753,0.14208
1090.23774,0.14353
1088.74795,0.14500
1087.25817,0.15323
1085.76838,0.14680
1084.27859,0.15649
1082.78880,0.16178
1081.29901,0.15723
1079.80922,0.15955
1078.31943,0.15767
1076.82965,0.15581
1075.33986,0.17549
1073.85007,0.16906
1072.36028,0.16687
1070.87049,0.17758
1069.38070,0.20620
1067.89092,0.21565
1066.40113,0.22512
1064.91134,0.26629
1063.42155,0.33683
1061.93176,0.42429
1060.44197,0.49046
1058.95219,0.56651
1057.46240,0.61232
1055.97261,0.65816
1054.48282,0.74352
1052.99303,0.79996
1051.50324,0.84356
1050.01345,0.84314
1048.52367,0.82082
1047.03388,0.80979
1045.54409,0.79879
1044.05430,0.78620
1042.56451,0.74930
1041.07472,0.70016
1039.58494,0.64401
1038.09515,0.55129
1036.60536,0.52293
1035.11557,0.49460
1033.62578,0.44558
1032.13599,0.38874
1030.64620,0.33636
1029.15642,0.30008
1027.66663,0.27347
1026.17684,0.24690
1024.68705,0.20265
1023.19726,0.16968
1021.70747,0.14860
1020.21769,0.13037
1018.72790,0.11296
1017.23811,0.11417
1015.74832,0.11541
1014.25853,0.09706
1012.76874,0.09081
1011.27896,0.09182
1009.78917,0.08601
1008.29938,0.05530
1006.80959,0.04311
1005.31980,0.03094
1003.83001,0.00935
1002.34022,0.01270
1000.85044,0.02794
999.36065,0.03898
997.87086,0.04281
996.38107,0.04666
994.89128,0.04772
993.40149,0.05222
991.91171,0.05614
990.42192,0.07537
988.93213,0.07049
987.44234,0.08122
985.95255,0.09198
984.46276,0.10044
982.97297,0.09345
981.48319,0.08045
979.99340,0.04978
978.50361,0.04627
977.01382,0.04279
975.52403,0.02908
974.03424,0.02626
972.54446,0.02164
971.05467,0.00921
969.56488,0.02576
968.07509,0.02675
966.58530,0.02776
965.09551,0.01221
963.60573,0.00935
962.11594,0.00915
960.62615,0.01384
959.13636,0.01876
957.64657,0.02370
956.15678,0.01881
954.66699,0.02380
953.17721,0.03324
951.68742,0.03948
950.19763,0.04655
948.70784,0.05365
947.21805,0.07163
945.72826,0.08319
944.23848,0.08493
942.74869,0.11505
941.25890,0.13332
939.76911,0.14830
938.27932,0.16331
936.78953,0.16456
935.29974,0.18072
933.80996,0.18002
932.32017,0.20085
930.83038,0.21587
929.34059,0.23092
927.85080,0.24680
926.36101,0.26612
924.87123,0.27541
923.38144,0.31066
921.89165,0.35881
920.40186,0.40698
918.91207,0.47950
917.42228,0.58965
915.93250,0.69198
914.44271,0.88583
912.95292,0.98671
911.46313,1.08760
909.97334,1.29077
908.48355,1.48150
906.99376,1.70925
905.50398,1.87429
904.01419,1.91448
902.52440,1.95469
901.03461,1.96336
899.54482,2.00000
898.05503,1.92205
896.56525,1.66898
895.07546,1.53377
893.58567,1.39859
892.09588,1.11241
890.60609,0.87171
889.11630,0.67024
887.62651,0.50961
886.13673,0.43015
884.64694,0.35070
883.15715,0.27762
881.66736,0.21019
880.17757,0.14157
878.68778,0.11793
877.19800,0.09430
875.70821,0.06377
874.21842,0.04351
872.72863,0.03252
871.23884,0.02156
869.74905,0.02420
868.25927,0.02686
866.76948,0.02804
865.27969,0.02361
863.78990,0.03368
862.30011,0.02407
860.81032,0.02786
859.32053,0.03167
857.83075,0.06094
856.34096,0.08078
854.85117,0.09261
853.36138,0.08334
851.87159,0.09894
850.38180,0.11455
848.89202,0.11803
847.40223,0.13239
845.91244,0.14536
844.42265,0.15474
842.93286,0.16414
841.44307,0.16472
839.95329,0.17478
838.46350,0.17943
836.97371,0.19335
835.48392,0.21092
833.99413,0.22851
832.50434,0.21877
831.01455,0.21932
829.52477,0.18490
828.03498,0.16780
826.54519,0.15384
825.05540,0.13991
823.56561,0.12971
822.07582,0.12256
820.58604,0.10699
819.09625,0.10531
817.60646,0.10366
816.11667,0.09178
814.62688,0.08455
813.13709,0.09765
811.64730,0.11178
810.15752,0.10723
808.66773,0.10271
807.17794,0.07328
805.68815,0.09273
804.19836,0.11482
802.70857,0.11261
801.21879,0.11042
799.72900,0.12836
798.23921,0.10430
796.74942,0.10700
795.25963,0.11195
793.76984,0.11691
792.28006,0.10602
790.79027,0.10721
789.30048,0.14040
787.81069,0.17422
786.32090,0.18102
784.83111,0.18784
783.34132,0.21891
781.85154,0.23674
780.36175,0.28254
778.87196,0.29398
777.38217,0.30544
775.89238,0.31110
774.40259,0.32563
772.91281,0.32329
771.42302,0.30821
769.93323,0.29315
768.44344,0.26394
766.95365,0.22027
765.46386,0.18166
763.97407,0.15795
762.48429,0.15397
760.99450,0.15001
759.50471,0.13844
758.01492,0.11101
756.52513,0.10350
755.03534,0.09642
753.54556,0.08937
752.05577,0.06988
750.56598,0.04739
749.07619,0.04724
747.58640,0.04330
746.09661,0.03938
744.60683,0.03851
743.11704,0.02559
741.62725,0.03120
740.13746,0.03009
738.64767,0.02901
737.15788,0.00935
735.66809,0.00959
734.17831,0.01771
732.68852,0.02494
731.19873,0.03219
729.70894,0.02268
728.21915,0.00998
726.72936,0.01548
725.23958,0.00935
723.74979,0.01871
722.26000,0.02810
720.77021,0.01901
719.28042,0.01055
717.79063,0.01960
716.30084,0.01853
714.81106,0.01748
713.32127,0.01917
711.83148,0.01786
710.34169,0.03146
708.85190,0.03443
707.36211,0.03742
705.87233,0.03943
704.38254,0.03663
702.89275,0.05840
701.40296,0.06249
699.91317,0.06661
698.42338,0.06592
696.93360,0.08014
695.44381,0.09740
693.95402,0.11367
692.46423,0.12997
690.97444,0.15575
689.48465,0.14214
687.99486,0.15891
686.50508,0.17652
685.01529,0.19414
683.52550,0.22386
682.03571,0.25943
680.54592,0.27572
679.05613,0.27615
677.56635,0.27661
676.07656,0.28111
674.58677,0.28603
673.09698,0.24835
671.60719,0.22055
670.11740,0.19277
668.62761,0.14572
667.13783,0.13086
665.64804,0.12145
664.15825,0.11206
662.66846,0.11035
661.17867,0.08231
659.68888,0.06073
658.19910,0.06100
656.70931,0.06128
655.21952,0.06270
653.72973,0.04122
652.23994,0.05676
650.75015,0.05212
649.26037,0.04750
647.77058,0.04481
646.28079,0.03310
644.79100,0.04736
643.30121,0.03519
641.81142,0.02305
640.32163,0.01365
638.83185,0.02076
637.34206,0.01422
635.85227,0.01545
634.36248,0.01670
632.87269,0.02089
631.38290,0.01163
629.89312,0.03160
628.40333,0.03078
626.91354,0.02998
625.42375,0.01865
623.93396,0.00935
622.44417,0.02157
620.95438,0.03381
619.46460,0.02336
617.97481,0.04611
616.48502,0.05581
614.99523,0.06393
613.50544,0.07207
612.01565,0.11784
610.52587,0.14975
609.03608,0.18954
607.54629,0.20240
606.05650,0.21529
604.56671,0.27143
603.07692,0.33423
601.58714,0.35775
600.09735,0.38128
598.60756,0.42103
597.11777,0.40109
595.62798,0.41816
594.13819,0.41485
592.64840,0.41157
591.15862,0.39815
589.66883,0.34776
588.17904,0.28050
586.68925,0.23680
585.19946,0.19311
583.70967,0.14060
582.21989,0.12412
580.73010,0.11398
579.24031,0.10388
577.75052,0.09611
576.26073,0.07247
574.77094,0.06314
573.28115,0.04539
571.79137,0.02766
570.30158,0.03428
568.81179,0.05984
567.32200,0.05505
565.83221,0.05028
564.34242,0.07349
562.85264,0.09432
561.36285,0.10269
559.87306,0.10788
558.38327,0.11309
556.89348,0.15110
555.40369,0.18873
553.91391,0.17491
552.42412,0.16111
550.93433,0.15236
549.44454,0.13962
547.95475,0.16048
546.46496,0.15914
544.97517,0.15783
543.48539,0.19103
541.99560,0.19871
540.50581,0.22844
539.01602,0.25819
537.52623,0.32748
536.03644,0.38131
534.54666,0.40118
533.05687,0.42338
531.56708,0.44561
530.07729,0.50879
528.58750,0.56495
527.09771,0.57850
525.60792,0.59208
524.11814,0.63022
522.62835,0.70176
521.13856,0.74376
519.64877,0.75934
518.15898,0.77495
516.66919,0.81622
515.17941,0.84827
513.68962,0.84877
512.19983,0.84929
510.71004,0.84280
509.22025,0.78265
507.73046,0.67788
506.24068,0.62119
504.75089,0.56453
503.26110,0.47189
501.77131,0.37546
500.28152,0.32762
498.79173,0.27980
497.30194,0.21843
495.81216,0.17598
494.32237,0.15839
492.83258,0.14083
491.34279,0.11736
489.85300,0.09009
488.36321,0.05280
486.87343,0.05453
485.38364,0.05629
483.89385,0.07014
482.40406,0.10432
480.91427,0.10967
479.42448,0.11505
477.93469,0.13060
476.44491,0.15141
474.95512,0.15143
473.46533,0.15147
471.97554,0.18019
470.48575,0.16007
468.99596,0.12670
467.50618,0.12423
466.01639,0.12177
464.52660,0.10376
463.03681,0.09482
461.54702,0.08601
460.05723,0.07722
458.56745,0.05548
457.07766,0.03115
455.58787,0.02776
454.09808,0.02440
452.60829,0.03553
451.11850,0.01633
449.62871,0.01655
448.13893,0.01680
446.64914,0.01999
445.15935,0.02702
443.66956,0.00935
442.17977,0.01751
440.68998,0.02570
439.20020,0.02738
437.71041,0.02345
436.22062,0.02930
434.73083,0.03517
433.24104,0.06389
431.75125,0.04819
430.26146,0.05132
428.77168,0.05447
427.28189,0.04689
425.79210,0.03471
424.30231,0.02939
422.81252,0.02409
421.32273,0.03511
419.83295,0.00935
418.34316,0.01603
416.85337,0.02273
415.36358,0.01036
413.87379,0.04161
412.38400,0.04605
410.89422,0.05050
409.40443,0.02975
407.91464,0.02712
406.42485,0.02491
404.93506,0.03228
403.44527,0.03968
401.95548,0.02709
400.46570,0.03423
398.97591,0.03506
397.48612,0.03591
395.99633,0.03227
394.50654,0.01598
393.01675,0.01811
391.52697,0.01673
390.03718,0.01004
388.54739,0.01764
387.05760,0.01923
385.56781,0.02085
384.07802,0.01465
382.58824,0.01491
381.09845,0.01007
379.60866,0.00524
378.11887,0.00545
376.62908,0.01573
375.13929,0.01226
373.64950,0.00881
372.15972,0.01836
370.66993,0.02050
369.18014,0.01982
367.69035,0.01917
366.20056,0.01915
364.71077,0.02176
363.22099,0.01887
361.73120,0.01600
360.24141,0.03659
358.75162,0.04633
357.26183,0.04032
355.77204,0.03433
354.28225,0.04295
352.79247,0.01600
351.30268,0.02415
349.81289,0.03234
348.32310,0.07704
346.83331,0.07069
345.34352,0.06146
343.85374,0.05224
342.36395,0.05783
340.87416,0.02544
339.38437,0.03228
337.89458,0.03915
336.40479,0.02915
334.91501,0.02722
333.42522,0.01827
331.93543,0.00935
330.44564,0.04075
328.95585,0.03638
327.46606,0.03244
325.97627,0.02852
324.48649,0.07242
322.99670,0.08275
321.50691,0.07663
320.01712,0.07052
318.52733,0.08355
317.03754,0.09197
315.54776,0.09177
314.05797,0.09160
312.56818,0.07898
311.07839,0.06920
309.58860,0.06829
308.09881,0.06740
306.60902,0.07479
305.11924,0.04198
303.62945,0.03262
302.13966,0.01268
300.64987,0.00935
299.16008,0.00935
