1778.52000,0.01391
1777.03021,0.00935
1775.54042,0.00755
1774.05063,0.01748
1772.56085,0.01241
1771.07106,0.01223
1769.58127,0.01404
1768.09148,0.01255
1766.60169,0.01362
1765.11190,0.01198
1763.62212,0.01369
1762.13233,0.01229
1760.64254,0.01521
1759.15275,0.00430
1757.66296,0.00649
1756.17317,0.00226
1754.68339,0.01074
1753.19360,0.00363
1751.70381,0.00533
1750.21402,0.00452
1748.72423,0.00372
1747.23444,0.00881
1745.74465,0.00299
1744.25487,0.00715
1742.76508,0.01270
1741.27529,0.00734
1739.78550,0.00903
1738.29571,0.00899
1736.80592,0.00624
1735.31614,0.00430
1733.82635,0.00989
1732.33656,0.00984
1730.84677,0.00923
1729.35698,0.00533
1727.86719,0.00731
1726.37740,0.00931
1724.88762,0.00001
1723.39783,0.01201
1721.90804,0.00100
1720.41825,0.00310
1718.92846,0.00580
1717.43867,0.00834
1715.94889,0.01031
1714.45910,0.00430
1712.96931,0.00586
1711.47952,0.00491
1709.98973,0.00788
1708.49994,0.00483
1707.01016,0.00737
1705.52037,0.00992
1704.03058,0.00245
1702.54079,0.00652
1701.05100,0.01374
1699.56121,0.00341
1698.07142,0.00521
1696.58164,0.00430
1695.09185,0.01534
1693.60206,0.01528
1692.11227,0.01252
1690.62248,0.02031
1689.13269,0.02501
1687.64291,0.02153
1686.15312,0.01320
1684.66333,0.01621
1683.17354,0.02256
1681.68375,0.02582
1680.19396,0.01836
1678.70417,0.02185
1677.21439,0.02420
1675.72460,0.03614
1674.23481,0.04322
1672.74502,0.03842
1671.25523,0.04184
1669.76544,0.04060
1668.27566,0.04543
1666.78587,0.04970
1665.29608,0.05341
1663.80629,0.05559
1662.31650,0.05993
1660.82671,0.06859
1659.33693,0.07728
1657.84714,0.06217
1656.35735,0.07617
1654.86756,0.06619
1653.37777,0.07262
1651.88798,0.07440
1650.39819,0.07581
1648.90841,0.07314
1647.41862,0.07597
1645.92883,0.07686
1644.43904,0.07778
1642.94925,0.08848
1641.45946,0.07890
1639.96968,0.07169
1638.47989,0.08774
1636.99010,0.09053
1635.50031,0.07754
1634.01052,0.07023
1632.52073,0.08383
1631.03094,0.07500
1629.54116,0.08592
1628.05137,0.07988
1626.56158,0.07971
1625.07179,0.08367
1623.58200,0.09039
1622.09221,0.09556
1620.60243,0.09432
1619.11264,0.09213
1617.62285,0.10245
1616.13306,0.09641
1614.64327,0.09721
1613.15348,0.08906
1611.66370,0.09011
1610.17391,0.10153
1608.68412,0.09794
1607.19433,0.10648
1605.70454,0.09747
1604.21475,0.09366
1602.72496,0.08987
1601.23518,0.08836
1599.74539,0.07632
1598.25560,0.08227
1596.76581,0.08668
1595.27602,0.09716
1593.78623,0.08834
1592.29645,0.08716
1590.80666,0.08093
1589.31687,0.07823
1587.82708,0.08220
1586.33729,0.07643
1584.84750,0.07927
1583.35771,0.07687
1581.86793,0.08093
1580.37814,0.08833
1578.88835,0.08307
1577.39856,0.06826
1575.90877,0.07164
1574.41898,0.05493
1572.92920,0.06343
1571.43941,0.05106
1569.94962,0.04760
1568.45983,0.04416
1566.97004,0.04534
1565.48025,0.04907
1563.99047,0.04248
1562.50068,0.03456
1561.01089,0.04266
1559.52110,0.03946
1558.03131,0.03160
1556.54152,0.02552
1555.05173,0.02669
1553.56195,0.02046
1552.07216,0.02188
1550.58237,0.01628
1549.09258,0.00896
1547.60279,0.01864
1546.11300,0.00902
1544.62322,0.00430
1543.13343,0.01277
1541.64364,0.01638
1540.15385,0.01905
1538.66406,0.02173
1537.17427,0.01351
1535.68448,0.00883
1534.19470,0.01666
1532.70491,0.01866
1531.21512,0.01151
1529.72533,0.02332
1528.23554,0.01602
1526.74575,0.03412
1525.25597,0.02843
1523.76618,0.03506
1522.27639,0.02317
1520.78660,0.03610
1519.29681,0.04436
1517.80702,0.05245
1516.31724,0.04827
1514.82745,0.04919
1513.33766,0.05618
1511.84787,0.06320
1510.35808,0.03705
1508.86829,0.04509
1507.37850,0.04984
1505.88872,0.05012
1504.39893,0.05862
1502.90914,0.05660
1501.41935,0.07042
1499.92956,0.06358
1498.43977,0.06573
1496.94999,0.08079
1495.46020,0.09139
1493.97041,0.10005
1492.48062,0.11382
1490.99083,0.10907
1489.50104,0.12581
1488.01125,0.13711
1486.52147,0.14843
1485.03168,0.16564
1483.54189,0.18794
1482.05210,0.20441
1480.56231,0.21739
1479.07252,0.22317
1477.58274,0.23698
1476.09295,0.25354
1474.60316,0.25412
1473.11337,0.26449
1471.62358,0.25848
1470.13379,0.27065
1468.64401,0.29300
1467.15422,0.31107
1465.66443,0.32058
1464.17464,0.33011
1462.68485,0.34435
1461.19506,0.38516
1459.70527,0.44298
1458.21549,0.49380
1456.72570,0.53878
1455.23591,0.58925
1453.74612,0.62511
1452.25633,0.68305
1450.76654,0.69533
1449.27676,0.70588
1447.78697,0.69791
1446.29718,0.66810
1444.80739,0.64485
1443.31760,0.62162
1441.82781,0.58037
1440.33802,0.53327
1438.84824,0.52115
1437.35845,0.50554
1435.86866,0.50010
1434.37887,0.51889
1432.88908,0.55078
1431.39929,0.61276
1429.90951,0.70385
1428.41972,0.74459
1426.92993,0.79220
1425.44014,0.82792
1423.95035,0.85839
1422.46056,0.88889
1420.97078,0.92156
1419.48099,0.93336
1417.99120,0.93680
1416.50141,0.92581
1415.01162,0.86994
1413.52183,0.82113
1412.03204,0.76141
1410.54226,0.71890
1409.05247,0.66957
1407.56268,0.60699
1406.07289,0.55888
1404.58310,0.53920
1403.09331,0.51955
1401.60353,0.44965
1400.11374,0.40105
1398.62395,0.35813
1397.13416,0.29572
1395.64437,0.24505
1394.15458,0.22290
1392.66479,0.17325
1391.17501,0.13553
1389.68522,0.13219
1388.19543,0.10545
1386.70564,0.10020
1385.21585,0.09498
1383.72606,0.08081
1382.23628,0.05572
1380.74649,0.03847
1379.25670,0.02769
1377.76691,0.02044
1376.27712,0.02727
1374.78733,0.01753
1373.29755,0.00430
1371.80776,0.01131
1370.31797,0.01425
1368.82818,0.01925
1367.33839,0.02429
1365.84860,0.04545
1364.35881,0.04126
1362.86903,0.04919
1361.37924,0.07511
1359.88945,0.08524
1358.39966,0.09949
1356.90987,0.14265
1355.42008,0.17960
1353.93030,0.24214
1352.44051,0.27298
1350.95072,0.30385
1349.46093,0.37056
1347.97114,0.47028
1346.48135,0.52240
1344.99156,0.60031
1343.50178,0.65930
1342.01199,0.74839
1340.52220,0.82324
1339.03241,0.83175
1337.54262,0.83345
1336.05283,0.86602
1334.56305,0.89861
1333.07326,0.93884
1331.58347,0.95644
1330.09368,0.92898
1328.60389,0.92867
1327.11410,0.87998
1325.62432,0.82077
1324.13453,0.82405
1322.64474,0.81817
1321.15495,0.77075
1319.66516,0.73896
1318.17537,0.70720
1316.68558,0.66296
1315.19580,0.60567
1313.70601,0.54821
1312.21622,0.52318
1310.72643,0.49036
1309.23664,0.46694
1307.74685,0.43573
1306.25707,0.39557
1304.76728,0.37690
1303.27749,0.35826
1301.78770,0.30665
1300.29791,0.25799
1298.80812,0.22459
1297.31834,0.20135
1295.82855,0.17209
1294.33876,0.15320
1292.84897,0.12887
1291.35918,0.11939
1289.86939,0.11277
1288.37960,0.10618
1286.88982,0.10322
1285.40003,0.09403
1283.91024,0.07843
1282.42045,0.07613
1280.93066,0.06213
1279.44087,0.05871
1277.95109,0.06135
1276.46130,0.05836
1274.97151,0.05257
1273.48172,0.04679
1271.99193,0.03743
1270.50214,0.04508
1269.01235,0.03713
1267.52257,0.03858
1266.03278,0.03107
1264.54299,0.02924
1263.05320,0.01554
1261.56341,0.01688
1260.07362,0.01825
1258.58384,0.01769
1257.09405,0.02028
1255.60426,0.01879
1254.11447,0.00659
1252.62468,0.01413
1251.13489,0.01448
1249.64511,0.00430
1248.15532,0.01496
1246.66553,0.01433
1245.17574,0.01372
1243.68595,0.01820
1242.19616,0.01959
1240.70637,0.00226
1239.21659,0.01829
1237.72680,0.01971
1236.23701,0.02524
1234.74722,0.02202
1233.25743,0.01940
1231.76764,0.01681
1230.27786,0.01346
1228.78807,0.01521
1227.29828,0.01016
1225.80849,0.00532
1224.31870,0.00558
1222.82891,0.00430
1221.33912,0.02399
1219.84934,0.02789
1218.35955,0.03182
1216.86976,0.04143
1215.37997,0.06316
1213.89018,0.06697
1212.40039,0.05752
1210.91061,0.06547
1209.42082,0.06582
1207.93103,0.06289
1206.44124,0.05998
1204.95145,0.06568
1203.46166,0.05832
1201.97188,0.05509
1200.48209,0.05754
1198.99230,0.04870
1197.50251,0.03890
1196.01272,0.05626
1194.52293,0.04797
1193.03314,0.03971
1191.54336,0.04992
1190.05357,0.02658
1188.56378,0.02375
1187.07399,0.03345
1185.58420,0.02072
1184.09441,0.00430
1182.60463,0.00472
1181.11484,0.00516
1179.62505,0.00885
1178.13526,0.01666
1176.64547,0.02587
1175.15568,0.01518
1173.66589,0.01565
1172.17611,0.00715
1170.68632,0.00572
1169.19653,0.00430
1167.70674,0.01904
1166.21695,0.02093
1164.72716,0.05817
1163.23738,0.04858
1161.74759,0.04429
1160.25780,0.06325
1158.76801,0.07101
1157.27822,0.07880
1155.78843,0.07870
1154.29865,0.08429
1152.80886,0.08580
1151.31907,0.10764
1149.82928,0.12384
1148.33949,0.13577
1146.84970,0.13659
1145.35991,0.13744
1143.87013,0.14046
1142.38034,0.15795
1140.89055,0.15868
1139.40076,0.16840
1137.91097,0.20139
1136.42118,0.20648
1134.93140,0.21520
1133.44161,0.22395
1131.95182,0.24141
1130.46203,0.25089
1128.97224,0.23775
1127.48245,0.23830
1125.99266,0.24844
1124.50288,0.23400
1123.01309,0.23667
1121.52330,0.23936
1120.03351,0.23710
1118.54372,0.23115
1117.05393,0.24299
1115.56415,0.24529
1114.07436,0.26167
1112.58457,0.25270
1111.09478,0.24374
1109.60499,0.25219
1108.11520,0.24426
1106.62542,0.25373
1105.13563,0.26264
1103.64584,0.22198
1102.15605,0.22137
1100.66626,0.20966
1099.17647,0.19797
1097.68668,0.20719
1096.19690,0.22346
1094.70711,0.22238
1093.21732,0.20883
1091.72753,0.20897
1090.23774,0.19889
1088.74795,0.18883
1087.25817,0.19060
1085.76838,0.20353
1084.27859,0.20593
1082.78880,0.19548
1081.29901,0.19988
1079.80922,0.19436
1078.31943,0.19754
1076.82965,0.20075
1075.33986,0.21755
1073.85007,0.23144
1072.36028,0.25083
1070.87049,0.26145
1069.38070,0.31036
1067.89092,0.32073
1066.40113,0.33114
1064.91134,0.38129
1063.42155,0.47890
1061.93176,0.57555
1060.44197,0.66111
1058.95219,0.74571
1057.46240,0.79286
1055.97261,0.84003
1054.48282,0.93856
1052.99303,1.01115
1051.50324,0.99885
1050.01345,0.98619
1048.52367,0.96340
1047.03388,0.95380
1045.54409,0.94423
1044.05430,0.89926
1042.56451,0.80843
1041.07472,0.74593
1039.58494,0.67682
1038.09515,0.60481
1036.60536,0.56795
1035.11557,0.53112
1033.62578,0.46543
1032.13599,0.40815
1030.64620,0.35284
1029.15642,0.30537
1027.66663,0.28545
1026.17684,0.26555
1024.68705,0.22556
1023.19726,0.18131
1021.70747,0.13864
1020.21769,0.12957
1018.72790,0.12326
1017.23811,0.11717
1015.74832,0.11110
1014.25853,0.09744
1012.76874,0.07756
1011.27896,0.08308
1009.78917,0.06734
1008.29938,0.05163
1006.80959,0.04336
1005.31980,0.03511
1003.83001,0.03041
1002.34022,0.01557
1000.85044,0.02692
999.36065,0.02540
997.87086,0.03279
996.38107,0.04021
994.89128,0.06824
993.40149,0.09142
991.91171,0.11189
990.42192,0.13609
988.93213,0.14352
987.44234,0.15206
985.95255,0.16062
984.46276,0.15348
982.97297,0.14032
981.48319,0.13226
979.99340,0.09513
978.50361,0.07990
977.01382,0.06468
975.52403,0.05086
974.03424,0.03472
972.54446,0.02933
971.05467,0.02046
969.56488,0.00459
968.07509,0.01287
966.58530,0.02118
965.09551,0.01429
963.60573,0.01074
962.11594,0.00429
960.62615,0.00430
959.13636,0.00549
957.64657,0.00671
956.15678,0.02084
954.66699,0.00687
953.17721,0.03081
951.68742,0.02568
950.19763,0.02828
948.70784,0.03091
947.21805,0.05435
945.72826,0.05732
944.23848,0.08999
942.74869,0.10491
941.25890,0.11713
939.76911,0.12644
938.27932,0.13577
936.78953,0.14903
935.29974,0.17227
933.80996,0.19573
932.32017,0.18955
930.83038,0.20105
929.34059,0.21257
927.85080,0.23613
926.36101,0.26654
924.87123,0.28956
923.38144,0.34090
921.89165,0.36875
920.40186,0.39662
918.91207,0.49001
917.42228,0.61348
915.93250,0.76880
914.44271,0.97509
912.95292,1.08155
911.46313,1.18804
909.97334,1.40865
908.48355,1.61484
906.99376,1.82028
905.50398,1.89553
904.01419,1.93693
902.52440,1.97836
901.03461,2.00000
899.54482,1.96759
898.05503,1.84150
896.56525,1.58796
895.07546,1.45978
893.58567,1.33161
892.09588,1.05960
890.60609,0.82275
889.11630,0.62399
887.62651,0.45141
886.13673,0.39374
884.64694,0.33609
883.15715,0.23659
881.66736,0.17733
880.17757,0.14972
878.68778,0.13004
877.19800,0.11038
875.70821,0.07464
874.21842,0.05786
872.72863,0.04071
871.23884,0.04154
869.74905,0.03645
868.25927,0.03138
866.76948,0.02467
865.27969,0.02716
863.78990,0.03670
862.30011,0.04490
860.81032,0.05352
859.32053,0.06215
857.83075,0.07960
856.34096,0.08711
854.85117,0.09504
853.36138,0.11802
851.87159,0.13312
850.38180,0.14825
848.89202,0.14924
847.40223,0.17544
845.91244,0.20206
844.42265,0.21172
842.93286,0.22139
841.44307,0.23363
839.95329,0.24961
838.46350,0.26248
836.97371,0.26894
835.48392,0.27434
833.99413,0.27977
832.50434,0.27029
831.01455,0.25654
829.52477,0.21450
828.03498,0.19572
826.54519,0.18849
825.05540,0.18127
823.56561,0.16725
822.07582,0.16711
820.58604,0.14454
819.09625,0.14181
817.60646,0.13911
816.11667,0.13750
814.62688,0.12342
813.13709,0.13436
811.64730,0.14414
810.15752,0.14224
808.66773,0.14036
807.17794,0.14397
805.68815,0.14058
804.19836,0.14970
802.70857,0.13806
801.21879,0.12644
799.72900,0.12431
798.23921,0.13822
796.74942,0.13399
795.25963,0.13164
793.76984,0.12932
792.28006,0.13004
790.79027,0.14230
789.30048,0.16923
787.81069,0.21122
786.32090,0.22258
784.83111,0.23396
783.34132,0.27992
781.85154,0.32923
780.36175,0.35610
778.87196,0.37363
777.38217,0.39119
775.89238,0.40115
774.40259,0.41602
772.91281,0.42369
771.42302,0.39068
769.93323,0.35769
768.44344,0.32600
766.95365,0.26583
765.46386,0.22892
763.97407,0.18675
762.48429,0.16921
760.99450,0.15169
759.50471,0.14201
758.01492,0.11614
756.52513,0.10767
755.03534,0.10762
753.54556,0.10760
752.05577,0.09002
750.56598,0.07872
749.07619,0.05066
747.58640,0.04760
746.09661,0.04457
744.60683,0.04469
743.11704,0.02921
741.62725,0.02117
740.13746,0.02029
738.64767,0.01942
737.15788,0.01985
735.66809,0.00430
734.17831,0.00996
732.68852,0.01144
731.19873,0.01295
729.70894,0.02043
728.21915,0.00588
726.72936,0.01507
725.23958,0.01374
723.74979,0.01390
722.26000,0.01408
720.77021,0.01107
719.28042,0.00358
717.79063,0.01016
716.30084,0.01763
714.81106,0.02513
713.32127,0.02924
711.83148,0.03200
710.34169,0.03010
708.85190,0.03379
707.36211,0.03750
705.87233,0.02279
704.38254,0.03856
702.89275,0.04829
701.40296,0.04566
699.91317,0.04305
698.42338,0.06964
696.93360,0.07342
695.44381,0.09246
693.95402,0.09872
692.46423,0.10502
690.97444,0.13661
689.48465,0.14402
687.99486,0.16493
686.50508,0.17991
685.01529,0.19491
683.52550,0.22584
682.03571,0.24782
680.54592,0.25615
679.05613,0.24928
677.56635,0.24244
676.07656,0.25339
674.58677,0.22141
673.09698,0.21561
671.60719,0.19949
670.11740,0.18340
668.62761,0.16167
667.13783,0.15499
665.64804,0.13945
664.15825,0.12394
662.66846,0.09977
661.17867,0.07054
659.68888,0.05090
658.19910,0.04466
656.70931,0.03844
655.21952,0.04562
653.72973,0.03681
652.23994,0.04169
650.75015,0.04797
649.26037,0.05426
647.77058,0.03657
646.28079,0.04291
644.79100,0.04577
643.30121,0.04601
641.81142,0.04627
640.32163,0.05642
638.83185,0.01291
637.34206,0.00475
635.85227,0.00430
634.36248,0.00369
632.87269,0.00311
631.38290,0.00469
629.89312,0.01703
628.40333,0.01759
626.91354,0.01816
625.42375,0.01847
623.93396,0.02134
622.44417,0.01155
620.95438,0.00177
619.46460,0.00452
617.97481,0.02466
616.48502,0.07177
614.99523,0.07390
613.50544,0.07606
612.01565,0.10078
610.52587,0.14349
609.03608,0.15831
607.54629,0.17618
606.05650,0.19407
604.56671,0.24976
603.07692,0.29942
601.58714,0.32920
600.09735,0.35899
598.60756,0.38647
597.11777,0.40695
595.62798,0.39484
594.13819,0.38530
592.64840,0.37579
591.15862,0.35985
589.66883,0.31310
588.17904,0.24704
586.68925,0.21937
585.19946,0.19171
583.70967,0.12729
582.21989,0.11306
580.73010,0.09319
579.24031,0.07334
577.75052,0.06934
576.26073,0.06886
574.77094,0.04440
573.28115,0.04056
571.79137,0.03675
570.30158,0.04437
568.81179,0.07193
567.32200,0.07561
565.83221,0.07930
564.34242,0.09659
562.85264,0.10121
561.36285,0.12557
559.87306,0.13024
558.38327,0.13493
556.89348,0.16620
555.40369,0.17387
553.91391,0.18302
552.42412,0.19220
550.93433,0.19487
549.44454,0.18526
547.95475,0.19070
546.46496,0.19422
544.97517,0.19775
543.48539,0.19761
541.99560,0.23887
540.50581,0.26122
539.01602,0.28360
537.52623,0.34308
536.03644,0.37331
534.54666,0.40220
533.05687,0.42213
531.56708,0.44209
530.07729,0.48491
528.58750,0.51740
527.09771,0.54729
525.60792,0.57720
524.11814,0.65447
522.62835,0.73117
521.13856,0.75871
519.64877,0.76597
518.15898,0.77326
516.66919,0.79794
515.17941,0.81913
513.68962,0.82688
512.19983,0.83465
510.71004,0.82643
509.22025,0.75285
507.73046,0.67245
506.24068,0.60233
504.75089,0.53223
503.26110,0.47182
501.77131,0.39679
500.28152,0.34628
498.79173,0.29580
497.30194,0.22611
495.81216,0.17753
494.32237,0.15670
492.83258,0.13588
491.34279,0.11587
489.85300,0.09843
488.36321,0.08139
486.87343,0.07463
485.38364,0.06789
483.89385,0.06694
482.40406,0.07928
480.91427,0.09565
479.42448,0.11204
477.93469,0.12075
476.44491,0.14919
474.95512,0.17424
473.46533,0.19932
471.97554,0.21202
470.48575,0.22026
468.99596,0.20373
467.50618,0.19220
466.01639,0.18070
464.52660,0.13398
463.03681,0.11657
461.54702,0.10084
460.05723,0.08514
458.56745,0.06623
457.07766,0.03506
455.58787,0.02147
454.09808,0.00791
452.60829,0.00960
451.11850,0.01229
449.62871,0.01969
448.13893,0.02711
446.64914,0.00762
445.15935,0.01392
443.66956,0.00989
442.17977,0.01223
440.68998,0.01460
439.20020,0.03466
437.71041,0.03385
436.22062,0.03317
434.73083,0.03251
433.24104,0.04524
431.75125,0.04921
430.26146,0.03838
428.77168,0.02756
427.28189,0.03688
425.79210,0.05929
424.30231,0.05070
422.81252,0.04212
421.32273,0.05524
419.83295,0.03032
418.34316,0.03109
416.85337,0.03188
415.36358,0.00430
413.87379,0.01570
412.38400,0.03220
410.89422,0.04872
409.40443,0.03814
407.91464,0.04748
406.42485,0.04573
404.93506,0.04605
403.44527,0.04639
401.95548,0.04139
400.46570,0.01318
398.97591,0.01818
397.48612,0.02320
395.99633,0.02981
394.50654,0.02161
393.01675,0.02387
391.52697,0.02616
390.03718,0.02681
388.54739,0.02085
387.05760,0.01335
385.56781,0.00588
384.07802,0.01184
382.58824,0.02642
381.09845,0.01711
379.60866,0.00782
378.11887,0.00803
376.62908,0.00162
375.13929,0.00080
373.64950,0.00000
372.15972,0.02183
370.66993,0.01733
369.18014,0.01080
367.69035,0.00430
366.20056,0.00563
364.71077,0.01343
363.22099,0.01500
361.73120,0.01660
360.24141,0.03443
358.75162,0.04974
357.26183,0.04760
355.77204,0.04549
354.28225,0.03159
352.79247,0.04562
351.30268,0.05461
349.81289,0.06362
348.32310,0.04982
346.83331,0.06571
345.34352,0.06610
343.85374,0.06652
342.36395,0.04871
340.87416,0.02741
339.38437,0.02868
337.89458,0.02998
336.40479,0.04291
334.91501,0.05216
333.42522,0.04444
331.93543,0.03676
330.44564,0.00430
328.95585,0.01388
327.46606,0.01811
325.97627,0.02237
324.48649,0.04155
322.99670,0.03048
321.50691,0.04287
320.01712,0.05528
318.52733,0.07104
317.03754,0.09150
315.54776,0.07724
314.05797,0.06300
312.56818,0.10247
311.07839,0.06583
309.58860,0.06044
308.09881,0.05509
306.60902,0.05073
305.11924,0.04971
303.62945,0.03105
302.13966,0.01241
300.64987,0.02123
299.16008,0.00430
