1778.52000,0.01554
1777.03021,0.01376
1775.54042,0.00698
1774.05063,0.01126
1772.56085,0.01516
1771.07106,0.01207
1769.58127,0.01341
1768.09148,0.00334
1766.60169,0.01476
1765.11190,0.01337
1763.62212,0.00418
1762.13233,0.00945
1760.64254,0.01876
1759.15275,0.01606
1757.66296,0.01118
1756.17317,0.01113
1754.68339,0.01332
1753.19360,0.01673
1751.70381,0.01595
1750.21402,0.00437
1748.72423,0.01447
1747.23444,0.00695
1745.74465,0.01430
1744.25487,0.01224
1742.76508,0.01923
1741.27529,0.00418
1739.78550,0.02045
1738.29571,0.01146
1736.80592,0.00832
1735.31614,0.01731
1733.82635,0.00966
1732.33656,0.00866
1730.84677,0.01230
1729.35698,0.00935
1727.86719,0.00260
1726.37740,0.00190
1724.88762,0.00744
1723.39783,0.00619
1721.90804,0.00415
1720.41825,0.00556
1718.92846,0.00578
1717.43867,0.00823
1715.94889,0.01171
1714.45910,0.00418
1712.96931,0.00663
1711.47952,0.00529
1709.98973,0.00137
1708.49994,0.01223
1707.01016,0.00947
1705.52037,0.00673
1704.03058,0.00342
1702.54079,0.00418
1701.05100,0.01421
1699.56121,0.00702
1698.07142,0.01590
1696.58164,0.01397
1695.09185,0.01106
1693.60206,0.01861
1692.11227,0.01073
1690.62248,0.01351
1689.13269,0.01732
1687.64291,0.01634
1686.15312,0.03183
1684.66333,0.02047
1683.17354,0.01434
1681.68375,0.02850
1680.19396,0.03566
1678.70417,0.03182
1677.21439,0.04183
1675.72460,0.04706
1674.23481,0.04549
1672.74502,0.04375
1671.25523,0.05126
1669.76544,0.05598
1668.27566,0.06273
1666.78587,0.08094
1665.29608,0.07691
1663.80629,0.07892
1662.31650,0.09620
1660.82671,0.08282
1659.33693,0.08229
1657.84714,0.07417
1656.35735,0.07590
1654.86756,0.08106
1653.37777,0.07281
1651.88798,0.07943
1650.39819,0.08326
1648.90841,0.08030
1647.41862,0.08698
1645.92883,0.08617
1644.43904,0.08539
1642.94925,0.08372
1641.45946,0.08630
1639.96968,0.07585
1638.47989,0.08770
1636.99010,0.07370
1635.50031,0.07958
1634.01052,0.08347
1632.52073,0.08238
1631.03094,0.07669
1629.54116,0.08849
1628.05137,0.08004
1626.56158,0.09850
1625.07179,0.09993
1623.58200,0.09557
1622.09221,0.08562
1620.60243,0.09254
1619.11264,0.09106
1617.62285,0.10104
1616.13306,0.09780
1614.64327,0.08998
1613.15348,0.08037
1611.66370,0.09827
1610.17391,0.08510
1608.68412,0.08840
1607.19433,0.08129
1605.70454,0.09227
1604.21475,0.08782
1602.72496,0.08340
1601.23518,0.08923
1599.74539,0.09087
1598.25560,0.09213
1596.76581,0.10104
1595.27602,0.09794
1593.78623,0.07521
1592.29645,0.07276
1590.80666,0.07254
1589.31687,0.08217
1587.82708,0.08100
1586.33729,0.08265
1584.84750,0.09216
1583.35771,0.09146
1581.86793,0.09018
1580.37814,0.10076
1578.88835,0.08127
1577.39856,0.08087
1575.90877,0.08691
1574.41898,0.06007
1572.92920,0.06114
1571.43941,0.04800
1569.94962,0.05293
1568.45983,0.05788
1566.97004,0.05905
1565.48025,0.05683
1563.99047,0.05243
1562.50068,0.03662
1561.01089,0.04431
1559.52110,0.03215
1558.03131,0.02404
1556.54152,0.02016
1555.05173,0.02834
1553.56195,0.01869
1552.07216,0.00205
1550.58237,0.01813
1549.09258,0.01336
1547.60279,0.00000
1546.11300,0.01374
1544.62322,0.00283
1543.13343,0.00619
1541.64364,0.00576
1540.15385,0.00496
1538.66406,0.00418
1537.17427,0.02857
1535.68448,0.02350
1534.19470,0.00882
1532.70491,0.01985
1531.21512,0.01365
1529.72533,0.02713
1528.23554,0.03201
1526.74575,0.01785
1525.25597,0.00733
1523.76618,0.02573
1522.27639,0.03732
1520.78660,0.03590
1519.29681,0.03089
1517.80702,0.04617
1516.31724,0.05466
1514.82745,0.04611
1513.33766,0.04551
1511.84787,0.04494
1510.35808,0.04068
1508.86829,0.05731
1507.37850,0.04667
1505.88872,0.05873
1504.39893,0.06300
1502.90914,0.06026
1501.41935,0.06999
1499.92956,0.07211
1498.43977,0.06824
1496.94999,0.08165
1495.46020,0.09288
1493.97041,0.09851
1492.48062,0.10718
1490.99083,0.11427
1489.50104,0.14485
1488.01125,0.15138
1486.52147,0.15793
1485.03168,0.19019
1483.54189,0.19640
1482.05210,0.20082
1480.56231,0.21630
1479.07252,0.22036
1477.58274,0.23489
1476.09295,0.23981
1474.60316,0.23332
1473.11337,0.25072
1471.62358,0.25170
1470.13379,0.27557
1468.64401,0.28723
1467.15422,0.32520
1465.66443,0.34252
1464.17464,0.35987
1462.68485,0.37744
1461.19506,0.41289
1459.70527,0.42650
1458.21549,0.46180
1456.72570,0.52441
1455.23591,0.60409
1453.74612,0.66935
1452.25633,0.71337
1450.76654,0.74939
1449.27676,0.75615
1447.78697,0.72261
1446.29718,0.71437
1444.80739,0.69281
1443.31760,0.67128
1441.82781,0.62861
1440.33802,0.57593
1438.84824,0.51846
1437.35845,0.49331
1435.86866,0.51553
1434.37887,0.53697
1432.88908,0.59415
1431.39929,0.65957
1429.90951,0.74347
1428.41972,0.77704
1426.92993,0.79941
1425.44014,0.84005
1423.95035,0.87239
1422.46056,0.90476
1420.97078,0.93404
1419.48099,0.94910
1417.99120,0.94573
1416.50141,0.91390
1415.01162,0.85200
1413.52183,0.80337
1412.03204,0.76980
1410.54226,0.73927
1409.05247,0.68248
1407.56268,0.64438
1406.07289,0.57299
1404.58310,0.54727
1403.09331,0.52158
1401.60353,0.45468
1400.11374,0.40205
1398.62395,0.34302
1397.13416,0.30248
1395.64437,0.26196
1394.15458,0.20401
1392.66479,0.17858
1391.17501,0.15057
1389.68522,0.13782
1388.19543,0.09983
1386.70564,0.09536
1385.21585,0.09092
1383.72606,0.05560
1382.23628,0.04358
1380.74649,0.03038
1379.25670,0.02423
1377.76691,0.01669
1376.27712,0.00317
1374.78733,0.00747
1373.29755,0.00418
1371.80776,0.01589
1370.31797,0.02943
1368.82818,0.02755
1367.33839,0.02569
1365.84860,0.02486
1364.35881,0.03429
1362.86903,0.04373
1361.37924,0.06324
1359.88945,0.08838
1358.39966,0.11415
1356.90987,0.14556
1355.42008,0.18562
1353.93030,0.24537
1352.44051,0.28016
1350.95072,0.31498
1349.46093,0.37961
1347.97114,0.47255
1346.48135,0.55749
1344.99156,0.60615
1343.50178,0.68833
1342.01199,0.72258
1340.52220,0.76369
1339.03241,0.79118
1337.54262,0.84757
1336.05283,0.87260
1334.56305,0.89765
1333.07326,0.94249
1331.58347,0.94141
1330.09368,0.91307
1328.60389,0.86891
1327.11410,0.83922
1325.62432,0.81035
1324.13453,0.81682
1322.64474,0.77014
1321.15495,0.70624
1319.66516,0.70265
1318.17537,0.69908
1316.68558,0.62321
1315.19580,0.59251
1313.70601,0.57848
1312.21622,0.55464
1310.72643,0.49232
1309.23664,0.47214
1307.74685,0.42531
1306.25707,0.39655
1304.76728,0.36853
1303.27749,0.34052
1301.78770,0.29098
1300.29791,0.26613
1298.80812,0.26137
1297.31834,0.20046
1295.82855,0.17448
1294.33876,0.15836
1292.84897,0.10535
1291.35918,0.10632
1289.86939,0.11023
1288.37960,0.11416
1286.88982,0.10538
1285.40003,0.09702
1283.91024,0.06863
1282.42045,0.05611
1280.93066,0.05846
1279.44087,0.03856
1277.95109,0.04096
1276.46130,0.04137
1274.97151,0.04582
1273.48172,0.05029
1271.99193,0.04396
1270.50214,0.04066
1269.01235,0.03778
1267.52257,0.03673
1266.03278,0.03290
1264.54299,0.01947
1263.05320,0.01970
1261.56341,0.01192
1260.07362,0.00418
1258.58384,0.00902
1257.09405,0.00526
1255.60426,0.01014
1254.11447,0.01706
1252.62468,0.02059
1251.13489,0.00670
1249.64511,0.02171
1248.15532,0.02712
1246.66553,0.02263
1245.17574,0.01815
1243.68595,0.01461
1242.19616,0.00367
1240.70637,0.00592
1239.21659,0.01903
1237.72680,0.01270
1236.23701,0.01803
1234.74722,0.00473
1233.25743,0.00590
1231.76764,0.00709
1230.27786,0.01032
1228.78807,0.00955
1227.29828,0.01904
1225.80849,0.00970
1224.31870,0.01382
1222.82891,0.01255
1221.33912,0.01531
1219.84934,0.03144
1218.35955,0.04760
1216.86976,0.03980
1215.37997,0.04407
1213.89018,0.04675
1212.40039,0.06330
1210.91061,0.05942
1209.42082,0.07080
1207.93103,0.07218
1206.44124,0.07358
1204.95145,0.06999
1203.46166,0.07083
1201.97188,0.07130
1200.48209,0.06739
1198.99230,0.05145
1197.50251,0.03836
1196.01272,0.04996
1194.52293,0.04834
1193.03314,0.04675
1191.54336,0.03314
1190.05357,0.01756
1188.56378,0.01544
1187.07399,0.03099
1185.58420,0.02832
1184.09441,0.02707
1182.60463,0.02906
1181.11484,0.03107
1179.62505,0.02207
1178.13526,0.02694
1176.64547,0.00956
1175.15568,0.00404
1173.66589,0.00418
1172.17611,0.00902
1170.68632,0.01389
1169.19653,0.01879
1167.70674,0.03233
1166.21695,0.02544
1164.72716,0.02178
1163.23738,0.02136
1161.74759,0.04342
1160.25780,0.06632
1158.76801,0.07218
1157.27822,0.07807
1155.78843,0.09040
1154.29865,0.09995
1152.80886,0.10913
1151.31907,0.09866
1149.82928,0.09966
1148.33949,0.12134
1146.84970,0.12559
1145.35991,0.12987
1143.87013,0.13297
1142.38034,0.15314
1140.89055,0.17273
1139.40076,0.17711
1137.91097,0.19715
1136.42118,0.19796
1134.93140,0.20110
1133.44161,0.20427
1131.95182,0.23303
1130.46203,0.26363
1128.97224,0.26115
1127.48245,0.25789
1125.99266,0.25807
1124.50288,0.25807
1123.01309,0.26060
1121.52330,0.26316
1120.03351,0.26002
1118.54372,0.24868
1117.05393,0.25984
1115.56415,0.24514
1114.07436,0.26336
1112.58457,0.25482
1111.09478,0.24632
1109.60499,0.24997
1108.11520,0.27711
1106.62542,0.27600
1105.13563,0.24682
1103.64584,0.22489
1102.15605,0.22124
1100.66626,0.23045
1099.17647,0.23969
1097.68668,0.22688
1096.19690,0.21470
1094.70711,0.21478
1093.21732,0.20024
1091.72753,0.18994
1090.23774,0.19220
1088.74795,0.19448
1087.25817,0.19027
1085.76838,0.19169
1084.27859,0.18252
1082.78880,0.18078
1081.29901,0.20054
1079.80922,0.19825
1078.31943,0.21043
1076.82965,0.22264
1075.33986,0.23567
1073.85007,0.22425
1072.36028,0.25197
1070.87049,0.26367
1069.38070,0.26376
1067.89092,0.29497
1066.40113,0.32620
1064.91134,0.37531
1063.42155,0.46757
1061.93176,0.54180
1060.44197,0.62689
1058.95219,0.70257
1057.46240,0.74779
1055.97261,0.79303
1054.48282,0.86196
1052.99303,0.89542
1051.50324,0.93692
1050.01345,0.90181
1048.52367,0.89401
1047.03388,0.87701
1045.54409,0.86003
1044.05430,0.84308
1042.56451,0.80368
1041.07472,0.74364
1039.58494,0.67861
1038.09515,0.58793
1036.60536,0.56779
1035.11557,0.54767
1033.62578,0.47932
1032.13599,0.43829
1030.64620,0.35575
1029.15642,0.30493
1027.66663,0.29025
1026.17684,0.27559
1024.68705,0.22364
1023.19726,0.18596
1021.70747,0.15733
1020.21769,0.16042
1018.72790,0.14327
1017.23811,0.14089
1015.74832,0.13854
1014.25853,0.10582
1012.76874,0.09819
1011.27896,0.10444
1009.78917,0.09185
1008.29938,0.06564
1006.80959,0.06162
1005.31980,0.05763
1003.83001,0.03290
1002.34022,0.02866
1000.85044,0.03226
999.36065,0.04030
997.87086,0.04997
996.38107,0.05966
994.89128,0.06115
993.40149,0.07711
991.91171,0.08869
990.42192,0.10931
988.93213,0.10187
987.44234,0.10940
985.95255,0.11696
984.46276,0.14389
982.97297,0.11569
981.48319,0.09673
979.99340,0.06677
978.50361,0.06432
977.01382,0.06189
975.52403,0.05166
974.03424,0.03944
972.54446,0.01803
971.05467,0.02111
969.56488,0.01940
968.07509,0.02343
966.58530,0.02749
965.09551,0.01161
963.60573,0.00418
962.11594,0.00505
960.62615,0.01899
959.13636,0.01721
957.64657,0.01545
956.15678,0.01160
954.66699,0.01782
953.17721,0.03388
951.68742,0.02931
950.19763,0.03629
948.70784,0.04330
947.21805,0.05606
945.72826,0.08749
944.23848,0.08905
942.74869,0.10489
941.25890,0.12716
939.76911,0.12880
938.27932,0.13046
936.78953,0.15943
935.29974,0.16515
933.80996,0.19096
932.32017,0.19272
930.83038,0.21025
929.34059,0.22780
927.85080,0.24929
926.36101,0.26639
924.87123,0.30458
923.38144,0.34279
921.89165,0.37701
920.40186,0.41126
918.91207,0.50150
917.42228,0.61163
915.93250,0.73301
914.44271,0.95933
912.95292,1.06652
911.46313,1.17373
909.97334,1.33393
908.48355,1.55393
906.99376,1.77757
905.50398,1.90975
904.01419,1.94326
902.52440,1.97679
901.03461,1.98869
899.54482,2.00000
898.05503,1.85166
896.56525,1.64757
895.07546,1.50861
893.58567,1.36966
892.09588,1.12071
890.60609,0.85414
889.11630,0.63974
887.62651,0.48695
886.13673,0.41573
884.64694,0.34454
883.15715,0.27989
881.66736,0.19039
880.17757,0.13521
878.68778,0.10805
877.19800,0.08091
875.70821,0.04687
874.21842,0.04174
872.72863,0.01738
871.23884,0.00428
869.74905,0.01247
868.25927,0.02068
866.76948,0.02049
865.27969,0.02975
863.78990,0.01757
862.30011,0.03450
860.81032,0.04233
859.32053,0.05018
857.83075,0.06859
856.34096,0.07117
854.85117,0.10106
853.36138,0.11674
851.87159,0.11729
850.38180,0.11786
848.89202,0.14664
847.40223,0.16281
845.91244,0.17199
844.42265,0.18700
842.93286,0.20204
841.44307,0.19704
839.95329,0.22657
838.46350,0.23767
836.97371,0.24037
835.48392,0.24018
833.99413,0.24002
832.50434,0.24018
831.01455,0.24257
829.52477,0.21469
828.03498,0.20229
826.54519,0.17958
825.05540,0.15689
823.56561,0.13433
822.07582,0.13486
820.58604,0.12338
819.09625,0.10881
817.60646,0.09427
816.11667,0.08948
814.62688,0.09214
813.13709,0.09742
811.64730,0.10374
810.15752,0.11429
808.66773,0.12487
807.17794,0.11360
805.68815,0.11621
804.19836,0.14330
802.70857,0.14686
801.21879,0.15043
799.72900,0.13989
798.23921,0.12436
796.74942,0.11647
795.25963,0.11593
793.76984,0.11541
792.28006,0.11081
790.79027,0.15598
789.30048,0.16606
787.81069,0.21289
786.32090,0.22292
784.83111,0.23298
783.34132,0.24537
781.85154,0.29450
780.36175,0.30934
778.87196,0.32923
777.38217,0.34913
775.89238,0.38211
774.40259,0.37719
772.91281,0.37510
771.42302,0.35830
769.93323,0.34152
768.44344,0.31463
766.95365,0.27934
765.46386,0.22843
763.97407,0.20061
762.48429,0.19137
760.99450,0.18215
759.50471,0.14438
758.01492,0.12769
756.52513,0.10521
755.03534,0.09950
753.54556,0.09381
752.05577,0.08143
750.56598,0.08673
749.07619,0.04712
747.58640,0.04474
746.09661,0.04238
744.60683,0.02631
743.11704,0.01689
741.62725,0.02654
740.13746,0.02017
738.64767,0.01382
737.15788,0.00509
735.66809,0.01625
734.17831,0.01459
732.68852,0.01957
731.19873,0.02458
729.70894,0.00674
728.21915,0.00418
726.72936,0.01418
725.23958,0.01838
723.74979,0.01479
722.26000,0.01122
720.77021,0.00687
719.28042,0.00575
717.79063,0.00506
716.30084,0.00851
714.81106,0.01198
713.32127,0.02019
711.83148,0.00857
710.34169,0.02425
708.85190,0.02059
707.36211,0.01696
705.87233,0.02148
704.38254,0.03705
702.89275,0.04182
701.40296,0.03538
699.91317,0.02896
698.42338,0.03801
696.93360,0.06294
695.44381,0.09872
693.95402,0.10503
692.46423,0.11137
690.97444,0.10971
689.48465,0.13355
687.99486,0.17567
686.50508,0.18261
685.01529,0.18957
683.52550,0.21672
682.03571,0.24690
680.54592,0.26908
679.05613,0.26450
677.56635,0.25995
676.07656,0.25592
674.58677,0.24409
673.09698,0.21604
671.60719,0.20356
670.11740,0.19110
668.62761,0.14627
667.13783,0.12975
665.64804,0.12780
664.15825,0.12587
662.66846,0.11464
661.17867,0.09219
659.68888,0.05814
658.19910,0.04708
656.70931,0.03604
655.21952,0.03155
653.72973,0.03972
652.23994,0.05313
650.75015,0.04459
649.26037,0.03608
647.77058,0.03051
646.28079,0.05023
644.79100,0.02404
643.30121,0.02064
641.81142,0.01727
640.32163,0.01382
638.83185,0.00418
637.34206,0.01205
635.85227,0.00942
634.36248,0.00680
632.87269,0.00452
631.38290,0.01630
629.89312,0.01045
628.40333,0.01345
626.91354,0.01648
625.42375,0.00007
623.93396,0.00447
622.44417,0.00900
620.95438,0.01356
619.46460,0.02445
617.97481,0.04560
616.48502,0.05474
614.99523,0.05658
613.50544,0.05844
612.01565,0.10196
610.52587,0.13546
609.03608,0.17341
607.54629,0.19593
606.05650,0.21848
604.56671,0.26693
603.07692,0.35512
601.58714,0.36711
600.09735,0.37912
598.60756,0.40981
597.11777,0.41585
595.62798,0.40727
594.13819,0.40313
592.64840,0.39901
591.15862,0.38890
589.66883,0.32084
588.17904,0.24838
586.68925,0.21427
585.19946,0.18018
583.70967,0.15394
582.21989,0.12793
580.73010,0.11197
579.24031,0.09603
577.75052,0.07711
576.26073,0.06322
574.77094,0.05077
573.28115,0.03773
571.79137,0.02473
570.30158,0.02799
568.81179,0.05014
567.32200,0.04863
565.83221,0.04716
564.34242,0.09084
562.85264,0.12110
561.36285,0.14377
559.87306,0.15222
558.38327,0.16069
556.89348,0.18423
555.40369,0.16567
553.91391,0.16248
552.42412,0.15931
550.93433,0.16831
549.44454,0.16529
547.95475,0.16249
546.46496,0.16404
544.97517,0.16561
543.48539,0.20080
541.99560,0.22358
540.50581,0.24728
539.01602,0.27101
537.52623,0.35585
536.03644,0.38214
534.54666,0.39320
533.05687,0.41031
531.56708,0.42744
530.07729,0.48732
528.58750,0.52817
527.09771,0.53875
525.60792,0.54936
524.11814,0.61255
522.62835,0.68639
521.13856,0.73579
519.64877,0.75682
518.15898,0.77788
516.66919,0.81832
515.17941,0.83291
513.68962,0.83970
512.19983,0.84651
510.71004,0.79858
509.22025,0.74245
507.73046,0.66849
506.24068,0.60980
504.75089,0.55113
503.26110,0.45197
501.77131,0.34641
500.28152,0.30938
498.79173,0.27237
497.30194,0.21182
495.81216,0.16534
494.32237,0.15438
492.83258,0.14345
491.34279,0.11268
489.85300,0.08716
488.36321,0.06146
486.87343,0.06537
485.38364,0.06930
483.89385,0.07155
482.40406,0.08547
480.91427,0.10101
479.42448,0.11657
477.93469,0.14500
476.44491,0.12250
474.95512,0.13924
473.46533,0.15601
471.97554,0.17691
470.48575,0.17938
468.99596,0.15118
467.50618,0.14257
466.01639,0.13397
464.52660,0.12170
463.03681,0.09741
461.54702,0.09310
460.05723,0.08882
458.56745,0.04233
457.07766,0.00650
455.58787,0.01822
454.09808,0.02997
452.60829,0.02569
451.11850,0.00418
449.62871,0.01351
448.13893,0.02288
446.64914,0.02795
445.15935,0.00997
443.66956,0.01289
442.17977,0.01743
440.68998,0.02200
439.20020,0.01435
437.71041,0.01776
436.22062,0.01588
434.73083,0.01402
433.24104,0.02814
431.75125,0.04027
430.26146,0.03077
428.77168,0.02128
427.28189,0.02065
425.79210,0.01242
424.30231,0.01615
422.81252,0.01990
421.32273,0.04002
419.83295,0.04152
418.34316,0.03401
416.85337,0.02652
415.36358,0.01445
413.87379,0.01824
412.38400,0.01895
410.89422,0.01969
409.40443,0.00671
407.91464,0.02203
406.42485,0.01452
404.93506,0.02397
403.44527,0.03345
401.95548,0.03263
400.46570,0.02521
398.97591,0.02072
397.48612,0.01625
395.99633,0.02676
394.50654,0.00539
393.01675,0.01594
391.52697,0.02314
390.03718,0.00890
388.54739,0.03511
387.05760,0.02564
385.56781,0.01619
384.07802,0.01699
382.58824,0.00418
381.09845,0.00457
379.60866,0.00499
378.11887,0.00935
376.62908,0.02897
375.13929,0.02394
373.64950,0.01894
372.15972,0.02239
370.66993,0.04051
369.18014,0.03156
367.69035,0.02265
366.20056,0.03998
364.71077,0.02685
363.22099,0.02938
361.73120,0.03194
360.24141,0.05820
358.75162,0.04175
357.26183,0.04098
355.77204,0.04022
354.28225,0.04551
352.79247,0.04962
351.30268,0.04041
349.81289,0.03123
348.32310,0.05206
346.83331,0.07332
345.34352,0.06190
343.85374,0.05051
342.36395,0.05780
340.87416,0.02940
339.38437,0.01678
337.89458,0.00418
336.40479,0.00822
334.91501,0.00407
333.42522,0.01077
331.93543,0.01750
330.44564,0.02164
328.95585,0.00875
327.46606,0.02207
325.97627,0.03541
324.48649,0.04086
322.99670,0.07461
321.50691,0.08983
320.01712,0.10507
318.52733,0.07330
317.03754,0.07926
315.54776,0.06067
314.05797,0.04211
312.56818,0.04634
311.07839,0.04939
309.58860,0.03873
308.09881,0.02809
306.60902,0.03061
305.11924,0.03837
303.62945,0.02188
302.13966,0.00542
300.64987,0.01060
299.16008,0.00418
