1778.52000,0.01848
1777.03021,0.01976
1775.54042,0.01285
1774.05063,0.01457
1772.56085,0.01162
1771.07106,0.00830
1769.58127,0.01068
1768.09148,0.01093
1766.60169,0.00847
1765.11190,0.01229
1763.62212,0.00928
1762.13233,0.01393
1760.64254,0.00590
1759.15275,0.01118
1757.66296,0.00808
1756.17317,0.00422
1754.68339,0.00489
1753.19360,0.01144
1751.70381,0.00706
1750.21402,0.01503
1748.72423,0.00954
1747.23444,0.00856
1745.74465,0.00819
1744.25487,0.00590
1742.76508,0.01081
1741.27529,0.01516
1739.78550,0.02168
1738.29571,0.01240
1736.80592,0.01623
1735.31614,0.01521
1733.82635,0.01557
1732.33656,0.01166
1730.84677,0.01032
1729.35698,0.00567
1727.86719,0.01532
1726.37740,0.01522
1724.88762,0.01534
1723.39783,0.00434
1721.90804,0.00822
1720.41825,0.01212
1718.92846,0.00823
1717.43867,0.01844
1715.94889,0.01695
1714.45910,0.00590
1712.96931,0.01354
1711.47952,0.01476
1709.98973,0.01365
1708.49994,0.00651
1707.01016,0.01005
1705.52037,0.01361
1704.03058,0.00888
1702.54079,0.01005
1701.05100,0.01085
1699.56121,0.01792
1698.07142,0.00704
1696.58164,0.00948
1695.09185,0.01311
1693.60206,0.01872
1692.11227,0.01321
1690.62248,0.02454
1689.13269,0.02240
1687.64291,0.01325
1686.15312,0.01957
1684.66333,0.02532
1683.17354,0.03579
1681.68375,0.02342
1680.19396,0.02631
1678.70417,0.03314
1677.21439,0.03061
1675.72460,0.03807
1674.23481,0.04028
1672.74502,0.04134
1671.25523,0.05298
1669.76544,0.04959
1668.27566,0.05620
1666.78587,0.05951
1665.29608,0.06206
1663.80629,0.06522
1662.31650,0.08052
1660.82671,0.07454
1659.33693,0.06839
1657.84714,0.07262
1656.35735,0.07102
1654.86756,0.05399
1653.37777,0.06338
1651.88798,0.07944
1650.39819,0.07812
1648.90841,0.08133
1647.41862,0.08612
1645.92883,0.07911
1644.43904,0.07213
1642.94925,0.08149
1641.45946,0.07426
1639.96968,0.07839
1638.47989,0.08196
1636.99010,0.07656
1635.50031,0.08174
1634.01052,0.08147
1632.52073,0.07341
1631.03094,0.07632
1629.54116,0.07867
1628.05137,0.08475
1626.56158,0.08519
1625.07179,0.09425
1623.58200,0.09278
1622.09221,0.08470
1620.60243,0.07565
1619.11264,0.09302
1617.62285,0.08794
1616.13306,0.07330
1614.64327,0.06220
1613.15348,0.07830
1611.66370,0.08758
1610.17391,0.08418
1608.68412,0.07885
1607.19433,0.09348
1605.70454,0.09269
1604.21475,0.08333
1602.72496,0.07399
1601.23518,0.08051
1599.74539,0.06946
1598.25560,0.07309
1596.76581,0.08535
1595.27602,0.08258
1593.78623,0.08003
1592.29645,0.07828
1590.80666,0.06210
1589.31687,0.07252
1587.82708,0.08063
1586.33729,0.06784
1584.84750,0.07247
1583.35771,0.06892
1581.86793,0.08044
1580.37814,0.07908
1578.88835,0.07580
1577.39856,0.07723
1575.90877,0.06324
1574.41898,0.05807
1572.92920,0.04902
1571.43941,0.05269
1569.94962,0.04779
1568.45983,0.04292
1566.97004,0.05370
1565.48025,0.04360
1563.99047,0.04661
1562.50068,0.03460
1561.01089,0.03512
1559.52110,0.03078
1558.03131,0.02744
1556.54152,0.02354
1555.05173,0.02357
1553.56195,0.02011
1552.07216,0.02351
1550.58237,0.01247
1549.09258,0.01807
1547.60279,0.01080
1546.11300,0.02036
1544.62322,0.00590
1543.13343,0.02126
1541.64364,0.02375
1540.15385,0.01786
1538.66406,0.01199
1537.17427,0.02022
1535.68448,0.02143
1534.19470,0.00977
1532.70491,0.01747
1531.21512,0.02538
1529.72533,0.02707
1528.23554,0.02800
1526.74575,0.02387
1525.25597,0.02289
1523.76618,0.01470
1522.27639,0.04798
1520.78660,0.04218
1519.29681,0.04286
1517.80702,0.06214
1516.31724,0.04821
1514.82745,0.05541
1513.33766,0.05463
1511.84787,0.05386
1510.35808,0.06016
1508.86829,0.04577
1507.37850,0.04899
1505.88872,0.05458
1504.39893,0.06058
1502.90914,0.06778
1501.41935,0.06093
1499.92956,0.06760
1498.43977,0.07194
1496.94999,0.08314
1495.46020,0.08675
1493.97041,0.09703
1492.48062,0.10753
1490.99083,0.11121
1489.50104,0.14618
1488.01125,0.15265
1486.52147,0.15914
1485.03168,0.17953
1483.54189,0.20151
1482.05210,0.19634
1480.56231,0.21368
1479.07252,0.22693
1477.58274,0.24353
1476.09295,0.24941
1474.60316,0.25590
1473.11337,0.25283
1471.62358,0.27226
1470.13379,0.28879
1468.64401,0.31726
1467.15422,0.32895
1465.66443,0.33930
1464.17464,0.34967
1462.68485,0.38879
1461.19506,0.39471
1459.70527,0.43780
1458.21549,0.49361
1456.72570,0.54143
1455.23591,0.59475
1453.74612,0.68035
1452.25633,0.70791
1450.76654,0.75095
1449.27676,0.71992
1447.78697,0.72704
1446.29718,0.69372
1444.80739,0.67684
1443.31760,0.65998
1441.82781,0.60132
1440.33802,0.56086
1438.84824,0.53196
1437.35845,0.51560
1435.86866,0.49358
1434.37887,0.51362
1432.88908,0.59369
1431.39929,0.66616
1429.90951,0.72634
1428.41972,0.74413
1426.92993,0.77230
1425.44014,0.82102
1423.95035,0.83780
1422.46056,0.85461
1420.97078,0.89344
1419.48099,0.91137
1417.99120,0.94164
1416.50141,0.90333
1415.01162,0.84647
1413.52183,0.77615
1412.03204,0.74260
1410.54226,0.70497
1409.05247,0.70919
1407.56268,0.66008
1406.07289,0.56407
1404.58310,0.53231
1403.09331,0.50056
1401.60353,0.45057
1400.11374,0.39297
1398.62395,0.33247
1397.13416,0.30092
1395.64437,0.24574
1394.15458,0.21483
1392.66479,0.17827
1391.17501,0.15463
1389.68522,0.13865
1388.19543,0.11252
1386.70564,0.10195
1385.21585,0.09141
1383.72606,0.05910
1382.23628,0.03718
1380.74649,0.03130
1379.25670,0.01060
1377.76691,0.01337
1376.27712,0.00933
1374.78733,0.00590
1373.29755,0.01626
1371.80776,0.01433
1370.31797,0.01672
1368.82818,0.01787
1367.33839,0.01904
1365.84860,0.01838
1364.35881,0.02478
1362.86903,0.05153
1361.37924,0.07088
1359.88945,0.06797
1358.39966,0.09187
1356.90987,0.12653
1355.42008,0.16142
1353.93030,0.22077
1352.44051,0.26010
1350.95072,0.29946
1349.46093,0.37783
1347.97114,0.46405
1346.48135,0.53954
1344.99156,0.59630
1343.50178,0.64623
1342.01199,0.71163
1340.52220,0.76455
1339.03241,0.78993
1337.54262,0.81826
1336.05283,0.84867
1334.56305,0.87911
1333.07326,0.88660
1331.58347,0.93145
1330.09368,0.90811
1328.60389,0.87756
1327.11410,0.85172
1325.62432,0.81379
1324.13453,0.83257
1322.64474,0.79449
1321.15495,0.74178
1319.66516,0.71294
1318.17537,0.68412
1316.68558,0.64125
1315.19580,0.57612
1313.70601,0.55930
1312.21622,0.50458
1310.72643,0.50676
1309.23664,0.48513
1307.74685,0.43107
1306.25707,0.39345
1304.76728,0.36631
1303.27749,0.33920
1301.78770,0.28837
1300.29791,0.25847
1298.80812,0.25909
1297.31834,0.21184
1295.82855,0.16872
1294.33876,0.13149
1292.84897,0.11129
1291.35918,0.09151
1289.86939,0.09286
1288.37960,0.09423
1286.88982,0.11166
1285.40003,0.09823
1283.91024,0.07876
1282.42045,0.06166
1280.93066,0.04713
1279.44087,0.04493
1277.95109,0.06113
1276.46130,0.05214
1274.97151,0.05852
1273.48172,0.06493
1271.99193,0.04643
1270.50214,0.03285
1269.01235,0.03434
1267.52257,0.03527
1266.03278,0.04756
1264.54299,0.02801
1263.05320,0.01357
1261.56341,0.01499
1260.07362,0.01643
1258.58384,0.01614
1257.09405,0.00590
1255.60426,0.01702
1254.11447,0.01449
1252.62468,0.02683
1251.13489,0.02474
1249.64511,0.03088
1248.15532,0.02395
1246.66553,0.02456
1245.17574,0.02520
1243.68595,0.01756
1242.19616,0.01170
1240.70637,0.01134
1239.21659,0.00318
1237.72680,0.01649
1236.23701,0.00950
1234.74722,0.00761
1233.25743,0.00644
1231.76764,0.00528
1230.27786,0.02399
1228.78807,0.02416
1227.29828,0.01868
1225.80849,0.01205
1224.31870,0.00955
1222.82891,0.00590
1221.33912,0.02362
1219.84934,0.03540
1218.35955,0.04721
1216.86976,0.03998
1215.37997,0.05116
1213.89018,0.06372
1212.40039,0.06399
1210.91061,0.08188
1209.42082,0.08396
1207.93103,0.07913
1206.44124,0.07432
1204.95145,0.06357
1203.46166,0.07122
1201.97188,0.06267
1200.48209,0.05454
1198.99230,0.05190
1197.50251,0.03971
1196.01272,0.04279
1194.52293,0.04209
1193.03314,0.04140
1191.54336,0.02696
1190.05357,0.01880
1188.56378,0.03236
1187.07399,0.03070
1185.58420,0.02574
1184.09441,0.02706
1182.60463,0.02097
1181.11484,0.01491
1179.62505,0.02060
1178.13526,0.00833
1176.64547,0.00781
1175.15568,0.00576
1173.66589,0.00590
1172.17611,0.01478
1170.68632,0.01235
1169.19653,0.00995
1167.70674,0.02536
1166.21695,0.02066
1164.72716,0.03161
1163.23738,0.03419
1161.74759,0.03699
1160.25780,0.05545
1158.76801,0.06162
1157.27822,0.06781
1155.78843,0.06915
1154.29865,0.08536
1152.80886,0.09885
1151.31907,0.09146
1149.82928,0.09132
1148.33949,0.11115
1146.84970,0.11947
1145.35991,0.12781
1143.87013,0.13930
1142.38034,0.13459
1140.89055,0.14985
1139.40076,0.14968
1137.91097,0.15932
1136.42118,0.16155
1134.93140,0.17455
1133.44161,0.18758
1131.95182,0.21139
1130.46203,0.23228
1128.97224,0.21821
1127.48245,0.22274
1125.99266,0.21967
1124.50288,0.21974
1123.01309,0.22864
1121.52330,0.23756
1120.03351,0.22364
1118.54372,0.21775
1117.05393,0.21717
1115.56415,0.22189
1114.07436,0.23367
1112.58457,0.22495
1111.09478,0.21625
1109.60499,0.22204
1108.11520,0.23626
1106.62542,0.21689
1105.13563,0.20477
1103.64584,0.21066
1102.15605,0.20875
1100.66626,0.21058
1099.17647,0.21244
1097.68668,0.20102
1096.19690,0.18299
1094.70711,0.18081
1093.21732,0.16674
1091.72753,0.14506
1090.23774,0.16465
1088.74795,0.18427
1087.25817,0.16931
1085.76838,0.16415
1084.27859,0.17172
1082.78880,0.18752
1081.29901,0.18732
1079.80922,0.20396
1078.31943,0.20077
1076.82965,0.19762
1075.33986,0.22429
1073.85007,0.22538
1072.36028,0.23549
1070.87049,0.24367
1069.38070,0.27611
1067.89092,0.27798
1066.40113,0.27988
1064.91134,0.35539
1063.42155,0.45321
1061.93176,0.52994
1060.44197,0.62078
1058.95219,0.70577
1057.46240,0.76137
1055.97261,0.81699
1054.48282,0.89932
1052.99303,0.89606
1051.50324,0.90025
1050.01345,0.89781
1048.52367,0.86941
1047.03388,0.87836
1045.54409,0.88734
1044.05430,0.87758
1042.56451,0.84282
1041.07472,0.77505
1039.58494,0.68581
1038.09515,0.60206
1036.60536,0.56583
1035.11557,0.52963
1033.62578,0.46863
1032.13599,0.40433
1030.64620,0.35335
1029.15642,0.28948
1027.66663,0.26435
1026.17684,0.23924
1024.68705,0.22451
1023.19726,0.17971
1021.70747,0.15955
1020.21769,0.14646
1018.72790,0.15392
1017.23811,0.13941
1015.74832,0.12493
1014.25853,0.09864
1012.76874,0.10463
1011.27896,0.09872
1009.78917,0.08951
1008.29938,0.06469
1006.80959,0.05650
1005.31980,0.04834
1003.83001,0.01793
1002.34022,0.01314
1000.85044,0.03496
999.36065,0.04996
997.87086,0.05453
996.38107,0.05912
994.89128,0.05406
993.40149,0.07229
991.91171,0.09757
990.42192,0.10080
988.93213,0.10287
987.44234,0.11191
985.95255,0.12097
984.46276,0.12644
982.97297,0.10731
981.48319,0.07510
979.99340,0.07360
978.50361,0.06207
977.01382,0.05055
975.52403,0.04170
974.03424,0.02721
972.54446,0.00590
971.05467,0.01748
969.56488,0.02479
968.07509,0.01571
966.58530,0.00664
965.09551,0.01422
963.60573,0.00579
962.11594,0.00443
960.62615,0.00563
959.13636,0.00461
957.64657,0.00361
956.15678,0.02553
954.66699,0.02266
953.17721,0.02039
951.68742,0.03809
950.19763,0.03499
948.70784,0.03192
947.21805,0.06219
945.72826,0.07353
944.23848,0.08666
942.74869,0.10157
941.25890,0.14191
939.76911,0.14152
938.27932,0.14116
936.78953,0.15401
935.29974,0.16650
933.80996,0.17588
932.32017,0.21383
930.83038,0.22238
929.34059,0.23096
927.85080,0.24826
926.36101,0.24799
924.87123,0.27374
923.38144,0.34056
921.89165,0.37027
920.40186,0.40001
918.91207,0.49622
917.42228,0.60165
915.93250,0.70241
914.44271,0.91461
912.95292,1.01278
911.46313,1.11097
909.97334,1.33536
908.48355,1.54668
906.99376,1.75724
905.50398,1.88924
904.01419,1.90409
902.52440,1.91897
901.03461,1.97501
899.54482,2.00000
898.05503,1.85750
896.56525,1.58875
895.07546,1.47073
893.58567,1.35274
892.09588,1.10361
890.60609,0.87014
889.11630,0.66231
887.62651,0.48245
886.13673,0.41676
884.64694,0.35110
883.15715,0.27178
881.66736,0.19854
880.17757,0.14781
878.68778,0.12388
877.19800,0.09997
875.70821,0.06397
874.21842,0.04148
872.72863,0.03993
871.23884,0.03293
869.74905,0.03377
868.25927,0.03463
866.76948,0.02653
865.27969,0.02413
863.78990,0.03523
862.30011,0.03424
860.81032,0.04783
859.32053,0.06145
857.83075,0.08555
856.34096,0.10928
854.85117,0.11505
853.36138,0.12085
851.87159,0.13518
850.38180,0.14953
848.89202,0.16634
847.40223,0.18357
845.91244,0.19399
844.42265,0.19876
842.93286,0.20355
841.44307,0.22850
839.95329,0.24801
838.46350,0.26890
836.97371,0.27555
835.48392,0.27607
833.99413,0.27661
832.50434,0.27062
831.01455,0.25802
829.52477,0.24524
828.03498,0.22154
826.54519,0.20618
825.05540,0.19083
823.56561,0.17288
822.07582,0.15670
820.58604,0.14368
819.09625,0.13068
817.60646,0.11771
816.11667,0.11805
814.62688,0.12115
813.13709,0.11978
811.64730,0.14267
810.15752,0.13109
808.66773,0.11953
807.17794,0.11610
805.68815,0.14417
804.19836,0.14314
802.70857,0.15445
801.21879,0.16578
799.72900,0.17050
798.23921,0.14650
796.74942,0.12272
795.25963,0.12281
793.76984,0.12293
792.28006,0.14183
790.79027,0.16154
789.30048,0.19750
787.81069,0.22312
786.32090,0.22238
784.83111,0.22166
783.34132,0.26867
781.85154,0.30455
780.36175,0.33537
778.87196,0.35000
777.38217,0.36465
775.89238,0.42272
774.40259,0.42295
772.91281,0.37923
771.42302,0.36905
769.93323,0.35890
768.44344,0.33363
766.95365,0.27495
765.46386,0.22900
763.97407,0.20810
762.48429,0.20217
760.99450,0.19627
759.50471,0.15785
758.01492,0.11926
756.52513,0.12291
755.03534,0.11593
753.54556,0.10897
752.05577,0.07751
750.56598,0.06054
749.07619,0.04261
747.58640,0.03751
746.09661,0.03244
744.60683,0.02025
743.11704,0.02041
741.62725,0.01589
740.13746,0.01932
738.64767,0.02277
737.15788,0.00895
735.66809,0.00590
734.17831,0.02223
732.68852,0.02725
731.19873,0.03229
729.70894,0.01723
728.21915,0.00590
726.72936,0.01121
725.23958,0.00951
723.74979,0.01379
722.26000,0.01810
720.77021,0.00845
719.28042,0.01252
717.79063,0.00976
716.30084,0.00596
714.81106,0.00218
713.32127,0.00242
711.83148,0.01597
710.34169,0.02701
708.85190,0.02674
707.36211,0.02649
705.87233,0.03018
704.38254,0.01708
702.89275,0.02159
701.40296,0.02808
699.91317,0.03460
698.42338,0.04740
696.93360,0.06022
695.44381,0.08381
693.95402,0.09258
692.46423,0.10137
690.97444,0.09943
689.48465,0.12117
687.99486,0.14312
686.50508,0.16119
685.01529,0.17929
683.52550,0.20405
682.03571,0.23217
680.54592,0.24291
679.05613,0.23588
677.56635,0.22888
676.07656,0.24791
674.58677,0.21359
673.09698,0.17695
671.60719,0.16917
670.11740,0.16141
668.62761,0.13521
667.13783,0.12740
665.64804,0.11131
664.15825,0.09524
662.66846,0.09493
661.17867,0.06943
659.68888,0.05706
658.19910,0.05291
656.70931,0.04879
655.21952,0.03824
653.72973,0.03261
652.23994,0.03462
650.75015,0.03001
649.26037,0.02542
647.77058,0.03141
646.28079,0.03157
644.79100,0.02920
643.30121,0.02168
641.81142,0.01419
640.32163,0.01326
638.83185,0.01510
637.34206,0.02654
635.85227,0.01621
634.36248,0.00590
632.87269,0.01427
631.38290,0.01152
629.89312,0.00997
628.40333,0.01412
626.91354,0.01828
625.42375,0.01388
623.93396,0.01106
622.44417,0.00836
620.95438,0.00568
619.46460,0.00000
617.97481,0.02838
616.48502,0.03782
614.99523,0.04865
613.50544,0.05951
612.01565,0.10636
610.52587,0.13681
609.03608,0.17276
607.54629,0.19506
606.05650,0.21737
604.56671,0.25574
603.07692,0.34691
601.58714,0.35288
600.09735,0.35887
598.60756,0.37837
597.11777,0.44091
595.62798,0.43602
594.13819,0.42267
592.64840,0.40933
591.15862,0.35898
589.66883,0.29712
588.17904,0.23607
586.68925,0.21149
585.19946,0.18694
583.70967,0.15156
582.21989,0.11992
580.73010,0.11001
579.24031,0.10011
577.75052,0.06347
576.26073,0.06809
574.77094,0.03501
573.28115,0.03312
571.79137,0.03127
570.30158,0.03657
568.81179,0.04757
567.32200,0.05350
565.83221,0.05946
564.34242,0.09672
562.85264,0.14085
561.36285,0.15294
559.87306,0.15743
558.38327,0.16195
556.89348,0.18741
555.40369,0.18396
553.91391,0.18337
552.42412,0.18280
550.93433,0.19096
549.44454,0.18018
547.95475,0.20187
546.46496,0.19886
544.97517,0.19588
543.48539,0.23113
541.99560,0.25819
540.50581,0.28186
539.01602,0.30555
537.52623,0.36788
536.03644,0.39856
534.54666,0.40307
533.05687,0.44035
531.56708,0.47765
530.07729,0.52015
528.58750,0.53355
527.09771,0.54347
525.60792,0.55340
524.11814,0.59346
522.62835,0.68045
521.13856,0.74558
519.64877,0.77057
518.15898,0.79557
516.66919,0.84572
515.17941,0.87146
513.68962,0.85755
512.19983,0.84366
510.71004,0.80692
509.22025,0.76767
507.73046,0.67566
506.24068,0.62199
504.75089,0.56835
503.26110,0.47407
501.77131,0.36828
500.28152,0.31676
498.79173,0.26527
497.30194,0.18789
495.81216,0.16821
494.32237,0.16301
492.83258,0.15784
491.34279,0.12747
489.85300,0.09850
488.36321,0.05685
486.87343,0.05959
485.38364,0.06236
483.89385,0.08704
482.40406,0.10901
480.91427,0.11322
479.42448,0.11745
477.93469,0.15415
476.44491,0.16977
474.95512,0.17104
473.46533,0.17234
471.97554,0.18822
470.48575,0.17012
468.99596,0.17432
467.50618,0.17063
466.01639,0.16697
464.52660,0.16909
463.03681,0.13098
461.54702,0.10628
460.05723,0.08160
458.56745,0.03593
457.07766,0.01883
455.58787,0.02159
454.09808,0.02437
452.60829,0.02239
451.11850,0.01222
449.62871,0.01889
448.13893,0.02558
446.64914,0.02272
445.15935,0.02653
443.66956,0.03915
442.17977,0.03421
440.68998,0.02930
439.20020,0.02284
437.71041,0.05003
436.22062,0.04440
434.73083,0.03880
433.24104,0.04065
431.75125,0.02884
430.26146,0.03055
428.77168,0.03227
427.28189,0.04419
425.79210,0.04850
424.30231,0.05079
422.81252,0.05310
421.32273,0.07078
419.83295,0.05057
418.34316,0.03995
416.85337,0.02936
415.36358,0.00590
413.87379,0.03509
412.38400,0.03831
410.89422,0.04156
409.40443,0.02782
407.91464,0.04597
406.42485,0.05242
404.93506,0.04413
403.44527,0.03587
401.95548,0.05392
400.46570,0.04385
398.97591,0.03302
397.48612,0.02221
395.99633,0.03234
394.50654,0.02803
393.01675,0.02668
391.52697,0.02535
390.03718,0.03259
388.54739,0.03633
387.05760,0.03178
385.56781,0.02726
384.07802,0.04143
382.58824,0.01868
381.09845,0.01228
379.60866,0.00590
378.11887,0.01501
376.62908,0.01946
375.13929,0.01944
373.64950,0.01944
372.15972,0.02182
370.66993,0.03164
369.18014,0.03090
367.69035,0.03019
366.20056,0.04739
364.71077,0.05269
363.22099,0.04941
361.73120,0.04616
360.24141,0.07576
358.75162,0.05692
357.26183,0.05755
355.77204,0.05820
354.28225,0.05253
352.79247,0.04590
351.30268,0.05904
349.81289,0.07220
348.32310,0.08656
346.83331,0.12108
345.34352,0.12200
343.85374,0.12294
342.36395,0.06410
340.87416,0.05903
339.38437,0.05985
337.89458,0.06069
336.40479,0.04378
334.91501,0.01594
333.42522,0.02000
331.93543,0.02408
330.44564,0.02623
328.95585,0.05773
327.46606,0.05612
325.97627,0.05453
324.48649,0.05756
322.99670,0.06902
321.50691,0.05578
320.01712,0.04256
318.52733,0.07344
317.03754,0.06311
315.54776,0.05729
314.05797,0.05150
312.56818,0.05199
311.07839,0.03589
309.58860,0.02450
308.09881,0.01313
306.60902,0.00590
305.11924,0.01082
303.62945,0.01107
302.13966,0.00590
300.64987,0.01370
299.16008,0.00590
