1778.52000,0.01097
1777.03021,0.01188
1775.54042,0.01555
1774.05063,0.01037
1772.56085,0.00455
1771.07106,0.00215
1769.58127,0.00000
1768.09148,0.00310
1766.60169,0.00940
1765.11190,0.01074
1763.62212,0.00710
1762.13233,0.00711
1760.64254,0.00874
1759.15275,0.00881
1757.66296,0.00685
1756.17317,0.00538
1754.68339,0.00483
1753.19360,0.00659
1751.70381,0.00314
1750.21402,0.01220
1748.72423,0.00631
1747.23444,0.00702
1745.74465,0.00639
1744.25487,0.01147
1742.76508,0.01362
1741.27529,0.01352
1739.78550,0.00685
1738.29571,0.01023
1736.80592,0.01454
1735.31614,0.01024
1733.82635,0.00824
1732.33656,0.00876
1730.84677,0.00589
1729.35698,0.01600
1727.86719,0.01273
1726.37740,0.01040
1724.88762,0.00990
1723.39783,0.00580
1721.90804,0.01261
1720.41825,0.00561
1718.92846,0.00657
1717.43867,0.00870
1715.94889,0.01608
1714.45910,0.00849
1712.96931,0.00910
1711.47952,0.01279
1709.98973,0.00902
1708.49994,0.00936
1707.01016,0.00711
1705.52037,0.00489
1704.03058,0.01279
1702.54079,0.00278
1701.05100,0.01685
1699.56121,0.01573
1698.07142,0.00669
1696.58164,0.01629
1695.09185,0.00820
1693.60206,0.01103
1692.11227,0.00685
1690.62248,0.01365
1689.13269,0.01979
1687.64291,0.02800
1686.15312,0.01852
1684.66333,0.01883
1683.17354,0.02506
1681.68375,0.03859
1680.19396,0.02626
1678.70417,0.02893
1677.21439,0.03708
1675.72460,0.03504
1674.23481,0.03529
1672.74502,0.04056
1671.25523,0.05175
1669.76544,0.06048
1668.27566,0.06491
1666.78587,0.06165
1665.29608,0.06795
1663.80629,0.05360
1662.31650,0.06290
1660.82671,0.07404
1659.33693,0.08816
1657.84714,0.09390
1656.35735,0.07173
1654.86756,0.08228
1653.37777,0.07606
1651.88798,0.07780
1650.39819,0.08525
1648.90841,0.07864
1647.41862,0.07592
1645.92883,0.08060
1644.43904,0.08531
1642.94925,0.08901
1641.45946,0.08593
1639.96968,0.09764
1638.47989,0.08348
1636.99010,0.09273
1635.50031,0.09088
1634.01052,0.09632
1632.52073,0.08884
1631.03094,0.08048
1629.54116,0.08849
1628.05137,0.09267
1626.56158,0.09982
1625.07179,0.10155
1623.58200,0.09421
1622.09221,0.10598
1620.60243,0.09960
1619.11264,0.09189
1617.62285,0.10531
1616.13306,0.09560
1614.64327,0.10567
1613.15348,0.10873
1611.66370,0.09818
1610.17391,0.10400
1608.68412,0.09396
1607.19433,0.10279
1605.70454,0.09915
1604.21475,0.09860
1602.72496,0.09808
1601.23518,0.08997
1599.74539,0.09823
1598.25560,0.10948
1596.76581,0.09372
1595.27602,0.08594
1593.78623,0.08817
1592.29645,0.09088
1590.80666,0.09974
1589.31687,0.09614
1587.82708,0.10029
1586.33729,0.08311
1584.84750,0.08844
1583.35771,0.07403
1581.86793,0.07464
1580.37814,0.07345
1578.88835,0.07842
1577.39856,0.08546
1575.90877,0.07390
1574.41898,0.05260
1572.92920,0.04927
1571.43941,0.06412
1569.94962,0.05436
1568.45983,0.04463
1566.97004,0.05865
1565.48025,0.04748
1563.99047,0.03566
1562.50068,0.03726
1561.01089,0.03344
1559.52110,0.03691
1558.03131,0.04130
1556.54152,0.03051
1555.05173,0.03065
1553.56195,0.02989
1552.07216,0.02599
1550.58237,0.01643
1549.09258,0.01597
1547.60279,0.01691
1546.11300,0.00447
1544.62322,0.00908
1543.13343,0.01872
1541.64364,0.02497
1540.15385,0.03012
1538.66406,0.03528
1537.17427,0.02957
1535.68448,0.00685
1534.19470,0.01700
1532.70491,0.02262
1531.21512,0.04030
1529.72533,0.02576
1528.23554,0.02760
1526.74575,0.02287
1525.25597,0.01862
1523.76618,0.04551
1522.27639,0.03200
1520.78660,0.03373
1519.29681,0.04184
1517.80702,0.05974
1516.31724,0.04428
1514.82745,0.04406
1513.33766,0.05033
1511.84787,0.05664
1510.35808,0.05331
1508.86829,0.04683
1507.37850,0.05763
1505.88872,0.06278
1504.39893,0.06136
1502.90914,0.05975
1501.41935,0.05157
1499.92956,0.05454
1498.43977,0.07389
1496.94999,0.08532
1495.46020,0.08745
1493.97041,0.10279
1492.48062,0.11292
1490.99083,0.12126
1489.50104,0.15188
1488.01125,0.14755
1486.52147,0.14325
1485.03168,0.15941
1483.54189,0.17309
1482.05210,0.19657
1480.56231,0.20281
1479.07252,0.23791
1477.58274,0.25760
1476.09295,0.25392
1474.60316,0.25775
1473.11337,0.27115
1471.62358,0.29298
1470.13379,0.30393
1468.64401,0.31467
1467.15422,0.32794
1465.66443,0.33374
1464.17464,0.33956
1462.68485,0.37766
1461.19506,0.40646
1459.70527,0.47049
1458.21549,0.50276
1456.72570,0.54435
1455.23591,0.60664
1453.74612,0.68848
1452.25633,0.72016
1450.76654,0.76003
1449.27676,0.76700
1447.78697,0.74720
1446.29718,0.74241
1444.80739,0.71244
1443.31760,0.68249
1441.82781,0.63690
1440.33802,0.57521
1438.84824,0.52421
1437.35845,0.49232
1435.86866,0.49224
1434.37887,0.53738
1432.88908,0.58776
1431.39929,0.65520
1429.90951,0.70223
1428.41972,0.76313
1426.92993,0.83836
1425.44014,0.88274
1423.95035,0.89386
1422.46056,0.90502
1420.97078,0.97785
1419.48099,1.01096
1417.99120,0.98824
1416.50141,0.94487
1415.01162,0.91652
1413.52183,0.85548
1412.03204,0.83581
1410.54226,0.75211
1409.05247,0.71409
1407.56268,0.66678
1406.07289,0.55999
1404.58310,0.53056
1403.09331,0.50115
1401.60353,0.42373
1400.11374,0.37563
1398.62395,0.35526
1397.13416,0.31766
1395.64437,0.26850
1394.15458,0.22890
1392.66479,0.19591
1391.17501,0.15204
1389.68522,0.13522
1388.19543,0.11548
1386.70564,0.09326
1385.21585,0.07106
1383.72606,0.05139
1382.23628,0.03492
1380.74649,0.02937
1379.25670,0.02158
1377.76691,0.02199
1376.27712,0.00879
1374.78733,0.00538
1373.29755,0.00911
1371.80776,0.00649
1370.31797,0.00685
1368.82818,0.01202
1367.33839,0.01721
1365.84860,0.04162
1364.35881,0.03426
1362.86903,0.03373
1361.37924,0.03936
1359.88945,0.07726
1358.39966,0.10065
1356.90987,0.10998
1355.42008,0.16453
1353.93030,0.23091
1352.44051,0.26632
1350.95072,0.30176
1349.46093,0.39296
1347.97114,0.47670
1346.48135,0.54184
1344.99156,0.57453
1343.50178,0.68219
1342.01199,0.73741
1340.52220,0.76336
1339.03241,0.81908
1337.54262,0.86575
1336.05283,0.88189
1334.56305,0.89806
1333.07326,0.93639
1331.58347,0.95590
1330.09368,0.94773
1328.60389,0.90960
1327.11410,0.87105
1325.62432,0.84410
1324.13453,0.78425
1322.64474,0.75462
1321.15495,0.74137
1319.66516,0.71929
1318.17537,0.69723
1316.68558,0.63273
1315.19580,0.55190
1313.70601,0.50107
1312.21622,0.48251
1310.72643,0.48101
1309.23664,0.45206
1307.74685,0.42744
1306.25707,0.38332
1304.76728,0.37079
1303.27749,0.35828
1301.78770,0.30061
1300.29791,0.26339
1298.80812,0.23665
1297.31834,0.18064
1295.82855,0.15553
1294.33876,0.13227
1292.84897,0.11720
1291.35918,0.09535
1289.86939,0.09793
1288.37960,0.10054
1286.88982,0.09352
1285.40003,0.09084
1283.91024,0.08682
1282.42045,0.07352
1280.93066,0.05569
1279.44087,0.04493
1277.95109,0.05373
1276.46130,0.04665
1274.97151,0.03437
1273.48172,0.02212
1271.99193,0.03033
1270.50214,0.03629
1269.01235,0.03683
1267.52257,0.02081
1266.03278,0.03820
1264.54299,0.04471
1263.05320,0.03126
1261.56341,0.03056
1260.07362,0.02987
1258.58384,0.01627
1257.09405,0.01677
1255.60426,0.00685
1254.11447,0.01828
1252.62468,0.02360
1251.13489,0.01146
1249.64511,0.01819
1248.15532,0.02222
1246.66553,0.02389
1245.17574,0.02558
1243.68595,0.02492
1242.19616,0.02200
1240.70637,0.01116
1239.21659,0.01284
1237.72680,0.02181
1236.23701,0.01831
1234.74722,0.03232
1233.25743,0.02853
1231.76764,0.02476
1230.27786,0.00751
1228.78807,0.01707
1227.29828,0.01826
1225.80849,0.01152
1224.31870,0.00685
1222.82891,0.00743
1221.33912,0.02619
1219.84934,0.02465
1218.35955,0.02314
1216.86976,0.04152
1215.37997,0.04631
1213.89018,0.06951
1212.40039,0.06366
1210.91061,0.05489
1209.42082,0.06771
1207.93103,0.05740
1206.44124,0.04711
1204.95145,0.07182
1203.46166,0.07429
1201.97188,0.07248
1200.48209,0.06501
1198.99230,0.06529
1197.50251,0.05446
1196.01272,0.05024
1194.52293,0.05025
1193.03314,0.05028
1191.54336,0.04319
1190.05357,0.01590
1188.56378,0.01158
1187.07399,0.02249
1185.58420,0.02571
1184.09441,0.01465
1182.60463,0.01042
1181.11484,0.00622
1179.62505,0.01216
1178.13526,0.01267
1176.64547,0.00685
1175.15568,0.01693
1173.66589,0.01705
1172.17611,0.00923
1170.68632,0.00803
1169.19653,0.00685
1167.70674,0.01835
1166.21695,0.02783
1164.72716,0.02303
1163.23738,0.03800
1161.74759,0.06300
1160.25780,0.09256
1158.76801,0.08739
1157.27822,0.08226
1155.78843,0.09349
1154.29865,0.08023
1152.80886,0.11218
1151.31907,0.13507
1149.82928,0.13210
1148.33949,0.13596
1146.84970,0.13235
1145.35991,0.12877
1143.87013,0.12180
1142.38034,0.13121
1140.89055,0.13520
1139.40076,0.16350
1137.91097,0.18071
1136.42118,0.19771
1134.93140,0.21485
1133.44161,0.23201
1131.95182,0.21933
1130.46203,0.22280
1128.97224,0.23538
1127.48245,0.23504
1125.99266,0.23245
1124.50288,0.27122
1123.01309,0.25335
1121.52330,0.23550
1120.03351,0.24550
1118.54372,0.24076
1117.05393,0.22628
1115.56415,0.23386
1114.07436,0.24804
1112.58457,0.24544
1111.09478,0.24286
1109.60499,0.24395
1108.11520,0.24801
1106.62542,0.23869
1105.13563,0.22736
1103.64584,0.21605
1102.15605,0.21157
1100.66626,0.20689
1099.17647,0.20224
1097.68668,0.22123
1096.19690,0.21390
1094.70711,0.20728
1093.21732,0.21362
1091.72753,0.20273
1090.23774,0.20344
1088.74795,0.20418
1087.25817,0.17610
1085.76838,0.16917
1084.27859,0.18474
1082.78880,0.19103
1081.29901,0.21119
1079.80922,0.21866
1078.31943,0.22933
1076.82965,0.24003
1075.33986,0.27187
1073.85007,0.27126
1072.36028,0.24160
1070.87049,0.24945
1069.38070,0.27253
1067.89092,0.29745
1066.40113,0.32239
1064.91134,0.41730
1063.42155,0.50452
1061.93176,0.61447
1060.44197,0.70582
1058.95219,0.80742
1057.46240,0.85306
1055.97261,0.89872
1054.48282,0.93204
1052.99303,1.00398
1051.50324,1.04960
1050.01345,1.09253
1048.52367,1.10959
1047.03388,1.06751
1045.54409,1.02546
1044.05430,0.90906
1042.56451,0.83379
1041.07472,0.79442
1039.58494,0.72101
1038.09515,0.61993
1036.60536,0.58699
1035.11557,0.55408
1033.62578,0.50847
1032.13599,0.43859
1030.64620,0.39530
1029.15642,0.32752
1027.66663,0.30563
1026.17684,0.28376
1024.68705,0.25170
1023.19726,0.22147
1021.70747,0.19219
1020.21769,0.16723
1018.72790,0.14254
1017.23811,0.14364
1015.74832,0.14476
1014.25853,0.11241
1012.76874,0.13028
1011.27896,0.11342
1009.78917,0.11362
1008.29938,0.07410
1006.80959,0.06765
1005.31980,0.06122
1003.83001,0.04562
1002.34022,0.04820
1000.85044,0.06762
999.36065,0.08184
997.87086,0.07974
996.38107,0.07765
994.89128,0.09512
993.40149,0.13056
991.91171,0.14899
990.42192,0.15472
988.93213,0.14981
987.44234,0.15298
985.95255,0.15618
984.46276,0.16950
982.97297,0.14379
981.48319,0.13559
979.99340,0.11742
978.50361,0.10927
977.01382,0.10114
975.52403,0.07351
974.03424,0.04839
972.54446,0.03784
971.05467,0.03957
969.56488,0.04042
968.07509,0.03369
966.58530,0.02698
965.09551,0.01314
963.60573,0.00681
962.11594,0.01670
960.62615,0.00685
959.13636,0.01133
957.64657,0.01583
956.15678,0.00672
954.66699,0.02739
953.17721,0.03651
951.68742,0.03542
950.19763,0.03879
948.70784,0.04219
947.21805,0.06389
945.72826,0.07062
944.23848,0.10372
942.74869,0.10505
941.25890,0.12253
939.76911,0.13220
938.27932,0.14190
936.78953,0.14855
935.29974,0.18316
933.80996,0.18736
932.32017,0.21203
930.83038,0.21491
929.34059,0.21783
927.85080,0.22916
926.36101,0.26551
924.87123,0.30437
923.38144,0.35621
921.89165,0.38626
920.40186,0.41634
918.91207,0.52684
917.42228,0.62305
915.93250,0.76788
914.44271,0.96316
912.95292,1.07091
911.46313,1.17869
909.97334,1.41923
908.48355,1.69294
906.99376,1.81816
905.50398,1.90935
904.01419,1.95218
902.52440,1.99504
901.03461,2.00000
899.54482,1.94321
898.05503,1.76882
896.56525,1.57741
895.07546,1.45700
893.58567,1.33661
892.09588,1.08737
890.60609,0.83430
889.11630,0.65028
887.62651,0.46651
886.13673,0.40234
884.64694,0.33819
883.15715,0.25328
881.66736,0.20655
880.17757,0.15916
878.68778,0.13643
877.19800,0.11373
875.70821,0.07731
874.21842,0.05977
872.72863,0.04248
871.23884,0.04792
869.74905,0.04816
868.25927,0.04843
866.76948,0.04440
865.27969,0.04971
863.78990,0.06277
862.30011,0.07993
860.81032,0.07169
859.32053,0.06347
857.83075,0.08434
856.34096,0.09638
854.85117,0.14547
853.36138,0.16550
851.87159,0.17716
850.38180,0.18884
848.89202,0.19692
847.40223,0.22795
845.91244,0.24379
844.42265,0.25250
842.93286,0.26124
841.44307,0.26944
839.95329,0.27674
838.46350,0.29543
836.97371,0.29598
835.48392,0.31233
833.99413,0.32870
832.50434,0.31910
831.01455,0.29726
829.52477,0.28884
828.03498,0.23685
826.54519,0.22950
825.05540,0.22217
823.56561,0.19568
822.07582,0.17421
820.58604,0.15572
819.09625,0.15099
817.60646,0.14628
816.11667,0.17669
814.62688,0.18940
813.13709,0.16331
811.64730,0.15427
810.15752,0.14548
808.66773,0.13672
807.17794,0.15251
805.68815,0.17218
804.19836,0.19642
802.70857,0.18979
801.21879,0.18319
799.72900,0.16844
798.23921,0.15213
796.74942,0.14447
795.25963,0.15943
793.76984,0.17441
792.28006,0.20429
790.79027,0.18900
789.30048,0.20508
787.81069,0.25570
786.32090,0.26365
784.83111,0.27162
783.34132,0.29960
781.85154,0.33760
780.36175,0.36540
778.87196,0.38766
777.38217,0.40995
775.89238,0.44509
774.40259,0.44392
772.91281,0.43619
771.42302,0.41372
769.93323,0.39128
768.44344,0.37999
766.95365,0.32512
765.46386,0.27345
763.97407,0.24815
762.48429,0.21834
760.99450,0.18854
759.50471,0.13584
758.01492,0.13107
756.52513,0.12315
755.03534,0.12150
753.54556,0.11988
752.05577,0.11089
750.56598,0.07809
749.07619,0.07324
747.58640,0.05536
746.09661,0.03750
744.60683,0.05021
743.11704,0.04206
741.62725,0.03347
740.13746,0.02786
738.64767,0.02227
737.15788,0.02216
735.66809,0.00685
734.17831,0.02602
732.68852,0.02682
731.19873,0.02765
729.70894,0.03327
728.21915,0.04050
726.72936,0.01755
725.23958,0.02051
723.74979,0.01601
722.26000,0.01153
720.77021,0.01206
719.28042,0.01649
717.79063,0.00685
716.30084,0.01486
714.81106,0.02290
713.32127,0.03050
711.83148,0.03540
710.34169,0.03669
708.85190,0.03574
707.36211,0.03481
705.87233,0.04708
704.38254,0.03938
702.89275,0.05737
701.40296,0.06380
699.91317,0.07026
698.42338,0.07379
696.93360,0.06258
695.44381,0.09614
693.95402,0.10019
692.46423,0.10427
690.97444,0.12405
689.48465,0.15747
687.99486,0.16276
686.50508,0.18203
685.01529,0.20133
683.52550,0.20147
682.03571,0.22729
680.54592,0.25337
679.05613,0.25721
677.56635,0.26108
676.07656,0.25134
674.58677,0.23958
673.09698,0.19947
671.60719,0.18731
670.11740,0.17517
668.62761,0.15670
667.13783,0.16755
665.64804,0.14810
664.15825,0.12868
662.66846,0.09191
661.17867,0.08378
659.68888,0.06409
658.19910,0.05714
656.70931,0.05022
655.21952,0.04264
653.72973,0.04371
652.23994,0.05480
650.75015,0.05342
649.26037,0.05207
647.77058,0.04892
646.28079,0.02377
644.79100,0.02476
643.30121,0.02032
641.81142,0.01591
640.32163,0.03173
638.83185,0.02442
637.34206,0.01917
635.85227,0.01883
634.36248,0.01851
632.87269,0.02378
631.38290,0.01954
629.89312,0.02008
628.40333,0.02134
626.91354,0.02262
625.42375,0.01779
623.93396,0.02865
622.44417,0.01774
620.95438,0.00685
619.46460,0.02384
617.97481,0.03154
616.48502,0.07197
614.99523,0.08245
613.50544,0.09295
612.01565,0.14934
610.52587,0.15262
609.03608,0.20453
607.54629,0.21864
606.05650,0.23278
604.56671,0.27022
603.07692,0.31268
601.58714,0.33178
600.09735,0.35089
598.60756,0.38116
597.11777,0.43462
595.62798,0.44110
594.13819,0.42454
592.64840,0.40802
591.15862,0.36982
589.66883,0.30259
588.17904,0.25354
586.68925,0.22735
585.19946,0.20117
583.70967,0.14880
582.21989,0.13414
580.73010,0.11383
579.24031,0.09354
577.75052,0.08169
576.26073,0.08075
574.77094,0.05645
573.28115,0.05772
571.79137,0.05902
570.30158,0.06340
568.81179,0.09756
567.32200,0.09155
565.83221,0.08556
564.34242,0.10525
562.85264,0.11930
561.36285,0.14426
559.87306,0.15881
558.38327,0.17338
556.89348,0.15436
555.40369,0.18556
553.91391,0.18737
552.42412,0.18921
550.93433,0.20299
549.44454,0.19567
547.95475,0.18816
546.46496,0.19576
544.97517,0.20340
543.48539,0.24864
541.99560,0.26892
540.50581,0.29593
539.01602,0.32296
537.52623,0.35536
536.03644,0.36824
534.54666,0.38706
533.05687,0.41725
531.56708,0.44747
530.07729,0.52041
528.58750,0.55431
527.09771,0.57154
525.60792,0.58880
524.11814,0.66887
522.62835,0.70309
521.13856,0.74029
519.64877,0.78342
518.15898,0.82657
516.66919,0.81843
515.17941,0.88206
513.68962,0.85864
512.19983,0.83523
510.71004,0.81288
509.22025,0.76307
507.73046,0.66082
506.24068,0.61162
504.75089,0.56245
503.26110,0.46323
501.77131,0.38402
500.28152,0.34696
498.79173,0.30992
497.30194,0.24576
495.81216,0.17846
494.32237,0.15296
492.83258,0.12748
491.34279,0.08841
489.85300,0.08501
488.36321,0.08368
486.87343,0.07670
485.38364,0.06974
483.89385,0.08687
482.40406,0.10471
480.91427,0.10430
479.42448,0.10391
477.93469,0.14294
476.44491,0.16020
474.95512,0.17793
473.46533,0.19569
471.97554,0.22460
470.48575,0.22470
468.99596,0.19688
467.50618,0.18669
466.01639,0.17653
464.52660,0.16264
463.03681,0.12447
461.54702,0.10336
460.05723,0.08228
458.56745,0.05849
457.07766,0.03541
455.58787,0.04245
454.09808,0.04951
452.60829,0.03672
451.11850,0.02032
449.62871,0.02881
448.13893,0.03733
446.64914,0.02646
445.15935,0.03037
443.66956,0.03612
442.17977,0.04598
440.68998,0.05586
439.20020,0.03444
437.71041,0.02598
436.22062,0.03014
434.73083,0.03434
433.24104,0.02368
431.75125,0.03666
430.26146,0.03843
428.77168,0.04022
427.28189,0.02330
425.79210,0.05704
424.30231,0.06095
422.81252,0.06488
421.32273,0.07281
419.83295,0.04147
418.34316,0.04150
416.85337,0.04155
415.36358,0.02937
413.87379,0.01902
412.38400,0.03402
410.89422,0.04904
409.40443,0.03741
407.91464,0.03011
406.42485,0.03805
404.93506,0.04591
403.44527,0.05378
401.95548,0.04885
400.46570,0.03464
398.97591,0.03748
397.48612,0.04034
395.99633,0.03233
394.50654,0.00685
393.01675,0.01116
391.52697,0.01247
390.03718,0.03322
388.54739,0.07125
387.05760,0.05468
385.56781,0.03815
384.07802,0.02742
382.58824,0.01559
381.09845,0.01002
379.60866,0.00448
378.11887,0.04250
376.62908,0.03943
375.13929,0.03820
373.64950,0.03699
372.15972,0.04989
370.66993,0.02467
369.18014,0.03080
367.69035,0.03696
366.20056,0.05143
364.71077,0.05185
363.22099,0.05093
361.73120,0.05003
360.24141,0.02577
358.75162,0.04990
357.26183,0.06020
355.77204,0.07053
354.28225,0.05908
352.79247,0.08035
351.30268,0.07235
349.81289,0.06438
348.32310,0.04258
346.83331,0.04442
345.34352,0.04731
343.85374,0.05022
342.36395,0.07098
340.87416,0.04408
339.38437,0.05944
337.89458,0.07483
336.40479,0.04731
334.91501,0.02641
333.42522,0.02472
331.93543,0.02306
330.44564,0.05423
328.95585,0.00685
327.46606,0.01467
325.97627,0.02251
324.48649,0.02541
322.99670,0.06467
321.50691,0.07250
320.01712,0.08035
318.52733,0.06087
317.03754,0.06911
315.54776,0.05626
314.05797,0.04343
312.56818,0.08149
311.07839,0.08938
309.58860,0.07072
308.09881,0.05208
306.60902,0.05186
305.11924,0.04917
303.62945,0.03277
302.13966,0.01638
300.64987,0.02830
299.16008,0.00685
