1778.52000,0.01029
1777.03021,0.01582
1775.54042,0.01194
1774.05063,0.01224
1772.56085,0.01558
1771.07106,0.00612
1769.58127,0.01555
1768.09148,0.01745
1766.60169,0.01372
1765.11190,0.01530
1763.62212,0.01539
1762.13233,0.01174
1760.64254,0.01188
1759.15275,0.00299
1757.66296,0.01337
1756.17317,0.01396
1754.68339,0.00326
1753.19360,0.00616
1751.70381,0.01060
1750.21402,0.00865
1748.72423,0.01088
1747.23444,0.00294
1745.74465,0.00899
1744.25487,0.01544
1742.76508,0.01701
1741.27529,0.03256
1739.78550,0.01456
1738.29571,0.00299
1736.80592,0.02661
1735.31614,0.01516
1733.82635,0.01619
1732.33656,0.01460
1730.84677,0.01153
1729.35698,0.00433
1727.86719,0.01338
1726.37740,0.01227
1724.88762,0.01760
1723.39783,0.00823
1721.90804,0.00644
1720.41825,0.00241
1718.92846,0.00632
1717.43867,0.00687
1715.94889,0.00932
1714.45910,0.00879
1712.96931,0.00299
1711.47952,0.01721
1709.98973,0.01144
1708.49994,0.00986
1707.01016,0.00754
1705.52037,0.00525
1704.03058,0.00299
1702.54079,0.01196
1701.05100,0.01266
1699.56121,0.01188
1698.07142,0.01678
1696.58164,0.00773
1695.09185,0.01306
1693.60206,0.01803
1692.11227,0.01360
1690.62248,0.02088
1689.13269,0.01310
1687.64291,0.01590
1686.15312,0.02892
1684.66333,0.02046
1683.17354,0.02334
1681.68375,0.03681
1680.19396,0.01823
1678.70417,0.03363
1677.21439,0.03284
1675.72460,0.05433
1674.23481,0.05812
1672.74502,0.03852
1671.25523,0.05481
1669.76544,0.05112
1668.27566,0.04858
1666.78587,0.05739
1665.29608,0.07415
1663.80629,0.07924
1662.31650,0.08171
1660.82671,0.09099
1659.33693,0.08219
1657.84714,0.08775
1656.35735,0.07937
1654.86756,0.06574
1653.37777,0.05477
1651.88798,0.06307
1650.39819,0.05667
1648.90841,0.07522
1647.41862,0.06397
1645.92883,0.06878
1644.43904,0.07362
1642.94925,0.07867
1641.45946,0.08413
1639.96968,0.07413
1638.47989,0.08039
1636.99010,0.08705
1635.50031,0.07260
1634.01052,0.08270
1632.52073,0.06566
1631.03094,0.07619
1629.54116,0.07958
1628.05137,0.06865
1626.56158,0.09284
1625.07179,0.09630
1623.58200,0.08582
1622.09221,0.08141
1620.60243,0.06946
1619.11264,0.08661
1617.62285,0.08302
1616.13306,0.08097
1614.64327,0.07743
1613.15348,0.09278
1611.66370,0.08854
1610.17391,0.08885
1608.68412,0.09371
1607.19433,0.09331
1605.70454,0.08048
1604.21475,0.07485
1602.72496,0.06925
1601.23518,0.07008
1599.74539,0.08830
1598.25560,0.07371
1596.76581,0.08141
1595.27602,0.07479
1593.78623,0.08443
1592.29645,0.06578
1590.80666,0.04527
1589.31687,0.05385
1587.82708,0.05906
1586.33729,0.07297
1584.84750,0.08388
1583.35771,0.06991
1581.86793,0.07710
1580.37814,0.08998
1578.88835,0.07193
1577.39856,0.06486
1575.90877,0.04950
1574.41898,0.05380
1572.92920,0.03773
1571.43941,0.05151
1569.94962,0.04569
1568.45983,0.03989
1566.97004,0.04959
1565.48025,0.04234
1563.99047,0.04303
1562.50068,0.03922
1561.01089,0.05958
1559.52110,0.03166
1558.03131,0.03208
1556.54152,0.03704
1555.05173,0.01561
1553.56195,0.01346
1552.07216,0.00906
1550.58237,0.01866
1549.09258,0.00299
1547.60279,0.00745
1546.11300,0.00930
1544.62322,0.01872
1543.13343,0.01987
1541.64364,0.00594
1540.15385,0.01048
1538.66406,0.01505
1537.17427,0.00794
1535.68448,0.02115
1534.19470,0.04156
1532.70491,0.01973
1531.21512,0.00509
1529.72533,0.02576
1528.23554,0.02231
1526.74575,0.03472
1525.25597,0.02565
1523.76618,0.02680
1522.27639,0.02835
1520.78660,0.04351
1519.29681,0.05265
1517.80702,0.05503
1516.31724,0.06045
1514.82745,0.04928
1513.33766,0.05664
1511.84787,0.06402
1510.35808,0.05218
1508.86829,0.02979
1507.37850,0.03121
1505.88872,0.04397
1504.39893,0.05600
1502.90914,0.04315
1501.41935,0.07033
1499.92956,0.07337
1498.43977,0.07116
1496.94999,0.07351
1495.46020,0.06342
1493.97041,0.08619
1492.48062,0.09125
1490.99083,0.08576
1489.50104,0.06785
1488.01125,0.08770
1486.52147,0.10757
1485.03168,0.14294
1483.54189,0.15192
1482.05210,0.15640
1480.56231,0.18392
1479.07252,0.18807
1477.58274,0.19790
1476.09295,0.19945
1474.60316,0.21009
1473.11337,0.21584
1471.62358,0.23558
1470.13379,0.23573
1468.64401,0.23702
1467.15422,0.28326
1465.66443,0.28631
1464.17464,0.28938
1462.68485,0.33833
1461.19506,0.36088
1459.70527,0.39856
1458.21549,0.42834
1456.72570,0.46304
1455.23591,0.53741
1453.74612,0.58122
1452.25633,0.62506
1450.76654,0.65911
1449.27676,0.65469
1447.78697,0.64991
1446.29718,0.63724
1444.80739,0.63704
1443.31760,0.63687
1441.82781,0.58766
1440.33802,0.53659
1438.84824,0.49686
1437.35845,0.48245
1435.86866,0.47561
1434.37887,0.48162
1432.88908,0.52163
1431.39929,0.62054
1429.90951,0.69267
1428.41972,0.74030
1426.92993,0.75059
1425.44014,0.78091
1423.95035,0.80615
1422.46056,0.83142
1420.97078,0.89238
1419.48099,0.92166
1417.99120,0.92795
1416.50141,0.87123
1415.01162,0.87719
1413.52183,0.83373
1412.03204,0.78274
1410.54226,0.74688
1409.05247,0.69708
1407.56268,0.65372
1406.07289,0.62585
1404.58310,0.57877
1403.09331,0.53170
1401.60353,0.52014
1400.11374,0.47690
1398.62395,0.38274
1397.13416,0.33728
1395.64437,0.25600
1394.15458,0.24003
1392.66479,0.19918
1391.17501,0.17722
1389.68522,0.13000
1388.19543,0.11112
1386.70564,0.10527
1385.21585,0.09945
1383.72606,0.06479
1382.23628,0.05317
1380.74649,0.04157
1379.25670,0.03378
1377.76691,0.05356
1376.27712,0.01373
1374.78733,0.00299
1373.29755,0.00338
1371.80776,0.02197
1370.31797,0.03756
1368.82818,0.04393
1367.33839,0.05033
1365.84860,0.04033
1364.35881,0.05829
1362.86903,0.06532
1361.37924,0.06521
1359.88945,0.07116
1358.39966,0.10657
1356.90987,0.16239
1355.42008,0.19672
1353.93030,0.21561
1352.44051,0.26546
1350.95072,0.31534
1349.46093,0.41883
1347.97114,0.48197
1346.48135,0.51305
1344.99156,0.60643
1343.50178,0.65040
1342.01199,0.72986
1340.52220,0.75500
1339.03241,0.81074
1337.54262,0.85480
1336.05283,0.87794
1334.56305,0.90110
1333.07326,0.97845
1331.58347,0.96486
1330.09368,0.92639
1328.60389,0.97777
1327.11410,0.90123
1325.62432,0.86397
1324.13453,0.87957
1322.64474,0.86764
1321.15495,0.80479
1319.66516,0.76177
1318.17537,0.71878
1316.68558,0.67034
1315.19580,0.61287
1313.70601,0.56070
1312.21622,0.53762
1310.72643,0.47570
1309.23664,0.43380
1307.74685,0.40400
1306.25707,0.39423
1304.76728,0.36976
1303.27749,0.34532
1301.78770,0.30241
1300.29791,0.23273
1298.80812,0.22723
1297.31834,0.20742
1295.82855,0.19744
1294.33876,0.15239
1292.84897,0.13190
1291.35918,0.10803
1289.86939,0.10174
1288.37960,0.09547
1286.88982,0.09054
1285.40003,0.07432
1283.91024,0.09059
1282.42045,0.04498
1280.93066,0.06997
1279.44087,0.05196
1277.95109,0.04492
1276.46130,0.02243
1274.97151,0.01959
1273.48172,0.01677
1271.99193,0.03474
1270.50214,0.04028
1269.01235,0.02621
1267.52257,0.02840
1266.03278,0.01703
1264.54299,0.01512
1263.05320,0.03248
1261.56341,0.02495
1260.07362,0.01745
1258.58384,0.00507
1257.09405,0.01271
1255.60426,0.00868
1254.11447,0.02128
1252.62468,0.01390
1251.13489,0.01070
1249.64511,0.01130
1248.15532,0.02475
1246.66553,0.02238
1245.17574,0.02003
1243.68595,0.00299
1242.19616,0.01910
1240.70637,0.01334
1239.21659,0.01441
1237.72680,0.00417
1236.23701,0.01661
1234.74722,0.03586
1233.25743,0.03381
1231.76764,0.03179
1230.27786,0.03036
1228.78807,0.00668
1227.29828,0.02153
1225.80849,0.01074
1224.31870,0.00299
1222.82891,0.01806
1221.33912,0.01843
1219.84934,0.02449
1218.35955,0.03057
1216.86976,0.04649
1215.37997,0.05942
1213.89018,0.07123
1212.40039,0.04722
1210.91061,0.05343
1209.42082,0.04796
1207.93103,0.05082
1206.44124,0.05370
1204.95145,0.05472
1203.46166,0.07539
1201.97188,0.05683
1200.48209,0.04661
1198.99230,0.04093
1197.50251,0.02736
1196.01272,0.05796
1194.52293,0.05991
1193.03314,0.06188
1191.54336,0.04236
1190.05357,0.02136
1188.56378,0.01548
1187.07399,0.02132
1185.58420,0.02115
1184.09441,0.01874
1182.60463,0.01636
1181.11484,0.01400
1179.62505,0.02789
1178.13526,0.03350
1176.64547,0.03574
1175.15568,0.02858
1173.66589,0.01313
1172.17611,0.00299
1170.68632,0.01738
1169.19653,0.03181
1167.70674,0.02549
1166.21695,0.03468
1164.72716,0.03257
1163.23738,0.03954
1161.74759,0.03257
1160.25780,0.05205
1158.76801,0.04928
1157.27822,0.04653
1155.78843,0.06382
1154.29865,0.09283
1152.80886,0.12601
1151.31907,0.12337
1149.82928,0.13924
1148.33949,0.14494
1146.84970,0.13766
1145.35991,0.13039
1143.87013,0.14825
1142.38034,0.14952
1140.89055,0.16101
1139.40076,0.20008
1137.91097,0.18256
1136.42118,0.23488
1134.93140,0.22326
1133.44161,0.21167
1131.95182,0.21047
1130.46203,0.24063
1128.97224,0.21986
1127.48245,0.20855
1125.99266,0.22972
1124.50288,0.23544
1123.01309,0.23420
1121.52330,0.23299
1120.03351,0.26898
1118.54372,0.24876
1117.05393,0.27499
1115.56415,0.25142
1114.07436,0.24750
1112.58457,0.23511
1111.09478,0.22275
1109.60499,0.19815
1108.11520,0.24037
1106.62542,0.23733
1105.13563,0.25583
1103.64584,0.23321
1102.15605,0.24194
1100.66626,0.23466
1099.17647,0.22740
1097.68668,0.21960
1096.19690,0.19220
1094.70711,0.18105
1093.21732,0.18389
1091.72753,0.16788
1090.23774,0.17021
1088.74795,0.17256
1087.25817,0.17738
1085.76838,0.18789
1084.27859,0.16446
1082.78880,0.18031
1081.29901,0.17051
1079.80922,0.17508
1078.31943,0.16156
1076.82965,0.14807
1075.33986,0.19574
1073.85007,0.19777
1072.36028,0.19378
1070.87049,0.20001
1069.38070,0.22551
1067.89092,0.22330
1066.40113,0.22111
1064.91134,0.28442
1063.42155,0.34399
1061.93176,0.42471
1060.44197,0.50961
1058.95219,0.57756
1057.46240,0.61552
1055.97261,0.65351
1054.48282,0.78191
1052.99303,0.84429
1051.50324,0.83989
1050.01345,0.88081
1048.52367,0.90892
1047.03388,0.87761
1045.54409,0.84632
1044.05430,0.84620
1042.56451,0.78194
1041.07472,0.73280
1039.58494,0.68331
1038.09515,0.60063
1036.60536,0.55365
1035.11557,0.50668
1033.62578,0.46069
1032.13599,0.43094
1030.64620,0.35141
1029.15642,0.31115
1027.66663,0.28242
1026.17684,0.25372
1024.68705,0.23089
1023.19726,0.17299
1021.70747,0.13814
1020.21769,0.12897
1018.72790,0.11945
1017.23811,0.12637
1015.74832,0.13332
1014.25853,0.12048
1012.76874,0.12502
1011.27896,0.11185
1009.78917,0.11003
1008.29938,0.07879
1006.80959,0.07023
1005.31980,0.06168
1003.83001,0.01089
1002.34022,0.01372
1000.85044,0.00299
999.36065,0.00807
997.87086,0.02072
996.38107,0.03340
994.89128,0.03893
993.40149,0.05883
991.91171,0.07799
990.42192,0.09341
988.93213,0.08205
987.44234,0.08318
985.95255,0.08433
984.46276,0.09645
982.97297,0.08632
981.48319,0.06339
979.99340,0.05860
978.50361,0.05648
977.01382,0.05438
975.52403,0.04135
974.03424,0.02345
972.54446,0.01048
971.05467,0.01867
969.56488,0.03141
968.07509,0.02908
966.58530,0.02677
965.09551,0.01883
963.60573,0.00299
962.11594,0.00578
960.62615,0.02029
959.13636,0.02728
957.64657,0.03429
956.15678,0.03793
954.66699,0.03405
953.17721,0.03888
951.68742,0.01202
950.19763,0.02746
948.70784,0.04292
947.21805,0.09012
945.72826,0.09317
944.23848,0.11173
942.74869,0.12352
941.25890,0.11269
939.76911,0.12094
938.27932,0.12922
936.78953,0.15280
935.29974,0.19113
933.80996,0.18420
932.32017,0.20974
930.83038,0.22362
929.34059,0.23751
927.85080,0.26313
926.36101,0.25708
924.87123,0.25670
923.38144,0.32769
921.89165,0.35227
920.40186,0.37688
918.91207,0.48153
917.42228,0.58771
915.93250,0.71468
914.44271,0.89752
912.95292,1.01755
911.46313,1.13761
909.97334,1.37865
908.48355,1.51517
906.99376,1.74380
905.50398,1.88566
904.01419,1.93733
902.52440,1.98903
901.03461,2.00000
899.54482,1.96797
898.05503,1.91218
896.56525,1.69149
895.07546,1.54913
893.58567,1.40680
892.09588,1.14052
890.60609,0.92596
889.11630,0.67822
887.62651,0.52599
886.13673,0.44530
884.64694,0.36464
883.15715,0.26418
881.66736,0.18338
880.17757,0.15468
878.68778,0.13186
877.19800,0.10906
875.70821,0.07478
874.21842,0.04656
872.72863,0.03384
871.23884,0.01359
869.74905,0.00828
868.25927,0.00299
866.76948,0.01187
865.27969,0.02078
863.78990,0.02330
862.30011,0.03339
860.81032,0.03558
859.32053,0.03779
857.83075,0.04984
856.34096,0.05663
854.85117,0.07364
853.36138,0.06727
851.87159,0.07715
850.38180,0.08706
848.89202,0.09322
847.40223,0.12393
845.91244,0.13127
844.42265,0.12505
842.93286,0.11885
841.44307,0.18062
839.95329,0.18541
838.46350,0.18382
836.97371,0.17017
835.48392,0.18957
833.99413,0.20900
832.50434,0.20712
831.01455,0.20640
829.52477,0.18722
828.03498,0.15862
826.54519,0.15402
825.05540,0.14943
823.56561,0.13110
822.07582,0.11166
820.58604,0.12244
819.09625,0.11625
817.60646,0.11010
816.11667,0.07302
814.62688,0.08578
813.13709,0.06648
811.64730,0.09100
810.15752,0.09704
808.66773,0.10310
807.17794,0.05674
805.68815,0.07153
804.19836,0.09390
802.70857,0.10327
801.21879,0.11267
799.72900,0.08832
798.23921,0.10588
796.74942,0.09553
795.25963,0.08616
793.76984,0.07681
792.28006,0.10805
790.79027,0.11442
789.30048,0.12231
787.81069,0.14457
786.32090,0.16365
784.83111,0.18275
783.34132,0.19830
781.85154,0.20028
780.36175,0.25512
778.87196,0.26941
777.38217,0.28373
775.89238,0.30393
774.40259,0.30754
772.91281,0.33231
771.42302,0.30691
769.93323,0.28153
768.44344,0.25392
766.95365,0.21123
765.46386,0.16819
763.97407,0.15764
762.48429,0.14408
760.99450,0.13055
759.50471,0.11101
758.01492,0.09451
756.52513,0.09087
755.03534,0.08782
753.54556,0.08479
752.05577,0.07745
750.56598,0.05768
749.07619,0.04397
747.58640,0.04557
746.09661,0.04720
744.60683,0.01318
743.11704,0.02599
741.62725,0.01655
740.13746,0.02035
738.64767,0.02418
737.15788,0.01746
735.66809,0.00322
734.17831,0.00919
732.68852,0.01443
731.19873,0.01969
729.70894,0.02611
728.21915,0.00690
726.72936,0.01991
725.23958,0.00427
723.74979,0.00736
722.26000,0.01048
720.77021,0.01211
719.28042,0.01452
717.79063,0.00299
716.30084,0.01123
714.81106,0.01950
713.32127,0.03081
711.83148,0.03082
710.34169,0.01010
708.85190,0.01110
707.36211,0.01213
705.87233,0.02470
704.38254,0.01879
702.89275,0.02763
701.40296,0.04367
699.91317,0.05973
698.42338,0.06109
696.93360,0.08739
695.44381,0.07749
693.95402,0.09081
692.46423,0.10417
690.97444,0.14377
689.48465,0.15887
687.99486,0.17551
686.50508,0.19575
685.01529,0.21602
683.52550,0.21008
682.03571,0.22455
680.54592,0.26659
679.05613,0.26167
677.56635,0.25677
676.07656,0.24907
674.58677,0.24743
673.09698,0.23412
671.60719,0.22989
670.11740,0.22568
668.62761,0.14149
667.13783,0.11846
665.64804,0.11244
664.15825,0.10644
662.66846,0.10085
661.17867,0.06999
659.68888,0.05162
658.19910,0.05289
656.70931,0.05419
655.21952,0.02947
653.72973,0.02667
652.23994,0.06691
650.75015,0.06378
649.26037,0.06067
647.77058,0.05306
646.28079,0.06585
644.79100,0.04432
643.30121,0.04603
641.81142,0.04776
640.32163,0.03725
638.83185,0.00299
637.34206,0.00607
635.85227,0.00730
634.36248,0.00854
632.87269,0.03171
631.38290,0.02847
629.89312,0.03470
628.40333,0.02869
626.91354,0.02270
625.42375,0.01918
623.93396,0.01947
622.44417,0.01318
620.95438,0.00691
619.46460,0.00614
617.97481,0.03785
616.48502,0.08128
614.99523,0.07153
613.50544,0.06179
612.01565,0.09625
610.52587,0.10732
609.03608,0.14597
607.54629,0.16427
606.05650,0.18259
604.56671,0.22735
603.07692,0.26987
601.58714,0.29676
600.09735,0.32367
598.60756,0.37193
597.11777,0.40624
595.62798,0.38850
594.13819,0.38324
592.64840,0.37801
591.15862,0.37430
589.66883,0.28080
588.17904,0.26092
586.68925,0.23314
585.19946,0.20538
583.70967,0.14972
582.21989,0.09219
580.73010,0.08772
579.24031,0.08327
577.75052,0.05979
576.26073,0.04803
574.77094,0.04686
573.28115,0.03836
571.79137,0.02988
570.30158,0.04539
568.81179,0.04470
567.32200,0.05535
565.83221,0.06603
564.34242,0.06466
562.85264,0.07124
561.36285,0.09595
559.87306,0.11654
558.38327,0.13716
556.89348,0.12874
555.40369,0.13808
553.91391,0.14103
552.42412,0.14400
550.93433,0.11756
549.44454,0.13644
547.95475,0.14326
546.46496,0.14313
544.97517,0.14301
543.48539,0.17256
541.99560,0.19986
540.50581,0.21454
539.01602,0.22924
537.52623,0.29323
536.03644,0.33044
534.54666,0.37296
533.05687,0.39701
531.56708,0.42109
530.07729,0.48632
528.58750,0.53347
527.09771,0.56234
525.60792,0.59123
524.11814,0.60411
522.62835,0.65815
521.13856,0.70994
519.64877,0.73346
518.15898,0.75700
516.66919,0.78812
515.17941,0.76265
513.68962,0.77192
512.19983,0.78122
510.71004,0.72789
509.22025,0.71422
507.73046,0.63414
506.24068,0.57202
504.75089,0.50992
503.26110,0.44728
501.77131,0.34956
500.28152,0.32283
498.79173,0.29612
497.30194,0.21621
495.81216,0.14237
494.32237,0.13668
492.83258,0.13101
491.34279,0.10442
489.85300,0.05861
488.36321,0.06604
486.87343,0.05273
485.38364,0.03945
483.89385,0.04733
482.40406,0.08995
480.91427,0.09316
479.42448,0.09639
477.93469,0.10437
476.44491,0.11954
474.95512,0.13191
473.46533,0.14430
471.97554,0.15426
470.48575,0.16273
468.99596,0.13349
467.50618,0.12069
466.01639,0.10792
464.52660,0.07611
463.03681,0.07376
461.54702,0.06352
460.05723,0.05329
458.56745,0.04083
457.07766,0.02764
455.58787,0.02183
454.09808,0.01604
452.60829,0.02934
451.11850,0.02606
449.62871,0.03148
448.13893,0.03693
446.64914,0.01863
445.15935,0.00299
443.66956,0.00496
442.17977,0.00394
440.68998,0.00295
439.20020,0.03783
437.71041,0.04179
436.22062,0.04106
434.73083,0.04035
433.24104,0.04438
431.75125,0.03485
430.26146,0.03875
428.77168,0.04267
427.28189,0.06718
425.79210,0.08530
424.30231,0.06155
422.81252,0.03783
421.32273,0.04508
419.83295,0.03008
418.34316,0.02134
416.85337,0.01262
415.36358,0.00299
413.87379,0.04894
412.38400,0.05641
410.89422,0.06391
409.40443,0.03106
407.91464,0.04502
406.42485,0.04165
404.93506,0.04095
403.44527,0.04027
401.95548,0.04981
400.46570,0.03597
398.97591,0.03838
397.48612,0.04082
395.99633,0.03762
394.50654,0.05143
393.01675,0.03074
391.52697,0.01006
390.03718,0.02109
388.54739,0.02044
387.05760,0.01170
385.56781,0.00299
384.07802,0.03427
382.58824,0.04633
381.09845,0.03709
379.60866,0.02787
378.11887,0.00000
376.62908,0.00650
375.13929,0.00377
373.64950,0.00107
372.15972,0.04953
370.66993,0.01083
369.18014,0.00690
367.69035,0.00299
366.20056,0.02948
364.71077,0.03033
363.22099,0.02555
361.73120,0.02079
360.24141,0.05380
358.75162,0.05173
357.26183,0.05026
355.77204,0.04880
354.28225,0.04756
352.79247,0.02861
351.30268,0.02761
349.81289,0.02663
348.32310,0.06512
346.83331,0.06589
345.34352,0.06159
343.85374,0.05732
342.36395,0.06646
340.87416,0.05035
339.38437,0.03822
337.89458,0.02612
336.40479,0.04329
334.91501,0.03746
333.42522,0.02524
331.93543,0.01305
330.44564,0.01975
328.95585,0.04195
327.46606,0.03172
325.97627,0.02151
324.48649,0.04001
322.99670,0.05891
321.50691,0.06671
320.01712,0.07452
318.52733,0.08482
317.03754,0.08495
315.54776,0.09321
314.05797,0.10151
312.56818,0.08359
311.07839,0.07703
309.58860,0.06332
308.09881,0.04963
306.60902,0.05333
305.11924,0.05441
303.62945,0.02928
302.13966,0.00418
300.64987,0.00299
299.16008,0.00299
