1778.52000,0.00721
1777.03021,0.01201
1775.54042,0.01035
1774.05063,0.00994
1772.56085,0.01076
1771.07106,0.00837
1769.58127,0.01571
1768.09148,0.00042
1766.60169,0.00397
1765.11190,0.00248
1763.62212,0.00911
1762.13233,0.01273
1760.64254,0.00545
1759.15275,0.00446
1757.66296,0.00249
1756.17317,0.00661
1754.68339,0.00933
1753.19360,0.00480
1751.70381,0.00332
1750.21402,0.00531
1748.72423,0.00530
1747.23444,0.00147
1745.74465,0.00418
1744.25487,0.00387
1742.76508,0.00622
1741.27529,0.00920
1739.78550,0.00715
1738.29571,0.01038
1736.80592,0.00635
1735.31614,0.00700
1733.82635,0.00524
1732.33656,0.00270
1730.84677,0.00423
1729.35698,0.00234
1727.86719,0.00958
1726.37740,0.00005
1724.88762,0.00087
1723.39783,0.00393
1721.90804,0.00115
1720.41825,0.00412
1718.92846,0.01075
1717.43867,0.01053
1715.94889,0.00932
1714.45910,0.00429
1712.96931,0.00520
1711.47952,0.00810
1709.98973,0.00395
1708.49994,0.00406
1707.01016,0.00805
1705.52037,0.01206
1704.03058,0.00820
1702.54079,0.00255
1701.05100,0.00805
1699.56121,0.00750
1698.07142,0.00920
1696.58164,0.00890
1695.09185,0.01632
1693.60206,0.01425
1692.11227,0.00249
1690.62248,0.01587
1689.13269,0.01877
1687.64291,0.01217
1686.15312,0.01066
1684.66333,0.02313
1683.17354,0.01600
1681.68375,0.02346
1680.19396,0.02123
1678.70417,0.02510
1677.21439,0.03020
1675.72460,0.04363
1674.23481,0.03644
1672.74502,0.03797
1671.25523,0.03933
1669.76544,0.04455
1668.27566,0.04737
1666.78587,0.05143
1665.29608,0.05672
1663.80629,0.05961
1662.31650,0.06880
1660.82671,0.07700
1659.33693,0.06539
1657.84714,0.07951
1656.35735,0.06815
1654.86756,0.06430
1653.37777,0.06797
1651.88798,0.07874
1650.39819,0.07294
1648.90841,0.07526
1647.41862,0.07922
1645.92883,0.08412
1644.43904,0.08904
1642.94925,0.07931
1641.45946,0.08802
1639.96968,0.08401
1638.47989,0.08164
1636.99010,0.08860
1635.50031,0.08607
1634.01052,0.08620
1632.52073,0.08211
1631.03094,0.08451
1629.54116,0.08835
1628.05137,0.09485
1626.56158,0.09267
1625.07179,0.10387
1623.58200,0.10497
1622.09221,0.09720
1620.60243,0.08500
1619.11264,0.09710
1617.62285,0.08636
1616.13306,0.08880
1614.64327,0.09187
1613.15348,0.08080
1611.66370,0.09059
1610.17391,0.08462
1608.68412,0.07929
1607.19433,0.09583
1605.70454,0.08306
1604.21475,0.08235
1602.72496,0.08166
1601.23518,0.08211
1599.74539,0.08603
1598.25560,0.07904
1596.76581,0.08543
1595.27602,0.07808
1593.78623,0.07562
1592.29645,0.07884
1590.80666,0.07399
1589.31687,0.06978
1587.82708,0.06882
1586.33729,0.07012
1584.84750,0.07751
1583.35771,0.08148
1581.86793,0.07091
1580.37814,0.08465
1578.88835,0.06400
1577.39856,0.06079
1575.90877,0.05254
1574.41898,0.05119
1572.92920,0.05047
1571.43941,0.04836
1569.94962,0.04911
1568.45983,0.04988
1566.97004,0.04259
1565.48025,0.04664
1563.99047,0.03514
1562.50068,0.02872
1561.01089,0.01990
1559.52110,0.02669
1558.03131,0.02317
1556.54152,0.01321
1555.05173,0.01379
1553.56195,0.00893
1552.07216,0.00855
1550.58237,0.00819
1549.09258,0.01433
1547.60279,0.00896
1546.11300,0.01170
1544.62322,0.01468
1543.13343,0.00918
1541.64364,0.00249
1540.15385,0.00484
1538.66406,0.00722
1537.17427,0.01944
1535.68448,0.02157
1534.19470,0.00794
1532.70491,0.01395
1531.21512,0.00543
1529.72533,0.02647
1528.23554,0.02203
1526.74575,0.02046
1525.25597,0.01911
1523.76618,0.01717
1522.27639,0.03813
1520.78660,0.04130
1519.29681,0.04470
1517.80702,0.04246
1516.31724,0.03781
1514.82745,0.05100
1513.33766,0.04812
1511.84787,0.04526
1510.35808,0.05224
1508.86829,0.05540
1507.37850,0.05050
1505.88872,0.05209
1504.39893,0.04985
1502.90914,0.04866
1501.41935,0.06550
1499.92956,0.06921
1498.43977,0.05898
1496.94999,0.08519
1495.46020,0.08958
1493.97041,0.08812
1492.48062,0.10227
1490.99083,0.11300
1489.50104,0.13185
1488.01125,0.13929
1486.52147,0.14676
1485.03168,0.17883
1483.54189,0.19919
1482.05210,0.20743
1480.56231,0.21611
1479.07252,0.24524
1477.58274,0.25922
1476.09295,0.24449
1474.60316,0.25427
1473.11337,0.26610
1471.62358,0.25852
1470.13379,0.26716
1468.64401,0.31002
1467.15422,0.31304
1465.66443,0.33196
1464.17464,0.35091
1462.68485,0.40095
1461.19506,0.41661
1459.70527,0.44524
1458.21549,0.48988
1456.72570,0.53941
1455.23591,0.61303
1453.74612,0.66645
1452.25633,0.70411
1450.76654,0.74260
1449.27676,0.74711
1447.78697,0.75145
1446.29718,0.72708
1444.80739,0.71083
1443.31760,0.69460
1441.82781,0.65654
1440.33802,0.58572
1438.84824,0.53112
1437.35845,0.51701
1435.86866,0.51223
1434.37887,0.52893
1432.88908,0.60230
1431.39929,0.66417
1429.90951,0.75743
1428.41972,0.79000
1426.92993,0.79730
1425.44014,0.85744
1423.95035,0.87835
1422.46056,0.89928
1420.97078,0.95687
1419.48099,0.99140
1417.99120,0.98651
1416.50141,0.94784
1415.01162,0.88694
1413.52183,0.84569
1412.03204,0.78888
1410.54226,0.75557
1409.05247,0.73180
1407.56268,0.66555
1406.07289,0.62017
1404.58310,0.58220
1403.09331,0.54425
1401.60353,0.49733
1400.11374,0.43464
1398.62395,0.39100
1397.13416,0.33281
1395.64437,0.28052
1394.15458,0.23148
1392.66479,0.20594
1391.17501,0.18245
1389.68522,0.14098
1388.19543,0.11794
1386.70564,0.10687
1385.21585,0.09581
1383.72606,0.06698
1382.23628,0.05840
1380.74649,0.04844
1379.25670,0.02777
1377.76691,0.02817
1376.27712,0.00249
1374.78733,0.00385
1373.29755,0.01152
1371.80776,0.00767
1370.31797,0.02975
1368.82818,0.02797
1367.33839,0.02622
1365.84860,0.02004
1364.35881,0.01833
1362.86903,0.02556
1361.37924,0.05830
1359.88945,0.07366
1358.39966,0.09290
1356.90987,0.12551
1355.42008,0.15754
1353.93030,0.21084
1352.44051,0.25404
1350.95072,0.29727
1349.46093,0.39456
1347.97114,0.45969
1346.48135,0.51877
1344.99156,0.58557
1343.50178,0.66413
1342.01199,0.71883
1340.52220,0.77862
1339.03241,0.80464
1337.54262,0.87904
1336.05283,0.89306
1334.56305,0.90711
1333.07326,0.95589
1331.58347,0.97879
1330.09368,0.96246
1328.60389,0.93097
1327.11410,0.87705
1325.62432,0.88001
1324.13453,0.87389
1322.64474,0.84675
1321.15495,0.77956
1319.66516,0.74802
1318.17537,0.71650
1316.68558,0.65161
1315.19580,0.62358
1313.70601,0.57371
1312.21622,0.53783
1310.72643,0.51372
1309.23664,0.49954
1307.74685,0.46980
1306.25707,0.40508
1304.76728,0.38065
1303.27749,0.35625
1301.78770,0.30941
1300.29791,0.27858
1298.80812,0.25647
1297.31834,0.22447
1295.82855,0.17125
1294.33876,0.15974
1292.84897,0.12599
1291.35918,0.10178
1289.86939,0.10137
1288.37960,0.10098
1286.88982,0.11164
1285.40003,0.08287
1283.91024,0.08386
1282.42045,0.06890
1280.93066,0.04748
1279.44087,0.05098
1277.95109,0.05228
1276.46130,0.05036
1274.97151,0.04644
1273.48172,0.04254
1271.99193,0.04494
1270.50214,0.04150
1269.01235,0.04051
1267.52257,0.02498
1266.03278,0.02322
1264.54299,0.02271
1263.05320,0.02020
1261.56341,0.01396
1260.07362,0.00775
1258.58384,0.00531
1257.09405,0.00249
1255.60426,0.01547
1254.11447,0.01371
1252.62468,0.00935
1251.13489,0.01512
1249.64511,0.01283
1248.15532,0.02674
1246.66553,0.02490
1245.17574,0.02308
1243.68595,0.00490
1242.19616,0.01162
1240.70637,0.01008
1239.21659,0.00249
1237.72680,0.01852
1236.23701,0.01170
1234.74722,0.01928
1233.25743,0.01384
1231.76764,0.00841
1230.27786,0.01505
1228.78807,0.01605
1227.29828,0.01423
1225.80849,0.00901
1224.31870,0.00502
1222.82891,0.01096
1221.33912,0.02240
1219.84934,0.02516
1218.35955,0.02794
1216.86976,0.04532
1215.37997,0.04471
1213.89018,0.05646
1212.40039,0.05044
1210.91061,0.06467
1209.42082,0.06982
1207.93103,0.07095
1206.44124,0.07210
1204.95145,0.07793
1203.46166,0.07508
1201.97188,0.09088
1200.48209,0.07007
1198.99230,0.05677
1197.50251,0.05826
1196.01272,0.05452
1194.52293,0.05192
1193.03314,0.04934
1191.54336,0.02200
1190.05357,0.01936
1188.56378,0.01776
1187.07399,0.03238
1185.58420,0.02678
1184.09441,0.02991
1182.60463,0.02304
1181.11484,0.01620
1179.62505,0.02648
1178.13526,0.02586
1176.64547,0.01960
1175.15568,0.01133
1173.66589,0.00249
1172.17611,0.01095
1170.68632,0.01266
1169.19653,0.01440
1167.70674,0.02759
1166.21695,0.02846
1164.72716,0.03462
1163.23738,0.02725
1161.74759,0.04579
1160.25780,0.06416
1158.76801,0.06809
1157.27822,0.07204
1155.78843,0.10384
1154.29865,0.10874
1152.80886,0.12824
1151.31907,0.13482
1149.82928,0.11369
1148.33949,0.13124
1146.84970,0.13789
1145.35991,0.14456
1143.87013,0.14923
1142.38034,0.15999
1140.89055,0.17746
1139.40076,0.18058
1137.91097,0.19384
1136.42118,0.21037
1134.93140,0.21407
1133.44161,0.21779
1131.95182,0.23540
1130.46203,0.25202
1128.97224,0.25956
1127.48245,0.26914
1125.99266,0.26054
1124.50288,0.24528
1123.01309,0.24523
1121.52330,0.24519
1120.03351,0.25571
1118.54372,0.24844
1117.05393,0.25030
1115.56415,0.23559
1114.07436,0.25834
1112.58457,0.25896
1111.09478,0.25960
1109.60499,0.25085
1108.11520,0.27289
1106.62542,0.27188
1105.13563,0.25572
1103.64584,0.23149
1102.15605,0.23278
1100.66626,0.23146
1099.17647,0.23017
1097.68668,0.23254
1096.19690,0.22522
1094.70711,0.21105
1093.21732,0.20176
1091.72753,0.19997
1090.23774,0.20064
1088.74795,0.20134
1087.25817,0.21460
1085.76838,0.20017
1084.27859,0.19668
1082.78880,0.20051
1081.29901,0.21528
1079.80922,0.23413
1078.31943,0.23671
1076.82965,0.23931
1075.33986,0.25641
1073.85007,0.25612
1072.36028,0.27610
1070.87049,0.27931
1069.38070,0.31167
1067.89092,0.32444
1066.40113,0.33723
1064.91134,0.39779
1063.42155,0.49764
1061.93176,0.60580
1060.44197,0.69376
1058.95219,0.81290
1057.46240,0.86812
1055.97261,0.92337
1054.48282,1.01385
1052.99303,1.03575
1051.50324,1.09269
1050.01345,1.10493
1048.52367,1.06822
1047.03388,1.05076
1045.54409,1.03333
1044.05430,1.00924
1042.56451,0.96413
1041.07472,0.87210
1039.58494,0.75743
1038.09515,0.66362
1036.60536,0.62043
1035.11557,0.57726
1033.62578,0.50477
1032.13599,0.46853
1030.64620,0.39225
1029.15642,0.32773
1027.66663,0.30086
1026.17684,0.27403
1024.68705,0.25470
1023.19726,0.20524
1021.70747,0.16472
1020.21769,0.15093
1018.72790,0.15759
1017.23811,0.14355
1015.74832,0.12952
1014.25853,0.11603
1012.76874,0.11267
1011.27896,0.09761
1009.78917,0.08499
1008.29938,0.07058
1006.80959,0.06095
1005.31980,0.05134
1003.83001,0.04307
1002.34022,0.04211
1000.85044,0.04987
999.36065,0.06050
997.87086,0.05859
996.38107,0.05672
994.89128,0.09432
993.40149,0.10241
991.91171,0.11315
990.42192,0.12674
988.93213,0.13935
987.44234,0.14804
985.95255,0.15675
984.46276,0.15729
982.97297,0.14935
981.48319,0.12970
979.99340,0.09733
978.50361,0.09159
977.01382,0.08587
975.52403,0.06935
974.03424,0.04375
972.54446,0.03376
971.05467,0.02460
969.56488,0.02294
968.07509,0.02729
966.58530,0.03165
965.09551,0.00296
963.60573,0.00295
962.11594,0.00290
960.62615,0.00975
959.13636,0.00611
957.64657,0.00249
956.15678,0.01240
954.66699,0.01850
953.17721,0.02118
951.68742,0.02651
950.19763,0.03652
948.70784,0.04656
947.21805,0.05580
945.72826,0.07762
944.23848,0.07964
942.74869,0.11041
941.25890,0.12016
939.76911,0.12527
938.27932,0.13042
936.78953,0.16310
935.29974,0.16850
933.80996,0.17796
932.32017,0.19797
930.83038,0.20030
929.34059,0.20265
927.85080,0.24499
926.36101,0.24830
924.87123,0.27308
923.38144,0.34443
921.89165,0.37300
920.40186,0.40160
918.91207,0.50884
917.42228,0.59343
915.93250,0.74867
914.44271,0.94906
912.95292,1.05933
911.46313,1.16961
909.97334,1.37918
908.48355,1.52786
906.99376,1.75205
905.50398,1.92061
904.01419,1.96029
902.52440,2.00000
901.03461,1.99360
899.54482,1.98803
898.05503,1.83638
896.56525,1.64409
895.07546,1.51141
893.58567,1.37876
892.09588,1.12482
890.60609,0.85633
889.11630,0.65505
887.62651,0.50176
886.13673,0.44429
884.64694,0.38686
883.15715,0.26540
881.66736,0.22976
880.17757,0.14477
878.68778,0.12456
877.19800,0.10438
875.70821,0.06762
874.21842,0.05901
872.72863,0.04760
871.23884,0.02468
869.74905,0.02363
868.25927,0.02261
866.76948,0.04164
865.27969,0.03439
863.78990,0.03708
862.30011,0.04668
860.81032,0.05559
859.32053,0.06452
857.83075,0.08410
856.34096,0.11524
854.85117,0.12617
853.36138,0.16322
851.87159,0.17268
850.38180,0.18216
848.89202,0.18772
847.40223,0.21435
845.91244,0.23027
844.42265,0.23955
842.93286,0.24884
841.44307,0.27638
839.95329,0.28430
838.46350,0.30642
836.97371,0.30772
835.48392,0.30722
833.99413,0.30674
832.50434,0.31600
831.01455,0.28219
829.52477,0.27470
828.03498,0.26967
826.54519,0.24270
825.05540,0.21576
823.56561,0.20149
822.07582,0.19473
820.58604,0.17241
819.09625,0.16549
817.60646,0.15860
816.11667,0.15032
814.62688,0.13214
813.13709,0.15891
811.64730,0.16911
810.15752,0.16538
808.66773,0.16166
807.17794,0.16425
805.68815,0.17353
804.19836,0.18587
802.70857,0.18893
801.21879,0.19202
799.72900,0.19614
798.23921,0.18004
796.74942,0.16944
795.25963,0.16523
793.76984,0.16105
792.28006,0.17338
790.79027,0.18351
789.30048,0.20924
787.81069,0.27041
786.32090,0.28244
784.83111,0.29448
783.34132,0.34095
781.85154,0.36499
780.36175,0.40017
778.87196,0.42233
777.38217,0.44451
775.89238,0.46439
774.40259,0.46911
772.91281,0.43906
771.42302,0.42421
769.93323,0.40937
768.44344,0.34742
766.95365,0.29621
765.46386,0.25474
763.97407,0.20642
762.48429,0.19879
760.99450,0.19118
759.50471,0.17085
758.01492,0.13395
756.52513,0.12237
755.03534,0.11526
753.54556,0.10818
752.05577,0.09465
750.56598,0.07790
749.07619,0.07049
747.58640,0.06542
746.09661,0.06038
744.60683,0.04676
743.11704,0.04086
741.62725,0.01576
740.13746,0.01405
738.64767,0.01236
737.15788,0.01141
735.66809,0.00381
734.17831,0.01100
732.68852,0.01892
731.19873,0.02686
729.70894,0.01429
728.21915,0.00377
726.72936,0.00921
725.23958,0.01023
723.74979,0.01086
722.26000,0.01152
720.77021,0.00249
719.28042,0.00806
717.79063,0.01104
716.30084,0.01484
714.81106,0.01867
713.32127,0.02172
711.83148,0.02215
710.34169,0.02059
708.85190,0.02593
707.36211,0.03130
705.87233,0.03061
704.38254,0.04169
702.89275,0.04450
701.40296,0.05026
699.91317,0.05605
698.42338,0.06257
696.93360,0.06365
695.44381,0.08377
693.95402,0.09472
692.46423,0.10568
690.97444,0.11353
689.48465,0.13760
687.99486,0.16331
686.50508,0.17538
685.01529,0.18747
683.52550,0.21811
682.03571,0.25140
680.54592,0.26771
679.05613,0.26665
677.56635,0.26561
676.07656,0.27208
674.58677,0.23689
673.09698,0.20942
671.60719,0.19532
670.11740,0.18125
668.62761,0.15688
667.13783,0.14063
665.64804,0.12562
664.15825,0.11063
662.66846,0.09647
661.17867,0.09104
659.68888,0.07248
658.19910,0.06922
656.70931,0.06598
655.21952,0.04345
653.72973,0.06201
652.23994,0.03690
650.75015,0.02849
649.26037,0.02012
647.77058,0.03129
646.28079,0.02670
644.79100,0.04784
643.30121,0.03278
641.81142,0.01774
640.32163,0.02762
638.83185,0.02234
637.34206,0.02174
635.85227,0.02117
634.36248,0.02062
632.87269,0.00249
631.38290,0.01989
629.89312,0.00352
628.40333,0.00175
626.91354,0.00000
625.42375,0.01042
623.93396,0.00770
622.44417,0.01543
620.95438,0.02319
619.46460,0.02844
617.97481,0.04039
616.48502,0.05520
614.99523,0.06447
613.50544,0.07376
612.01565,0.10907
610.52587,0.14421
609.03608,0.17391
607.54629,0.19716
606.05650,0.22043
604.56671,0.28177
603.07692,0.33787
601.58714,0.35817
600.09735,0.37850
598.60756,0.41403
597.11777,0.42308
595.62798,0.40908
594.13819,0.40857
592.64840,0.40807
591.15862,0.38281
589.66883,0.32318
588.17904,0.24759
586.68925,0.22058
585.19946,0.19359
583.70967,0.15105
582.21989,0.11946
580.73010,0.10854
579.24031,0.09763
577.75052,0.06085
576.26073,0.06659
574.77094,0.04746
573.28115,0.03544
571.79137,0.02344
570.30158,0.03697
568.81179,0.06063
567.32200,0.05953
565.83221,0.05845
564.34242,0.10242
562.85264,0.11546
561.36285,0.15502
559.87306,0.16942
558.38327,0.18384
556.89348,0.20264
555.40369,0.22429
553.91391,0.21248
552.42412,0.20069
550.93433,0.19873
549.44454,0.20106
547.95475,0.20239
546.46496,0.20061
544.97517,0.19885
543.48539,0.22576
541.99560,0.26098
540.50581,0.28985
539.01602,0.31874
537.52623,0.40685
536.03644,0.42598
534.54666,0.45727
533.05687,0.46967
531.56708,0.48209
530.07729,0.51386
528.58750,0.58855
527.09771,0.60206
525.60792,0.61558
524.11814,0.65372
522.62835,0.73418
521.13856,0.76993
519.64877,0.78619
518.15898,0.80246
516.66919,0.83121
515.17941,0.84743
513.68962,0.87238
512.19983,0.89736
510.71004,0.86509
509.22025,0.79419
507.73046,0.71361
506.24068,0.66280
504.75089,0.61201
503.26110,0.50721
501.77131,0.41984
500.28152,0.35192
498.79173,0.28403
497.30194,0.22243
495.81216,0.17057
494.32237,0.15374
492.83258,0.13693
491.34279,0.11347
489.85300,0.10157
488.36321,0.07451
486.87343,0.07318
485.38364,0.07187
483.89385,0.08151
482.40406,0.11101
480.91427,0.13264
479.42448,0.15429
477.93469,0.18123
476.44491,0.19746
474.95512,0.21069
473.46533,0.22393
471.97554,0.22345
470.48575,0.21206
468.99596,0.17823
467.50618,0.18115
466.01639,0.18410
464.52660,0.15783
463.03681,0.14777
461.54702,0.13166
460.05723,0.11558
458.56745,0.06856
457.07766,0.02542
455.58787,0.01902
454.09808,0.01264
452.60829,0.03634
451.11850,0.00826
449.62871,0.01360
448.13893,0.01895
446.64914,0.03142
445.15935,0.01719
443.66956,0.02808
442.17977,0.03819
440.68998,0.04832
439.20020,0.03581
437.71041,0.05266
436.22062,0.04253
434.73083,0.03242
433.24104,0.03518
431.75125,0.06184
430.26146,0.05858
428.77168,0.05534
427.28189,0.04424
425.79210,0.04004
424.30231,0.03758
422.81252,0.03514
421.32273,0.02960
419.83295,0.03864
418.34316,0.03577
416.85337,0.03293
415.36358,0.03173
413.87379,0.04734
412.38400,0.04153
410.89422,0.03575
409.40443,0.03424
407.91464,0.02628
406.42485,0.04282
404.93506,0.04725
403.44527,0.05170
401.95548,0.04282
400.46570,0.03417
398.97591,0.03950
397.48612,0.04486
395.99633,0.02272
394.50654,0.01739
393.01675,0.01911
391.52697,0.01975
390.03718,0.01506
388.54739,0.04236
387.05760,0.03144
385.56781,0.02054
384.07802,0.03476
382.58824,0.01379
381.09845,0.00813
379.60866,0.00249
378.11887,0.01147
376.62908,0.01400
375.13929,0.01575
373.64950,0.01752
372.15972,0.02943
370.66993,0.03105
369.18014,0.02806
367.69035,0.02509
366.20056,0.03601
364.71077,0.03683
363.22099,0.04365
361.73120,0.05049
360.24141,0.05422
358.75162,0.06505
357.26183,0.06215
355.77204,0.05927
354.28225,0.03092
352.79247,0.05966
351.30268,0.05321
349.81289,0.04678
348.32310,0.09036
346.83331,0.08560
345.34352,0.07743
343.85374,0.06928
342.36395,0.07734
340.87416,0.05426
339.38437,0.03768
337.89458,0.02113
336.40479,0.04132
334.91501,0.01439
333.42522,0.00843
331.93543,0.00249
330.44564,0.00631
328.95585,0.03443
327.46606,0.04528
325.97627,0.05616
324.48649,0.05421
322.99670,0.07272
321.50691,0.07769
320.01712,0.08269
318.52733,0.07760
317.03754,0.06605
315.54776,0.06536
314.05797,0.06468
312.56818,0.06333
311.07839,0.05633
309.58860,0.05077
308.09881,0.04524
306.60902,0.02839
305.11924,0.03161
303.62945,0.01765
302.13966,0.00371
300.64987,0.00551
299.16008,0.00249
