1778.52000,0.00464
1777.03021,0.01214
1775.54042,0.00862
1774.05063,0.01044
1772.56085,0.01372
1771.07106,0.00761
1769.58127,0.00909
1768.09148,0.01060
1766.60169,0.00988
1765.11190,0.01675
1763.62212,0.01056
1762.13233,0.00623
1760.64254,0.01215
1759.15275,0.01176
1757.66296,0.01057
1756.17317,0.00409
1754.68339,0.00867
1753.19360,0.00817
1751.70381,0.00850
1750.21402,0.01480
1748.72423,0.01355
1747.23444,0.01109
1745.74465,0.00477
1744.25487,0.00930
1742.76508,0.01549
1741.27529,0.01189
1739.78550,0.01363
1738.29571,0.01457
1736.80592,0.00899
1735.31614,0.01354
1733.82635,0.01627
1732.33656,0.01411
1730.84677,0.00994
1729.35698,0.01724
1727.86719,0.00984
1726.37740,0.00696
1724.88762,0.01530
1723.39783,0.01119
1721.90804,0.01058
1720.41825,0.01326
1718.92846,0.01250
1717.43867,0.01257
1715.94889,0.01144
1714.45910,0.01197
1712.96931,0.01641
1711.47952,0.01413
1709.98973,0.00839
1708.49994,0.00758
1707.01016,0.00803
1705.52037,0.00850
1704.03058,0.01860
1702.54079,0.00623
1701.05100,0.01789
1699.56121,0.01690
1698.07142,0.02370
1696.58164,0.01805
1695.09185,0.01610
1693.60206,0.01622
1692.11227,0.01248
1690.62248,0.02186
1689.13269,0.02082
1687.64291,0.01797
1686.15312,0.02087
1684.66333,0.02707
1683.17354,0.02286
1681.68375,0.02092
1680.19396,0.02760
1678.70417,0.02346
1677.21439,0.03223
1675.72460,0.04225
1674.23481,0.04063
1672.74502,0.04538
1671.25523,0.04893
1669.76544,0.04534
1668.27566,0.05794
1666.78587,0.06544
1665.29608,0.06193
1663.80629,0.06109
1662.31650,0.07521
1660.82671,0.07218
1659.33693,0.08287
1657.84714,0.07476
1656.35735,0.06975
1654.86756,0.06599
1653.37777,0.06983
1651.88798,0.07696
1650.39819,0.06959
1648.90841,0.08003
1647.41862,0.07476
1645.92883,0.07687
1644.43904,0.07900
1642.94925,0.08525
1641.45946,0.08498
1639.96968,0.08146
1638.47989,0.08655
1636.99010,0.08512
1635.50031,0.09312
1634.01052,0.09583
1632.52073,0.08629
1631.03094,0.07841
1629.54116,0.08549
1628.05137,0.08707
1626.56158,0.09501
1625.07179,0.09582
1623.58200,0.10442
1622.09221,0.09587
1620.60243,0.08018
1619.11264,0.09294
1617.62285,0.09305
1616.13306,0.09175
1614.64327,0.07718
1613.15348,0.08226
1611.66370,0.07899
1610.17391,0.08842
1608.68412,0.07681
1607.19433,0.07933
1605.70454,0.09538
1604.21475,0.09375
1602.72496,0.09216
1601.23518,0.08946
1599.74539,0.08433
1598.25560,0.09027
1596.76581,0.08600
1595.27602,0.09138
1593.78623,0.08082
1592.29645,0.07519
1590.80666,0.06141
1589.31687,0.06524
1587.82708,0.06419
1586.33729,0.06705
1584.84750,0.07668
1583.35771,0.07283
1581.86793,0.06737
1580.37814,0.07953
1578.88835,0.07044
1577.39856,0.05380
1575.90877,0.05764
1574.41898,0.05148
1572.92920,0.04555
1571.43941,0.03678
1569.94962,0.03469
1568.45983,0.03261
1566.97004,0.02862
1565.48025,0.02833
1563.99047,0.03277
1562.50068,0.03437
1561.01089,0.01943
1559.52110,0.02435
1558.03131,0.01518
1556.54152,0.00808
1555.05173,0.01246
1553.56195,0.00275
1552.07216,0.00677
1550.58237,0.00078
1549.09258,0.00260
1547.60279,0.00382
1546.11300,0.00957
1544.62322,0.00737
1543.13343,0.00355
1541.64364,0.00323
1540.15385,0.01037
1538.66406,0.01753
1537.17427,0.00958
1535.68448,0.02026
1534.19470,0.00643
1532.70491,0.01838
1531.21512,0.00623
1529.72533,0.02293
1528.23554,0.02820
1526.74575,0.02102
1525.25597,0.02593
1523.76618,0.02330
1522.27639,0.03194
1520.78660,0.02935
1519.29681,0.02944
1517.80702,0.04633
1516.31724,0.04484
1514.82745,0.04685
1513.33766,0.04366
1511.84787,0.04050
1510.35808,0.05342
1508.86829,0.04959
1507.37850,0.05193
1505.88872,0.05101
1504.39893,0.04602
1502.90914,0.04904
1501.41935,0.06312
1499.92956,0.06373
1498.43977,0.05700
1496.94999,0.06809
1495.46020,0.07736
1493.97041,0.09136
1492.48062,0.09004
1490.99083,0.09059
1489.50104,0.12491
1488.01125,0.13318
1486.52147,0.14146
1485.03168,0.16931
1483.54189,0.19473
1482.05210,0.20033
1480.56231,0.21597
1479.07252,0.21528
1477.58274,0.22340
1476.09295,0.22991
1474.60316,0.23768
1473.11337,0.25487
1471.62358,0.24305
1470.13379,0.25804
1468.64401,0.29863
1467.15422,0.31142
1465.66443,0.31983
1464.17464,0.32827
1462.68485,0.36364
1461.19506,0.39268
1459.70527,0.42236
1458.21549,0.44921
1456.72570,0.51023
1455.23591,0.57394
1453.74612,0.62131
1452.25633,0.66113
1450.76654,0.69280
1449.27676,0.69340
1447.78697,0.69300
1446.29718,0.66174
1444.80739,0.64778
1443.31760,0.63385
1441.82781,0.56891
1440.33802,0.52670
1438.84824,0.50946
1437.35845,0.47180
1435.86866,0.46913
1434.37887,0.49738
1432.88908,0.55347
1431.39929,0.62451
1429.90951,0.66878
1428.41972,0.70551
1426.92993,0.76210
1425.44014,0.80869
1423.95035,0.81634
1422.46056,0.82402
1420.97078,0.87621
1419.48099,0.88567
1417.99120,0.88595
1416.50141,0.87295
1415.01162,0.84158
1413.52183,0.79243
1412.03204,0.73124
1410.54226,0.69359
1409.05247,0.69320
1407.56268,0.65048
1406.07289,0.59511
1404.58310,0.56104
1403.09331,0.52699
1401.60353,0.46862
1400.11374,0.41662
1398.62395,0.35217
1397.13416,0.29285
1395.64437,0.26076
1394.15458,0.22174
1392.66479,0.18785
1391.17501,0.16422
1389.68522,0.13509
1388.19543,0.10455
1386.70564,0.09633
1385.21585,0.08813
1383.72606,0.06789
1382.23628,0.04686
1380.74649,0.04793
1379.25670,0.03636
1377.76691,0.02807
1376.27712,0.01000
1374.78733,0.01731
1373.29755,0.00623
1371.80776,0.02392
1370.31797,0.03039
1368.82818,0.03821
1367.33839,0.04605
1365.84860,0.03193
1364.35881,0.03276
1362.86903,0.04569
1361.37924,0.06989
1359.88945,0.08306
1358.39966,0.10772
1356.90987,0.14672
1355.42008,0.18083
1353.93030,0.23051
1352.44051,0.26027
1350.95072,0.29006
1349.46093,0.38113
1347.97114,0.46793
1346.48135,0.52059
1344.99156,0.58821
1343.50178,0.63397
1342.01199,0.70859
1340.52220,0.76257
1339.03241,0.79674
1337.54262,0.84485
1336.05283,0.87589
1334.56305,0.90696
1333.07326,0.95248
1331.58347,0.97551
1330.09368,0.95603
1328.60389,0.94189
1327.11410,0.90282
1325.62432,0.87891
1324.13453,0.88509
1322.64474,0.84731
1321.15495,0.79259
1319.66516,0.76785
1318.17537,0.74314
1316.68558,0.69093
1315.19580,0.62833
1313.70601,0.59724
1312.21622,0.54879
1310.72643,0.52982
1309.23664,0.49022
1307.74685,0.46393
1306.25707,0.41394
1304.76728,0.38730
1303.27749,0.36067
1301.78770,0.31137
1300.29791,0.27907
1298.80812,0.26540
1297.31834,0.23110
1295.82855,0.19069
1294.33876,0.16073
1292.84897,0.12732
1291.35918,0.10436
1289.86939,0.09984
1288.37960,0.09534
1286.88982,0.09004
1285.40003,0.09255
1283.91024,0.08832
1282.42045,0.06776
1280.93066,0.05377
1279.44087,0.05207
1277.95109,0.04508
1276.46130,0.03872
1274.97151,0.04026
1273.48172,0.04183
1271.99193,0.04025
1270.50214,0.04361
1269.01235,0.03758
1267.52257,0.03443
1266.03278,0.02620
1264.54299,0.02556
1263.05320,0.02105
1261.56341,0.01422
1260.07362,0.00741
1258.58384,0.00461
1257.09405,0.00629
1255.60426,0.00901
1254.11447,0.00869
1252.62468,0.00859
1251.13489,0.00975
1249.64511,0.00888
1248.15532,0.01561
1246.66553,0.01673
1245.17574,0.01788
1243.68595,0.00770
1242.19616,0.01620
1240.70637,0.01735
1239.21659,0.00523
1237.72680,0.01113
1236.23701,0.02422
1234.74722,0.00502
1233.25743,0.00690
1231.76764,0.00881
1230.27786,0.00542
1228.78807,0.01208
1227.29828,0.01529
1225.80849,0.01136
1224.31870,0.00623
1222.82891,0.01374
1221.33912,0.02311
1219.84934,0.02729
1218.35955,0.03149
1216.86976,0.04196
1215.37997,0.05531
1213.89018,0.05621
1212.40039,0.06286
1210.91061,0.06912
1209.42082,0.07848
1207.93103,0.07753
1206.44124,0.07661
1204.95145,0.08337
1203.46166,0.06828
1201.97188,0.06569
1200.48209,0.08153
1198.99230,0.05710
1197.50251,0.04599
1196.01272,0.04124
1194.52293,0.03815
1193.03314,0.03509
1191.54336,0.03266
1190.05357,0.02474
1188.56378,0.02215
1187.07399,0.01550
1185.58420,0.00970
1184.09441,0.02089
1182.60463,0.02126
1181.11484,0.02166
1179.62505,0.01370
1178.13526,0.01803
1176.64547,0.00623
1175.15568,0.00610
1173.66589,0.01062
1172.17611,0.00719
1170.68632,0.01298
1169.19653,0.01880
1167.70674,0.00623
1166.21695,0.03040
1164.72716,0.03373
1163.23738,0.02133
1161.74759,0.03288
1160.25780,0.05755
1158.76801,0.06302
1157.27822,0.06851
1155.78843,0.09489
1154.29865,0.10779
1152.80886,0.11397
1151.31907,0.12098
1149.82928,0.11555
1148.33949,0.11607
1146.84970,0.11999
1145.35991,0.12393
1143.87013,0.12861
1142.38034,0.13516
1140.89055,0.13805
1139.40076,0.15773
1137.91097,0.17090
1136.42118,0.18613
1134.93140,0.18369
1133.44161,0.18128
1131.95182,0.18370
1130.46203,0.21662
1128.97224,0.22010
1127.48245,0.22423
1125.99266,0.22327
1124.50288,0.20944
1123.01309,0.21067
1121.52330,0.21192
1120.03351,0.22844
1118.54372,0.21532
1117.05393,0.21982
1115.56415,0.20204
1114.07436,0.20475
1112.58457,0.21085
1111.09478,0.21697
1109.60499,0.21791
1108.11520,0.23605
1106.62542,0.21023
1105.13563,0.20940
1103.64584,0.20429
1102.15605,0.18959
1100.66626,0.19230
1099.17647,0.19504
1097.68668,0.18962
1096.19690,0.17870
1094.70711,0.17455
1093.21732,0.17125
1091.72753,0.16612
1090.23774,0.15837
1088.74795,0.15063
1087.25817,0.17831
1085.76838,0.16940
1084.27859,0.15417
1082.78880,0.15941
1081.29901,0.17941
1079.80922,0.17428
1078.31943,0.19432
1076.82965,0.21439
1075.33986,0.22221
1073.85007,0.23333
1072.36028,0.22688
1070.87049,0.24337
1069.38070,0.26130
1067.89092,0.27507
1066.40113,0.28887
1064.91134,0.35842
1063.42155,0.44702
1061.93176,0.53013
1060.44197,0.62818
1058.95219,0.71993
1057.46240,0.78193
1055.97261,0.84396
1054.48282,0.95070
1052.99303,0.97933
1051.50324,1.03478
1050.01345,1.03176
1048.52367,1.03694
1047.03388,1.00932
1045.54409,0.98172
1044.05430,0.93460
1042.56451,0.89652
1041.07472,0.82941
1039.58494,0.73737
1038.09515,0.63451
1036.60536,0.59785
1035.11557,0.56121
1033.62578,0.49565
1032.13599,0.41928
1030.64620,0.35561
1029.15642,0.29708
1027.66663,0.27876
1026.17684,0.26047
1024.68705,0.22696
1023.19726,0.19021
1021.70747,0.16248
1020.21769,0.15706
1018.72790,0.12999
1017.23811,0.13434
1015.74832,0.13872
1014.25853,0.10374
1012.76874,0.10479
1011.27896,0.08806
1009.78917,0.08793
1008.29938,0.06123
1006.80959,0.05153
1005.31980,0.04186
1003.83001,0.02566
1002.34022,0.02340
1000.85044,0.02913
999.36065,0.04471
997.87086,0.05080
996.38107,0.05692
994.89128,0.06562
993.40149,0.07311
991.91171,0.09044
990.42192,0.11455
988.93213,0.13766
987.44234,0.13543
985.95255,0.13322
984.46276,0.13206
982.97297,0.11702
981.48319,0.10895
979.99340,0.10029
978.50361,0.08143
977.01382,0.06259
975.52403,0.04787
974.03424,0.03379
972.54446,0.02811
971.05467,0.02308
969.56488,0.01397
968.07509,0.01144
966.58530,0.00892
965.09551,0.00623
963.60573,0.01711
962.11594,0.00592
960.62615,0.01546
959.13636,0.01316
957.64657,0.01089
956.15678,0.00823
954.66699,0.01214
953.17721,0.02487
951.68742,0.02780
950.19763,0.03014
948.70784,0.03251
947.21805,0.05209
945.72826,0.06800
944.23848,0.07433
942.74869,0.10257
941.25890,0.13042
939.76911,0.12986
938.27932,0.12933
936.78953,0.15868
935.29974,0.16044
933.80996,0.17900
932.32017,0.19616
930.83038,0.20495
929.34059,0.21376
927.85080,0.24714
926.36101,0.25744
924.87123,0.28187
923.38144,0.32248
921.89165,0.35698
920.40186,0.39151
918.91207,0.48987
917.42228,0.60483
915.93250,0.73556
914.44271,0.91663
912.95292,1.03340
911.46313,1.15019
909.97334,1.33359
908.48355,1.54789
906.99376,1.74626
905.50398,1.89537
904.01419,1.92463
902.52440,1.95392
901.03461,2.00000
899.54482,1.98413
898.05503,1.89465
896.56525,1.66876
895.07546,1.53300
893.58567,1.39726
892.09588,1.10803
890.60609,0.86997
889.11630,0.64113
887.62651,0.49740
886.13673,0.43880
884.64694,0.38021
883.15715,0.29894
881.66736,0.20011
880.17757,0.15018
878.68778,0.12759
877.19800,0.10502
875.70821,0.08360
874.21842,0.04952
872.72863,0.03817
871.23884,0.03032
869.74905,0.02577
868.25927,0.02124
866.76948,0.03576
865.27969,0.03598
863.78990,0.03766
862.30011,0.04529
860.81032,0.04548
859.32053,0.04570
857.83075,0.07856
856.34096,0.11493
854.85117,0.12595
853.36138,0.12514
851.87159,0.13836
850.38180,0.15160
848.89202,0.15986
847.40223,0.20455
845.91244,0.21531
844.42265,0.22772
842.93286,0.24017
841.44307,0.24404
839.95329,0.26901
838.46350,0.28152
836.97371,0.30858
835.48392,0.29926
833.99413,0.28996
832.50434,0.29848
831.01455,0.28002
829.52477,0.26179
828.03498,0.23683
826.54519,0.22080
825.05540,0.20479
823.56561,0.18972
822.07582,0.19452
820.58604,0.16048
819.09625,0.15285
817.60646,0.14524
816.11667,0.13848
814.62688,0.14217
813.13709,0.13749
811.64730,0.15248
810.15752,0.15236
808.66773,0.15225
807.17794,0.15177
805.68815,0.18280
804.19836,0.17480
802.70857,0.17459
801.21879,0.17440
799.72900,0.17812
798.23921,0.17062
796.74942,0.17010
795.25963,0.16080
793.76984,0.15153
792.28006,0.15271
790.79027,0.17887
789.30048,0.19708
787.81069,0.24579
786.32090,0.26097
784.83111,0.27618
783.34132,0.31433
781.85154,0.33224
780.36175,0.35939
778.87196,0.38206
777.38217,0.40475
775.89238,0.44567
774.40259,0.43794
772.91281,0.43043
771.42302,0.40178
769.93323,0.37314
768.44344,0.35037
766.95365,0.27280
765.46386,0.22777
763.97407,0.17929
762.48429,0.17594
760.99450,0.17261
759.50471,0.15632
758.01492,0.13596
756.52513,0.11828
755.03534,0.11484
753.54556,0.11142
752.05577,0.09341
750.56598,0.08032
749.07619,0.06727
747.58640,0.06272
746.09661,0.05819
744.60683,0.05257
743.11704,0.03511
741.62725,0.03832
740.13746,0.02306
738.64767,0.00781
737.15788,0.01151
735.66809,0.00623
734.17831,0.01930
732.68852,0.02022
731.19873,0.02116
729.70894,0.02366
728.21915,0.02107
726.72936,0.00623
725.23958,0.03024
723.74979,0.02634
722.26000,0.02247
720.77021,0.02773
719.28042,0.01603
717.79063,0.01950
716.30084,0.01879
714.81106,0.01811
713.32127,0.02410
711.83148,0.02009
710.34169,0.01876
708.85190,0.02410
707.36211,0.02947
705.87233,0.04151
704.38254,0.03885
702.89275,0.05073
701.40296,0.04893
699.91317,0.04716
698.42338,0.05809
696.93360,0.07293
695.44381,0.08493
693.95402,0.09522
692.46423,0.10553
690.97444,0.13008
689.48465,0.12683
687.99486,0.16452
686.50508,0.16828
685.01529,0.17206
683.52550,0.22250
682.03571,0.23901
680.54592,0.25555
679.05613,0.25053
677.56635,0.24553
676.07656,0.25580
674.58677,0.24502
673.09698,0.22117
671.60719,0.20256
670.11740,0.18398
668.62761,0.14957
667.13783,0.12725
665.64804,0.12173
664.15825,0.11623
662.66846,0.10973
661.17867,0.08444
659.68888,0.06121
658.19910,0.05530
656.70931,0.04941
655.21952,0.04446
653.72973,0.04465
652.23994,0.04118
650.75015,0.04081
649.26037,0.04045
647.77058,0.03358
646.28079,0.04023
644.79100,0.04199
643.30121,0.04255
641.81142,0.04314
640.32163,0.01900
638.83185,0.02004
637.34206,0.00760
635.85227,0.01466
634.36248,0.02173
632.87269,0.00623
631.38290,0.01468
629.89312,0.02193
628.40333,0.01775
626.91354,0.01359
625.42375,0.00393
623.93396,0.00656
622.44417,0.01638
620.95438,0.02623
619.46460,0.02178
617.97481,0.03617
616.48502,0.05263
614.99523,0.05592
613.50544,0.05924
612.01565,0.12588
610.52587,0.16228
609.03608,0.19113
607.54629,0.20426
606.05650,0.21740
604.56671,0.28110
603.07692,0.33418
601.58714,0.35988
600.09735,0.38560
598.60756,0.39253
597.11777,0.42321
595.62798,0.44164
594.13819,0.43269
592.64840,0.42375
591.15862,0.39930
589.66883,0.34439
588.17904,0.24778
586.68925,0.21706
585.19946,0.18636
583.70967,0.15732
582.21989,0.12954
580.73010,0.11507
579.24031,0.10062
577.75052,0.08129
576.26073,0.06485
574.77094,0.04741
573.28115,0.04636
571.79137,0.04532
570.30158,0.04432
568.81179,0.06215
567.32200,0.06109
565.83221,0.06005
564.34242,0.08778
562.85264,0.13414
561.36285,0.16518
559.87306,0.17764
558.38327,0.19012
556.89348,0.21346
555.40369,0.20983
553.91391,0.19773
552.42412,0.18566
550.93433,0.19355
549.44454,0.18490
547.95475,0.19979
546.46496,0.19978
544.97517,0.19979
543.48539,0.21578
541.99560,0.26820
540.50581,0.29201
539.01602,0.31585
537.52623,0.37938
536.03644,0.41390
534.54666,0.43433
533.05687,0.45202
531.56708,0.46973
530.07729,0.53584
528.58750,0.56884
527.09771,0.58141
525.60792,0.59400
524.11814,0.62033
522.62835,0.69781
521.13856,0.73052
519.64877,0.74954
518.15898,0.76860
516.66919,0.81324
515.17941,0.82989
513.68962,0.83091
512.19983,0.83195
510.71004,0.82515
509.22025,0.76968
507.73046,0.69236
506.24068,0.63796
504.75089,0.58359
503.26110,0.47995
501.77131,0.38391
500.28152,0.32582
498.79173,0.26777
497.30194,0.19470
495.81216,0.14661
494.32237,0.13832
492.83258,0.13006
491.34279,0.09145
489.85300,0.07741
488.36321,0.06237
486.87343,0.05871
485.38364,0.05507
483.89385,0.07017
482.40406,0.11065
480.91427,0.12508
479.42448,0.13954
477.93469,0.17294
476.44491,0.17834
474.95512,0.18448
473.46533,0.19064
471.97554,0.21002
470.48575,0.19609
468.99596,0.16642
467.50618,0.15847
466.01639,0.15053
464.52660,0.12667
463.03681,0.11817
461.54702,0.10233
460.05723,0.08651
458.56745,0.05927
457.07766,0.02898
455.58787,0.02233
454.09808,0.01572
452.60829,0.01863
451.11850,0.00623
449.62871,0.01269
448.13893,0.01917
446.64914,0.01433
445.15935,0.00930
443.66956,0.02455
442.17977,0.02090
440.68998,0.01727
439.20020,0.03116
437.71041,0.01418
436.22062,0.01952
434.73083,0.02489
433.24104,0.03232
431.75125,0.03733
430.26146,0.03551
428.77168,0.03371
427.28189,0.04042
425.79210,0.03509
424.30231,0.02569
422.81252,0.01631
421.32273,0.03744
419.83295,0.03629
418.34316,0.03374
416.85337,0.03121
415.36358,0.01991
413.87379,0.03236
412.38400,0.03194
410.89422,0.03156
409.40443,0.02239
407.91464,0.02123
406.42485,0.03278
404.93506,0.03463
403.44527,0.03651
401.95548,0.03545
400.46570,0.03624
398.97591,0.04392
397.48612,0.05162
395.99633,0.02897
394.50654,0.00839
393.01675,0.00920
391.52697,0.00623
390.03718,0.01662
388.54739,0.02028
387.05760,0.01415
385.56781,0.00804
384.07802,0.02343
382.58824,0.01982
381.09845,0.00990
379.60866,0.00000
378.11887,0.01349
376.62908,0.01534
375.13929,0.01711
373.64950,0.01891
372.15972,0.04067
370.66993,0.02646
369.18014,0.01963
367.69035,0.01283
366.20056,0.02429
364.71077,0.03844
363.22099,0.03901
361.73120,0.03960
360.24141,0.05647
358.75162,0.05292
357.26183,0.05235
355.77204,0.05181
354.28225,0.05426
352.79247,0.05161
351.30268,0.05165
349.81289,0.05172
348.32310,0.08638
346.83331,0.08281
345.34352,0.07814
343.85374,0.07349
342.36395,0.06549
340.87416,0.03972
339.38437,0.02931
337.89458,0.01893
336.40479,0.02817
334.91501,0.02189
333.42522,0.01625
331.93543,0.01063
330.44564,0.01649
328.95585,0.05203
327.46606,0.04597
325.97627,0.03993
324.48649,0.05611
322.99670,0.07497
321.50691,0.07688
320.01712,0.07882
318.52733,0.10143
317.03754,0.08910
315.54776,0.08302
314.05797,0.07697
312.56818,0.06859
311.07839,0.07824
309.58860,0.07737
308.09881,0.07653
306.60902,0.05843
305.11924,0.04198
303.62945,0.03590
302.13966,0.01655
300.64987,0.00623
299.16008,0.00623
