1778.52000,0.00354
1777.03021,0.00956
1775.54042,0.00777
1774.05063,0.01115
1772.56085,0.00900
1771.07106,0.00749
1769.58127,0.01198
1768.09148,0.00000
1766.60169,0.00412
1765.11190,0.00580
1763.62212,0.00626
1762.13233,0.01520
1760.64254,0.00561
1759.15275,0.01005
1757.66296,0.00896
1756.17317,0.00315
1754.68339,0.01530
1753.19360,0.01654
1751.70381,0.01513
1750.21402,0.01004
1748.72423,0.01671
1747.23444,0.01104
1745.74465,0.00561
1744.25487,0.01968
1742.76508,0.01379
1741.27529,0.02379
1739.78550,0.02125
1738.29571,0.01007
1736.80592,0.01870
1735.31614,0.01148
1733.82635,0.01244
1732.33656,0.01219
1730.84677,0.01526
1729.35698,0.01155
1727.86719,0.00910
1726.37740,0.01079
1724.88762,0.00777
1723.39783,0.01364
1721.90804,0.01272
1720.41825,0.00874
1718.92846,0.00293
1717.43867,0.00882
1715.94889,0.01267
1714.45910,0.01078
1712.96931,0.00561
1711.47952,0.01574
1709.98973,0.01476
1708.49994,0.00619
1707.01016,0.00639
1705.52037,0.00662
1704.03058,0.00987
1702.54079,0.01025
1701.05100,0.01148
1699.56121,0.01005
1698.07142,0.02122
1696.58164,0.01881
1695.09185,0.01148
1693.60206,0.01757
1692.11227,0.02017
1690.62248,0.02219
1689.13269,0.01639
1687.64291,0.02361
1686.15312,0.02219
1684.66333,0.02532
1683.17354,0.02436
1681.68375,0.03394
1680.19396,0.03055
1678.70417,0.03214
1677.21439,0.04611
1675.72460,0.04671
1674.23481,0.05538
1672.74502,0.05211
1671.25523,0.05587
1669.76544,0.06873
1668.27566,0.07295
1666.78587,0.06751
1665.29608,0.07549
1663.80629,0.06268
1662.31650,0.07772
1660.82671,0.08494
1659.33693,0.07735
1657.84714,0.08092
1656.35735,0.07276
1654.86756,0.07348
1653.37777,0.09114
1651.88798,0.07377
1650.39819,0.09188
1648.90841,0.10012
1647.41862,0.09540
1645.92883,0.09194
1644.43904,0.08850
1642.94925,0.07314
1641.45946,0.08088
1639.96968,0.07710
1638.47989,0.08736
1636.99010,0.08631
1635.50031,0.08569
1634.01052,0.07583
1632.52073,0.08083
1631.03094,0.08729
1629.54116,0.08203
1628.05137,0.09534
1626.56158,0.09157
1625.07179,0.10143
1623.58200,0.08575
1622.09221,0.07751
1620.60243,0.08847
1619.11264,0.08915
1617.62285,0.10077
1616.13306,0.08356
1614.64327,0.08431
1613.15348,0.08528
1611.66370,0.08402
1610.17391,0.10504
1608.68412,0.08609
1607.19433,0.09128
1605.70454,0.07651
1604.21475,0.08092
1602.72496,0.08536
1601.23518,0.07993
1599.74539,0.08792
1598.25560,0.08605
1596.76581,0.08934
1595.27602,0.08009
1593.78623,0.07932
1592.29645,0.06908
1590.80666,0.07866
1589.31687,0.07342
1587.82708,0.08139
1586.33729,0.07764
1584.84750,0.07824
1583.35771,0.08649
1581.86793,0.08364
1580.37814,0.07318
1578.88835,0.07511
1577.39856,0.07233
1575.90877,0.06029
1574.41898,0.05818
1572.92920,0.05361
1571.43941,0.04515
1569.94962,0.04568
1568.45983,0.04623
1566.97004,0.03825
1565.48025,0.04060
1563.99047,0.04483
1562.50068,0.04023
1561.01089,0.03523
1559.52110,0.03397
1558.03131,0.03005
1556.54152,0.02079
1555.05173,0.02290
1553.56195,0.02420
1552.07216,0.02038
1550.58237,0.01225
1549.09258,0.01115
1547.60279,0.01894
1546.11300,0.00903
1544.62322,0.00944
1543.13343,0.01174
1541.64364,0.00561
1540.15385,0.00894
1538.66406,0.01229
1537.17427,0.01463
1535.68448,0.01350
1534.19470,0.01981
1532.70491,0.01378
1531.21512,0.01684
1529.72533,0.01683
1528.23554,0.01251
1526.74575,0.02121
1525.25597,0.00561
1523.76618,0.01290
1522.27639,0.03712
1520.78660,0.03065
1519.29681,0.03884
1517.80702,0.04912
1516.31724,0.05034
1514.82745,0.04356
1513.33766,0.04411
1511.84787,0.04469
1510.35808,0.04952
1508.86829,0.03582
1507.37850,0.04976
1505.88872,0.04909
1504.39893,0.04185
1502.90914,0.05834
1501.41935,0.05239
1499.92956,0.04728
1498.43977,0.05498
1496.94999,0.08187
1495.46020,0.09188
1493.97041,0.08006
1492.48062,0.10496
1490.99083,0.10536
1489.50104,0.12350
1488.01125,0.12941
1486.52147,0.13533
1485.03168,0.15190
1483.54189,0.16499
1482.05210,0.16738
1480.56231,0.20319
1479.07252,0.20521
1477.58274,0.20232
1476.09295,0.21923
1474.60316,0.22731
1473.11337,0.24221
1471.62358,0.24497
1470.13379,0.25683
1468.64401,0.28561
1467.15422,0.28803
1465.66443,0.30357
1464.17464,0.31913
1462.68485,0.35295
1461.19506,0.37711
1459.70527,0.43160
1458.21549,0.48940
1456.72570,0.52373
1455.23591,0.56963
1453.74612,0.60133
1452.25633,0.66665
1450.76654,0.68912
1449.27676,0.72605
1447.78697,0.68961
1446.29718,0.68268
1444.80739,0.64742
1443.31760,0.61219
1441.82781,0.57503
1440.33802,0.53500
1438.84824,0.50242
1437.35845,0.47501
1435.86866,0.46577
1434.37887,0.51736
1432.88908,0.54877
1431.39929,0.62329
1429.90951,0.64795
1428.41972,0.70169
1426.92993,0.71959
1425.44014,0.79153
1423.95035,0.81628
1422.46056,0.84105
1420.97078,0.86008
1419.48099,0.90923
1417.99120,0.91140
1416.50141,0.85959
1415.01162,0.82718
1413.52183,0.78964
1412.03204,0.74491
1410.54226,0.71937
1409.05247,0.67283
1407.56268,0.63415
1406.07289,0.57488
1404.58310,0.53697
1403.09331,0.49908
1401.60353,0.44112
1400.11374,0.39142
1398.62395,0.34134
1397.13416,0.29767
1395.64437,0.23630
1394.15458,0.20071
1392.66479,0.16660
1391.17501,0.13951
1389.68522,0.12029
1388.19543,0.08624
1386.70564,0.08005
1385.21585,0.07388
1383.72606,0.04341
1382.23628,0.03151
1380.74649,0.02624
1379.25670,0.00738
1377.76691,0.00875
1376.27712,0.00561
1374.78733,0.00666
1373.29755,0.01103
1371.80776,0.01192
1370.31797,0.01593
1368.82818,0.01831
1367.33839,0.02072
1365.84860,0.01985
1364.35881,0.03344
1362.86903,0.03014
1361.37924,0.04418
1359.88945,0.05619
1358.39966,0.08080
1356.90987,0.12954
1355.42008,0.14739
1353.93030,0.20958
1352.44051,0.24520
1350.95072,0.28085
1349.46093,0.37238
1347.97114,0.43611
1346.48135,0.52233
1344.99156,0.57745
1343.50178,0.62682
1342.01199,0.68631
1340.52220,0.74810
1339.03241,0.79507
1337.54262,0.86597
1336.05283,0.87423
1334.56305,0.88252
1333.07326,0.91969
1331.58347,0.95255
1330.09368,0.92401
1328.60389,0.90539
1327.11410,0.88164
1325.62432,0.85152
1324.13453,0.82081
1322.64474,0.78723
1321.15495,0.74523
1319.66516,0.71923
1318.17537,0.69325
1316.68558,0.64121
1315.19580,0.60013
1313.70601,0.56649
1312.21622,0.51659
1310.72643,0.49063
1309.23664,0.46077
1307.74685,0.41321
1306.25707,0.35681
1304.76728,0.34166
1303.27749,0.32653
1301.78770,0.28669
1300.29791,0.26027
1298.80812,0.23553
1297.31834,0.18772
1295.82855,0.15127
1294.33876,0.11691
1292.84897,0.10360
1291.35918,0.10804
1289.86939,0.10291
1288.37960,0.09781
1286.88982,0.10232
1285.40003,0.08294
1283.91024,0.06647
1282.42045,0.06837
1280.93066,0.06411
1279.44087,0.05514
1277.95109,0.05628
1276.46130,0.04735
1274.97151,0.04546
1273.48172,0.04358
1271.99193,0.02400
1270.50214,0.03455
1269.01235,0.03109
1267.52257,0.02437
1266.03278,0.02385
1264.54299,0.02768
1263.05320,0.01154
1261.56341,0.00790
1260.07362,0.00428
1258.58384,0.02264
1257.09405,0.01463
1255.60426,0.02067
1254.11447,0.00756
1252.62468,0.00561
1251.13489,0.01899
1249.64511,0.01549
1248.15532,0.01284
1246.66553,0.01320
1245.17574,0.01359
1243.68595,0.02234
1242.19616,0.00598
1240.70637,0.02014
1239.21659,0.00547
1237.72680,0.02484
1236.23701,0.01083
1234.74722,0.01252
1233.25743,0.01207
1231.76764,0.01163
1230.27786,0.02122
1228.78807,0.03022
1227.29828,0.02254
1225.80849,0.01880
1224.31870,0.00561
1222.82891,0.01252
1221.33912,0.02048
1219.84934,0.02012
1218.35955,0.01979
1216.86976,0.04205
1215.37997,0.04866
1213.89018,0.05798
1212.40039,0.06733
1210.91061,0.06082
1209.42082,0.07083
1207.93103,0.06788
1206.44124,0.06495
1204.95145,0.06122
1203.46166,0.05401
1201.97188,0.07032
1200.48209,0.04832
1198.99230,0.02613
1197.50251,0.02994
1196.01272,0.03109
1194.52293,0.03371
1193.03314,0.03635
1191.54336,0.02026
1190.05357,0.01512
1188.56378,0.02587
1187.07399,0.02202
1185.58420,0.01220
1184.09441,0.01870
1182.60463,0.01295
1181.11484,0.00723
1179.62505,0.01710
1178.13526,0.01235
1176.64547,0.01855
1175.15568,0.00561
1173.66589,0.00595
1172.17611,0.00569
1170.68632,0.01048
1169.19653,0.01530
1167.70674,0.02302
1166.21695,0.02067
1164.72716,0.01999
1163.23738,0.04778
1161.74759,0.05333
1160.25780,0.05787
1158.76801,0.05986
1157.27822,0.06188
1155.78843,0.06814
1154.29865,0.07361
1152.80886,0.10115
1151.31907,0.10068
1149.82928,0.10869
1148.33949,0.12703
1146.84970,0.13189
1145.35991,0.13677
1143.87013,0.14055
1142.38034,0.14970
1140.89055,0.15126
1139.40076,0.17283
1137.91097,0.18432
1136.42118,0.18842
1134.93140,0.19388
1133.44161,0.19937
1131.95182,0.24229
1130.46203,0.22072
1128.97224,0.21586
1127.48245,0.23165
1125.99266,0.22849
1124.50288,0.21876
1123.01309,0.22957
1121.52330,0.24040
1120.03351,0.22703
1118.54372,0.21904
1117.05393,0.24303
1115.56415,0.22891
1114.07436,0.22656
1112.58457,0.22959
1111.09478,0.23265
1109.60499,0.24274
1108.11520,0.23843
1106.62542,0.23434
1105.13563,0.22945
1103.64584,0.19676
1102.15605,0.19646
1100.66626,0.19453
1099.17647,0.19262
1097.68668,0.18332
1096.19690,0.19218
1094.70711,0.19323
1093.21732,0.19224
1091.72753,0.17809
1090.23774,0.17560
1088.74795,0.17314
1087.25817,0.16462
1085.76838,0.15674
1084.27859,0.17878
1082.78880,0.19198
1081.29901,0.18087
1079.80922,0.17082
1078.31943,0.18058
1076.82965,0.19037
1075.33986,0.21007
1073.85007,0.21104
1072.36028,0.23203
1070.87049,0.23470
1069.38070,0.24728
1067.89092,0.26319
1066.40113,0.27912
1064.91134,0.34372
1063.42155,0.43122
1061.93176,0.49917
1060.44197,0.58548
1058.95219,0.67471
1057.46240,0.71520
1055.97261,0.75572
1054.48282,0.80050
1052.99303,0.84055
1051.50324,0.87506
1050.01345,0.87723
1048.52367,0.91344
1047.03388,0.89773
1045.54409,0.88204
1044.05430,0.84205
1042.56451,0.76746
1041.07472,0.72813
1039.58494,0.65029
1038.09515,0.55927
1036.60536,0.52487
1035.11557,0.49048
1033.62578,0.43705
1032.13599,0.39354
1030.64620,0.36036
1029.15642,0.29072
1027.66663,0.26985
1026.17684,0.24901
1024.68705,0.21984
1023.19726,0.18101
1021.70747,0.15931
1020.21769,0.14567
1018.72790,0.14154
1017.23811,0.12651
1015.74832,0.11150
1014.25853,0.10043
1012.76874,0.10381
1011.27896,0.10660
1009.78917,0.11127
1008.29938,0.06958
1006.80959,0.06244
1005.31980,0.05533
1003.83001,0.02401
1002.34022,0.02653
1000.85044,0.01918
999.36065,0.04092
997.87086,0.04856
996.38107,0.05622
994.89128,0.05989
993.40149,0.07594
991.91171,0.08358
990.42192,0.08525
988.93213,0.09128
987.44234,0.09661
985.95255,0.10197
984.46276,0.10415
982.97297,0.08369
981.48319,0.07788
979.99340,0.06302
978.50361,0.05860
977.01382,0.05421
975.52403,0.05117
974.03424,0.02611
972.54446,0.01199
971.05467,0.02098
969.56488,0.02464
968.07509,0.02492
966.58530,0.02522
965.09551,0.00566
963.60573,0.01881
962.11594,0.00561
960.62615,0.01983
959.13636,0.01894
957.64657,0.01806
956.15678,0.01897
954.66699,0.03391
953.17721,0.03712
951.68742,0.03521
950.19763,0.04456
948.70784,0.05393
947.21805,0.06136
945.72826,0.07892
944.23848,0.08557
942.74869,0.11039
941.25890,0.10617
939.76911,0.12290
938.27932,0.13965
936.78953,0.14766
935.29974,0.15260
933.80996,0.19261
932.32017,0.21368
930.83038,0.21715
929.34059,0.22064
927.85080,0.25126
926.36101,0.26233
924.87123,0.28970
923.38144,0.34224
921.89165,0.37069
920.40186,0.39916
918.91207,0.50310
917.42228,0.60336
915.93250,0.72940
914.44271,0.92081
912.95292,1.03423
911.46313,1.14766
909.97334,1.32265
908.48355,1.56445
906.99376,1.74609
905.50398,1.87683
904.01419,1.91701
902.52440,1.95720
901.03461,2.00000
899.54482,1.94883
898.05503,1.80038
896.56525,1.56498
895.07546,1.47265
893.58567,1.38034
892.09588,1.13717
890.60609,0.87259
889.11630,0.65503
887.62651,0.46305
886.13673,0.39828
884.64694,0.33353
883.15715,0.25500
881.66736,0.17979
880.17757,0.12129
878.68778,0.10436
877.19800,0.08745
875.70821,0.05026
874.21842,0.03164
872.72863,0.02913
871.23884,0.03158
869.74905,0.02912
868.25927,0.02668
866.76948,0.02323
865.27969,0.02805
863.78990,0.03701
862.30011,0.04126
860.81032,0.04182
859.32053,0.04241
857.83075,0.07806
856.34096,0.10136
854.85117,0.10738
853.36138,0.11795
851.87159,0.11773
850.38180,0.11753
848.89202,0.13395
847.40223,0.14008
845.91244,0.17036
844.42265,0.17025
842.93286,0.17017
841.44307,0.19619
839.95329,0.22841
838.46350,0.22912
836.97371,0.24202
835.48392,0.24473
833.99413,0.24747
832.50434,0.25158
831.01455,0.24581
829.52477,0.22296
828.03498,0.18570
826.54519,0.17392
825.05540,0.16217
823.56561,0.15796
822.07582,0.13914
820.58604,0.11891
819.09625,0.11725
817.60646,0.11561
816.11667,0.10348
814.62688,0.12333
813.13709,0.12465
811.64730,0.12908
810.15752,0.12107
808.66773,0.11308
807.17794,0.11697
805.68815,0.12603
804.19836,0.13203
802.70857,0.14166
801.21879,0.15131
799.72900,0.12254
798.23921,0.11049
796.74942,0.10691
795.25963,0.11089
793.76984,0.11488
792.28006,0.13509
790.79027,0.14789
789.30048,0.17288
787.81069,0.18409
786.32090,0.19428
784.83111,0.20450
783.34132,0.22340
781.85154,0.27675
780.36175,0.31466
778.87196,0.33405
777.38217,0.35346
775.89238,0.37887
774.40259,0.39049
772.91281,0.38771
771.42302,0.36877
769.93323,0.34985
768.44344,0.31395
766.95365,0.26818
765.46386,0.23336
763.97407,0.21340
762.48429,0.19461
760.99450,0.17583
759.50471,0.14069
758.01492,0.11712
756.52513,0.10553
755.03534,0.09375
753.54556,0.08200
752.05577,0.06430
750.56598,0.06888
749.07619,0.05081
747.58640,0.04565
746.09661,0.04051
744.60683,0.02148
743.11704,0.02247
741.62725,0.01750
740.13746,0.01833
738.64767,0.01918
737.15788,0.00893
735.66809,0.01972
734.17831,0.01385
732.68852,0.01809
731.19873,0.02236
729.70894,0.01285
728.21915,0.00830
726.72936,0.02198
725.23958,0.02188
723.74979,0.01808
722.26000,0.01432
720.77021,0.00954
719.28042,0.00994
717.79063,0.00872
716.30084,0.01546
714.81106,0.02222
713.32127,0.00561
711.83148,0.01109
710.34169,0.02628
708.85190,0.02398
707.36211,0.02170
705.87233,0.03099
704.38254,0.03268
702.89275,0.04861
701.40296,0.05086
699.91317,0.05313
698.42338,0.05368
696.93360,0.07300
695.44381,0.09936
693.95402,0.10646
692.46423,0.11360
690.97444,0.12024
689.48465,0.14009
687.99486,0.16347
686.50508,0.17658
685.01529,0.18970
683.52550,0.22676
682.03571,0.23210
680.54592,0.23952
679.05613,0.23347
677.56635,0.22744
676.07656,0.24709
674.58677,0.22843
673.09698,0.21021
671.60719,0.20870
670.11740,0.20722
668.62761,0.17815
667.13783,0.15239
665.64804,0.14294
664.15825,0.13352
662.66846,0.10845
661.17867,0.07042
659.68888,0.06004
658.19910,0.05730
656.70931,0.05459
655.21952,0.04428
653.72973,0.04491
652.23994,0.04722
650.75015,0.04708
649.26037,0.04696
647.77058,0.04357
646.28079,0.04020
644.79100,0.04325
643.30121,0.03477
641.81142,0.02632
640.32163,0.01975
638.83185,0.01814
637.34206,0.02419
635.85227,0.01872
634.36248,0.01328
632.87269,0.00847
631.38290,0.01803
629.89312,0.02412
628.40333,0.02012
626.91354,0.01615
625.42375,0.00912
623.93396,0.00561
622.44417,0.00793
620.95438,0.01027
619.46460,0.01038
617.97481,0.02349
616.48502,0.04219
614.99523,0.06349
613.50544,0.08482
612.01565,0.10833
610.52587,0.14176
609.03608,0.17913
607.54629,0.19437
606.05650,0.20963
604.56671,0.26480
603.07692,0.33525
601.58714,0.34656
600.09735,0.35789
598.60756,0.38677
597.11777,0.41259
595.62798,0.40977
594.13819,0.40265
592.64840,0.39555
591.15862,0.37446
589.66883,0.31443
588.17904,0.22495
586.68925,0.19589
585.19946,0.16686
583.70967,0.13063
582.21989,0.12308
580.73010,0.11328
579.24031,0.10351
577.75052,0.06635
576.26073,0.05786
574.77094,0.04384
573.28115,0.03756
571.79137,0.03131
570.30158,0.04003
568.81179,0.04444
567.32200,0.06145
565.83221,0.07848
564.34242,0.10069
562.85264,0.10499
561.36285,0.12209
559.87306,0.13633
558.38327,0.15060
556.89348,0.16324
555.40369,0.15014
553.91391,0.15468
552.42412,0.15925
550.93433,0.16415
549.44454,0.17134
547.95475,0.16454
546.46496,0.17044
544.97517,0.17637
543.48539,0.20530
541.99560,0.23054
540.50581,0.26406
539.01602,0.29759
537.52623,0.32621
536.03644,0.35278
534.54666,0.38639
533.05687,0.40724
531.56708,0.42812
530.07729,0.47293
528.58750,0.50436
527.09771,0.52469
525.60792,0.54504
524.11814,0.62808
522.62835,0.67589
521.13856,0.76331
519.64877,0.77932
518.15898,0.79536
516.66919,0.83564
515.17941,0.82689
513.68962,0.81239
512.19983,0.79791
510.71004,0.76800
509.22025,0.74326
507.73046,0.66557
506.24068,0.61440
504.75089,0.56324
503.26110,0.42915
501.77131,0.37217
500.28152,0.32119
498.79173,0.27023
497.30194,0.22569
495.81216,0.18653
494.32237,0.15131
492.83258,0.11612
491.34279,0.10156
489.85300,0.05775
488.36321,0.04819
486.87343,0.04731
485.38364,0.04645
483.89385,0.06829
482.40406,0.09015
480.91427,0.09462
479.42448,0.09911
477.93469,0.13258
476.44491,0.13826
474.95512,0.15004
473.46533,0.16184
471.97554,0.17129
470.48575,0.16840
468.99596,0.16760
467.50618,0.15713
466.01639,0.14668
464.52660,0.13152
463.03681,0.09700
461.54702,0.08663
460.05723,0.07628
458.56745,0.04018
457.07766,0.02143
455.58787,0.02156
454.09808,0.02171
452.60829,0.01168
451.11850,0.01302
449.62871,0.01128
448.13893,0.00957
446.64914,0.01077
445.15935,0.00561
443.66956,0.01542
442.17977,0.02206
440.68998,0.02873
439.20020,0.03366
437.71041,0.03595
436.22062,0.04433
434.73083,0.05274
433.24104,0.03304
431.75125,0.04552
430.26146,0.03668
428.77168,0.02787
427.28189,0.03650
425.79210,0.02640
424.30231,0.04497
422.81252,0.06357
421.32273,0.03437
419.83295,0.02951
418.34316,0.02499
416.85337,0.02049
415.36358,0.00561
413.87379,0.03441
412.38400,0.03851
410.89422,0.04263
409.40443,0.06223
407.91464,0.05815
406.42485,0.05204
404.93506,0.04574
403.44527,0.03946
401.95548,0.04228
400.46570,0.04141
398.97591,0.03933
397.48612,0.03727
395.99633,0.02411
394.50654,0.03509
393.01675,0.02856
391.52697,0.02207
390.03718,0.02755
388.54739,0.02070
387.05760,0.01922
385.56781,0.01777
384.07802,0.02665
382.58824,0.01514
381.09845,0.01036
379.60866,0.00561
378.11887,0.03116
376.62908,0.01551
375.13929,0.01164
373.64950,0.00779
372.15972,0.01345
370.66993,0.02820
369.18014,0.02671
367.69035,0.02525
366.20056,0.03835
364.71077,0.04343
363.22099,0.04286
361.73120,0.04232
360.24141,0.05778
358.75162,0.05203
357.26183,0.04558
355.77204,0.03916
354.28225,0.03967
352.79247,0.03463
351.30268,0.04672
349.81289,0.05884
348.32310,0.08459
346.83331,0.09738
345.34352,0.07082
343.85374,0.04428
342.36395,0.03673
340.87416,0.01889
339.38437,0.02308
337.89458,0.02728
336.40479,0.02739
334.91501,0.02195
333.42522,0.01737
331.93543,0.01281
330.44564,0.01899
328.95585,0.02210
327.46606,0.02946
325.97627,0.03684
324.48649,0.02209
322.99670,0.03354
321.50691,0.03018
320.01712,0.02684
318.52733,0.05691
317.03754,0.04558
315.54776,0.03540
314.05797,0.02525
312.56818,0.00904
311.07839,0.03325
309.58860,0.02863
308.09881,0.02403
306.60902,0.01225
305.11924,0.02378
303.62945,0.01853
302.13966,0.01066
300.64987,0.00561
299.16008,0.00561
