1778.52000,0.01463
1777.03021,0.01667
1775.54042,0.01584
1774.05063,0.01545
1772.56085,0.01508
1771.07106,0.01701
1769.58127,0.01731
1768.09148,0.01494
1766.60169,0.00699
1765.11190,0.01006
1763.62212,0.01730
1762.13233,0.01357
1760.64254,0.00323
1759.15275,0.00889
1757.66296,0.00502
1756.17317,0.01073
1754.68339,0.01023
1753.19360,0.01349
1751.70381,0.01366
1750.21402,0.01075
1748.72423,0.01367
1747.23444,0.00396
1745.74465,0.00775
1744.25487,0.00431
1742.76508,0.01339
1741.27529,0.01565
1739.78550,0.00944
1738.29571,0.00760
1736.80592,0.01532
1735.31614,0.01726
1733.82635,0.01363
1732.33656,0.00940
1730.84677,0.01266
1729.35698,0.00806
1727.86719,0.00224
1726.37740,0.00246
1724.88762,0.00270
1723.39783,0.00712
1721.90804,0.00388
1720.41825,0.00544
1718.92846,0.00703
1717.43867,0.00801
1715.94889,0.00716
1714.45910,0.00529
1712.96931,0.00323
1711.47952,0.00876
1709.98973,0.00498
1708.49994,0.00972
1707.01016,0.00485
1705.52037,0.00000
1704.03058,0.00377
1702.54079,0.00467
1701.05100,0.00683
1699.56121,0.01835
1698.07142,0.00583
1696.58164,0.01408
1695.09185,0.01302
1693.60206,0.01448
1692.11227,0.00475
1690.62248,0.00999
1689.13269,0.01794
1687.64291,0.01825
1686.15312,0.01775
1684.66333,0.02287
1683.17354,0.02221
1681.68375,0.02738
1680.19396,0.02158
1678.70417,0.03406
1677.21439,0.03038
1675.72460,0.03876
1674.23481,0.03493
1672.74502,0.03651
1671.25523,0.04392
1669.76544,0.04742
1668.27566,0.06089
1666.78587,0.06381
1665.29608,0.06510
1663.80629,0.05874
1662.31650,0.06940
1660.82671,0.08694
1659.33693,0.07961
1657.84714,0.07376
1656.35735,0.08141
1654.86756,0.07208
1653.37777,0.07460
1651.88798,0.07237
1650.39819,0.07950
1648.90841,0.08976
1647.41862,0.10336
1645.92883,0.09915
1644.43904,0.09497
1642.94925,0.08915
1641.45946,0.08543
1639.96968,0.08090
1638.47989,0.08179
1636.99010,0.08084
1635.50031,0.08593
1634.01052,0.08108
1632.52073,0.08518
1631.03094,0.09593
1629.54116,0.09033
1628.05137,0.08040
1626.56158,0.09185
1625.07179,0.10706
1623.58200,0.10901
1622.09221,0.10001
1620.60243,0.09704
1619.11264,0.09720
1617.62285,0.08993
1616.13306,0.09366
1614.64327,0.08955
1613.15348,0.08338
1611.66370,0.09901
1610.17391,0.09766
1608.68412,0.09239
1607.19433,0.08134
1605.70454,0.09769
1604.21475,0.09322
1602.72496,0.08878
1601.23518,0.08280
1599.74539,0.09386
1598.25560,0.09768
1596.76581,0.09571
1595.27602,0.08734
1593.78623,0.07630
1592.29645,0.07379
1590.80666,0.07192
1589.31687,0.06427
1587.82708,0.07324
1586.33729,0.07040
1584.84750,0.08191
1583.35771,0.07705
1581.86793,0.09419
1580.37814,0.08067
1578.88835,0.07941
1577.39856,0.07942
1575.90877,0.06908
1574.41898,0.05400
1572.92920,0.04890
1571.43941,0.05294
1569.94962,0.05110
1568.45983,0.04928
1566.97004,0.04655
1565.48025,0.05028
1563.99047,0.04158
1562.50068,0.03727
1561.01089,0.03339
1559.52110,0.02892
1558.03131,0.02426
1556.54152,0.02046
1555.05173,0.01523
1553.56195,0.02122
1552.07216,0.01189
1550.58237,0.01046
1549.09258,0.02378
1547.60279,0.00809
1546.11300,0.00757
1544.62322,0.00893
1543.13343,0.00265
1541.64364,0.00323
1540.15385,0.00656
1538.66406,0.00991
1537.17427,0.02926
1535.68448,0.01918
1534.19470,0.01513
1532.70491,0.00323
1531.21512,0.02121
1529.72533,0.03092
1528.23554,0.02198
1526.74575,0.02489
1525.25597,0.01207
1523.76618,0.02000
1522.27639,0.03335
1520.78660,0.03304
1519.29681,0.03732
1517.80702,0.04949
1516.31724,0.05796
1514.82745,0.05505
1513.33766,0.05258
1511.84787,0.05013
1510.35808,0.04439
1508.86829,0.03971
1507.37850,0.04023
1505.88872,0.06235
1504.39893,0.05359
1502.90914,0.05212
1501.41935,0.06809
1499.92956,0.06251
1498.43977,0.06463
1496.94999,0.07694
1495.46020,0.09010
1493.97041,0.08690
1492.48062,0.10302
1490.99083,0.09593
1489.50104,0.13345
1488.01125,0.13574
1486.52147,0.13805
1485.03168,0.18871
1483.54189,0.18298
1482.05210,0.20984
1480.56231,0.22697
1479.07252,0.23024
1477.58274,0.24203
1476.09295,0.24078
1474.60316,0.24930
1473.11337,0.24332
1471.62358,0.24650
1470.13379,0.26878
1468.64401,0.28673
1467.15422,0.32481
1465.66443,0.33109
1464.17464,0.33740
1462.68485,0.38987
1461.19506,0.40669
1459.70527,0.43225
1458.21549,0.44331
1456.72570,0.50065
1455.23591,0.57128
1453.74612,0.62181
1452.25633,0.67569
1450.76654,0.73043
1449.27676,0.72878
1447.78697,0.69149
1446.29718,0.68367
1444.80739,0.65969
1443.31760,0.63575
1441.82781,0.60477
1440.33802,0.53214
1438.84824,0.49147
1437.35845,0.48275
1435.86866,0.45042
1434.37887,0.49692
1432.88908,0.55235
1431.39929,0.63166
1429.90951,0.68673
1428.41972,0.72296
1426.92993,0.77082
1425.44014,0.79091
1423.95035,0.81694
1422.46056,0.84299
1420.97078,0.89282
1419.48099,0.90969
1417.99120,0.90627
1416.50141,0.87881
1415.01162,0.84557
1413.52183,0.80116
1412.03204,0.77025
1410.54226,0.71427
1409.05247,0.68217
1407.56268,0.62997
1406.07289,0.55353
1404.58310,0.52980
1403.09331,0.50608
1401.60353,0.45045
1400.11374,0.39776
1398.62395,0.33554
1397.13416,0.28517
1395.64437,0.25287
1394.15458,0.20109
1392.66479,0.17195
1391.17501,0.15734
1389.68522,0.13198
1388.19543,0.10083
1386.70564,0.08930
1385.21585,0.07780
1383.72606,0.05274
1382.23628,0.04056
1380.74649,0.02218
1379.25670,0.02042
1377.76691,0.00852
1376.27712,0.01074
1374.78733,0.00635
1373.29755,0.00323
1371.80776,0.00681
1370.31797,0.02037
1368.82818,0.01768
1367.33839,0.01500
1365.84860,0.00976
1364.35881,0.01968
1362.86903,0.01781
1361.37924,0.03649
1359.88945,0.06805
1358.39966,0.09030
1356.90987,0.12004
1355.42008,0.14524
1353.93030,0.21443
1352.44051,0.25482
1350.95072,0.29524
1349.46093,0.36409
1347.97114,0.44374
1346.48135,0.51948
1344.99156,0.57534
1343.50178,0.63764
1342.01199,0.69666
1340.52220,0.74968
1339.03241,0.80211
1337.54262,0.84170
1336.05283,0.86971
1334.56305,0.89773
1333.07326,0.93823
1331.58347,0.96900
1330.09368,0.94733
1328.60389,0.94705
1327.11410,0.90158
1325.62432,0.89429
1324.13453,0.87748
1322.64474,0.85116
1321.15495,0.78879
1319.66516,0.75609
1318.17537,0.72341
1316.68558,0.65281
1315.19580,0.64237
1313.70601,0.59421
1312.21622,0.55251
1310.72643,0.52223
1309.23664,0.49032
1307.74685,0.46238
1306.25707,0.41040
1304.76728,0.38914
1303.27749,0.36790
1301.78770,0.32201
1300.29791,0.28734
1298.80812,0.25166
1297.31834,0.21683
1295.82855,0.19758
1294.33876,0.16343
1292.84897,0.14132
1291.35918,0.11924
1289.86939,0.11802
1288.37960,0.11683
1286.88982,0.10767
1285.40003,0.10995
1283.91024,0.10375
1282.42045,0.06957
1280.93066,0.06052
1279.44087,0.04837
1277.95109,0.05430
1276.46130,0.05713
1274.97151,0.05408
1273.48172,0.05105
1271.99193,0.04567
1270.50214,0.02848
1269.01235,0.04409
1267.52257,0.02322
1266.03278,0.01959
1264.54299,0.02904
1263.05320,0.02629
1261.56341,0.02242
1260.07362,0.01857
1258.58384,0.00323
1257.09405,0.01462
1255.60426,0.01566
1254.11447,0.00657
1252.62468,0.01823
1251.13489,0.01105
1249.64511,0.01799
1248.15532,0.01584
1246.66553,0.02013
1245.17574,0.02445
1243.68595,0.01221
1242.19616,0.00952
1240.70637,0.00894
1239.21659,0.01066
1237.72680,0.02173
1236.23701,0.00463
1234.74722,0.00912
1233.25743,0.00616
1231.76764,0.00323
1230.27786,0.01432
1228.78807,0.01340
1227.29828,0.01416
1225.80849,0.01702
1224.31870,0.01368
1222.82891,0.01721
1221.33912,0.02180
1219.84934,0.03035
1218.35955,0.03893
1216.86976,0.04484
1215.37997,0.04870
1213.89018,0.06087
1212.40039,0.06789
1210.91061,0.06477
1209.42082,0.08137
1207.93103,0.08607
1206.44124,0.09080
1204.95145,0.08342
1203.46166,0.07585
1201.97188,0.08781
1200.48209,0.08734
1198.99230,0.05662
1197.50251,0.04542
1196.01272,0.04441
1194.52293,0.04155
1193.03314,0.03872
1191.54336,0.03031
1190.05357,0.00886
1188.56378,0.03471
1187.07399,0.02306
1185.58420,0.02304
1184.09441,0.02616
1182.60463,0.02847
1181.11484,0.03081
1179.62505,0.02923
1178.13526,0.01481
1176.64547,0.00540
1175.15568,0.01053
1173.66589,0.00323
1172.17611,0.02968
1170.68632,0.02712
1169.19653,0.02458
1167.70674,0.02248
1166.21695,0.03368
1164.72716,0.03619
1163.23738,0.03043
1161.74759,0.03278
1160.25780,0.06294
1158.76801,0.07602
1157.27822,0.08912
1155.78843,0.09240
1154.29865,0.10109
1152.80886,0.13573
1151.31907,0.13452
1149.82928,0.11487
1148.33949,0.13050
1146.84970,0.12760
1145.35991,0.12472
1143.87013,0.14519
1142.38034,0.14060
1140.89055,0.13769
1139.40076,0.15823
1137.91097,0.16512
1136.42118,0.18343
1134.93140,0.18766
1133.44161,0.19192
1131.95182,0.21280
1130.46203,0.22685
1128.97224,0.23740
1127.48245,0.24549
1125.99266,0.23826
1124.50288,0.21694
1123.01309,0.21712
1121.52330,0.21732
1120.03351,0.23030
1118.54372,0.22484
1117.05393,0.22895
1115.56415,0.24781
1114.07436,0.22978
1112.58457,0.22711
1111.09478,0.22447
1109.60499,0.22269
1108.11520,0.23710
1106.62542,0.22686
1105.13563,0.21644
1103.64584,0.19816
1102.15605,0.20043
1100.66626,0.19828
1099.17647,0.19614
1097.68668,0.20160
1096.19690,0.18572
1094.70711,0.19392
1093.21732,0.16731
1091.72753,0.17120
1090.23774,0.16911
1088.74795,0.16703
1087.25817,0.16685
1085.76838,0.17437
1084.27859,0.16490
1082.78880,0.18615
1081.29901,0.18711
1079.80922,0.18622
1078.31943,0.19676
1076.82965,0.20732
1075.33986,0.21645
1073.85007,0.23163
1072.36028,0.22547
1070.87049,0.25894
1069.38070,0.27128
1067.89092,0.27618
1066.40113,0.28110
1064.91134,0.35656
1063.42155,0.44075
1061.93176,0.53305
1060.44197,0.64694
1058.95219,0.74883
1057.46240,0.79651
1055.97261,0.84422
1054.48282,0.92524
1052.99303,0.98948
1051.50324,1.00273
1050.01345,1.02327
1048.52367,1.01790
1047.03388,0.99660
1045.54409,0.97531
1044.05430,0.94369
1042.56451,0.91146
1041.07472,0.82534
1039.58494,0.68906
1038.09515,0.61398
1036.60536,0.57490
1035.11557,0.53585
1033.62578,0.49589
1032.13599,0.43044
1030.64620,0.34843
1029.15642,0.30854
1027.66663,0.27946
1026.17684,0.25040
1024.68705,0.20519
1023.19726,0.16830
1021.70747,0.15093
1020.21769,0.13711
1018.72790,0.14860
1017.23811,0.13358
1015.74832,0.11859
1014.25853,0.10839
1012.76874,0.09800
1011.27896,0.09220
1009.78917,0.08476
1008.29938,0.06491
1006.80959,0.05275
1005.31980,0.04062
1003.83001,0.02768
1002.34022,0.01456
1000.85044,0.02822
999.36065,0.03775
997.87086,0.04015
996.38107,0.04257
994.89128,0.07789
993.40149,0.06719
991.91171,0.08203
990.42192,0.09460
988.93213,0.10264
987.44234,0.11206
985.95255,0.12149
984.46276,0.12172
982.97297,0.12032
981.48319,0.10670
979.99340,0.07922
978.50361,0.06524
977.01382,0.05128
975.52403,0.05352
974.03424,0.03256
972.54446,0.02905
971.05467,0.00730
969.56488,0.01420
968.07509,0.01418
966.58530,0.01418
965.09551,0.01701
963.60573,0.00596
962.11594,0.00323
960.62615,0.02464
959.13636,0.01382
957.64657,0.00302
956.15678,0.00335
954.66699,0.01448
953.17721,0.02294
951.68742,0.02769
950.19763,0.02915
948.70784,0.03063
947.21805,0.03690
945.72826,0.06394
944.23848,0.08332
942.74869,0.10833
941.25890,0.12590
939.76911,0.13219
938.27932,0.13850
936.78953,0.16672
935.29974,0.15846
933.80996,0.17283
932.32017,0.20050
930.83038,0.21025
929.34059,0.22003
927.85080,0.25254
926.36101,0.25770
924.87123,0.29419
923.38144,0.33963
921.89165,0.38022
920.40186,0.42083
918.91207,0.50657
917.42228,0.59835
915.93250,0.73349
914.44271,0.92631
912.95292,1.03371
911.46313,1.14113
909.97334,1.34688
908.48355,1.55618
906.99376,1.78748
905.50398,1.94166
904.01419,1.97082
902.52440,2.00000
901.03461,1.99955
899.54482,1.99560
898.05503,1.89463
896.56525,1.67589
895.07546,1.54634
893.58567,1.41682
892.09588,1.13657
890.60609,0.90527
889.11630,0.67027
887.62651,0.50746
886.13673,0.43799
884.64694,0.36854
883.15715,0.28958
881.66736,0.23781
880.17757,0.14666
878.68778,0.13424
877.19800,0.12184
875.70821,0.07265
874.21842,0.05584
872.72863,0.04278
871.23884,0.03784
869.74905,0.03312
868.25927,0.02844
866.76948,0.03891
865.27969,0.04360
863.78990,0.05184
862.30011,0.05015
860.81032,0.06798
859.32053,0.08583
857.83075,0.09251
856.34096,0.11165
854.85117,0.12128
853.36138,0.14151
851.87159,0.15243
850.38180,0.16338
848.89202,0.17767
847.40223,0.20566
845.91244,0.23908
844.42265,0.23861
842.93286,0.23817
841.44307,0.25962
839.95329,0.28090
838.46350,0.29204
836.97371,0.30693
835.48392,0.30826
833.99413,0.30962
832.50434,0.29307
831.01455,0.28711
829.52477,0.26812
828.03498,0.25724
826.54519,0.23279
825.05540,0.20837
823.56561,0.19424
822.07582,0.19611
820.58604,0.16170
819.09625,0.15677
817.60646,0.15186
816.11667,0.12935
814.62688,0.12905
813.13709,0.14557
811.64730,0.14117
810.15752,0.15142
808.66773,0.16169
807.17794,0.15446
805.68815,0.15285
804.19836,0.19005
802.70857,0.18403
801.21879,0.17804
799.72900,0.18524
798.23921,0.15990
796.74942,0.15139
795.25963,0.15597
793.76984,0.16057
792.28006,0.16291
790.79027,0.18021
789.30048,0.20437
787.81069,0.23851
786.32090,0.26490
784.83111,0.29132
783.34132,0.30438
781.85154,0.32908
780.36175,0.37599
778.87196,0.39607
777.38217,0.41618
775.89238,0.41941
774.40259,0.43697
772.91281,0.40727
771.42302,0.38714
769.93323,0.36703
768.44344,0.32808
766.95365,0.26924
765.46386,0.22100
763.97407,0.20389
762.48429,0.19966
760.99450,0.19546
759.50471,0.14690
758.01492,0.13673
756.52513,0.10190
755.03534,0.09738
753.54556,0.09288
752.05577,0.07804
750.56598,0.07193
749.07619,0.06501
747.58640,0.05232
746.09661,0.03964
744.60683,0.03695
743.11704,0.04029
741.62725,0.01296
740.13746,0.01117
738.64767,0.00940
737.15788,0.01657
735.66809,0.00323
734.17831,0.01900
732.68852,0.01788
731.19873,0.01679
729.70894,0.01126
728.21915,0.00970
726.72936,0.00733
725.23958,0.00644
723.74979,0.01278
722.26000,0.01914
720.77021,0.00323
719.28042,0.00554
717.79063,0.02529
716.30084,0.02049
714.81106,0.01571
713.32127,0.01563
711.83148,0.01287
710.34169,0.00412
708.85190,0.02018
707.36211,0.03626
705.87233,0.03982
704.38254,0.03013
702.89275,0.03850
701.40296,0.04161
699.91317,0.04475
698.42338,0.04967
696.93360,0.05213
695.44381,0.07784
693.95402,0.09248
692.46423,0.10714
690.97444,0.10762
689.48465,0.12555
687.99486,0.14183
686.50508,0.15877
685.01529,0.17573
683.52550,0.20536
682.03571,0.22258
680.54592,0.24853
679.05613,0.25169
677.56635,0.25487
676.07656,0.25145
674.58677,0.22876
673.09698,0.18743
671.60719,0.18439
670.11740,0.18137
668.62761,0.14384
667.13783,0.12563
665.64804,0.12216
664.15825,0.11872
662.66846,0.09270
661.17867,0.08412
659.68888,0.06872
658.19910,0.06299
656.70931,0.05729
655.21952,0.04528
653.72973,0.04035
652.23994,0.02756
650.75015,0.03097
649.26037,0.03440
647.77058,0.04346
646.28079,0.04238
644.79100,0.03697
643.30121,0.02982
641.81142,0.02269
640.32163,0.01943
638.83185,0.01432
637.34206,0.00571
635.85227,0.01597
634.36248,0.02626
632.87269,0.02195
631.38290,0.01724
629.89312,0.00323
628.40333,0.00860
626.91354,0.01400
625.42375,0.00655
623.93396,0.01345
622.44417,0.02420
620.95438,0.03497
619.46460,0.02535
617.97481,0.03980
616.48502,0.05386
614.99523,0.05738
613.50544,0.06091
612.01565,0.11445
610.52587,0.14167
609.03608,0.18945
607.54629,0.20946
606.05650,0.22950
604.56671,0.28108
603.07692,0.35632
601.58714,0.36119
600.09735,0.36608
598.60756,0.39122
597.11777,0.42861
595.62798,0.44176
594.13819,0.43680
592.64840,0.43185
591.15862,0.39842
589.66883,0.31877
588.17904,0.27377
586.68925,0.23035
585.19946,0.18696
583.70967,0.16588
582.21989,0.14960
580.73010,0.12121
579.24031,0.09284
577.75052,0.09591
576.26073,0.05131
574.77094,0.04676
573.28115,0.04618
571.79137,0.04561
570.30158,0.05607
568.81179,0.06281
567.32200,0.06304
565.83221,0.06330
564.34242,0.10537
562.85264,0.14207
561.36285,0.15785
559.87306,0.17967
558.38327,0.20151
556.89348,0.21156
555.40369,0.21727
553.91391,0.21430
552.42412,0.21136
550.93433,0.20138
549.44454,0.20616
547.95475,0.20556
546.46496,0.21889
544.97517,0.23224
543.48539,0.26179
541.99560,0.27415
540.50581,0.29887
539.01602,0.32361
537.52623,0.41526
536.03644,0.45012
534.54666,0.45036
533.05687,0.46888
531.56708,0.48742
530.07729,0.53046
528.58750,0.58679
527.09771,0.58964
525.60792,0.59252
524.11814,0.66199
522.62835,0.72235
521.13856,0.77155
519.64877,0.78841
518.15898,0.80531
516.66919,0.81641
515.17941,0.84974
513.68962,0.85861
512.19983,0.86751
510.71004,0.83973
509.22025,0.78087
507.73046,0.71767
506.24068,0.66280
504.75089,0.60795
503.26110,0.50978
501.77131,0.39359
500.28152,0.33332
498.79173,0.27307
497.30194,0.20631
495.81216,0.17503
494.32237,0.15861
492.83258,0.14221
491.34279,0.11184
489.85300,0.09393
488.36321,0.07439
486.87343,0.07364
485.38364,0.07292
483.89385,0.07896
482.40406,0.09850
480.91427,0.12449
479.42448,0.15051
477.93469,0.18008
476.44491,0.15160
474.95512,0.17489
473.46533,0.19821
471.97554,0.20693
470.48575,0.19493
468.99596,0.17073
467.50618,0.16158
466.01639,0.15246
464.52660,0.13475
463.03681,0.13387
461.54702,0.11600
460.05723,0.09816
458.56745,0.04385
457.07766,0.02771
455.58787,0.02363
454.09808,0.01957
452.60829,0.02943
451.11850,0.00323
449.62871,0.00473
448.13893,0.00625
446.64914,0.01827
445.15935,0.01704
443.66956,0.01190
442.17977,0.01165
440.68998,0.01142
439.20020,0.01195
437.71041,0.00628
436.22062,0.01514
434.73083,0.02404
433.24104,0.03793
431.75125,0.02364
430.26146,0.02545
428.77168,0.02729
427.28189,0.03568
425.79210,0.01817
424.30231,0.01541
422.81252,0.01267
421.32273,0.01722
419.83295,0.02117
418.34316,0.01622
416.85337,0.01130
415.36358,0.01076
413.87379,0.01605
412.38400,0.01918
410.89422,0.02234
409.40443,0.01069
407.91464,0.01649
406.42485,0.03393
404.93506,0.02287
403.44527,0.01184
401.95548,0.02272
400.46570,0.01308
398.97591,0.01571
397.48612,0.01836
395.99633,0.01978
394.50654,0.00154
393.01675,0.01576
391.52697,0.02726
390.03718,0.02386
388.54739,0.02236
387.05760,0.01278
385.56781,0.00323
384.07802,0.00539
382.58824,0.01254
381.09845,0.00666
379.60866,0.00080
378.11887,0.01291
376.62908,0.03209
375.13929,0.02973
373.64950,0.02740
372.15972,0.03608
370.66993,0.03773
369.18014,0.02831
367.69035,0.01892
366.20056,0.02775
364.71077,0.04615
363.22099,0.05721
361.73120,0.06829
360.24141,0.04943
358.75162,0.05320
357.26183,0.04466
355.77204,0.03614
354.28225,0.04848
352.79247,0.06085
351.30268,0.06412
349.81289,0.06741
348.32310,0.07218
346.83331,0.10020
345.34352,0.08832
343.85374,0.07646
342.36395,0.07283
340.87416,0.05407
339.38437,0.04032
337.89458,0.02659
336.40479,0.02533
334.91501,0.02534
333.42522,0.01427
331.93543,0.00323
330.44564,0.03602
328.95585,0.02632
327.46606,0.03262
325.97627,0.03893
324.48649,0.05253
322.99670,0.06470
321.50691,0.07130
320.01712,0.07792
318.52733,0.10530
317.03754,0.07526
315.54776,0.07252
314.05797,0.06980
312.56818,0.07052
311.07839,0.07957
309.58860,0.06240
308.09881,0.04526
306.60902,0.03385
305.11924,0.03241
303.62945,0.02499
302.13966,0.00323
300.64987,0.01421
299.16008,0.00323
