1778.52000,0.00694
1777.03021,0.01358
1775.54042,0.00924
1774.05063,0.01053
1772.56085,0.01876
1771.07106,0.01297
1769.58127,0.01606
1768.09148,0.01313
1766.60169,0.00870
1765.11190,0.01489
1763.62212,0.01462
1762.13233,0.01437
1760.64254,0.00896
1759.15275,0.01395
1757.66296,0.01312
1756.17317,0.00000
1754.68339,0.01284
1753.19360,0.00798
1751.70381,0.00098
1750.21402,0.00329
1748.72423,0.00391
1747.23444,0.01254
1745.74465,0.00671
1744.25487,0.00718
1742.76508,0.01243
1741.27529,0.01056
1739.78550,0.01326
1738.29571,0.01382
1736.80592,0.00857
1735.31614,0.00939
1733.82635,0.00882
1732.33656,0.01260
1730.84677,0.01035
1729.35698,0.00791
1727.86719,0.00981
1726.37740,0.01390
1724.88762,0.00461
1723.39783,0.01631
1721.90804,0.00620
1720.41825,0.01233
1718.92846,0.00767
1717.43867,0.01169
1715.94889,0.01464
1714.45910,0.00962
1712.96931,0.01357
1711.47952,0.01322
1709.98973,0.01268
1708.49994,0.01130
1707.01016,0.01297
1705.52037,0.01466
1704.03058,0.01313
1702.54079,0.01162
1701.05100,0.01749
1699.56121,0.00739
1698.07142,0.01411
1696.58164,0.00896
1695.09185,0.02883
1693.60206,0.02732
1692.11227,0.02390
1690.62248,0.01207
1689.13269,0.02403
1687.64291,0.01851
1686.15312,0.02210
1684.66333,0.03370
1683.17354,0.02588
1681.68375,0.03537
1680.19396,0.02737
1678.70417,0.04620
1677.21439,0.04625
1675.72460,0.04611
1674.23481,0.05118
1672.74502,0.04892
1671.25523,0.04756
1669.76544,0.05572
1668.27566,0.06607
1666.78587,0.06801
1665.29608,0.08230
1663.80629,0.07867
1662.31650,0.08220
1660.82671,0.09288
1659.33693,0.09106
1657.84714,0.08579
1656.35735,0.08379
1654.86756,0.07750
1653.37777,0.07079
1651.88798,0.07751
1650.39819,0.07690
1648.90841,0.08194
1647.41862,0.07641
1645.92883,0.08160
1644.43904,0.08681
1642.94925,0.08805
1641.45946,0.08305
1639.96968,0.07115
1638.47989,0.09062
1636.99010,0.08071
1635.50031,0.07904
1634.01052,0.08561
1632.52073,0.08550
1631.03094,0.08390
1629.54116,0.08168
1628.05137,0.09050
1626.56158,0.07363
1625.07179,0.10541
1623.58200,0.08966
1622.09221,0.08648
1620.60243,0.09088
1619.11264,0.09163
1617.62285,0.08527
1616.13306,0.09061
1614.64327,0.09273
1613.15348,0.07780
1611.66370,0.09488
1610.17391,0.09490
1608.68412,0.09604
1607.19433,0.09027
1605.70454,0.08972
1604.21475,0.08682
1602.72496,0.08394
1601.23518,0.07719
1599.74539,0.08603
1598.25560,0.09468
1596.76581,0.08368
1595.27602,0.07356
1593.78623,0.08466
1592.29645,0.08043
1590.80666,0.06369
1589.31687,0.07355
1587.82708,0.07264
1586.33729,0.07564
1584.84750,0.08276
1583.35771,0.08537
1581.86793,0.06748
1580.37814,0.07770
1578.88835,0.06763
1577.39856,0.07315
1575.90877,0.07091
1574.41898,0.05832
1572.92920,0.05288
1571.43941,0.05676
1569.94962,0.05396
1568.45983,0.05119
1566.97004,0.04736
1565.48025,0.04291
1563.99047,0.03934
1562.50068,0.03688
1561.01089,0.02709
1559.52110,0.03635
1558.03131,0.02639
1556.54152,0.02857
1555.05173,0.02644
1553.56195,0.02563
1552.07216,0.02420
1550.58237,0.01803
1549.09258,0.00714
1547.60279,0.01528
1546.11300,0.02173
1544.62322,0.01825
1543.13343,0.00896
1541.64364,0.02218
1540.15385,0.01749
1538.66406,0.01282
1537.17427,0.02114
1535.68448,0.02538
1534.19470,0.01948
1532.70491,0.01080
1531.21512,0.01684
1529.72533,0.02917
1528.23554,0.02207
1526.74575,0.03747
1525.25597,0.02134
1523.76618,0.01971
1522.27639,0.02351
1520.78660,0.04204
1519.29681,0.04286
1517.80702,0.03679
1516.31724,0.04479
1514.82745,0.05109
1513.33766,0.04455
1511.84787,0.03803
1510.35808,0.05002
1508.86829,0.03350
1507.37850,0.03861
1505.88872,0.03857
1504.39893,0.04395
1502.90914,0.04481
1501.41935,0.05543
1499.92956,0.05850
1498.43977,0.04841
1496.94999,0.05564
1495.46020,0.06743
1493.97041,0.07103
1492.48062,0.08308
1490.99083,0.07873
1489.50104,0.09883
1488.01125,0.10652
1486.52147,0.11424
1485.03168,0.14110
1483.54189,0.15286
1482.05210,0.15060
1480.56231,0.17105
1479.07252,0.18721
1477.58274,0.19150
1476.09295,0.18500
1474.60316,0.18588
1473.11337,0.19824
1471.62358,0.19787
1470.13379,0.21114
1468.64401,0.23373
1467.15422,0.25072
1465.66443,0.25898
1464.17464,0.26726
1462.68485,0.30896
1461.19506,0.33988
1459.70527,0.36261
1458.21549,0.38493
1456.72570,0.42953
1455.23591,0.48064
1453.74612,0.53092
1452.25633,0.57775
1450.76654,0.62526
1449.27676,0.62611
1447.78697,0.60969
1446.29718,0.60582
1444.80739,0.59140
1443.31760,0.57699
1441.82781,0.51938
1440.33802,0.47758
1438.84824,0.44271
1437.35845,0.41651
1435.86866,0.41282
1434.37887,0.44027
1432.88908,0.47812
1431.39929,0.53738
1429.90951,0.60748
1428.41972,0.64065
1426.92993,0.65460
1425.44014,0.69991
1423.95035,0.73779
1422.46056,0.77570
1420.97078,0.77699
1419.48099,0.77939
1417.99120,0.82028
1416.50141,0.79873
1415.01162,0.77267
1413.52183,0.72999
1412.03204,0.70895
1410.54226,0.67150
1409.05247,0.61485
1407.56268,0.57291
1406.07289,0.54634
1404.58310,0.51493
1403.09331,0.48355
1401.60353,0.43479
1400.11374,0.39470
1398.62395,0.33993
1397.13416,0.29924
1395.64437,0.24020
1394.15458,0.20042
1392.66479,0.18898
1391.17501,0.16027
1389.68522,0.13396
1388.19543,0.10551
1386.70564,0.09870
1385.21585,0.09191
1383.72606,0.07326
1382.23628,0.04080
1380.74649,0.04424
1379.25670,0.03798
1377.76691,0.03239
1376.27712,0.02315
1374.78733,0.00896
1373.29755,0.01850
1371.80776,0.01877
1370.31797,0.04089
1368.82818,0.03743
1367.33839,0.03399
1365.84860,0.03262
1364.35881,0.03106
1362.86903,0.03839
1361.37924,0.05266
1359.88945,0.08057
1358.39966,0.09315
1356.90987,0.12240
1355.42008,0.15600
1353.93030,0.21642
1352.44051,0.23720
1350.95072,0.25801
1349.46093,0.33039
1347.97114,0.38637
1346.48135,0.45101
1344.99156,0.49882
1343.50178,0.57065
1342.01199,0.61893
1340.52220,0.63893
1339.03241,0.68208
1337.54262,0.72958
1336.05283,0.75268
1334.56305,0.77579
1333.07326,0.82487
1331.58347,0.85344
1330.09368,0.84940
1328.60389,0.82485
1327.11410,0.78735
1325.62432,0.79332
1324.13453,0.77857
1322.64474,0.75260
1321.15495,0.70612
1319.66516,0.67306
1318.17537,0.64003
1316.68558,0.59556
1315.19580,0.53470
1313.70601,0.50779
1312.21622,0.47442
1310.72643,0.44150
1309.23664,0.43001
1307.74685,0.38741
1306.25707,0.35435
1304.76728,0.33817
1303.27749,0.32202
1301.78770,0.26007
1300.29791,0.22494
1298.80812,0.20172
1297.31834,0.18739
1295.82855,0.16941
1294.33876,0.13567
1292.84897,0.10952
1291.35918,0.09723
1289.86939,0.09328
1288.37960,0.08936
1286.88982,0.09486
1285.40003,0.08612
1283.91024,0.07351
1282.42045,0.06028
1280.93066,0.05809
1279.44087,0.03367
1277.95109,0.04622
1276.46130,0.04519
1274.97151,0.04104
1273.48172,0.03692
1271.99193,0.02926
1270.50214,0.03026
1269.01235,0.03691
1267.52257,0.02305
1266.03278,0.03233
1264.54299,0.03192
1263.05320,0.02656
1261.56341,0.02046
1260.07362,0.01439
1258.58384,0.01277
1257.09405,0.01896
1255.60426,0.00896
1254.11447,0.02472
1252.62468,0.02084
1251.13489,0.02001
1249.64511,0.01899
1248.15532,0.02036
1246.66553,0.02079
1245.17574,0.02124
1243.68595,0.02182
1242.19616,0.02005
1240.70637,0.01355
1239.21659,0.01204
1237.72680,0.01250
1236.23701,0.01969
1234.74722,0.01025
1233.25743,0.00959
1231.76764,0.00896
1230.27786,0.01396
1228.78807,0.01746
1227.29828,0.01494
1225.80849,0.01914
1224.31870,0.01386
1222.82891,0.01638
1221.33912,0.03189
1219.84934,0.02873
1218.35955,0.02560
1216.86976,0.03621
1215.37997,0.06046
1213.89018,0.04972
1212.40039,0.05132
1210.91061,0.05684
1209.42082,0.05655
1207.93103,0.06665
1206.44124,0.07678
1204.95145,0.04651
1203.46166,0.06296
1201.97188,0.05262
1200.48209,0.05333
1198.99230,0.04866
1197.50251,0.04186
1196.01272,0.03918
1194.52293,0.03502
1193.03314,0.03088
1191.54336,0.02265
1190.05357,0.01575
1188.56378,0.02335
1187.07399,0.02362
1185.58420,0.02997
1184.09441,0.02489
1182.60463,0.01691
1181.11484,0.00896
1179.62505,0.02834
1178.13526,0.03066
1176.64547,0.01702
1175.15568,0.00880
1173.66589,0.01881
1172.17611,0.00896
1170.68632,0.01785
1169.19653,0.02676
1167.70674,0.03072
1166.21695,0.03189
1164.72716,0.03201
1163.23738,0.03410
1161.74759,0.03167
1160.25780,0.06017
1158.76801,0.06654
1157.27822,0.07294
1155.78843,0.08595
1154.29865,0.08385
1152.80886,0.11744
1151.31907,0.11475
1149.82928,0.11294
1148.33949,0.11180
1146.84970,0.12279
1145.35991,0.13381
1143.87013,0.13425
1142.38034,0.13840
1140.89055,0.15402
1139.40076,0.17075
1137.91097,0.19809
1136.42118,0.19260
1134.93140,0.19157
1133.44161,0.19056
1131.95182,0.21930
1130.46203,0.21650
1128.97224,0.22647
1127.48245,0.23258
1125.99266,0.23028
1124.50288,0.23169
1123.01309,0.22738
1121.52330,0.22310
1120.03351,0.23257
1118.54372,0.23450
1117.05393,0.21916
1115.56415,0.23821
1114.07436,0.23718
1112.58457,0.23175
1111.09478,0.22633
1109.60499,0.22559
1108.11520,0.24109
1106.62542,0.23542
1105.13563,0.23345
1103.64584,0.20017
1102.15605,0.20841
1100.66626,0.20684
1099.17647,0.20529
1097.68668,0.19393
1096.19690,0.19405
1094.70711,0.18316
1093.21732,0.18182
1091.72753,0.15326
1090.23774,0.16007
1088.74795,0.16689
1087.25817,0.16218
1085.76838,0.17911
1084.27859,0.15996
1082.78880,0.16635
1081.29901,0.15395
1079.80922,0.15757
1078.31943,0.16564
1076.82965,0.17374
1075.33986,0.17808
1073.85007,0.19605
1072.36028,0.18077
1070.87049,0.20096
1069.38070,0.20539
1067.89092,0.21936
1066.40113,0.23335
1064.91134,0.26919
1063.42155,0.34072
1061.93176,0.42113
1060.44197,0.49875
1058.95219,0.58548
1057.46240,0.63635
1055.97261,0.68725
1054.48282,0.78961
1052.99303,0.85114
1051.50324,0.86731
1050.01345,0.86297
1048.52367,0.86601
1047.03388,0.85815
1045.54409,0.85031
1044.05430,0.80003
1042.56451,0.76339
1041.07472,0.73541
1039.58494,0.63722
1038.09515,0.58941
1036.60536,0.55427
1035.11557,0.51915
1033.62578,0.47660
1032.13599,0.40619
1030.64620,0.35504
1029.15642,0.29872
1027.66663,0.27907
1026.17684,0.25943
1024.68705,0.20838
1023.19726,0.18436
1021.70747,0.14653
1020.21769,0.14353
1018.72790,0.14833
1017.23811,0.13575
1015.74832,0.12320
1014.25853,0.10516
1012.76874,0.08779
1011.27896,0.08968
1009.78917,0.07690
1008.29938,0.06522
1006.80959,0.04827
1005.31980,0.03135
1003.83001,0.01542
1002.34022,0.01983
1000.85044,0.02037
999.36065,0.03455
997.87086,0.03363
996.38107,0.03273
994.89128,0.05152
993.40149,0.05694
991.91171,0.07491
990.42192,0.07021
988.93213,0.08521
987.44234,0.08650
985.95255,0.08782
984.46276,0.09921
982.97297,0.09183
981.48319,0.08403
979.99340,0.06048
978.50361,0.06170
977.01382,0.06294
975.52403,0.05005
974.03424,0.02551
972.54446,0.02953
971.05467,0.02319
969.56488,0.01321
968.07509,0.01578
966.58530,0.01838
965.09551,0.00954
963.60573,0.00894
962.11594,0.00896
960.62615,0.02727
959.13636,0.02248
957.64657,0.01771
956.15678,0.03372
954.66699,0.01084
953.17721,0.03749
951.68742,0.05075
950.19763,0.05561
948.70784,0.06050
947.21805,0.07708
945.72826,0.09260
944.23848,0.10857
942.74869,0.10923
941.25890,0.14276
939.76911,0.14681
938.27932,0.15089
936.78953,0.18298
935.29974,0.18548
933.80996,0.19794
932.32017,0.21670
930.83038,0.22295
929.34059,0.22922
927.85080,0.24589
926.36101,0.26020
924.87123,0.28146
923.38144,0.32975
921.89165,0.36585
920.40186,0.40198
918.91207,0.49055
917.42228,0.58238
915.93250,0.70211
914.44271,0.86013
912.95292,0.97894
911.46313,1.09777
909.97334,1.28265
908.48355,1.46367
906.99376,1.70285
905.50398,1.85906
904.01419,1.90745
902.52440,1.95585
901.03461,1.97230
899.54482,2.00000
898.05503,1.88011
896.56525,1.68481
895.07546,1.54833
893.58567,1.41187
892.09588,1.15742
890.60609,0.89371
889.11630,0.67454
887.62651,0.49667
886.13673,0.43478
884.64694,0.37292
883.15715,0.27942
881.66736,0.21447
880.17757,0.14609
878.68778,0.12117
877.19800,0.09627
875.70821,0.06924
874.21842,0.05887
872.72863,0.04615
871.23884,0.02200
869.74905,0.02024
868.25927,0.01851
866.76948,0.01712
865.27969,0.03499
863.78990,0.02673
862.30011,0.03817
860.81032,0.03882
859.32053,0.03949
857.83075,0.05618
856.34096,0.07765
854.85117,0.08164
853.36138,0.09451
851.87159,0.10406
850.38180,0.11363
848.89202,0.12441
847.40223,0.14321
845.91244,0.15491
844.42265,0.16165
842.93286,0.16842
841.44307,0.16614
839.95329,0.17187
838.46350,0.19622
836.97371,0.19033
835.48392,0.19851
833.99413,0.20672
832.50434,0.21819
831.01455,0.20721
829.52477,0.18307
828.03498,0.16370
826.54519,0.15733
825.05540,0.15098
823.56561,0.12304
822.07582,0.12020
820.58604,0.11327
819.09625,0.11134
817.60646,0.10943
816.11667,0.09090
814.62688,0.09336
813.13709,0.08310
811.64730,0.10441
810.15752,0.10143
808.66773,0.09847
807.17794,0.09457
805.68815,0.10560
804.19836,0.09958
802.70857,0.10536
801.21879,0.11117
799.72900,0.11343
798.23921,0.11247
796.74942,0.10355
795.25963,0.11053
793.76984,0.11753
792.28006,0.12099
790.79027,0.11864
789.30048,0.12258
787.81069,0.17626
786.32090,0.18219
784.83111,0.18815
783.34132,0.21899
781.85154,0.23688
780.36175,0.26646
778.87196,0.27759
777.38217,0.28875
775.89238,0.32510
774.40259,0.32236
772.91281,0.30538
771.42302,0.29296
769.93323,0.28057
768.44344,0.25285
766.95365,0.21457
765.46386,0.17458
763.97407,0.14887
762.48429,0.14394
760.99450,0.13904
759.50471,0.11968
758.01492,0.10444
756.52513,0.09139
755.03534,0.07902
753.54556,0.06666
752.05577,0.06730
750.56598,0.06429
749.07619,0.03969
747.58640,0.03608
746.09661,0.03249
744.60683,0.03497
743.11704,0.03143
741.62725,0.02186
740.13746,0.01912
738.64767,0.01640
737.15788,0.01490
735.66809,0.01298
734.17831,0.02017
732.68852,0.01993
731.19873,0.01971
729.70894,0.02459
728.21915,0.00896
726.72936,0.00856
725.23958,0.01634
723.74979,0.01820
722.26000,0.02008
720.77021,0.02533
719.28042,0.02672
717.79063,0.01452
716.30084,0.02125
714.81106,0.02800
713.32127,0.01587
711.83148,0.02883
710.34169,0.02150
708.85190,0.02791
707.36211,0.03435
705.87233,0.04071
704.38254,0.04946
702.89275,0.04203
701.40296,0.04749
699.91317,0.05296
698.42338,0.06289
696.93360,0.06701
695.44381,0.09839
693.95402,0.10288
692.46423,0.10739
690.97444,0.12868
689.48465,0.12384
687.99486,0.15187
686.50508,0.16253
685.01529,0.17321
683.52550,0.19418
682.03571,0.21756
680.54592,0.24765
679.05613,0.24881
677.56635,0.25000
676.07656,0.24969
674.58677,0.23341
673.09698,0.22386
671.60719,0.20709
670.11740,0.19034
668.62761,0.14455
667.13783,0.12385
665.64804,0.11301
664.15825,0.10219
662.66846,0.10274
661.17867,0.07047
659.68888,0.05594
658.19910,0.05559
656.70931,0.05526
655.21952,0.03734
653.72973,0.03696
652.23994,0.04351
650.75015,0.04382
649.26037,0.04415
647.77058,0.03521
646.28079,0.03494
644.79100,0.03297
643.30121,0.02615
641.81142,0.01936
640.32163,0.01249
638.83185,0.01039
637.34206,0.01645
635.85227,0.01269
634.36248,0.00896
632.87269,0.01210
631.38290,0.01829
629.89312,0.01111
628.40333,0.01302
626.91354,0.01496
625.42375,0.01022
623.93396,0.00918
622.44417,0.01421
620.95438,0.01927
619.46460,0.00576
617.97481,0.02168
616.48502,0.04582
614.99523,0.05379
613.50544,0.06177
612.01565,0.07389
610.52587,0.11369
609.03608,0.12996
607.54629,0.15673
606.05650,0.18353
604.56671,0.23661
603.07692,0.27805
601.58714,0.30232
600.09735,0.32662
598.60756,0.34219
597.11777,0.38091
595.62798,0.37707
594.13819,0.36461
592.64840,0.35218
591.15862,0.33285
589.66883,0.28005
588.17904,0.22424
586.68925,0.19277
585.19946,0.16133
583.70967,0.13175
582.21989,0.10154
580.73010,0.08454
579.24031,0.06756
577.75052,0.05493
576.26073,0.04405
574.77094,0.02347
573.28115,0.02409
571.79137,0.02474
570.30158,0.01568
568.81179,0.03215
567.32200,0.03481
565.83221,0.03750
564.34242,0.05664
562.85264,0.06002
561.36285,0.10341
559.87306,0.10078
558.38327,0.09818
556.89348,0.12349
555.40369,0.14363
553.91391,0.14229
552.42412,0.14097
550.93433,0.12358
549.44454,0.11550
547.95475,0.12106
546.46496,0.12513
544.97517,0.12923
543.48539,0.15431
541.99560,0.18115
540.50581,0.19742
539.01602,0.21371
537.52623,0.29400
536.03644,0.33390
534.54666,0.34248
533.05687,0.36751
531.56708,0.39257
530.07729,0.46109
528.58750,0.48792
527.09771,0.49803
525.60792,0.50816
524.11814,0.57396
522.62835,0.61796
521.13856,0.64751
519.64877,0.67729
518.15898,0.70710
516.66919,0.73433
515.17941,0.72507
513.68962,0.74284
512.19983,0.76064
510.71004,0.75274
509.22025,0.67181
507.73046,0.61317
506.24068,0.56319
504.75089,0.51324
503.26110,0.42182
501.77131,0.34165
500.28152,0.29480
498.79173,0.24797
497.30194,0.19014
495.81216,0.13665
494.32237,0.13020
492.83258,0.12377
491.34279,0.08873
489.85300,0.06430
488.36321,0.04422
486.87343,0.03918
485.38364,0.03417
483.89385,0.04571
482.40406,0.06895
480.91427,0.08184
479.42448,0.09475
477.93469,0.11308
476.44491,0.12539
474.95512,0.13178
473.46533,0.13820
471.97554,0.15490
470.48575,0.14958
468.99596,0.13477
467.50618,0.12366
466.01639,0.11258
464.52660,0.08553
463.03681,0.07751
461.54702,0.06780
460.05723,0.05810
458.56745,0.03914
457.07766,0.00896
455.58787,0.00875
454.09808,0.00856
452.60829,0.01693
451.11850,0.00609
449.62871,0.01651
448.13893,0.02695
446.64914,0.00963
445.15935,0.00358
443.66956,0.01641
442.17977,0.01607
440.68998,0.01575
439.20020,0.01719
437.71041,0.02384
436.22062,0.02316
434.73083,0.02251
433.24104,0.02058
431.75125,0.02343
430.26146,0.03495
428.77168,0.04649
427.28189,0.02672
425.79210,0.02837
424.30231,0.02399
422.81252,0.01964
421.32273,0.03281
419.83295,0.02850
418.34316,0.01968
416.85337,0.01088
415.36358,0.02220
413.87379,0.04500
412.38400,0.04157
410.89422,0.03816
409.40443,0.03358
407.91464,0.03810
406.42485,0.02666
404.93506,0.02215
403.44527,0.01767
401.95548,0.02899
400.46570,0.01223
398.97591,0.01701
397.48612,0.02180
395.99633,0.04726
394.50654,0.01483
393.01675,0.01386
391.52697,0.00896
390.03718,0.01945
388.54739,0.03018
387.05760,0.02905
385.56781,0.02794
384.07802,0.04588
382.58824,0.04222
381.09845,0.03610
379.60866,0.03001
378.11887,0.01173
376.62908,0.02135
375.13929,0.02181
373.64950,0.02229
372.15972,0.02291
370.66993,0.04105
369.18014,0.02778
367.69035,0.01452
366.20056,0.03719
364.71077,0.03806
363.22099,0.03722
361.73120,0.03641
360.24141,0.04383
358.75162,0.05603
357.26183,0.04913
355.77204,0.04225
354.28225,0.03636
352.79247,0.02316
351.30268,0.03655
349.81289,0.04998
348.32310,0.06126
346.83331,0.05528
345.34352,0.05451
343.85374,0.05376
342.36395,0.05282
340.87416,0.03980
339.38437,0.03393
337.89458,0.02809
336.40479,0.01795
334.91501,0.03593
333.42522,0.02367
331.93543,0.01144
330.44564,0.00896
328.95585,0.02972
327.46606,0.02727
325.97627,0.02484
324.48649,0.05090
322.99670,0.04954
321.50691,0.06278
320.01712,0.07606
318.52733,0.09378
317.03754,0.09532
315.54776,0.08100
314.05797,0.06670
312.56818,0.05556
311.07839,0.07621
309.58860,0.06825
308.09881,0.06031
306.60902,0.04192
305.11924,0.04105
303.62945,0.03221
302.13966,0.01377
300.64987,0.00896
299.16008,0.00896
