1778.52000,0.00864
1777.03021,0.00969
1775.54042,0.01076
1774.05063,0.01209
1772.56085,0.00326
1771.07106,0.00725
1769.58127,0.00794
1768.09148,0.01079
1766.60169,0.00656
1765.11190,0.01254
1763.62212,0.00669
1762.13233,0.00988
1760.64254,0.00787
1759.15275,0.00163
1757.66296,0.01223
1756.17317,0.01077
1754.68339,0.00105
1753.19360,0.00888
1751.70381,0.00276
1750.21402,0.00163
1748.72423,0.00280
1747.23444,0.00992
1745.74465,0.00474
1744.25487,0.00551
1742.76508,0.01697
1741.27529,0.00831
1739.78550,0.01555
1738.29571,0.00907
1736.80592,0.01565
1735.31614,0.01348
1733.82635,0.01347
1732.33656,0.01136
1730.84677,0.01566
1729.35698,0.01809
1727.86719,0.01392
1726.37740,0.01569
1724.88762,0.00138
1723.39783,0.01104
1721.90804,0.00652
1720.41825,0.01078
1718.92846,0.01649
1717.43867,0.00565
1715.94889,0.01212
1714.45910,0.01127
1712.96931,0.01731
1711.47952,0.01982
1709.98973,0.00934
1708.49994,0.00977
1707.01016,0.01212
1705.52037,0.01449
1704.03058,0.01168
1702.54079,0.01363
1701.05100,0.00163
1699.56121,0.02040
1698.07142,0.02333
1696.58164,0.01349
1695.09185,0.02523
1693.60206,0.01544
1692.11227,0.01610
1690.62248,0.01323
1689.13269,0.03004
1687.64291,0.02082
1686.15312,0.02086
1684.66333,0.02069
1683.17354,0.03594
1681.68375,0.03273
1680.19396,0.02601
1678.70417,0.02451
1677.21439,0.03891
1675.72460,0.04764
1674.23481,0.04054
1672.74502,0.04293
1671.25523,0.04748
1669.76544,0.05607
1668.27566,0.06872
1666.78587,0.06979
1665.29608,0.06401
1663.80629,0.07507
1662.31650,0.08426
1660.82671,0.08614
1659.33693,0.08685
1657.84714,0.07859
1656.35735,0.08196
1654.86756,0.08346
1653.37777,0.07242
1651.88798,0.08084
1650.39819,0.08241
1648.90841,0.07950
1647.41862,0.08633
1645.92883,0.08762
1644.43904,0.08893
1642.94925,0.09014
1641.45946,0.07883
1639.96968,0.07678
1638.47989,0.10531
1636.99010,0.08554
1635.50031,0.09422
1634.01052,0.09558
1632.52073,0.08536
1631.03094,0.08606
1629.54116,0.08868
1628.05137,0.10198
1626.56158,0.10749
1625.07179,0.12889
1623.58200,0.11219
1622.09221,0.11374
1620.60243,0.09945
1619.11264,0.09087
1617.62285,0.10434
1616.13306,0.09747
1614.64327,0.08494
1613.15348,0.09848
1611.66370,0.10044
1610.17391,0.09082
1608.68412,0.10064
1607.19433,0.10599
1605.70454,0.10095
1604.21475,0.10090
1602.72496,0.10087
1601.23518,0.10087
1599.74539,0.10468
1598.25560,0.11089
1596.76581,0.10433
1595.27602,0.10348
1593.78623,0.09223
1592.29645,0.09450
1590.80666,0.09515
1589.31687,0.09463
1587.82708,0.09863
1586.33729,0.10006
1584.84750,0.11264
1583.35771,0.10535
1581.86793,0.09193
1580.37814,0.09866
1578.88835,0.08244
1577.39856,0.08567
1575.90877,0.08110
1574.41898,0.06070
1572.92920,0.05429
1571.43941,0.05027
1569.94962,0.05125
1568.45983,0.05225
1566.97004,0.04523
1565.48025,0.05505
1563.99047,0.04144
1562.50068,0.02833
1561.01089,0.03277
1559.52110,0.04197
1558.03131,0.03936
1556.54152,0.02800
1555.05173,0.02046
1553.56195,0.00797
1552.07216,0.01279
1550.58237,0.01930
1549.09258,0.02488
1547.60279,0.00444
1546.11300,0.00604
1544.62322,0.01454
1543.13343,0.00245
1541.64364,0.01029
1540.15385,0.00595
1538.66406,0.00163
1537.17427,0.02821
1535.68448,0.02259
1534.19470,0.02079
1532.70491,0.02518
1531.21512,0.02295
1529.72533,0.02928
1528.23554,0.01218
1526.74575,0.03016
1525.25597,0.02898
1523.76618,0.02688
1522.27639,0.03356
1520.78660,0.03577
1519.29681,0.05363
1517.80702,0.05707
1516.31724,0.07167
1514.82745,0.05574
1513.33766,0.05381
1511.84787,0.05190
1510.35808,0.06327
1508.86829,0.05052
1507.37850,0.05957
1505.88872,0.06155
1504.39893,0.07871
1502.90914,0.07268
1501.41935,0.07189
1499.92956,0.06685
1498.43977,0.07914
1496.94999,0.09215
1495.46020,0.09240
1493.97041,0.10452
1492.48062,0.12258
1490.99083,0.13285
1489.50104,0.14528
1488.01125,0.15275
1486.52147,0.16025
1485.03168,0.17773
1483.54189,0.19641
1482.05210,0.21061
1480.56231,0.21702
1479.07252,0.22773
1477.58274,0.23916
1476.09295,0.25607
1474.60316,0.24837
1473.11337,0.24566
1471.62358,0.27614
1470.13379,0.28533
1468.64401,0.32367
1467.15422,0.33694
1465.66443,0.34608
1464.17464,0.35524
1462.68485,0.38776
1461.19506,0.41059
1459.70527,0.45169
1458.21549,0.50843
1456.72570,0.55810
1455.23591,0.65445
1453.74612,0.68143
1452.25633,0.73235
1450.76654,0.76720
1449.27676,0.79591
1447.78697,0.74625
1446.29718,0.73806
1444.80739,0.71651
1443.31760,0.69499
1441.82781,0.64970
1440.33802,0.58074
1438.84824,0.55467
1437.35845,0.54900
1435.86866,0.52535
1434.37887,0.55714
1432.88908,0.59985
1431.39929,0.67906
1429.90951,0.74479
1428.41972,0.78995
1426.92993,0.81144
1425.44014,0.85475
1423.95035,0.87191
1422.46056,0.88909
1420.97078,0.92158
1419.48099,0.99861
1417.99120,0.95394
1416.50141,0.92136
1415.01162,0.88266
1413.52183,0.83356
1412.03204,0.78803
1410.54226,0.74324
1409.05247,0.71031
1407.56268,0.68026
1406.07289,0.61067
1404.58310,0.56005
1403.09331,0.50946
1401.60353,0.47477
1400.11374,0.39249
1398.62395,0.35547
1397.13416,0.32795
1395.64437,0.24148
1394.15458,0.21329
1392.66479,0.16050
1391.17501,0.16055
1389.68522,0.12913
1388.19543,0.10317
1386.70564,0.08979
1385.21585,0.07644
1383.72606,0.06784
1382.23628,0.05312
1380.74649,0.03368
1379.25670,0.02895
1377.76691,0.02234
1376.27712,0.01032
1374.78733,0.00163
1373.29755,0.00339
1371.80776,0.02578
1370.31797,0.02214
1368.82818,0.02149
1367.33839,0.02086
1365.84860,0.02061
1364.35881,0.03056
1362.86903,0.05475
1361.37924,0.06476
1359.88945,0.08853
1358.39966,0.10876
1356.90987,0.14324
1355.42008,0.18413
1353.93030,0.23404
1352.44051,0.26645
1350.95072,0.29889
1349.46093,0.37138
1347.97114,0.45526
1346.48135,0.55005
1344.99156,0.60201
1343.50178,0.65872
1342.01199,0.73701
1340.52220,0.76678
1339.03241,0.81599
1337.54262,0.87422
1336.05283,0.88132
1334.56305,0.88845
1333.07326,0.94367
1331.58347,0.91437
1330.09368,0.89576
1328.60389,0.87053
1327.11410,0.82875
1325.62432,0.79955
1324.13453,0.79406
1322.64474,0.77201
1321.15495,0.74406
1319.66516,0.72171
1318.17537,0.69937
1316.68558,0.64829
1315.19580,0.58326
1313.70601,0.57912
1312.21622,0.54469
1310.72643,0.49086
1309.23664,0.46500
1307.74685,0.41975
1306.25707,0.38233
1304.76728,0.35856
1303.27749,0.33481
1301.78770,0.30552
1300.29791,0.25565
1298.80812,0.25057
1297.31834,0.18630
1295.82855,0.16800
1294.33876,0.12013
1292.84897,0.11182
1291.35918,0.11018
1289.86939,0.10393
1288.37960,0.09772
1286.88982,0.09993
1285.40003,0.08701
1283.91024,0.08667
1282.42045,0.04988
1280.93066,0.05432
1279.44087,0.04647
1277.95109,0.03747
1276.46130,0.04814
1274.97151,0.04924
1273.48172,0.05037
1271.99193,0.03601
1270.50214,0.03897
1269.01235,0.02987
1267.52257,0.03477
1266.03278,0.02714
1264.54299,0.02308
1263.05320,0.01218
1261.56341,0.01220
1260.07362,0.01225
1258.58384,0.00379
1257.09405,0.00744
1255.60426,0.00163
1254.11447,0.01350
1252.62468,0.00219
1251.13489,0.02693
1249.64511,0.01618
1248.15532,0.02321
1246.66553,0.01629
1245.17574,0.00940
1243.68595,0.01413
1242.19616,0.01273
1240.70637,0.00331
1239.21659,0.00717
1237.72680,0.01129
1236.23701,0.00502
1234.74722,0.01132
1233.25743,0.01776
1231.76764,0.02423
1230.27786,0.01545
1228.78807,0.00953
1227.29828,0.01974
1225.80849,0.00369
1224.31870,0.00163
1222.82891,0.00394
1221.33912,0.02213
1219.84934,0.03621
1218.35955,0.05031
1216.86976,0.03281
1215.37997,0.05229
1213.89018,0.06374
1212.40039,0.06029
1210.91061,0.08031
1209.42082,0.08899
1207.93103,0.08491
1206.44124,0.08085
1204.95145,0.07657
1203.46166,0.06427
1201.97188,0.06336
1200.48209,0.06247
1198.99230,0.03390
1197.50251,0.03804
1196.01272,0.02822
1194.52293,0.03122
1193.03314,0.03425
1191.54336,0.02735
1190.05357,0.01361
1188.56378,0.02191
1187.07399,0.02953
1185.58420,0.01207
1184.09441,0.02377
1182.60463,0.02554
1181.11484,0.02734
1179.62505,0.00998
1178.13526,0.01466
1176.64547,0.00966
1175.15568,0.00635
1173.66589,0.00163
1172.17611,0.00969
1170.68632,0.01031
1169.19653,0.01095
1167.70674,0.02334
1166.21695,0.01562
1164.72716,0.00462
1163.23738,0.02324
1161.74759,0.05822
1160.25780,0.07642
1158.76801,0.07510
1157.27822,0.07380
1155.78843,0.07668
1154.29865,0.09947
1152.80886,0.09481
1151.31907,0.09871
1149.82928,0.09812
1148.33949,0.10822
1146.84970,0.11776
1145.35991,0.12731
1143.87013,0.14696
1142.38034,0.15952
1140.89055,0.18987
1139.40076,0.19822
1137.91097,0.20778
1136.42118,0.19913
1134.93140,0.21312
1133.44161,0.22713
1131.95182,0.25312
1130.46203,0.27038
1128.97224,0.26422
1127.48245,0.25950
1125.99266,0.26949
1124.50288,0.25842
1123.01309,0.26727
1121.52330,0.27615
1120.03351,0.26350
1118.54372,0.24424
1117.05393,0.25651
1115.56415,0.26169
1114.07436,0.26216
1112.58457,0.25650
1111.09478,0.25086
1109.60499,0.26372
1108.11520,0.29413
1106.62542,0.27767
1105.13563,0.26455
1103.64584,0.24341
1102.15605,0.23389
1100.66626,0.23233
1099.17647,0.23079
1097.68668,0.22987
1096.19690,0.22542
1094.70711,0.21697
1093.21732,0.20712
1091.72753,0.19517
1090.23774,0.19780
1088.74795,0.20046
1087.25817,0.20516
1085.76838,0.18359
1084.27859,0.19094
1082.78880,0.20968
1081.29901,0.21116
1079.80922,0.21385
1078.31943,0.21798
1076.82965,0.22213
1075.33986,0.23507
1073.85007,0.25230
1072.36028,0.26624
1070.87049,0.28518
1069.38070,0.30816
1067.89092,0.32241
1066.40113,0.33668
1064.91134,0.42439
1063.42155,0.50005
1061.93176,0.59445
1060.44197,0.68626
1058.95219,0.77478
1057.46240,0.81927
1055.97261,0.86379
1054.48282,0.91876
1052.99303,0.96569
1051.50324,0.98494
1050.01345,0.98811
1048.52367,0.97543
1047.03388,0.96432
1045.54409,0.95324
1044.05430,0.90653
1042.56451,0.86316
1041.07472,0.77293
1039.58494,0.70001
1038.09515,0.62735
1036.60536,0.59059
1035.11557,0.55386
1033.62578,0.47558
1032.13599,0.43475
1030.64620,0.39845
1029.15642,0.33612
1027.66663,0.29595
1026.17684,0.25581
1024.68705,0.23263
1023.19726,0.20189
1021.70747,0.17189
1020.21769,0.16773
1018.72790,0.16241
1017.23811,0.14680
1015.74832,0.13123
1014.25853,0.11887
1012.76874,0.10867
1011.27896,0.10608
1009.78917,0.10634
1008.29938,0.08224
1006.80959,0.06954
1005.31980,0.05685
1003.83001,0.04372
1002.34022,0.02848
1000.85044,0.03481
999.36065,0.05325
997.87086,0.05395
996.38107,0.05467
994.89128,0.05874
993.40149,0.09053
991.91171,0.09583
990.42192,0.10636
988.93213,0.11336
987.44234,0.11838
985.95255,0.12341
984.46276,0.13665
982.97297,0.11035
981.48319,0.09024
979.99340,0.07489
978.50361,0.06240
977.01382,0.04994
975.52403,0.05337
974.03424,0.02651
972.54446,0.02715
971.05467,0.02638
969.56488,0.03015
968.07509,0.02399
966.58530,0.01786
965.09551,0.01364
963.60573,0.00163
962.11594,0.00482
960.62615,0.00353
959.13636,0.00641
957.64657,0.00931
956.15678,0.00928
954.66699,0.02514
953.17721,0.02255
951.68742,0.02330
950.19763,0.02324
948.70784,0.02321
947.21805,0.04914
945.72826,0.06490
944.23848,0.08638
942.74869,0.09651
941.25890,0.13224
939.76911,0.13283
938.27932,0.13344
936.78953,0.15362
935.29974,0.16387
933.80996,0.18717
932.32017,0.18587
930.83038,0.20436
929.34059,0.22288
927.85080,0.26120
926.36101,0.26071
924.87123,0.29860
923.38144,0.32231
921.89165,0.36203
920.40186,0.40177
918.91207,0.49281
917.42228,0.58885
915.93250,0.73276
914.44271,0.95602
912.95292,1.04870
911.46313,1.14140
909.97334,1.36593
908.48355,1.55685
906.99376,1.80037
905.50398,1.95012
904.01419,1.97107
902.52440,1.99203
901.03461,2.00000
899.54482,1.98312
898.05503,1.91156
896.56525,1.64298
895.07546,1.51391
893.58567,1.38487
892.09588,1.07563
890.60609,0.86209
889.11630,0.66088
887.62651,0.48884
886.13673,0.42386
884.64694,0.35891
883.15715,0.26628
881.66736,0.19735
880.17757,0.12561
878.68778,0.09663
877.19800,0.06769
875.70821,0.05498
874.21842,0.03023
872.72863,0.03321
871.23884,0.00163
869.74905,0.00811
868.25927,0.01461
866.76948,0.02919
865.27969,0.03338
863.78990,0.00727
862.30011,0.02808
860.81032,0.04003
859.32053,0.05201
857.83075,0.05726
856.34096,0.09830
854.85117,0.09531
853.36138,0.12314
851.87159,0.13097
850.38180,0.13883
848.89202,0.14186
847.40223,0.16457
845.91244,0.19180
844.42265,0.19928
842.93286,0.20679
841.44307,0.23149
839.95329,0.24390
838.46350,0.23478
836.97371,0.25127
835.48392,0.25475
833.99413,0.25826
832.50434,0.25540
831.01455,0.25682
829.52477,0.24856
828.03498,0.20503
826.54519,0.19208
825.05540,0.17915
823.56561,0.16412
822.07582,0.14745
820.58604,0.12607
819.09625,0.12662
817.60646,0.12720
816.11667,0.10352
814.62688,0.09835
813.13709,0.11522
811.64730,0.16480
810.15752,0.14986
808.66773,0.13495
807.17794,0.13084
805.68815,0.14215
804.19836,0.14543
802.70857,0.15501
801.21879,0.16461
799.72900,0.15991
798.23921,0.13961
796.74942,0.13259
795.25963,0.12500
793.76984,0.11744
792.28006,0.12944
790.79027,0.15970
789.30048,0.20064
787.81069,0.22644
786.32090,0.23925
784.83111,0.25208
783.34132,0.26375
781.85154,0.30316
780.36175,0.35490
778.87196,0.36167
777.38217,0.36847
775.89238,0.41341
774.40259,0.41528
772.91281,0.40107
771.42302,0.38475
769.93323,0.36846
768.44344,0.34413
766.95365,0.27720
765.46386,0.25340
763.97407,0.21068
762.48429,0.21191
760.99450,0.21317
759.50471,0.15607
758.01492,0.11250
756.52513,0.10116
755.03534,0.09446
753.54556,0.08778
752.05577,0.08457
750.56598,0.06196
749.07619,0.05832
747.58640,0.04819
746.09661,0.03808
744.60683,0.02906
743.11704,0.02268
741.62725,0.00163
740.13746,0.00543
738.64767,0.00925
737.15788,0.00102
735.66809,0.00570
734.17831,0.01158
732.68852,0.00588
731.19873,0.00021
729.70894,0.00390
728.21915,0.00879
726.72936,0.00163
725.23958,0.00906
723.74979,0.01083
722.26000,0.01263
720.77021,0.00000
719.28042,0.00680
717.79063,0.00156
716.30084,0.01622
714.81106,0.03092
713.32127,0.01295
711.83148,0.03361
710.34169,0.02351
708.85190,0.02599
707.36211,0.02848
705.87233,0.03267
704.38254,0.04019
702.89275,0.03281
701.40296,0.03055
699.91317,0.02831
698.42338,0.04990
696.93360,0.06536
695.44381,0.10310
693.95402,0.11624
692.46423,0.12940
690.97444,0.13193
689.48465,0.13945
687.99486,0.16429
686.50508,0.17791
685.01529,0.19154
683.52550,0.23398
682.03571,0.25110
680.54592,0.27440
679.05613,0.26421
677.56635,0.25405
676.07656,0.24901
674.58677,0.23214
673.09698,0.21459
671.60719,0.20441
670.11740,0.19425
668.62761,0.17961
667.13783,0.15766
665.64804,0.14603
664.15825,0.13443
662.66846,0.10308
661.17867,0.08382
659.68888,0.06104
658.19910,0.05629
656.70931,0.05156
655.21952,0.04093
653.72973,0.04288
652.23994,0.05361
650.75015,0.04578
649.26037,0.03797
647.77058,0.04309
646.28079,0.04658
644.79100,0.02523
643.30121,0.02865
641.81142,0.03209
640.32163,0.00607
638.83185,0.01679
637.34206,0.02516
635.85227,0.02728
634.36248,0.02942
632.87269,0.00163
631.38290,0.01579
629.89312,0.02903
628.40333,0.02097
626.91354,0.01294
625.42375,0.01654
623.93396,0.01092
622.44417,0.02061
620.95438,0.03032
619.46460,0.01317
617.97481,0.03229
616.48502,0.04077
614.99523,0.04939
613.50544,0.05803
612.01565,0.10543
610.52587,0.13958
609.03608,0.16263
607.54629,0.20263
606.05650,0.24266
604.56671,0.27668
603.07692,0.35264
601.58714,0.36065
600.09735,0.36868
598.60756,0.40824
597.11777,0.46274
595.62798,0.44267
594.13819,0.42167
592.64840,0.40069
591.15862,0.38566
589.66883,0.32827
588.17904,0.22637
586.68925,0.19874
585.19946,0.17114
583.70967,0.15196
582.21989,0.12997
580.73010,0.11251
579.24031,0.09507
577.75052,0.07718
576.26073,0.05955
574.77094,0.04691
573.28115,0.03217
571.79137,0.01746
570.30158,0.02692
568.81179,0.04210
567.32200,0.04735
565.83221,0.05263
564.34242,0.09937
562.85264,0.12909
561.36285,0.12970
559.87306,0.14774
558.38327,0.16581
556.89348,0.18520
555.40369,0.18520
553.91391,0.17812
552.42412,0.17106
550.93433,0.17752
549.44454,0.17477
547.95475,0.16376
546.46496,0.17196
544.97517,0.18018
543.48539,0.19718
541.99560,0.23861
540.50581,0.26466
539.01602,0.29074
537.52623,0.33579
536.03644,0.37991
534.54666,0.38996
533.05687,0.40938
531.56708,0.42883
530.07729,0.49129
528.58750,0.55070
527.09771,0.55459
525.60792,0.55850
524.11814,0.61443
522.62835,0.69738
521.13856,0.73416
519.64877,0.77252
518.15898,0.81089
516.66919,0.84065
515.17941,0.89388
513.68962,0.88816
512.19983,0.88246
510.71004,0.82634
509.22025,0.76125
507.73046,0.67013
506.24068,0.60734
504.75089,0.54456
503.26110,0.44499
501.77131,0.34994
500.28152,0.30678
498.79173,0.26365
497.30194,0.19661
495.81216,0.16655
494.32237,0.14954
492.83258,0.13256
491.34279,0.11062
489.85300,0.07142
488.36321,0.06777
486.87343,0.06592
485.38364,0.06409
483.89385,0.06809
482.40406,0.09438
480.91427,0.11157
479.42448,0.12879
477.93469,0.14165
476.44491,0.14908
474.95512,0.15038
473.46533,0.15171
471.97554,0.18480
470.48575,0.17125
468.99596,0.16957
467.50618,0.17194
466.01639,0.17434
464.52660,0.14431
463.03681,0.10555
461.54702,0.09085
460.05723,0.07617
458.56745,0.03653
457.07766,0.03196
455.58787,0.02943
454.09808,0.02693
452.60829,0.01344
451.11850,0.01750
449.62871,0.01838
448.13893,0.01929
446.64914,0.00163
445.15935,0.00371
443.66956,0.00794
442.17977,0.01361
440.68998,0.01931
439.20020,0.02669
437.71041,0.01965
436.22062,0.02660
434.73083,0.03358
433.24104,0.04438
431.75125,0.04714
430.26146,0.04792
428.77168,0.04872
427.28189,0.02882
425.79210,0.02742
424.30231,0.02545
422.81252,0.02350
421.32273,0.03923
419.83295,0.04266
418.34316,0.02326
416.85337,0.00389
415.36358,0.01355
413.87379,0.00571
412.38400,0.01295
410.89422,0.02022
409.40443,0.01792
407.91464,0.03174
406.42485,0.03944
404.93506,0.04064
403.44527,0.04187
401.95548,0.03400
400.46570,0.01645
398.97591,0.02036
397.48612,0.02429
395.99633,0.03168
394.50654,0.01636
393.01675,0.02178
391.52697,0.02302
390.03718,0.04620
388.54739,0.04642
387.05760,0.03874
385.56781,0.03108
384.07802,0.01812
382.58824,0.00944
381.09845,0.00552
379.60866,0.00163
378.11887,0.01250
376.62908,0.01888
375.13929,0.01795
373.64950,0.01705
372.15972,0.00456
370.66993,0.03236
369.18014,0.02864
367.69035,0.02496
366.20056,0.03574
364.71077,0.02689
363.22099,0.04127
361.73120,0.05568
360.24141,0.05969
358.75162,0.07675
357.26183,0.06482
355.77204,0.05292
354.28225,0.06105
352.79247,0.05145
351.30268,0.05407
349.81289,0.05671
348.32310,0.09691
346.83331,0.09545
345.34352,0.08632
343.85374,0.07722
342.36395,0.08578
340.87416,0.05648
339.38437,0.04413
337.89458,0.03181
336.40479,0.04656
334.91501,0.05021
333.42522,0.02961
331.93543,0.00903
330.44564,0.05443
328.95585,0.05013
327.46606,0.04999
325.97627,0.04987
324.48649,0.07003
322.99670,0.05540
321.50691,0.07940
320.01712,0.10342
318.52733,0.10520
317.03754,0.10393
315.54776,0.09036
314.05797,0.07683
312.56818,0.06331
311.07839,0.06285
309.58860,0.06738
308.09881,0.07193
306.60902,0.03673
305.11924,0.03612
303.62945,0.04182
302.13966,0.03065
300.64987,0.00163
299.16008,0.00163
