1778.52000,0.00731
1777.03021,0.00341
1775.54042,0.00838
1774.05063,0.00843
1772.56085,0.01188
1771.07106,0.00313
1769.58127,0.01470
1768.09148,0.00314
1766.60169,0.01319
1765.11190,0.00922
1763.62212,0.01673
1762.13233,0.01775
1760.64254,0.01801
1759.15275,0.01726
1757.66296,0.01497
1756.17317,0.01609
1754.68339,0.01671
1753.19360,0.01736
1751.70381,0.02193
1750.21402,0.01169
1748.72423,0.01522
1747.23444,0.02111
1745.74465,0.02364
1744.25487,0.02151
1742.76508,0.01550
1741.27529,0.02148
1739.78550,0.02047
1738.29571,0.01505
1736.80592,0.01330
1735.31614,0.02231
1733.82635,0.01964
1732.33656,0.01569
1730.84677,0.01176
1729.35698,0.00811
1727.86719,0.02219
1726.37740,0.01599
1724.88762,0.01398
1723.39783,0.01252
1721.90804,0.01082
1720.41825,0.01356
1718.92846,0.00593
1717.43867,0.00950
1715.94889,0.00477
1714.45910,0.01295
1712.96931,0.00918
1711.47952,0.01142
1709.98973,0.00718
1708.49994,0.01779
1707.01016,0.01789
1705.52037,0.01802
1704.03058,0.00945
1702.54079,0.00584
1701.05100,0.01450
1699.56121,0.00314
1698.07142,0.00947
1696.58164,0.01738
1695.09185,0.02142
1693.60206,0.01585
1692.11227,0.01837
1690.62248,0.01936
1689.13269,0.01672
1687.64291,0.02010
1686.15312,0.03182
1684.66333,0.02588
1683.17354,0.03089
1681.68375,0.02265
1680.19396,0.02224
1678.70417,0.04137
1677.21439,0.04414
1675.72460,0.05759
1674.23481,0.04479
1672.74502,0.05179
1671.25523,0.05361
1669.76544,0.05180
1668.27566,0.05705
1666.78587,0.06051
1665.29608,0.07387
1663.80629,0.08570
1662.31650,0.08610
1660.82671,0.08158
1659.33693,0.08984
1657.84714,0.07652
1656.35735,0.08040
1654.86756,0.08196
1653.37777,0.07236
1651.88798,0.06824
1650.39819,0.08471
1648.90841,0.07492
1647.41862,0.07504
1645.92883,0.07558
1644.43904,0.07614
1642.94925,0.08153
1641.45946,0.07733
1639.96968,0.09032
1638.47989,0.10984
1636.99010,0.09530
1635.50031,0.08573
1634.01052,0.07331
1632.52073,0.08096
1631.03094,0.08213
1629.54116,0.09295
1628.05137,0.09000
1626.56158,0.08447
1625.07179,0.10968
1623.58200,0.10316
1622.09221,0.09926
1620.60243,0.08733
1619.11264,0.09103
1617.62285,0.09735
1616.13306,0.09434
1614.64327,0.08484
1613.15348,0.09098
1611.66370,0.09116
1610.17391,0.10255
1608.68412,0.10356
1607.19433,0.11214
1605.70454,0.10512
1604.21475,0.09892
1602.72496,0.09273
1601.23518,0.08814
1599.74539,0.07680
1598.25560,0.08786
1596.76581,0.11092
1595.27602,0.09965
1593.78623,0.10611
1592.29645,0.08994
1590.80666,0.08629
1589.31687,0.08761
1587.82708,0.08427
1586.33729,0.06951
1584.84750,0.08599
1583.35771,0.08767
1581.86793,0.09770
1580.37814,0.08407
1578.88835,0.09623
1577.39856,0.09592
1575.90877,0.09199
1574.41898,0.05738
1572.92920,0.05766
1571.43941,0.04001
1569.94962,0.04008
1568.45983,0.04018
1566.97004,0.04967
1565.48025,0.04148
1563.99047,0.06117
1562.50068,0.05355
1561.01089,0.04544
1559.52110,0.03918
1558.03131,0.05063
1556.54152,0.03713
1555.05173,0.04733
1553.56195,0.03647
1552.07216,0.02512
1550.58237,0.02421
1549.09258,0.00354
1547.60279,0.00969
1546.11300,-0.00000
1544.62322,0.00807
1543.13343,0.00524
1541.64364,0.01102
1540.15385,0.00707
1538.66406,0.00314
1537.17427,0.00735
1535.68448,0.01054
1534.19470,0.01350
1532.70491,0.01831
1531.21512,0.00700
1529.72533,0.00483
1528.23554,0.00919
1526.74575,0.01565
1525.25597,0.00314
1523.76618,0.01868
1522.27639,0.02539
1520.78660,0.02823
1519.29681,0.03577
1517.80702,0.04438
1516.31724,0.05978
1514.82745,0.06245
1513.33766,0.06294
1511.84787,0.06344
1510.35808,0.06333
1508.86829,0.04502
1507.37850,0.04963
1505.88872,0.04412
1504.39893,0.05112
1502.90914,0.05711
1501.41935,0.06833
1499.92956,0.07410
1498.43977,0.06012
1496.94999,0.08078
1495.46020,0.10380
1493.97041,0.12268
1492.48062,0.12832
1490.99083,0.12487
1489.50104,0.11416
1488.01125,0.12676
1486.52147,0.13939
1485.03168,0.17013
1483.54189,0.18111
1482.05210,0.21450
1480.56231,0.22085
1479.07252,0.23191
1477.58274,0.23050
1476.09295,0.22833
1474.60316,0.24362
1473.11337,0.26362
1471.62358,0.26127
1470.13379,0.26232
1468.64401,0.29358
1467.15422,0.31368
1465.66443,0.32001
1464.17464,0.32636
1462.68485,0.37672
1461.19506,0.42476
1459.70527,0.45564
1458.21549,0.51492
1456.72570,0.56823
1455.23591,0.60518
1453.74612,0.65386
1452.25633,0.71141
1450.76654,0.75233
1449.27676,0.75892
1447.78697,0.74706
1446.29718,0.72664
1444.80739,0.70741
1443.31760,0.68821
1441.82781,0.61945
1440.33802,0.57753
1438.84824,0.56399
1437.35845,0.53018
1435.86866,0.52840
1434.37887,0.53055
1432.88908,0.61262
1431.39929,0.67051
1429.90951,0.75679
1428.41972,0.83918
1426.92993,0.84666
1425.44014,0.88669
1423.95035,0.92140
1422.46056,0.95615
1420.97078,0.97725
1419.48099,0.98120
1417.99120,0.99377
1416.50141,0.94754
1415.01162,0.90316
1413.52183,0.87260
1412.03204,0.81655
1410.54226,0.76574
1409.05247,0.70949
1407.56268,0.62203
1406.07289,0.59315
1404.58310,0.56819
1403.09331,0.54326
1401.60353,0.49806
1400.11374,0.45938
1398.62395,0.37233
1397.13416,0.33370
1395.64437,0.24956
1394.15458,0.22504
1392.66479,0.17920
1391.17501,0.14691
1389.68522,0.14380
1388.19543,0.10974
1386.70564,0.09796
1385.21585,0.08620
1383.72606,0.07173
1382.23628,0.04922
1380.74649,0.03480
1379.25670,0.02873
1377.76691,0.03127
1376.27712,0.02161
1374.78733,0.01249
1373.29755,0.00314
1371.80776,0.01430
1370.31797,0.03226
1368.82818,0.03085
1367.33839,0.02947
1365.84860,0.03162
1364.35881,0.05202
1362.86903,0.07035
1361.37924,0.08845
1359.88945,0.09643
1358.39966,0.10417
1356.90987,0.13744
1355.42008,0.18842
1353.93030,0.24360
1352.44051,0.28188
1350.95072,0.32019
1349.46093,0.41499
1347.97114,0.49758
1346.48135,0.58125
1344.99156,0.65608
1343.50178,0.69087
1342.01199,0.75612
1340.52220,0.83598
1339.03241,0.83466
1337.54262,0.84846
1336.05283,0.86801
1334.56305,0.88759
1333.07326,0.96366
1331.58347,0.96272
1330.09368,0.92043
1328.60389,0.88545
1327.11410,0.85857
1325.62432,0.81817
1324.13453,0.80721
1322.64474,0.79288
1321.15495,0.77364
1319.66516,0.74036
1318.17537,0.70712
1316.68558,0.65854
1315.19580,0.57745
1313.70601,0.55963
1312.21622,0.53064
1310.72643,0.48164
1309.23664,0.45530
1307.74685,0.42925
1306.25707,0.40062
1304.76728,0.36277
1303.27749,0.32495
1301.78770,0.28546
1300.29791,0.24469
1298.80812,0.21514
1297.31834,0.19212
1295.82855,0.19722
1294.33876,0.13391
1292.84897,0.11070
1291.35918,0.10833
1289.86939,0.09922
1288.37960,0.09014
1286.88982,0.10944
1285.40003,0.07906
1283.91024,0.07525
1282.42045,0.06652
1280.93066,0.05053
1279.44087,0.05694
1277.95109,0.02799
1276.46130,0.02820
1274.97151,0.03469
1273.48172,0.04120
1271.99193,0.03342
1270.50214,0.03139
1269.01235,0.02704
1267.52257,0.02531
1266.03278,0.02570
1264.54299,0.03157
1263.05320,0.02706
1261.56341,0.02101
1260.07362,0.01498
1258.58384,0.00690
1257.09405,0.01341
1255.60426,0.00667
1254.11447,0.00231
1252.62468,0.00577
1251.13489,0.01498
1249.64511,0.00314
1248.15532,0.01598
1246.66553,0.01662
1245.17574,0.01729
1243.68595,0.01433
1242.19616,0.01505
1240.70637,0.01943
1239.21659,0.02435
1237.72680,0.00198
1236.23701,0.00357
1234.74722,0.01949
1233.25743,0.02113
1231.76764,0.02279
1230.27786,0.01901
1228.78807,0.00355
1227.29828,0.00320
1225.80849,0.00314
1224.31870,0.00392
1222.82891,0.00396
1221.33912,0.00869
1219.84934,0.02582
1218.35955,0.04297
1216.86976,0.05923
1215.37997,0.05782
1213.89018,0.05955
1212.40039,0.05247
1210.91061,0.06935
1209.42082,0.05944
1207.93103,0.05841
1206.44124,0.05741
1204.95145,0.05408
1203.46166,0.05833
1201.97188,0.04881
1200.48209,0.04712
1198.99230,0.04285
1197.50251,0.05006
1196.01272,0.03933
1194.52293,0.03553
1193.03314,0.03174
1191.54336,0.03592
1190.05357,0.02503
1188.56378,0.02119
1187.07399,0.03091
1185.58420,0.02243
1184.09441,0.00852
1182.60463,0.00582
1181.11484,0.00314
1179.62505,0.02852
1178.13526,0.02087
1176.64547,0.01923
1175.15568,0.02569
1173.66589,0.00380
1172.17611,0.00301
1170.68632,0.00306
1169.19653,0.00314
1167.70674,0.01545
1166.21695,0.02857
1164.72716,0.02923
1163.23738,0.02522
1161.74759,0.05585
1160.25780,0.05319
1158.76801,0.05368
1157.27822,0.05419
1155.78843,0.05655
1154.29865,0.06778
1152.80886,0.07800
1151.31907,0.10671
1149.82928,0.10422
1148.33949,0.12570
1146.84970,0.12157
1145.35991,0.11746
1143.87013,0.13120
1142.38034,0.16058
1140.89055,0.13846
1139.40076,0.15956
1137.91097,0.18563
1136.42118,0.19923
1134.93140,0.19984
1133.44161,0.20048
1131.95182,0.23029
1130.46203,0.24061
1128.97224,0.21998
1127.48245,0.20718
1125.99266,0.21679
1124.50288,0.21445
1123.01309,0.21473
1121.52330,0.21504
1120.03351,0.21329
1118.54372,0.21938
1117.05393,0.23459
1115.56415,0.22771
1114.07436,0.22919
1112.58457,0.22834
1111.09478,0.22752
1109.60499,0.23609
1108.11520,0.22308
1106.62542,0.25538
1105.13563,0.25543
1103.64584,0.21674
1102.15605,0.23480
1100.66626,0.21580
1099.17647,0.19682
1097.68668,0.20949
1096.19690,0.21307
1094.70711,0.19533
1093.21732,0.18361
1091.72753,0.16046
1090.23774,0.16648
1088.74795,0.17252
1087.25817,0.15856
1085.76838,0.16126
1084.27859,0.17337
1082.78880,0.16728
1081.29901,0.18359
1079.80922,0.16506
1078.31943,0.16151
1076.82965,0.15799
1075.33986,0.18168
1073.85007,0.17756
1072.36028,0.20183
1070.87049,0.21623
1069.38070,0.24418
1067.89092,0.26332
1066.40113,0.28247
1064.91134,0.34355
1063.42155,0.41454
1061.93176,0.48296
1060.44197,0.54203
1058.95219,0.59097
1057.46240,0.65087
1055.97261,0.71079
1054.48282,0.79234
1052.99303,0.86089
1051.50324,0.83813
1050.01345,0.80733
1048.52367,0.79425
1047.03388,0.78769
1045.54409,0.78116
1044.05430,0.71636
1042.56451,0.67813
1041.07472,0.66283
1039.58494,0.62985
1038.09515,0.55552
1036.60536,0.52805
1035.11557,0.50061
1033.62578,0.45004
1032.13599,0.40651
1030.64620,0.33750
1029.15642,0.30157
1027.66663,0.27334
1026.17684,0.24513
1024.68705,0.20433
1023.19726,0.15158
1021.70747,0.11421
1020.21769,0.13801
1018.72790,0.11656
1017.23811,0.10880
1015.74832,0.10106
1014.25853,0.09269
1012.76874,0.08253
1011.27896,0.09216
1009.78917,0.08465
1008.29938,0.07039
1006.80959,0.04731
1005.31980,0.02426
1003.83001,0.01970
1002.34022,0.01049
1000.85044,0.00598
999.36065,0.02544
997.87086,0.03009
996.38107,0.03477
994.89128,0.04935
993.40149,0.05251
991.91171,0.08614
990.42192,0.10419
988.93213,0.12069
987.44234,0.10924
985.95255,0.09782
984.46276,0.10607
982.97297,0.10289
981.48319,0.07086
979.99340,0.05914
978.50361,0.05564
977.01382,0.05217
975.52403,0.02804
974.03424,0.02657
972.54446,0.01419
971.05467,0.00496
969.56488,0.00980
968.07509,0.01142
966.58530,0.01306
965.09551,0.02527
963.60573,0.00315
962.11594,0.00314
960.62615,0.00320
959.13636,0.00551
957.64657,0.00783
956.15678,0.02827
954.66699,0.01932
953.17721,0.02393
951.68742,0.02050
950.19763,0.01384
948.70784,0.00720
947.21805,0.04106
945.72826,0.06218
944.23848,0.08047
942.74869,0.09384
941.25890,0.11295
939.76911,0.12155
938.27932,0.13018
936.78953,0.15561
935.29974,0.14854
933.80996,0.18053
932.32017,0.20552
930.83038,0.20997
929.34059,0.21444
927.85080,0.25563
926.36101,0.26354
924.87123,0.29802
923.38144,0.34292
921.89165,0.37042
920.40186,0.39794
918.91207,0.50460
917.42228,0.59176
915.93250,0.73698
914.44271,0.92490
912.95292,1.04011
911.46313,1.15534
909.97334,1.38914
908.48355,1.64013
906.99376,1.80814
905.50398,1.90304
904.01419,1.93811
902.52440,1.97321
901.03461,2.00000
899.54482,1.97425
898.05503,1.84573
896.56525,1.66024
895.07546,1.49989
893.58567,1.33956
892.09588,1.09273
890.60609,0.83265
889.11630,0.64651
887.62651,0.47131
886.13673,0.40895
884.64694,0.34662
883.15715,0.25035
881.66736,0.17388
880.17757,0.12710
878.68778,0.10559
877.19800,0.08411
875.70821,0.06030
874.21842,0.04511
872.72863,0.03254
871.23884,0.01766
869.74905,0.01412
868.25927,0.01060
866.76948,0.01270
865.27969,0.01769
863.78990,0.04587
862.30011,0.03711
860.81032,0.04660
859.32053,0.05611
857.83075,0.06018
856.34096,0.07858
854.85117,0.10508
853.36138,0.09153
851.87159,0.10103
850.38180,0.11055
848.89202,0.14157
847.40223,0.16246
845.91244,0.17869
844.42265,0.18441
842.93286,0.19015
841.44307,0.20750
839.95329,0.21706
838.46350,0.22769
836.97371,0.23183
835.48392,0.23613
833.99413,0.24046
832.50434,0.26888
831.01455,0.21847
829.52477,0.22117
828.03498,0.18851
826.54519,0.17344
825.05540,0.15839
823.56561,0.13724
822.07582,0.13669
820.58604,0.11742
819.09625,0.12575
817.60646,0.13412
816.11667,0.10763
814.62688,0.09444
813.13709,0.10834
811.64730,0.12565
810.15752,0.11969
808.66773,0.11375
807.17794,0.09313
805.68815,0.11132
804.19836,0.12172
802.70857,0.11926
801.21879,0.11683
799.72900,0.13250
798.23921,0.12869
796.74942,0.12541
795.25963,0.12334
793.76984,0.12129
792.28006,0.14125
790.79027,0.14588
789.30048,0.15808
787.81069,0.18644
786.32090,0.20390
784.83111,0.22138
783.34132,0.24382
781.85154,0.28087
780.36175,0.32444
778.87196,0.34865
777.38217,0.37289
775.89238,0.40196
774.40259,0.42065
772.91281,0.40762
771.42302,0.38667
769.93323,0.36574
768.44344,0.32832
766.95365,0.26177
765.46386,0.20019
763.97407,0.18730
762.48429,0.17300
760.99450,0.15872
759.50471,0.14929
758.01492,0.12764
756.52513,0.11435
755.03534,0.10954
753.54556,0.10475
752.05577,0.10377
750.56598,0.07313
749.07619,0.05398
747.58640,0.05254
746.09661,0.05113
744.60683,0.05364
743.11704,0.03718
741.62725,0.04469
740.13746,0.03101
738.64767,0.01736
737.15788,0.03014
735.66809,0.00314
734.17831,0.00968
732.68852,0.01299
731.19873,0.01633
729.70894,0.01201
728.21915,0.03296
726.72936,0.00840
725.23958,0.00806
723.74979,0.00644
722.26000,0.00485
720.77021,0.01614
719.28042,0.00533
717.79063,0.00314
716.30084,0.01354
714.81106,0.02398
713.32127,0.02897
711.83148,0.02123
710.34169,0.01612
708.85190,0.01624
707.36211,0.01638
705.87233,0.03086
704.38254,0.03547
702.89275,0.05677
701.40296,0.05401
699.91317,0.05128
698.42338,0.07603
696.93360,0.06776
695.44381,0.09360
693.95402,0.09851
692.46423,0.10345
690.97444,0.13977
689.48465,0.15061
687.99486,0.18307
686.50508,0.20307
685.01529,0.22309
683.52550,0.26005
682.03571,0.26867
680.54592,0.30203
679.05613,0.29105
677.56635,0.28010
676.07656,0.28621
674.58677,0.27595
673.09698,0.25375
671.60719,0.23170
670.11740,0.20967
668.62761,0.18754
667.13783,0.15710
665.64804,0.13892
664.15825,0.12076
662.66846,0.11070
661.17867,0.07229
659.68888,0.04536
658.19910,0.05566
656.70931,0.06599
655.21952,0.06567
653.72973,0.06122
652.23994,0.06407
650.75015,0.05967
649.26037,0.05528
647.77058,0.04936
646.28079,0.05231
644.79100,0.05581
643.30121,0.05373
641.81142,0.05168
640.32163,0.02844
638.83185,0.01043
637.34206,0.00702
635.85227,0.00507
634.36248,0.00314
632.87269,0.01692
631.38290,0.02527
629.89312,0.03233
628.40333,0.03227
626.91354,0.03223
625.42375,0.04145
623.93396,0.03144
622.44417,0.02535
620.95438,0.01929
619.46460,0.01664
617.97481,0.02780
616.48502,0.08661
614.99523,0.09626
613.50544,0.10593
612.01565,0.12526
610.52587,0.16049
609.03608,0.17804
607.54629,0.20173
606.05650,0.22545
604.56671,0.28966
603.07692,0.37419
601.58714,0.39681
600.09735,0.41945
598.60756,0.45122
597.11777,0.47417
595.62798,0.45499
594.13819,0.45391
592.64840,0.45287
591.15862,0.41892
589.66883,0.36913
588.17904,0.28240
586.68925,0.26622
585.19946,0.25007
583.70967,0.15353
582.21989,0.13248
580.73010,0.11471
579.24031,0.09696
577.75052,0.08249
576.26073,0.06570
574.77094,0.06403
573.28115,0.06954
571.79137,0.07507
570.30158,0.06385
568.81179,0.06617
567.32200,0.08440
565.83221,0.10265
564.34242,0.10401
562.85264,0.10748
561.36285,0.11825
559.87306,0.12229
558.38327,0.12635
556.89348,0.15411
555.40369,0.18320
553.91391,0.19280
552.42412,0.20242
550.93433,0.18369
549.44454,0.17176
547.95475,0.19915
546.46496,0.19286
544.97517,0.18660
543.48539,0.21223
541.99560,0.23321
540.50581,0.26280
539.01602,0.29242
537.52623,0.33533
536.03644,0.39075
534.54666,0.42929
533.05687,0.45835
531.56708,0.48743
530.07729,0.55987
528.58750,0.57794
527.09771,0.61724
525.60792,0.65657
524.11814,0.72781
522.62835,0.77486
521.13856,0.84094
519.64877,0.84562
518.15898,0.85033
516.66919,0.91596
515.17941,0.92826
513.68962,0.91157
512.19983,0.89490
510.71004,0.88646
509.22025,0.84890
507.73046,0.72938
506.24068,0.66766
504.75089,0.60596
503.26110,0.49823
501.77131,0.40562
500.28152,0.36247
498.79173,0.31935
497.30194,0.23799
495.81216,0.16135
494.32237,0.13717
492.83258,0.11301
491.34279,0.12179
489.85300,0.10406
488.36321,0.06084
486.87343,0.06293
485.38364,0.06505
483.89385,0.05730
482.40406,0.08002
480.91427,0.08884
479.42448,0.09769
477.93469,0.10773
476.44491,0.13341
474.95512,0.15534
473.46533,0.17730
471.97554,0.19446
470.48575,0.17157
468.99596,0.17499
467.50618,0.15085
466.01639,0.12674
464.52660,0.09900
463.03681,0.07910
461.54702,0.07197
460.05723,0.06486
458.56745,0.04321
457.07766,0.00883
455.58787,0.02235
454.09808,0.03590
452.60829,0.02319
451.11850,0.02118
449.62871,0.02192
448.13893,0.02268
446.64914,0.01007
445.15935,0.00997
443.66956,0.01848
442.17977,0.01492
440.68998,0.01138
439.20020,0.01164
437.71041,0.01557
436.22062,0.01743
434.73083,0.01933
433.24104,0.02202
431.75125,0.03333
430.26146,0.02749
428.77168,0.02167
427.28189,0.05491
425.79210,0.06293
424.30231,0.05354
422.81252,0.04418
421.32273,0.05279
419.83295,0.00314
418.34316,0.00467
416.85337,0.00624
415.36358,0.00314
413.87379,0.00569
412.38400,0.01542
410.89422,0.02518
409.40443,0.03067
407.91464,0.00990
406.42485,0.04484
404.93506,0.04403
403.44527,0.04323
401.95548,0.03557
400.46570,0.03183
398.97591,0.03437
397.48612,0.03693
395.99633,0.02754
394.50654,0.02103
393.01675,0.01755
391.52697,0.01409
390.03718,0.01390
388.54739,0.00906
387.05760,0.00609
385.56781,0.00314
384.07802,0.00861
382.58824,0.01880
381.09845,0.01444
379.60866,0.01010
378.11887,0.01541
376.62908,0.01451
375.13929,0.01844
373.64950,0.02239
372.15972,0.02000
370.66993,0.02543
369.18014,0.01827
367.69035,0.01113
366.20056,0.01486
364.71077,0.02069
363.22099,0.01874
361.73120,0.01682
360.24141,0.05109
358.75162,0.06847
357.26183,0.05295
355.77204,0.03746
354.28225,0.05309
352.79247,0.03517
351.30268,0.02665
349.81289,0.01815
348.32310,0.05184
346.83331,0.06186
345.34352,0.04328
343.85374,0.02473
342.36395,0.02234
340.87416,0.04001
339.38437,0.02947
337.89458,0.01895
336.40479,0.02211
334.91501,0.05289
333.42522,0.02800
331.93543,0.00314
330.44564,0.00512
328.95585,0.01181
327.46606,0.01748
325.97627,0.02318
324.48649,0.03436
322.99670,0.03490
321.50691,0.04080
320.01712,0.04672
318.52733,0.08871
317.03754,0.09013
315.54776,0.08025
314.05797,0.07039
312.56818,0.07683
311.07839,0.08459
309.58860,0.08378
308.09881,0.08300
306.60902,0.07730
305.11924,0.03337
303.62945,0.02537
302.13966,0.00748
300.64987,0.00314
299.16008,0.00314
