1778.52000,0.00813
1777.03021,0.01213
1775.54042,0.00825
1774.05063,0.01418
1772.56085,0.00903
1771.07106,0.01651
1769.58127,0.00840
1768.09148,0.01330
1766.60169,0.01615
1765.11190,0.01150
1763.62212,0.01628
1762.13233,0.01356
1760.64254,0.00992
1759.15275,0.00913
1757.66296,0.01156
1756.17317,0.01571
1754.68339,0.01687
1753.19360,0.01147
1751.70381,0.01682
1750.21402,0.01561
1748.72423,0.01556
1747.23444,0.01364
1745.74465,0.01514
1744.25487,0.00913
1742.76508,0.01526
1741.27529,0.01408
1739.78550,0.02214
1738.29571,0.01950
1736.80592,0.02329
1735.31614,0.02390
1733.82635,0.02114
1732.33656,0.02330
1730.84677,0.01796
1729.35698,0.01528
1727.86719,0.01808
1726.37740,0.01507
1724.88762,0.00681
1723.39783,0.01193
1721.90804,0.01707
1720.41825,0.01828
1718.92846,0.01933
1717.43867,0.01551
1715.94889,0.01830
1714.45910,0.01077
1712.96931,0.01511
1711.47952,0.01346
1709.98973,0.02481
1708.49994,0.00966
1707.01016,0.01504
1705.52037,0.02045
1704.03058,0.00913
1702.54079,0.01281
1701.05100,0.01746
1699.56121,0.01611
1698.07142,0.01798
1696.58164,0.02420
1695.09185,0.02951
1693.60206,0.02261
1692.11227,0.01668
1690.62248,0.01904
1689.13269,0.02351
1687.64291,0.02950
1686.15312,0.03420
1684.66333,0.02745
1683.17354,0.03822
1681.68375,0.03659
1680.19396,0.03273
1678.70417,0.03849
1677.21439,0.04202
1675.72460,0.04538
1674.23481,0.04651
1672.74502,0.04748
1671.25523,0.04771
1669.76544,0.05776
1668.27566,0.06124
1666.78587,0.07059
1665.29608,0.07412
1663.80629,0.06977
1662.31650,0.08370
1660.82671,0.07808
1659.33693,0.08698
1657.84714,0.07652
1656.35735,0.07455
1654.86756,0.07694
1653.37777,0.07332
1651.88798,0.07764
1650.39819,0.08442
1648.90841,0.08860
1647.41862,0.08865
1645.92883,0.09231
1644.43904,0.09599
1642.94925,0.10215
1641.45946,0.08612
1639.96968,0.08441
1638.47989,0.09628
1636.99010,0.09651
1635.50031,0.09394
1634.01052,0.09233
1632.52073,0.08416
1631.03094,0.08768
1629.54116,0.09801
1628.05137,0.10346
1626.56158,0.10273
1625.07179,0.11312
1623.58200,0.09794
1622.09221,0.10443
1620.60243,0.09796
1619.11264,0.10902
1617.62285,0.10184
1616.13306,0.09827
1614.64327,0.09020
1613.15348,0.08968
1611.66370,0.08712
1610.17391,0.09776
1608.68412,0.10164
1607.19433,0.09577
1605.70454,0.09424
1604.21475,0.09001
1602.72496,0.08581
1601.23518,0.09828
1599.74539,0.08443
1598.25560,0.08773
1596.76581,0.10141
1595.27602,0.10156
1593.78623,0.08893
1592.29645,0.07427
1590.80666,0.07392
1589.31687,0.08565
1587.82708,0.07707
1586.33729,0.07078
1584.84750,0.07223
1583.35771,0.07972
1581.86793,0.07162
1580.37814,0.07258
1578.88835,0.08221
1577.39856,0.06779
1575.90877,0.05301
1574.41898,0.05745
1572.92920,0.06605
1571.43941,0.04965
1569.94962,0.04193
1568.45983,0.03423
1566.97004,0.04331
1565.48025,0.04055
1563.99047,0.03293
1562.50068,0.02891
1561.01089,0.02491
1559.52110,0.01943
1558.03131,0.02112
1556.54152,0.01719
1555.05173,0.00633
1553.56195,0.00000
1552.07216,0.00803
1550.58237,0.00648
1549.09258,0.01211
1547.60279,0.01795
1546.11300,0.00688
1544.62322,0.00788
1543.13343,0.00683
1541.64364,0.00768
1540.15385,0.00894
1538.66406,0.01022
1537.17427,0.02639
1535.68448,0.02038
1534.19470,0.00913
1532.70491,0.01071
1531.21512,0.01005
1529.72533,0.01845
1528.23554,0.01390
1526.74575,0.01614
1525.25597,0.02085
1523.76618,0.02483
1522.27639,0.03730
1520.78660,0.03663
1519.29681,0.04558
1517.80702,0.04570
1516.31724,0.04755
1514.82745,0.04904
1513.33766,0.04557
1511.84787,0.04212
1510.35808,0.04218
1508.86829,0.04735
1507.37850,0.04369
1505.88872,0.04947
1504.39893,0.04868
1502.90914,0.05263
1501.41935,0.06092
1499.92956,0.06172
1498.43977,0.06611
1496.94999,0.07956
1495.46020,0.07195
1493.97041,0.09242
1492.48062,0.10556
1490.99083,0.11214
1489.50104,0.12703
1488.01125,0.14072
1486.52147,0.15443
1485.03168,0.17146
1483.54189,0.20094
1482.05210,0.21049
1480.56231,0.21122
1479.07252,0.24189
1477.58274,0.24230
1476.09295,0.25495
1474.60316,0.26011
1473.11337,0.26623
1471.62358,0.26974
1470.13379,0.27083
1468.64401,0.30543
1467.15422,0.32671
1465.66443,0.33812
1464.17464,0.34956
1462.68485,0.37806
1461.19506,0.40451
1459.70527,0.44208
1458.21549,0.45973
1456.72570,0.50451
1455.23591,0.57998
1453.74612,0.66207
1452.25633,0.69770
1450.76654,0.72319
1449.27676,0.71784
1447.78697,0.72117
1446.29718,0.71436
1444.80739,0.68857
1443.31760,0.66280
1441.82781,0.62012
1440.33802,0.54360
1438.84824,0.52995
1437.35845,0.49826
1435.86866,0.50611
1434.37887,0.53167
1432.88908,0.57533
1431.39929,0.65063
1429.90951,0.70280
1428.41972,0.78153
1426.92993,0.79480
1425.44014,0.84855
1423.95035,0.86487
1422.46056,0.88122
1420.97078,0.91717
1419.48099,0.94316
1417.99120,0.95112
1416.50141,0.91054
1415.01162,0.86980
1413.52183,0.81366
1412.03204,0.78275
1410.54226,0.74679
1409.05247,0.71650
1407.56268,0.67626
1406.07289,0.60781
1404.58310,0.56884
1403.09331,0.52989
1401.60353,0.48203
1400.11374,0.42441
1398.62395,0.37377
1397.13416,0.32617
1395.64437,0.27728
1394.15458,0.25062
1392.66479,0.19688
1391.17501,0.16669
1389.68522,0.14781
1388.19543,0.13404
1386.70564,0.11635
1385.21585,0.09867
1383.72606,0.08177
1382.23628,0.05775
1380.74649,0.04184
1379.25670,0.03292
1377.76691,0.03249
1376.27712,0.01459
1374.78733,0.00913
1373.29755,0.02226
1371.80776,0.04595
1370.31797,0.03523
1368.82818,0.03413
1367.33839,0.03306
1365.84860,0.03652
1364.35881,0.04133
1362.86903,0.04503
1361.37924,0.07887
1359.88945,0.09014
1358.39966,0.12158
1356.90987,0.14627
1355.42008,0.18566
1353.93030,0.22827
1352.44051,0.26649
1350.95072,0.30472
1349.46093,0.39389
1347.97114,0.47048
1346.48135,0.54652
1344.99156,0.60941
1343.50178,0.66706
1342.01199,0.72869
1340.52220,0.77905
1339.03241,0.83451
1337.54262,0.86967
1336.05283,0.89865
1334.56305,0.92765
1333.07326,0.97436
1331.58347,0.98403
1330.09368,0.98092
1328.60389,0.94867
1327.11410,0.90289
1325.62432,0.89478
1324.13453,0.90513
1322.64474,0.84700
1321.15495,0.79267
1319.66516,0.76357
1318.17537,0.73450
1316.68558,0.70507
1315.19580,0.65215
1313.70601,0.61111
1312.21622,0.57442
1310.72643,0.52796
1309.23664,0.51315
1307.74685,0.46016
1306.25707,0.42996
1304.76728,0.40054
1303.27749,0.37115
1301.78770,0.31844
1300.29791,0.28910
1298.80812,0.26636
1297.31834,0.24402
1295.82855,0.19010
1294.33876,0.16913
1292.84897,0.12767
1291.35918,0.11258
1289.86939,0.10871
1288.37960,0.10487
1286.88982,0.10679
1285.40003,0.10554
1283.91024,0.09057
1282.42045,0.06659
1280.93066,0.05807
1279.44087,0.05202
1277.95109,0.05145
1276.46130,0.06352
1274.97151,0.06149
1273.48172,0.05949
1271.99193,0.05826
1270.50214,0.06139
1269.01235,0.04064
1267.52257,0.02726
1266.03278,0.03441
1264.54299,0.02578
1263.05320,0.01303
1261.56341,0.01311
1260.07362,0.01320
1258.58384,0.00881
1257.09405,0.01610
1255.60426,0.01420
1254.11447,0.00913
1252.62468,0.00942
1251.13489,0.02162
1249.64511,0.02538
1248.15532,0.01674
1246.66553,0.02535
1245.17574,0.03398
1243.68595,0.01111
1242.19616,0.03211
1240.70637,0.01042
1239.21659,0.01717
1237.72680,0.01152
1236.23701,0.02961
1234.74722,0.02402
1233.25743,0.01656
1231.76764,0.00913
1230.27786,0.03365
1228.78807,0.02187
1227.29828,0.02423
1225.80849,0.02134
1224.31870,0.01566
1222.82891,0.02712
1221.33912,0.04595
1219.84934,0.04824
1218.35955,0.05056
1216.86976,0.05610
1215.37997,0.05809
1213.89018,0.05953
1212.40039,0.05762
1210.91061,0.07304
1209.42082,0.08943
1207.93103,0.09135
1206.44124,0.09329
1204.95145,0.09357
1203.46166,0.07994
1201.97188,0.08459
1200.48209,0.07515
1198.99230,0.06461
1197.50251,0.05710
1196.01272,0.06091
1194.52293,0.06032
1193.03314,0.05975
1191.54336,0.02712
1190.05357,0.03366
1188.56378,0.01049
1187.07399,0.03081
1185.58420,0.03592
1184.09441,0.02750
1182.60463,0.02870
1181.11484,0.02993
1179.62505,0.02346
1178.13526,0.02774
1176.64547,0.03356
1175.15568,0.00948
1173.66589,0.00913
1172.17611,0.01242
1170.68632,0.01631
1169.19653,0.02022
1167.70674,0.02396
1166.21695,0.02321
1164.72716,0.03190
1163.23738,0.03290
1161.74759,0.04577
1160.25780,0.07241
1158.76801,0.07940
1157.27822,0.08642
1155.78843,0.09224
1154.29865,0.10881
1152.80886,0.12954
1151.31907,0.11342
1149.82928,0.12347
1148.33949,0.12358
1146.84970,0.12606
1145.35991,0.12857
1143.87013,0.14418
1142.38034,0.15059
1140.89055,0.17077
1139.40076,0.17384
1137.91097,0.17826
1136.42118,0.18947
1134.93140,0.19855
1133.44161,0.20765
1131.95182,0.21611
1130.46203,0.22253
1128.97224,0.24346
1127.48245,0.23845
1125.99266,0.24833
1124.50288,0.24581
1123.01309,0.25244
1121.52330,0.25910
1120.03351,0.25213
1118.54372,0.25103
1117.05393,0.25183
1115.56415,0.24325
1114.07436,0.24918
1112.58457,0.24158
1111.09478,0.23401
1109.60499,0.24096
1108.11520,0.25112
1106.62542,0.25717
1105.13563,0.23841
1103.64584,0.22776
1102.15605,0.22278
1100.66626,0.22347
1099.17647,0.22419
1097.68668,0.22041
1096.19690,0.22061
1094.70711,0.20747
1093.21732,0.19623
1091.72753,0.18860
1090.23774,0.18777
1088.74795,0.18696
1087.25817,0.20875
1085.76838,0.20216
1084.27859,0.20123
1082.78880,0.17154
1081.29901,0.20886
1079.80922,0.22005
1078.31943,0.22054
1076.82965,0.22105
1075.33986,0.24040
1073.85007,0.25263
1072.36028,0.25021
1070.87049,0.27697
1069.38070,0.29699
1067.89092,0.31947
1066.40113,0.34199
1064.91134,0.39764
1063.42155,0.46875
1061.93176,0.59371
1060.44197,0.67503
1058.95219,0.78781
1057.46240,0.84415
1055.97261,0.90051
1054.48282,1.01185
1052.99303,1.03571
1051.50324,1.08104
1050.01345,1.07954
1048.52367,1.05473
1047.03388,1.03013
1045.54409,1.00556
1044.05430,0.98571
1042.56451,0.93409
1041.07472,0.84974
1039.58494,0.78386
1038.09515,0.67171
1036.60536,0.63251
1035.11557,0.59333
1033.62578,0.53394
1032.13599,0.45746
1030.64620,0.38344
1029.15642,0.32036
1027.66663,0.29740
1026.17684,0.27445
1024.68705,0.25868
1023.19726,0.20624
1021.70747,0.18902
1020.21769,0.17708
1018.72790,0.15370
1017.23811,0.14614
1015.74832,0.13861
1014.25853,0.13486
1012.76874,0.13867
1011.27896,0.12049
1009.78917,0.10345
1008.29938,0.08908
1006.80959,0.06852
1005.31980,0.04798
1003.83001,0.03123
1002.34022,0.04462
1000.85044,0.05276
999.36065,0.06638
997.87086,0.06874
996.38107,0.07112
994.89128,0.08237
993.40149,0.10098
991.91171,0.13166
990.42192,0.11550
988.93213,0.14209
987.44234,0.14650
985.95255,0.15093
984.46276,0.16122
982.97297,0.13709
981.48319,0.12108
979.99340,0.09907
978.50361,0.08819
977.01382,0.07733
975.52403,0.06782
974.03424,0.05362
972.54446,0.04133
971.05467,0.03415
969.56488,0.02868
968.07509,0.03218
966.58530,0.03570
965.09551,0.02052
963.60573,0.00913
962.11594,0.01400
960.62615,0.02361
959.13636,0.01611
957.64657,0.00864
956.15678,0.01586
954.66699,0.02481
953.17721,0.03585
951.68742,0.03393
950.19763,0.04295
948.70784,0.05200
947.21805,0.05448
945.72826,0.07825
944.23848,0.09188
942.74869,0.10554
941.25890,0.13747
939.76911,0.14450
938.27932,0.15155
936.78953,0.16775
935.29974,0.18058
933.80996,0.17782
932.32017,0.20106
930.83038,0.20785
929.34059,0.21467
927.85080,0.24456
926.36101,0.25359
924.87123,0.26980
923.38144,0.33909
921.89165,0.37426
920.40186,0.40945
918.91207,0.49030
917.42228,0.60034
915.93250,0.74052
914.44271,0.94489
912.95292,1.05585
911.46313,1.16684
909.97334,1.32725
908.48355,1.53530
906.99376,1.78420
905.50398,1.91420
904.01419,1.95709
902.52440,2.00000
901.03461,1.97124
899.54482,1.99670
898.05503,1.88405
896.56525,1.62859
895.07546,1.51543
893.58567,1.40229
892.09588,1.14804
890.60609,0.87818
889.11630,0.67309
887.62651,0.49908
886.13673,0.43000
884.64694,0.36095
883.15715,0.28073
881.66736,0.20993
880.17757,0.13747
878.68778,0.11989
877.19800,0.10234
875.70821,0.07342
874.21842,0.05902
872.72863,0.04257
871.23884,0.03518
869.74905,0.03157
868.25927,0.02799
866.76948,0.04138
865.27969,0.04161
863.78990,0.04356
862.30011,0.04441
860.81032,0.05675
859.32053,0.06913
857.83075,0.08642
856.34096,0.11070
854.85117,0.12164
853.36138,0.14521
851.87159,0.15102
850.38180,0.15686
848.89202,0.17712
847.40223,0.20869
845.91244,0.21827
844.42265,0.22891
842.93286,0.23957
841.44307,0.25355
839.95329,0.26379
838.46350,0.27086
836.97371,0.29432
835.48392,0.29598
833.99413,0.29766
832.50434,0.30990
831.01455,0.28302
829.52477,0.25579
828.03498,0.24214
826.54519,0.22202
825.05540,0.20192
823.56561,0.20678
822.07582,0.18908
820.58604,0.15899
819.09625,0.15056
817.60646,0.14215
816.11667,0.14149
814.62688,0.12542
813.13709,0.14851
811.64730,0.15469
810.15752,0.15554
808.66773,0.15640
807.17794,0.15118
805.68815,0.16254
804.19836,0.16809
802.70857,0.17573
801.21879,0.18340
799.72900,0.19223
798.23921,0.15722
796.74942,0.15800
795.25963,0.15692
793.76984,0.15587
792.28006,0.16048
790.79027,0.18206
789.30048,0.20911
787.81069,0.25520
786.32090,0.27591
784.83111,0.29664
783.34132,0.32266
781.85154,0.34777
780.36175,0.37535
778.87196,0.38705
777.38217,0.39877
775.89238,0.42868
774.40259,0.45372
772.91281,0.42779
771.42302,0.39934
769.93323,0.37091
768.44344,0.35220
766.95365,0.31808
765.46386,0.25481
763.97407,0.21246
762.48429,0.20495
760.99450,0.19746
759.50471,0.16855
758.01492,0.13269
756.52513,0.13036
755.03534,0.11657
753.54556,0.10280
752.05577,0.09132
750.56598,0.08701
749.07619,0.07050
747.58640,0.06351
746.09661,0.05654
744.60683,0.03728
743.11704,0.03328
741.62725,0.02441
740.13746,0.02385
738.64767,0.02331
737.15788,0.02656
735.66809,0.00913
734.17831,0.02072
732.68852,0.02566
731.19873,0.03061
729.70894,0.02064
728.21915,0.01482
726.72936,0.01449
725.23958,0.01594
723.74979,0.01496
722.26000,0.01401
720.77021,0.00913
719.28042,0.01884
717.79063,0.02574
716.30084,0.02562
714.81106,0.02552
713.32127,0.02177
711.83148,0.03217
710.34169,0.02151
708.85190,0.03157
707.36211,0.04166
705.87233,0.03898
704.38254,0.03481
702.89275,0.05532
701.40296,0.05328
699.91317,0.05125
698.42338,0.06770
696.93360,0.07645
695.44381,0.10950
693.95402,0.11689
692.46423,0.12430
690.97444,0.13089
689.48465,0.14918
687.99486,0.15788
686.50508,0.17076
685.01529,0.18365
683.52550,0.22744
682.03571,0.24396
680.54592,0.28290
679.05613,0.27830
677.56635,0.27372
676.07656,0.26907
674.58677,0.27047
673.09698,0.21826
671.60719,0.19872
670.11740,0.17921
668.62761,0.15022
667.13783,0.14289
665.64804,0.13145
664.15825,0.12003
662.66846,0.09208
661.17867,0.08654
659.68888,0.07237
658.19910,0.06510
656.70931,0.05785
655.21952,0.05598
653.72973,0.04643
652.23994,0.05327
650.75015,0.04451
649.26037,0.03578
647.77058,0.04778
646.28079,0.04775
644.79100,0.03590
643.30121,0.03187
641.81142,0.02788
640.32163,0.00913
638.83185,0.02112
637.34206,0.02468
635.85227,0.01865
634.36248,0.01266
632.87269,0.00913
631.38290,0.01783
629.89312,0.00981
628.40333,0.01791
626.91354,0.02602
625.42375,0.01864
623.93396,0.01222
622.44417,0.01129
620.95438,0.01037
619.46460,0.02134
617.97481,0.02518
616.48502,0.04053
614.99523,0.04855
613.50544,0.05661
612.01565,0.10627
610.52587,0.14731
609.03608,0.17162
607.54629,0.19746
606.05650,0.22332
604.56671,0.28026
603.07692,0.34870
601.58714,0.35902
600.09735,0.36936
598.60756,0.41717
597.11777,0.42229
595.62798,0.44098
594.13819,0.42649
592.64840,0.41201
591.15862,0.38618
589.66883,0.33684
588.17904,0.23427
586.68925,0.20757
585.19946,0.18089
583.70967,0.15612
582.21989,0.12591
580.73010,0.10928
579.24031,0.09267
577.75052,0.06460
576.26073,0.05519
574.77094,0.04901
573.28115,0.04350
571.79137,0.03802
570.30158,0.04470
568.81179,0.04708
567.32200,0.05344
565.83221,0.05982
564.34242,0.07845
562.85264,0.12760
561.36285,0.13951
559.87306,0.15454
558.38327,0.16960
556.89348,0.19175
555.40369,0.21373
553.91391,0.20299
552.42412,0.19227
550.93433,0.16934
549.44454,0.18483
547.95475,0.19507
546.46496,0.19603
544.97517,0.19700
543.48539,0.21485
541.99560,0.23930
540.50581,0.26999
539.01602,0.30070
537.52623,0.36927
536.03644,0.43089
534.54666,0.41124
533.05687,0.43970
531.56708,0.46818
530.07729,0.50807
528.58750,0.56342
527.09771,0.55462
525.60792,0.54584
524.11814,0.62892
522.62835,0.69866
521.13856,0.75169
519.64877,0.75909
518.15898,0.76653
516.66919,0.81040
515.17941,0.84583
513.68962,0.84496
512.19983,0.84411
510.71004,0.83144
509.22025,0.75875
507.73046,0.68007
506.24068,0.63209
504.75089,0.58413
503.26110,0.46920
501.77131,0.37236
500.28152,0.32343
498.79173,0.27454
497.30194,0.19433
495.81216,0.15178
494.32237,0.13486
492.83258,0.11795
491.34279,0.10502
489.85300,0.08742
488.36321,0.05497
486.87343,0.05161
485.38364,0.04829
483.89385,0.07312
482.40406,0.09289
480.91427,0.12050
479.42448,0.14813
477.93469,0.15255
476.44491,0.16489
474.95512,0.18356
473.46533,0.20226
471.97554,0.20564
470.48575,0.17160
468.99596,0.17408
467.50618,0.15910
466.01639,0.14413
464.52660,0.13879
463.03681,0.12576
461.54702,0.11567
460.05723,0.10560
458.56745,0.06667
457.07766,0.00913
455.58787,0.01768
454.09808,0.02625
452.60829,0.01189
451.11850,0.00828
449.62871,0.01128
448.13893,0.01431
446.64914,0.02244
445.15935,0.00650
443.66956,0.01901
442.17977,0.02731
440.68998,0.03563
439.20020,0.01960
437.71041,0.02129
436.22062,0.02422
434.73083,0.02718
433.24104,0.02048
431.75125,0.04371
430.26146,0.03461
428.77168,0.02553
427.28189,0.03962
425.79210,0.02004
424.30231,0.01621
422.81252,0.01240
421.32273,0.02433
419.83295,0.02988
418.34316,0.02689
416.85337,0.02393
415.36358,0.00999
413.87379,0.03050
412.38400,0.03364
410.89422,0.03680
409.40443,0.02200
407.91464,0.02041
406.42485,0.02110
404.93506,0.02652
403.44527,0.03196
401.95548,0.01899
400.46570,0.02749
398.97591,0.02802
397.48612,0.02857
395.99633,0.01964
394.50654,0.01055
393.01675,0.01738
391.52697,0.02086
390.03718,0.02804
388.54739,0.01924
387.05760,0.02487
385.56781,0.03052
384.07802,0.01747
382.58824,0.01347
381.09845,0.01129
379.60866,0.00913
378.11887,0.01389
376.62908,0.03769
375.13929,0.02246
373.64950,0.00725
372.15972,0.05201
370.66993,0.02810
369.18014,0.03261
367.69035,0.03714
366.20056,0.04141
364.71077,0.04571
363.22099,0.04373
361.73120,0.04178
360.24141,0.05593
358.75162,0.07331
357.26183,0.06776
355.77204,0.06223
354.28225,0.06105
352.79247,0.06855
351.30268,0.06592
349.81289,0.06331
348.32310,0.10193
346.83331,0.10408
345.34352,0.10257
343.85374,0.10109
342.36395,0.06812
340.87416,0.07111
339.38437,0.04938
337.89458,0.02767
336.40479,0.04062
334.91501,0.02385
333.42522,0.01925
331.93543,0.01468
330.44564,0.03355
328.95585,0.04399
327.46606,0.04842
325.97627,0.05288
324.48649,0.06771
322.99670,0.07542
321.50691,0.08108
320.01712,0.08677
318.52733,0.10885
317.03754,0.09539
315.54776,0.09154
314.05797,0.08773
312.56818,0.09391
311.07839,0.07923
309.58860,0.07341
308.09881,0.06762
306.60902,0.04134
305.11924,0.04633
303.62945,0.03779
302.13966,0.01997
300.64987,0.00913
299.16008,0.00913
