1778.52000,0.00609
1777.03021,0.00964
1775.54042,0.01604
1774.05063,0.00901
1772.56085,0.00837
1771.07106,0.01013
1769.58127,0.00836
1768.09148,0.00639
1766.60169,0.01199
1765.11190,0.01290
1763.62212,0.00415
1762.13233,0.01172
1760.64254,0.00986
1759.15275,0.01441
1757.66296,0.01000
1756.17317,0.01011
1754.68339,0.01875
1753.19360,0.01252
1751.70381,0.01412
1750.21402,0.01881
1748.72423,0.01219
1747.23444,0.01292
1745.74465,0.01131
1744.25487,0.00830
1742.76508,0.01983
1741.27529,0.01201
1739.78550,0.01980
1738.29571,0.01557
1736.80592,0.01680
1735.31614,0.01947
1733.82635,0.01484
1732.33656,0.01284
1730.84677,0.00755
1729.35698,0.01173
1727.86719,0.01476
1726.37740,0.00765
1724.88762,0.01049
1723.39783,0.01690
1721.90804,0.00396
1720.41825,0.00924
1718.92846,0.00415
1717.43867,0.01163
1715.94889,0.01134
1714.45910,0.01817
1712.96931,0.00706
1711.47952,0.00519
1709.98973,0.01634
1708.49994,0.01240
1707.01016,0.01214
1705.52037,0.01190
1704.03058,0.00614
1702.54079,0.00536
1701.05100,0.01183
1699.56121,0.01006
1698.07142,0.01706
1696.58164,0.01061
1695.09185,0.01907
1693.60206,0.03205
1692.11227,0.01622
1690.62248,0.02003
1689.13269,0.03332
1687.64291,0.02206
1686.15312,0.02310
1684.66333,0.03103
1683.17354,0.03070
1681.68375,0.03584
1680.19396,0.02942
1678.70417,0.03981
1677.21439,0.04998
1675.72460,0.05332
1674.23481,0.05881
1672.74502,0.06221
1671.25523,0.06421
1669.76544,0.05702
1668.27566,0.06213
1666.78587,0.07153
1665.29608,0.08638
1663.80629,0.08472
1662.31650,0.09159
1660.82671,0.09258
1659.33693,0.09052
1657.84714,0.09345
1656.35735,0.09309
1654.86756,0.08686
1653.37777,0.09175
1651.88798,0.09359
1650.39819,0.08813
1648.90841,0.07774
1647.41862,0.09288
1645.92883,0.09943
1644.43904,0.10600
1642.94925,0.09287
1641.45946,0.09418
1639.96968,0.10708
1638.47989,0.10064
1636.99010,0.09327
1635.50031,0.10129
1634.01052,0.08760
1632.52073,0.09141
1631.03094,0.09005
1629.54116,0.10029
1628.05137,0.08598
1626.56158,0.10289
1625.07179,0.10422
1623.58200,0.10747
1622.09221,0.09846
1620.60243,0.09869
1619.11264,0.09469
1617.62285,0.09402
1616.13306,0.10259
1614.64327,0.08260
1613.15348,0.09617
1611.66370,0.10576
1610.17391,0.10191
1608.68412,0.10871
1607.19433,0.10443
1605.70454,0.08316
1604.21475,0.09264
1602.72496,0.10213
1601.23518,0.07716
1599.74539,0.08245
1598.25560,0.08919
1596.76581,0.08532
1595.27602,0.09801
1593.78623,0.09773
1592.29645,0.08637
1590.80666,0.07291
1589.31687,0.06065
1587.82708,0.06472
1586.33729,0.06858
1584.84750,0.07955
1583.35771,0.07873
1581.86793,0.08030
1580.37814,0.08520
1578.88835,0.07571
1577.39856,0.07097
1575.90877,0.06437
1574.41898,0.05000
1572.92920,0.02974
1571.43941,0.03479
1569.94962,0.03832
1568.45983,0.04188
1566.97004,0.03991
1565.48025,0.04010
1563.99047,0.04172
1562.50068,0.02659
1561.01089,0.03157
1559.52110,0.03705
1558.03131,0.02460
1556.54152,0.03130
1555.05173,0.02504
1553.56195,0.01479
1552.07216,0.01519
1550.58237,0.01113
1549.09258,0.00000
1547.60279,0.01028
1546.11300,0.00782
1544.62322,0.00799
1543.13343,0.01243
1541.64364,0.00343
1540.15385,0.00415
1538.66406,0.00467
1537.17427,0.02088
1535.68448,0.03002
1534.19470,0.02832
1532.70491,0.00868
1531.21512,0.01034
1529.72533,0.00635
1528.23554,0.02104
1526.74575,0.01615
1525.25597,0.00491
1523.76618,0.02346
1522.27639,0.02833
1520.78660,0.02614
1519.29681,0.02586
1517.80702,0.05112
1516.31724,0.05231
1514.82745,0.03084
1513.33766,0.04046
1511.84787,0.05011
1510.35808,0.05754
1508.86829,0.04349
1507.37850,0.03940
1505.88872,0.04241
1504.39893,0.03647
1502.90914,0.03858
1501.41935,0.06246
1499.92956,0.05730
1498.43977,0.05949
1496.94999,0.06028
1495.46020,0.07811
1493.97041,0.07588
1492.48062,0.09211
1490.99083,0.09631
1489.50104,0.09817
1488.01125,0.11718
1486.52147,0.13622
1485.03168,0.16131
1483.54189,0.17059
1482.05210,0.19383
1480.56231,0.20505
1479.07252,0.22362
1477.58274,0.22639
1476.09295,0.23745
1474.60316,0.24994
1473.11337,0.25302
1471.62358,0.26131
1470.13379,0.26869
1468.64401,0.28648
1467.15422,0.31564
1465.66443,0.31978
1464.17464,0.32395
1462.68485,0.36310
1461.19506,0.41739
1459.70527,0.45258
1458.21549,0.48448
1456.72570,0.51617
1455.23591,0.58332
1453.74612,0.63467
1452.25633,0.68131
1450.76654,0.70129
1449.27676,0.71703
1447.78697,0.70635
1446.29718,0.68293
1444.80739,0.67501
1443.31760,0.66711
1441.82781,0.59274
1440.33802,0.53186
1438.84824,0.52415
1437.35845,0.50230
1435.86866,0.48897
1434.37887,0.49268
1432.88908,0.56185
1431.39929,0.60978
1429.90951,0.72057
1428.41972,0.75154
1426.92993,0.77521
1425.44014,0.78922
1423.95035,0.81401
1422.46056,0.83881
1420.97078,0.87558
1419.48099,0.92583
1417.99120,0.92366
1416.50141,0.89742
1415.01162,0.88538
1413.52183,0.83155
1412.03204,0.78743
1410.54226,0.73861
1409.05247,0.67682
1407.56268,0.63112
1406.07289,0.59489
1404.58310,0.56412
1403.09331,0.53338
1401.60353,0.50479
1400.11374,0.42188
1398.62395,0.37774
1397.13416,0.30812
1395.64437,0.27655
1394.15458,0.21004
1392.66479,0.19908
1391.17501,0.16475
1389.68522,0.13658
1388.19543,0.11057
1386.70564,0.10371
1385.21585,0.09688
1383.72606,0.06362
1382.23628,0.04763
1380.74649,0.04370
1379.25670,0.04004
1377.76691,0.01774
1376.27712,0.00728
1374.78733,0.01597
1373.29755,0.00887
1371.80776,0.00415
1370.31797,0.03006
1368.82818,0.02990
1367.33839,0.02977
1365.84860,0.05316
1364.35881,0.03855
1362.86903,0.05136
1361.37924,0.06679
1359.88945,0.06950
1358.39966,0.08852
1356.90987,0.13592
1355.42008,0.17626
1353.93030,0.24024
1352.44051,0.26456
1350.95072,0.28891
1349.46093,0.39383
1347.97114,0.45673
1346.48135,0.54966
1344.99156,0.61970
1343.50178,0.64889
1342.01199,0.73598
1340.52220,0.78530
1339.03241,0.80157
1337.54262,0.84645
1336.05283,0.88699
1334.56305,0.92755
1333.07326,0.97651
1331.58347,0.98440
1330.09368,0.98830
1328.60389,0.96860
1327.11410,0.95436
1325.62432,0.91108
1324.13453,0.91555
1322.64474,0.91343
1321.15495,0.84991
1319.66516,0.81051
1318.17537,0.77113
1316.68558,0.68997
1315.19580,0.62938
1313.70601,0.58866
1312.21622,0.54797
1310.72643,0.52903
1309.23664,0.49311
1307.74685,0.47257
1306.25707,0.41425
1304.76728,0.39790
1303.27749,0.38156
1301.78770,0.31812
1300.29791,0.28069
1298.80812,0.24943
1297.31834,0.24205
1295.82855,0.21178
1294.33876,0.17232
1292.84897,0.14328
1291.35918,0.13104
1289.86939,0.12213
1288.37960,0.11324
1286.88982,0.11903
1285.40003,0.09932
1283.91024,0.08862
1282.42045,0.08597
1280.93066,0.06823
1279.44087,0.06728
1277.95109,0.05550
1276.46130,0.05484
1274.97151,0.05963
1273.48172,0.06445
1271.99193,0.05725
1270.50214,0.04204
1269.01235,0.04080
1267.52257,0.05162
1266.03278,0.02751
1264.54299,0.03909
1263.05320,0.02991
1261.56341,0.02146
1260.07362,0.01303
1258.58384,0.02259
1257.09405,0.01775
1255.60426,0.02452
1254.11447,0.00415
1252.62468,0.01373
1251.13489,0.01626
1249.64511,0.01976
1248.15532,0.02729
1246.66553,0.02965
1245.17574,0.03204
1243.68595,0.03965
1242.19616,0.01893
1240.70637,0.03061
1239.21659,0.02246
1237.72680,0.02143
1236.23701,0.03081
1234.74722,0.02297
1233.25743,0.02272
1231.76764,0.02249
1230.27786,0.02134
1228.78807,0.00793
1227.29828,0.01439
1225.80849,0.01048
1224.31870,0.01037
1222.82891,0.00415
1221.33912,0.02766
1219.84934,0.03986
1218.35955,0.05208
1216.86976,0.06763
1215.37997,0.05628
1213.89018,0.06763
1212.40039,0.06956
1210.91061,0.06891
1209.42082,0.08459
1207.93103,0.07560
1206.44124,0.06664
1204.95145,0.07081
1203.46166,0.07359
1201.97188,0.06978
1200.48209,0.04781
1198.99230,0.05586
1197.50251,0.05330
1196.01272,0.04794
1194.52293,0.04413
1193.03314,0.04035
1191.54336,0.02561
1190.05357,0.01467
1188.56378,0.01746
1187.07399,0.01956
1185.58420,0.00633
1184.09441,0.00447
1182.60463,0.01680
1181.11484,0.02916
1179.62505,0.01957
1178.13526,0.02135
1176.64547,0.02031
1175.15568,0.01434
1173.66589,0.00415
1172.17611,0.00484
1170.68632,0.00722
1169.19653,0.00962
1167.70674,0.02385
1166.21695,0.02677
1164.72716,0.03704
1163.23738,0.04851
1161.74759,0.04536
1160.25780,0.05547
1158.76801,0.05756
1157.27822,0.05968
1155.78843,0.06088
1154.29865,0.08054
1152.80886,0.10328
1151.31907,0.11424
1149.82928,0.11199
1148.33949,0.13127
1146.84970,0.13392
1145.35991,0.13659
1143.87013,0.14436
1142.38034,0.14294
1140.89055,0.15360
1139.40076,0.15814
1137.91097,0.19837
1136.42118,0.21501
1134.93140,0.22305
1133.44161,0.23111
1131.95182,0.22750
1130.46203,0.22864
1128.97224,0.21563
1127.48245,0.20974
1125.99266,0.23623
1124.50288,0.21644
1123.01309,0.22325
1121.52330,0.23009
1120.03351,0.23707
1118.54372,0.22022
1117.05393,0.23032
1115.56415,0.24115
1114.07436,0.23430
1112.58457,0.23585
1111.09478,0.23742
1109.60499,0.22591
1108.11520,0.25269
1106.62542,0.25328
1105.13563,0.23145
1103.64584,0.21129
1102.15605,0.20203
1100.66626,0.19551
1099.17647,0.18901
1097.68668,0.21549
1096.19690,0.20349
1094.70711,0.20262
1093.21732,0.18381
1091.72753,0.17236
1090.23774,0.16943
1088.74795,0.16653
1087.25817,0.17145
1085.76838,0.17686
1084.27859,0.16978
1082.78880,0.17146
1081.29901,0.19159
1079.80922,0.20750
1078.31943,0.20016
1076.82965,0.19285
1075.33986,0.22418
1073.85007,0.20310
1072.36028,0.20849
1070.87049,0.23376
1069.38070,0.25928
1067.89092,0.27727
1066.40113,0.29529
1064.91134,0.32655
1063.42155,0.41454
1061.93176,0.51366
1060.44197,0.61634
1058.95219,0.73015
1057.46240,0.78032
1055.97261,0.83051
1054.48282,0.94581
1052.99303,1.01058
1051.50324,1.00238
1050.01345,1.00767
1048.52367,0.99527
1047.03388,0.97935
1045.54409,0.96345
1044.05430,0.95608
1042.56451,0.88211
1041.07472,0.79967
1039.58494,0.74442
1038.09515,0.64289
1036.60536,0.58332
1035.11557,0.52377
1033.62578,0.46152
1032.13599,0.41939
1030.64620,0.34893
1029.15642,0.29904
1027.66663,0.26926
1026.17684,0.23950
1024.68705,0.20528
1023.19726,0.17463
1021.70747,0.14022
1020.21769,0.14222
1018.72790,0.11565
1017.23811,0.11959
1015.74832,0.12355
1014.25853,0.10272
1012.76874,0.09681
1011.27896,0.10061
1009.78917,0.09521
1008.29938,0.06338
1006.80959,0.06194
1005.31980,0.06052
1003.83001,0.02356
1002.34022,0.01735
1000.85044,0.01021
999.36065,0.01963
997.87086,0.02991
996.38107,0.04021
994.89128,0.05301
993.40149,0.06891
991.91171,0.09357
990.42192,0.11212
988.93213,0.12455
987.44234,0.12743
985.95255,0.13034
984.46276,0.12725
982.97297,0.12395
981.48319,0.10035
979.99340,0.09875
978.50361,0.08182
977.01382,0.06492
975.52403,0.05087
974.03424,0.03779
972.54446,0.01765
971.05467,0.01053
969.56488,0.01335
968.07509,0.02163
966.58530,0.02993
965.09551,0.00425
963.60573,0.01017
962.11594,0.00856
960.62615,0.00415
959.13636,0.01063
957.64657,0.01713
956.15678,0.01622
954.66699,0.02313
953.17721,0.02794
951.68742,0.02355
950.19763,0.02546
948.70784,0.02738
947.21805,0.05993
945.72826,0.08399
944.23848,0.09154
942.74869,0.11376
941.25890,0.12821
939.76911,0.13973
938.27932,0.15128
936.78953,0.15919
935.29974,0.17846
933.80996,0.19114
932.32017,0.20692
930.83038,0.20371
929.34059,0.20052
927.85080,0.22912
926.36101,0.23980
924.87123,0.26751
923.38144,0.29454
921.89165,0.33718
920.40186,0.37985
918.91207,0.46293
917.42228,0.58479
915.93250,0.72154
914.44271,0.93321
912.95292,1.05620
911.46313,1.17922
909.97334,1.37891
908.48355,1.55524
906.99376,1.73372
905.50398,1.86546
904.01419,1.90355
902.52440,1.94166
901.03461,2.00000
899.54482,1.94190
898.05503,1.83327
896.56525,1.61812
895.07546,1.46678
893.58567,1.31547
892.09588,1.08622
890.60609,0.87212
889.11630,0.65969
887.62651,0.49855
886.13673,0.42780
884.64694,0.35707
883.15715,0.28128
881.66736,0.20457
880.17757,0.16285
878.68778,0.13557
877.19800,0.10830
875.70821,0.06784
874.21842,0.05102
872.72863,0.04414
871.23884,0.05100
869.74905,0.03756
868.25927,0.02414
866.76948,0.02186
865.27969,0.02786
863.78990,0.04570
862.30011,0.04821
860.81032,0.05476
859.32053,0.06134
857.83075,0.08967
856.34096,0.10504
854.85117,0.11499
853.36138,0.12284
851.87159,0.13497
850.38180,0.14713
848.89202,0.16190
847.40223,0.17812
845.91244,0.18043
844.42265,0.19894
842.93286,0.21748
841.44307,0.23521
839.95329,0.25580
838.46350,0.25705
836.97371,0.27013
835.48392,0.27934
833.99413,0.28857
832.50434,0.29440
831.01455,0.27451
829.52477,0.23078
828.03498,0.21377
826.54519,0.20611
825.05540,0.19848
823.56561,0.17824
822.07582,0.17148
820.58604,0.17420
819.09625,0.15769
817.60646,0.14121
816.11667,0.13030
814.62688,0.12957
813.13709,0.13713
811.64730,0.14425
810.15752,0.14537
808.66773,0.14651
807.17794,0.12677
805.68815,0.13327
804.19836,0.15445
802.70857,0.16230
801.21879,0.17018
799.72900,0.13710
798.23921,0.14963
796.74942,0.15108
795.25963,0.14654
793.76984,0.14202
792.28006,0.15772
790.79027,0.16825
789.30048,0.19297
787.81069,0.23001
786.32090,0.24923
784.83111,0.26848
783.34132,0.27228
781.85154,0.33965
780.36175,0.35389
778.87196,0.38375
777.38217,0.41363
775.89238,0.43503
774.40259,0.44653
772.91281,0.40680
771.42302,0.39355
769.93323,0.38032
768.44344,0.34515
766.95365,0.28732
765.46386,0.23283
763.97407,0.19395
762.48429,0.18250
760.99450,0.17107
759.50471,0.16557
758.01492,0.14167
756.52513,0.11473
755.03534,0.11816
753.54556,0.12162
752.05577,0.09805
750.56598,0.08609
749.07619,0.06045
747.58640,0.06081
746.09661,0.06120
744.60683,0.05855
743.11704,0.03536
741.62725,0.02284
740.13746,0.02380
738.64767,0.02478
737.15788,0.02154
735.66809,0.00415
734.17831,0.00773
732.68852,0.00898
731.19873,0.01025
729.70894,0.01391
728.21915,0.01901
726.72936,0.01280
725.23958,0.01417
723.74979,0.00918
722.26000,0.00422
720.77021,0.01664
719.28042,0.02129
717.79063,0.01320
716.30084,0.01790
714.81106,0.02262
713.32127,0.01957
711.83148,0.03142
710.34169,0.02511
708.85190,0.02308
707.36211,0.02107
705.87233,0.01719
704.38254,0.04807
702.89275,0.05133
701.40296,0.05261
699.91317,0.05391
698.42338,0.07095
696.93360,0.09840
695.44381,0.11572
693.95402,0.11405
692.46423,0.11240
690.97444,0.14633
689.48465,0.15879
687.99486,0.17741
686.50508,0.19653
685.01529,0.21567
683.52550,0.23413
682.03571,0.24459
680.54592,0.28577
679.05613,0.28328
677.56635,0.28081
676.07656,0.27294
674.58677,0.25800
673.09698,0.23859
671.60719,0.22500
670.11740,0.21143
668.62761,0.18147
667.13783,0.13595
665.64804,0.11985
664.15825,0.10379
662.66846,0.09164
661.17867,0.06771
659.68888,0.06411
658.19910,0.06704
656.70931,0.06999
655.21952,0.05348
653.72973,0.05116
652.23994,0.05738
650.75015,0.05629
649.26037,0.05523
647.77058,0.06010
646.28079,0.03665
644.79100,0.05456
643.30121,0.04414
641.81142,0.03376
640.32163,0.02127
638.83185,0.00809
637.34206,0.02016
635.85227,0.01583
634.36248,0.01152
632.87269,0.02720
631.38290,0.01881
629.89312,0.03147
628.40333,0.02052
626.91354,0.00961
625.42375,0.01714
623.93396,0.00415
622.44417,0.01277
620.95438,0.02142
619.46460,0.02217
617.97481,0.03713
616.48502,0.07030
614.99523,0.07952
613.50544,0.08876
612.01565,0.09956
610.52587,0.14960
609.03608,0.17250
607.54629,0.19105
606.05650,0.20963
604.56671,0.27418
603.07692,0.33710
601.58714,0.36023
600.09735,0.38339
598.60756,0.41638
597.11777,0.44562
595.62798,0.43708
594.13819,0.42325
592.64840,0.40945
591.15862,0.37571
589.66883,0.34506
588.17904,0.29223
586.68925,0.24214
585.19946,0.19208
583.70967,0.14996
582.21989,0.11778
580.73010,0.10428
579.24031,0.09082
577.75052,0.06958
576.26073,0.05828
574.77094,0.06450
573.28115,0.05408
571.79137,0.04369
570.30158,0.05918
568.81179,0.06077
567.32200,0.06746
565.83221,0.07417
564.34242,0.09402
562.85264,0.09783
561.36285,0.14087
559.87306,0.15512
558.38327,0.16940
556.89348,0.18653
555.40369,0.19542
553.91391,0.19985
552.42412,0.20430
550.93433,0.19437
549.44454,0.19296
547.95475,0.20930
546.46496,0.20298
544.97517,0.19668
543.48539,0.22065
541.99560,0.24228
540.50581,0.26866
539.01602,0.29506
537.52623,0.33874
536.03644,0.39755
534.54666,0.42001
533.05687,0.44545
531.56708,0.47091
530.07729,0.51778
528.58750,0.56278
527.09771,0.57355
525.60792,0.58434
524.11814,0.64760
522.62835,0.69388
521.13856,0.73947
519.64877,0.74942
518.15898,0.75939
516.66919,0.81711
515.17941,0.85051
513.68962,0.84886
512.19983,0.84724
510.71004,0.81316
509.22025,0.77366
507.73046,0.67561
506.24068,0.61408
504.75089,0.55257
503.26110,0.50019
501.77131,0.38617
500.28152,0.34281
498.79173,0.29947
497.30194,0.22426
495.81216,0.15948
494.32237,0.13429
492.83258,0.10912
491.34279,0.10630
489.85300,0.08011
488.36321,0.06010
486.87343,0.05499
485.38364,0.04990
483.89385,0.05902
482.40406,0.07926
480.91427,0.08322
479.42448,0.08721
477.93469,0.13563
476.44491,0.15975
474.95512,0.17775
473.46533,0.19577
471.97554,0.21217
470.48575,0.20874
468.99596,0.17865
467.50618,0.16571
466.01639,0.15279
464.52660,0.13080
463.03681,0.11474
461.54702,0.09563
460.05723,0.07655
458.56745,0.05017
457.07766,0.03657
455.58787,0.02925
454.09808,0.02196
452.60829,0.02403
451.11850,0.00415
449.62871,0.00671
448.13893,0.00931
446.64914,0.02043
445.15935,0.00700
443.66956,0.01912
442.17977,0.02169
440.68998,0.02428
439.20020,0.03293
437.71041,0.02979
436.22062,0.02218
434.73083,0.01459
433.24104,0.04554
431.75125,0.06139
430.26146,0.05790
428.77168,0.05443
427.28189,0.04720
425.79210,0.07638
424.30231,0.06200
422.81252,0.04764
421.32273,0.02823
419.83295,0.01829
418.34316,0.01617
416.85337,0.01408
415.36358,0.00729
413.87379,0.04634
412.38400,0.04633
410.89422,0.04634
409.40443,0.05524
407.91464,0.05069
406.42485,0.04286
404.93506,0.04273
403.44527,0.04263
401.95548,0.03558
400.46570,0.04249
398.97591,0.04636
397.48612,0.05025
395.99633,0.05771
394.50654,0.03685
393.01675,0.03538
391.52697,0.03393
390.03718,0.03015
388.54739,0.04624
387.05760,0.03731
385.56781,0.02841
384.07802,0.04882
382.58824,0.04753
381.09845,0.02583
379.60866,0.00415
378.11887,0.02528
376.62908,0.02872
375.13929,0.02510
373.64950,0.02151
372.15972,0.02455
370.66993,0.03990
369.18014,0.03508
367.69035,0.03028
366.20056,0.03791
364.71077,0.04957
363.22099,0.04355
361.73120,0.03755
360.24141,0.07055
358.75162,0.05042
357.26183,0.04839
355.77204,0.04639
354.28225,0.03272
352.79247,0.05214
351.30268,0.04749
349.81289,0.04286
348.32310,0.08858
346.83331,0.06440
345.34352,0.06209
343.85374,0.05981
342.36395,0.06782
340.87416,0.04067
339.38437,0.03976
337.89458,0.03887
336.40479,0.02785
334.91501,0.05465
333.42522,0.02939
331.93543,0.00415
330.44564,0.01312
328.95585,0.02850
327.46606,0.02654
325.97627,0.02460
324.48649,0.04883
322.99670,0.05608
321.50691,0.05438
320.01712,0.05270
318.52733,0.08600
317.03754,0.10138
315.54776,0.08229
314.05797,0.06323
312.56818,0.07939
311.07839,0.07526
309.58860,0.05320
308.09881,0.03116
306.60902,0.05946
305.11924,0.03511
303.62945,0.02059
302.13966,0.00609
300.64987,0.01633
299.16008,0.00415
