1778.52000,0.01661
1777.03021,0.01724
1775.54042,0.01790
1774.05063,0.01750
1772.56085,0.00774
1771.07106,0.02326
1769.58127,0.01824
1768.09148,0.01613
1766.60169,0.02054
1765.11190,0.02029
1763.62212,0.00526
1762.13233,0.02057
1760.64254,0.02219
1759.15275,0.03250
1757.66296,0.01757
1756.17317,0.01493
1754.68339,0.02639
1753.19360,0.01659
1751.70381,0.00248
1750.21402,0.01650
1748.72423,0.03162
1747.23444,0.01935
1745.74465,0.02226
1744.25487,0.01833
1742.76508,0.02814
1741.27529,0.02679
1739.78550,0.01392
1738.29571,0.01839
1736.80592,0.02613
1735.31614,0.00864
1733.82635,0.01363
1732.33656,0.01215
1730.84677,0.00637
1729.35698,0.02046
1727.86719,0.01328
1726.37740,0.00649
1724.88762,0.00621
1723.39783,0.00380
1721.90804,0.00430
1720.41825,0.01420
1718.92846,0.00825
1717.43867,0.00810
1715.94889,0.01230
1714.45910,0.02375
1712.96931,0.00526
1711.47952,0.02270
1709.98973,0.00624
1708.49994,0.02084
1707.01016,0.01850
1705.52037,0.01619
1704.03058,0.01173
1702.54079,0.01560
1701.05100,0.02671
1699.56121,0.02919
1698.07142,0.02230
1696.58164,0.01761
1695.09185,0.02629
1693.60206,0.02742
1692.11227,0.01702
1690.62248,0.02722
1689.13269,0.03384
1687.64291,0.02821
1686.15312,0.02657
1684.66333,0.04553
1683.17354,0.05115
1681.68375,0.04309
1680.19396,0.04588
1678.70417,0.03643
1677.21439,0.05190
1675.72460,0.05187
1674.23481,0.05945
1672.74502,0.05767
1671.25523,0.06097
1669.76544,0.07295
1668.27566,0.07882
1666.78587,0.08977
1665.29608,0.07873
1663.80629,0.08936
1662.31650,0.09136
1660.82671,0.08905
1659.33693,0.10301
1657.84714,0.10580
1656.35735,0.10681
1654.86756,0.09811
1653.37777,0.08654
1651.88798,0.09484
1650.39819,0.09847
1648.90841,0.08229
1647.41862,0.08850
1645.92883,0.09220
1644.43904,0.09594
1642.94925,0.08418
1641.45946,0.10384
1639.96968,0.08960
1638.47989,0.11869
1636.99010,0.10342
1635.50031,0.08456
1634.01052,0.10542
1632.52073,0.08445
1631.03094,0.08695
1629.54116,0.09201
1628.05137,0.09060
1626.56158,0.09967
1625.07179,0.11166
1623.58200,0.10780
1622.09221,0.10431
1620.60243,0.08822
1619.11264,0.08443
1617.62285,0.09004
1616.13306,0.09712
1614.64327,0.08402
1613.15348,0.10125
1611.66370,0.09433
1610.17391,0.10223
1608.68412,0.09608
1607.19433,0.06938
1605.70454,0.08637
1604.21475,0.08589
1602.72496,0.08543
1601.23518,0.08193
1599.74539,0.09829
1598.25560,0.09051
1596.76581,0.08888
1595.27602,0.08367
1593.78623,0.07704
1592.29645,0.08198
1590.80666,0.07648
1589.31687,0.07967
1587.82708,0.07061
1586.33729,0.08395
1584.84750,0.08576
1583.35771,0.07606
1581.86793,0.07684
1580.37814,0.06862
1578.88835,0.07883
1577.39856,0.08366
1575.90877,0.08273
1574.41898,0.05837
1572.92920,0.04306
1571.43941,0.04148
1569.94962,0.04137
1568.45983,0.04129
1566.97004,0.04159
1565.48025,0.02568
1563.99047,0.04191
1562.50068,0.02352
1561.01089,0.04160
1559.52110,0.02759
1558.03131,0.01540
1556.54152,0.02021
1555.05173,0.02070
1553.56195,0.02844
1552.07216,0.01924
1550.58237,0.01620
1549.09258,0.01102
1547.60279,0.00333
1546.11300,0.00073
1544.62322,0.00145
1543.13343,0.01801
1541.64364,0.01258
1540.15385,0.01366
1538.66406,0.01477
1537.17427,0.00653
1535.68448,0.00841
1534.19470,0.00526
1532.70491,0.00920
1531.21512,0.01244
1529.72533,0.01967
1528.23554,0.01285
1526.74575,0.01400
1525.25597,0.01625
1523.76618,0.02827
1522.27639,0.03165
1520.78660,0.02748
1519.29681,0.03958
1517.80702,0.03221
1516.31724,0.04399
1514.82745,0.02115
1513.33766,0.03478
1511.84787,0.04844
1510.35808,0.03939
1508.86829,0.03758
1507.37850,0.03976
1505.88872,0.04810
1504.39893,0.04348
1502.90914,0.05873
1501.41935,0.04657
1499.92956,0.03985
1498.43977,0.06708
1496.94999,0.08423
1495.46020,0.08120
1493.97041,0.09875
1492.48062,0.10046
1490.99083,0.10796
1489.50104,0.11368
1488.01125,0.11871
1486.52147,0.12375
1485.03168,0.13749
1483.54189,0.15486
1482.05210,0.17044
1480.56231,0.18894
1479.07252,0.19231
1477.58274,0.22276
1476.09295,0.21860
1474.60316,0.24116
1473.11337,0.26231
1471.62358,0.25425
1470.13379,0.28591
1468.64401,0.26165
1467.15422,0.28073
1465.66443,0.30669
1464.17464,0.33267
1462.68485,0.35868
1461.19506,0.39806
1459.70527,0.48475
1458.21549,0.50866
1456.72570,0.56364
1455.23591,0.64065
1453.74612,0.69207
1452.25633,0.73196
1450.76654,0.72784
1449.27676,0.77500
1447.78697,0.76444
1446.29718,0.71601
1444.80739,0.69557
1443.31760,0.67516
1441.82781,0.61453
1440.33802,0.54671
1438.84824,0.49191
1437.35845,0.47971
1435.86866,0.47295
1434.37887,0.52793
1432.88908,0.56453
1431.39929,0.62244
1429.90951,0.67785
1428.41972,0.73762
1426.92993,0.82881
1425.44014,0.88104
1423.95035,0.89324
1422.46056,0.90547
1420.97078,0.97402
1419.48099,1.04187
1417.99120,1.02097
1416.50141,1.01416
1415.01162,0.94134
1413.52183,0.90174
1412.03204,0.85712
1410.54226,0.80314
1409.05247,0.73835
1407.56268,0.64977
1406.07289,0.59875
1404.58310,0.56182
1403.09331,0.52492
1401.60353,0.45485
1400.11374,0.39345
1398.62395,0.36890
1397.13416,0.32091
1395.64437,0.25562
1394.15458,0.23077
1392.66479,0.19079
1391.17501,0.16527
1389.68522,0.14267
1388.19543,0.09699
1386.70564,0.08237
1385.21585,0.06777
1383.72606,0.06258
1382.23628,0.05201
1380.74649,0.04109
1379.25670,0.01757
1377.76691,0.02150
1376.27712,0.03051
1374.78733,0.00526
1373.29755,0.02462
1371.80776,0.02993
1370.31797,0.01866
1368.82818,0.02384
1367.33839,0.02904
1365.84860,0.03625
1364.35881,0.04709
1362.86903,0.05760
1361.37924,0.06669
1359.88945,0.06750
1358.39966,0.10406
1356.90987,0.13812
1355.42008,0.15813
1353.93030,0.23519
1352.44051,0.28755
1350.95072,0.33993
1349.46093,0.39180
1347.97114,0.48663
1346.48135,0.54468
1344.99156,0.62549
1343.50178,0.69911
1342.01199,0.75326
1340.52220,0.79769
1339.03241,0.86633
1337.54262,0.92525
1336.05283,0.95441
1334.56305,0.98361
1333.07326,1.01445
1331.58347,1.04892
1330.09368,1.02892
1328.60389,0.97286
1327.11410,0.98215
1325.62432,0.88427
1324.13453,0.87015
1322.64474,0.85208
1321.15495,0.80877
1319.66516,0.78154
1318.17537,0.75434
1316.68558,0.71833
1315.19580,0.63794
1313.70601,0.58176
1312.21622,0.53211
1310.72643,0.50557
1309.23664,0.46895
1307.74685,0.43813
1306.25707,0.39506
1304.76728,0.38035
1303.27749,0.36566
1301.78770,0.30787
1300.29791,0.26923
1298.80812,0.23459
1297.31834,0.18229
1295.82855,0.17079
1294.33876,0.12719
1292.84897,0.12188
1291.35918,0.09818
1289.86939,0.09977
1288.37960,0.10139
1286.88982,0.09833
1285.40003,0.08809
1283.91024,0.06271
1282.42045,0.07163
1280.93066,0.05533
1279.44087,0.04518
1277.95109,0.03722
1276.46130,0.02784
1274.97151,0.03075
1273.48172,0.03369
1271.99193,0.02258
1270.50214,0.03278
1269.01235,0.02605
1267.52257,0.02801
1266.03278,0.03756
1264.54299,0.04678
1263.05320,0.03798
1261.56341,0.03137
1260.07362,0.02478
1258.58384,0.01353
1257.09405,0.01998
1255.60426,0.00950
1254.11447,0.00626
1252.62468,0.01098
1251.13489,0.00526
1249.64511,0.01033
1248.15532,0.01218
1246.66553,0.01766
1245.17574,0.02316
1243.68595,0.01642
1242.19616,0.01512
1240.70637,0.01817
1239.21659,0.01366
1237.72680,0.00882
1236.23701,0.01303
1234.74722,0.01618
1233.25743,0.01737
1231.76764,0.01858
1230.27786,0.00520
1228.78807,0.01205
1227.29828,0.01027
1225.80849,0.00526
1224.31870,0.01198
1222.82891,0.00573
1221.33912,0.02253
1219.84934,0.02022
1218.35955,0.01795
1216.86976,0.03843
1215.37997,0.04270
1213.89018,0.06647
1212.40039,0.06321
1210.91061,0.06214
1209.42082,0.07372
1207.93103,0.06421
1206.44124,0.05473
1204.95145,0.06314
1203.46166,0.04089
1201.97188,0.03744
1200.48209,0.04375
1198.99230,0.03854
1197.50251,0.05645
1196.01272,0.02747
1194.52293,0.03099
1193.03314,0.03454
1191.54336,0.02548
1190.05357,0.00526
1188.56378,0.00665
1187.07399,0.00698
1185.58420,0.03151
1184.09441,0.02215
1182.60463,0.02002
1181.11484,0.01792
1179.62505,0.01368
1178.13526,0.00838
1176.64547,0.02512
1175.15568,0.01265
1173.66589,0.00526
1172.17611,0.01676
1170.68632,0.01728
1169.19653,0.01782
1167.70674,0.01099
1166.21695,0.02006
1164.72716,0.02807
1163.23738,0.04043
1161.74759,0.05355
1160.25780,0.08184
1158.76801,0.08977
1157.27822,0.09772
1155.78843,0.07918
1154.29865,0.08230
1152.80886,0.08582
1151.31907,0.11390
1149.82928,0.12432
1148.33949,0.12646
1146.84970,0.12971
1145.35991,0.13299
1143.87013,0.12149
1142.38034,0.16668
1140.89055,0.14151
1139.40076,0.18278
1137.91097,0.17679
1136.42118,0.20836
1134.93140,0.21632
1133.44161,0.22430
1131.95182,0.23068
1130.46203,0.23780
1128.97224,0.23413
1127.48245,0.23877
1125.99266,0.23659
1124.50288,0.22613
1123.01309,0.23680
1121.52330,0.24750
1120.03351,0.24470
1118.54372,0.25274
1117.05393,0.26008
1115.56415,0.25482
1114.07436,0.26726
1112.58457,0.26476
1111.09478,0.26227
1109.60499,0.24448
1108.11520,0.26785
1106.62542,0.24396
1105.13563,0.23021
1103.64584,0.21684
1102.15605,0.21035
1100.66626,0.19938
1099.17647,0.18843
1097.68668,0.19861
1096.19690,0.21171
1094.70711,0.22122
1093.21732,0.19323
1091.72753,0.18943
1090.23774,0.19000
1088.74795,0.19058
1087.25817,0.17965
1085.76838,0.16765
1084.27859,0.17517
1082.78880,0.17477
1081.29901,0.15852
1079.80922,0.17404
1078.31943,0.18689
1076.82965,0.19976
1075.33986,0.21500
1073.85007,0.20970
1072.36028,0.18962
1070.87049,0.21576
1069.38070,0.23146
1067.89092,0.25440
1066.40113,0.27736
1064.91134,0.30793
1063.42155,0.42333
1061.93176,0.48174
1060.44197,0.56868
1058.95219,0.64986
1057.46240,0.68976
1055.97261,0.72967
1054.48282,0.77593
1052.99303,0.82004
1051.50324,0.89016
1050.01345,0.91376
1048.52367,0.91103
1047.03388,0.88451
1045.54409,0.85801
1044.05430,0.80158
1042.56451,0.71992
1041.07472,0.66462
1039.58494,0.66023
1038.09515,0.56023
1036.60536,0.52901
1035.11557,0.49781
1033.62578,0.44083
1032.13599,0.41383
1030.64620,0.34138
1029.15642,0.29313
1027.66663,0.27450
1026.17684,0.25590
1024.68705,0.21314
1023.19726,0.18917
1021.70747,0.16126
1020.21769,0.14528
1018.72790,0.12210
1017.23811,0.11573
1015.74832,0.10939
1014.25853,0.10577
1012.76874,0.10579
1011.27896,0.10944
1009.78917,0.09399
1008.29938,0.05836
1006.80959,0.05902
1005.31980,0.05970
1003.83001,0.02449
1002.34022,0.02468
1000.85044,0.04655
999.36065,0.05220
997.87086,0.06022
996.38107,0.06827
994.89128,0.06388
993.40149,0.10897
991.91171,0.11943
990.42192,0.12018
988.93213,0.12924
987.44234,0.11831
985.95255,0.10739
984.46276,0.13278
982.97297,0.13544
981.48319,0.11143
979.99340,0.07770
978.50361,0.07088
977.01382,0.06408
975.52403,0.04702
974.03424,0.02891
972.54446,0.02561
971.05467,0.02883
969.56488,0.03136
968.07509,0.02525
966.58530,0.01916
965.09551,0.01743
963.60573,0.00526
962.11594,0.01081
960.62615,0.01313
959.13636,0.01259
957.64657,0.01208
956.15678,0.03288
954.66699,0.04613
953.17721,0.03955
951.68742,0.04527
950.19763,0.05011
948.70784,0.05497
947.21805,0.08205
945.72826,0.09653
944.23848,0.10742
942.74869,0.11617
941.25890,0.11339
939.76911,0.12400
938.27932,0.13462
936.78953,0.14203
935.29974,0.17832
933.80996,0.19371
932.32017,0.22609
930.83038,0.23089
929.34059,0.23570
927.85080,0.28439
926.36101,0.31903
924.87123,0.42371
923.38144,0.46164
921.89165,0.50917
920.40186,0.55672
918.91207,0.62937
917.42228,0.76989
915.93250,0.90900
914.44271,1.08241
912.95292,1.18367
911.46313,1.28496
909.97334,1.52629
908.48355,1.70846
906.99376,1.83689
905.50398,1.96281
904.01419,1.98139
902.52440,2.00000
901.03461,1.94700
899.54482,1.89293
898.05503,1.78151
896.56525,1.52937
895.07546,1.40645
893.58567,1.28355
892.09588,1.07010
890.60609,0.81697
889.11630,0.61151
887.62651,0.43746
886.13673,0.39372
884.64694,0.35001
883.15715,0.24352
881.66736,0.18794
880.17757,0.13383
878.68778,0.11963
877.19800,0.10544
875.70821,0.06007
874.21842,0.04287
872.72863,0.03868
871.23884,0.03272
869.74905,0.02786
868.25927,0.02302
866.76948,0.01099
865.27969,0.02750
863.78990,0.03393
862.30011,0.03929
860.81032,0.04469
859.32053,0.05010
857.83075,0.06925
856.34096,0.08013
854.85117,0.08057
853.36138,0.12722
851.87159,0.12464
850.38180,0.12208
848.89202,0.13019
847.40223,0.15782
845.91244,0.16020
844.42265,0.16135
842.93286,0.16252
841.44307,0.20756
839.95329,0.20139
838.46350,0.21652
836.97371,0.22194
835.48392,0.22396
833.99413,0.22600
832.50434,0.23149
831.01455,0.21860
829.52477,0.17470
828.03498,0.15211
826.54519,0.14326
825.05540,0.13444
823.56561,0.13827
822.07582,0.10857
820.58604,0.09909
819.09625,0.10047
817.60646,0.10188
816.11667,0.08670
814.62688,0.08707
813.13709,0.09829
811.64730,0.08896
810.15752,0.07353
808.66773,0.05811
807.17794,0.09145
805.68815,0.11578
804.19836,0.10874
802.70857,0.11219
801.21879,0.11566
799.72900,0.09787
798.23921,0.07865
796.74942,0.08509
795.25963,0.10292
793.76984,0.12077
792.28006,0.12330
790.79027,0.12406
789.30048,0.14577
787.81069,0.15560
786.32090,0.17123
784.83111,0.18688
783.34132,0.23178
781.85154,0.27346
780.36175,0.30759
778.87196,0.31720
777.38217,0.32684
775.89238,0.31449
774.40259,0.33789
772.91281,0.32738
771.42302,0.32358
769.93323,0.31981
768.44344,0.30866
766.95365,0.25567
765.46386,0.20632
763.97407,0.20823
762.48429,0.17949
760.99450,0.15078
759.50471,0.10080
758.01492,0.10570
756.52513,0.08464
755.03534,0.08977
753.54556,0.09492
752.05577,0.08259
750.56598,0.06019
749.07619,0.03095
747.58640,0.02880
746.09661,0.02667
744.60683,0.04514
743.11704,0.02177
741.62725,0.02550
740.13746,0.01878
738.64767,0.01208
737.15788,0.02093
735.66809,0.00526
734.17831,0.03315
732.68852,0.03021
731.19873,0.02729
729.70894,0.01267
728.21915,0.00709
726.72936,0.01989
725.23958,0.00708
723.74979,0.02101
722.26000,0.03495
720.77021,0.00526
719.28042,0.01726
717.79063,0.02893
716.30084,0.02745
714.81106,0.02599
713.32127,0.01752
711.83148,0.04516
710.34169,0.03385
708.85190,0.03628
707.36211,0.03873
705.87233,0.05167
704.38254,0.03829
702.89275,0.07041
701.40296,0.06015
699.91317,0.04991
698.42338,0.04710
696.93360,0.07787
695.44381,0.10469
693.95402,0.10736
692.46423,0.11006
690.97444,0.11097
689.48465,0.15016
687.99486,0.14391
686.50508,0.16944
685.01529,0.19499
683.52550,0.20144
682.03571,0.22704
680.54592,0.25988
679.05613,0.26388
677.56635,0.26790
676.07656,0.26797
674.58677,0.24606
673.09698,0.21478
671.60719,0.21078
670.11740,0.20680
668.62761,0.18642
667.13783,0.17185
665.64804,0.17299
664.15825,0.17416
662.66846,0.11996
661.17867,0.08708
659.68888,0.09355
658.19910,0.07822
656.70931,0.06291
655.21952,0.06982
653.72973,0.06449
652.23994,0.07144
650.75015,0.06183
649.26037,0.05223
647.77058,0.06395
646.28079,0.03564
644.79100,0.01854
643.30121,0.02276
641.81142,0.02700
640.32163,0.05039
638.83185,0.02906
637.34206,0.01749
635.85227,0.01136
634.36248,0.00526
632.87269,0.03555
631.38290,0.03771
629.89312,0.03664
628.40333,0.03434
626.91354,0.03206
625.42375,0.04370
623.93396,0.02433
622.44417,0.02465
620.95438,0.02500
619.46460,0.01256
617.97481,0.03262
616.48502,0.06245
614.99523,0.06867
613.50544,0.07491
612.01565,0.12105
610.52587,0.17011
609.03608,0.17913
607.54629,0.20116
606.05650,0.22322
604.56671,0.23881
603.07692,0.28727
601.58714,0.31211
600.09735,0.33697
598.60756,0.37756
597.11777,0.37703
595.62798,0.42344
594.13819,0.39102
592.64840,0.35862
591.15862,0.34087
589.66883,0.29679
588.17904,0.24949
586.68925,0.22658
585.19946,0.20368
583.70967,0.18713
582.21989,0.13452
580.73010,0.11441
579.24031,0.09432
577.75052,0.10421
576.26073,0.09860
574.77094,0.06235
573.28115,0.06094
571.79137,0.05956
570.30158,0.06885
568.81179,0.06878
567.32200,0.07072
565.83221,0.07269
564.34242,0.10156
562.85264,0.12144
561.36285,0.11103
559.87306,0.14015
558.38327,0.16931
556.89348,0.18170
555.40369,0.18113
553.91391,0.17138
552.42412,0.16165
550.93433,0.18930
549.44454,0.20615
547.95475,0.17358
546.46496,0.19228
544.97517,0.21100
543.48539,0.22542
541.99560,0.28858
540.50581,0.31044
539.01602,0.33233
537.52623,0.32664
536.03644,0.36932
534.54666,0.41204
533.05687,0.44016
531.56708,0.46830
530.07729,0.51866
528.58750,0.54740
527.09771,0.57075
525.60792,0.59412
524.11814,0.66912
522.62835,0.67521
521.13856,0.72319
519.64877,0.72988
518.15898,0.73659
516.66919,0.77346
515.17941,0.79916
513.68962,0.78213
512.19983,0.76511
510.71004,0.74939
509.22025,0.70013
507.73046,0.61805
506.24068,0.57533
504.75089,0.53264
503.26110,0.42645
501.77131,0.34808
500.28152,0.30762
498.79173,0.26719
497.30194,0.21776
495.81216,0.18315
494.32237,0.16823
492.83258,0.15334
491.34279,0.09932
489.85300,0.10017
488.36321,0.07795
486.87343,0.06803
485.38364,0.05813
483.89385,0.08362
482.40406,0.07738
480.91427,0.07676
479.42448,0.07616
477.93469,0.11691
476.44491,0.09163
474.95512,0.12647
473.46533,0.16134
471.97554,0.17656
470.48575,0.16618
468.99596,0.16846
467.50618,0.15578
466.01639,0.14313
464.52660,0.10362
463.03681,0.10130
461.54702,0.09287
460.05723,0.08447
458.56745,0.05732
457.07766,0.05330
455.58787,0.02927
454.09808,0.00526
452.60829,0.04328
451.11850,0.03332
449.62871,0.02952
448.13893,0.02575
446.64914,0.01550
445.15935,0.02368
443.66956,0.02070
442.17977,0.02262
440.68998,0.02456
439.20020,0.00000
437.71041,0.02274
436.22062,0.02259
434.73083,0.02246
433.24104,0.03481
431.75125,0.03996
430.26146,0.03756
428.77168,0.03518
427.28189,0.03391
425.79210,0.06298
424.30231,0.05563
422.81252,0.04830
421.32273,0.02150
419.83295,0.02901
418.34316,0.03547
416.85337,0.04195
415.36358,0.03221
413.87379,0.05281
412.38400,0.03879
410.89422,0.02480
409.40443,0.02887
407.91464,0.06076
406.42485,0.05369
404.93506,0.05026
403.44527,0.04685
401.95548,0.03878
400.46570,0.04624
398.97591,0.04670
397.48612,0.04718
395.99633,0.02512
394.50654,0.00526
393.01675,0.01567
391.52697,0.02609
390.03718,0.01309
388.54739,0.01852
387.05760,0.01188
385.56781,0.00526
384.07802,0.02448
382.58824,0.01666
381.09845,0.01752
379.60866,0.01841
378.11887,0.00272
376.62908,0.04913
375.13929,0.03385
373.64950,0.01860
372.15972,0.02647
370.66993,0.01307
369.18014,0.01358
367.69035,0.01412
366.20056,0.05258
364.71077,0.05353
363.22099,0.05179
361.73120,0.05008
360.24141,0.02548
358.75162,0.03735
357.26183,0.04582
355.77204,0.05432
354.28225,0.09549
352.79247,0.06271
351.30268,0.05323
349.81289,0.04378
348.32310,0.03958
346.83331,0.03649
345.34352,0.03992
343.85374,0.04337
342.36395,0.06417
340.87416,0.04313
339.38437,0.05532
337.89458,0.06753
336.40479,0.05920
334.91501,0.03429
333.42522,0.03484
331.93543,0.03542
330.44564,0.02538
328.95585,0.00526
327.46606,0.01417
325.97627,0.02310
324.48649,0.06369
322.99670,0.06029
321.50691,0.06395
320.01712,0.06763
318.52733,0.05744
317.03754,0.09635
315.54776,0.08783
314.05797,0.07934
312.56818,0.09487
311.07839,0.11728
309.58860,0.08396
308.09881,0.05067
306.60902,0.04717
305.11924,0.02962
303.62945,0.01913
302.13966,0.00866
300.64987,0.00526
299.16008,0.00526
