1778.52000,0.01603
1777.03021,0.02610
1775.54042,0.02055
1774.05063,0.02082
1772.56085,0.01861
1771.07106,0.00540
1769.58127,0.01309
1768.09148,0.01094
1766.60169,0.00303
1765.11190,0.00673
1763.62212,0.01239
1762.13233,0.01053
1760.64254,0.00329
1759.15275,0.00612
1757.66296,0.00801
1756.17317,0.00819
1754.68339,0.00994
1753.19360,0.00726
1751.70381,0.00809
1750.21402,0.00778
1748.72423,0.00808
1747.23444,0.00878
1745.74465,0.00159
1744.25487,0.00679
1742.76508,0.01047
1741.27529,0.00548
1739.78550,0.00901
1738.29571,0.00329
1736.80592,0.01164
1735.31614,0.01247
1733.82635,0.01236
1732.33656,0.00726
1730.84677,0.00237
1729.35698,0.00407
1727.86719,0.00000
1726.37740,0.00909
1724.88762,0.00913
1723.39783,0.00417
1721.90804,0.00715
1720.41825,0.00417
1718.92846,0.00373
1717.43867,0.00813
1715.94889,0.00329
1714.45910,0.00653
1712.96931,0.00863
1711.47952,0.00863
1709.98973,0.01638
1708.49994,0.01140
1707.01016,0.00944
1705.52037,0.00751
1704.03058,0.00724
1702.54079,0.01318
1701.05100,0.00717
1699.56121,0.01142
1698.07142,0.01337
1696.58164,0.01207
1695.09185,0.02373
1693.60206,0.01397
1692.11227,0.01351
1690.62248,0.01675
1689.13269,0.02388
1687.64291,0.01827
1686.15312,0.02738
1684.66333,0.02820
1683.17354,0.02788
1681.68375,0.03687
1680.19396,0.03042
1678.70417,0.03501
1677.21439,0.04677
1675.72460,0.05237
1674.23481,0.05529
1672.74502,0.05670
1671.25523,0.05348
1669.76544,0.06227
1668.27566,0.06549
1666.78587,0.07066
1665.29608,0.07198
1663.80629,0.07508
1662.31650,0.07955
1660.82671,0.09428
1659.33693,0.07174
1657.84714,0.07590
1656.35735,0.06636
1654.86756,0.07617
1653.37777,0.08716
1651.88798,0.08233
1650.39819,0.09085
1648.90841,0.09419
1647.41862,0.08074
1645.92883,0.08016
1644.43904,0.07960
1642.94925,0.07221
1641.45946,0.07084
1639.96968,0.08514
1638.47989,0.07685
1636.99010,0.08966
1635.50031,0.08123
1634.01052,0.07166
1632.52073,0.06985
1631.03094,0.07348
1629.54116,0.07597
1628.05137,0.09143
1626.56158,0.09203
1625.07179,0.10001
1623.58200,0.10201
1622.09221,0.09902
1620.60243,0.09141
1619.11264,0.07977
1617.62285,0.08999
1616.13306,0.07956
1614.64327,0.08075
1613.15348,0.08215
1611.66370,0.08647
1610.17391,0.09295
1608.68412,0.09037
1607.19433,0.09593
1605.70454,0.08624
1604.21475,0.08412
1602.72496,0.08202
1601.23518,0.08594
1599.74539,0.08021
1598.25560,0.08128
1596.76581,0.07329
1595.27602,0.08600
1593.78623,0.08288
1592.29645,0.06240
1590.80666,0.07441
1589.31687,0.07176
1587.82708,0.08710
1586.33729,0.07754
1584.84750,0.09293
1583.35771,0.09674
1581.86793,0.07682
1580.37814,0.08282
1578.88835,0.08149
1577.39856,0.08116
1575.90877,0.07234
1574.41898,0.07032
1572.92920,0.06407
1571.43941,0.04373
1569.94962,0.04806
1568.45983,0.05241
1566.97004,0.04297
1565.48025,0.04167
1563.99047,0.03788
1562.50068,0.04088
1561.01089,0.04681
1559.52110,0.03208
1558.03131,0.03090
1556.54152,0.01969
1555.05173,0.03576
1553.56195,0.02982
1552.07216,0.03666
1550.58237,0.01937
1549.09258,0.01544
1547.60279,0.01424
1546.11300,0.00495
1544.62322,0.00553
1543.13343,0.00594
1541.64364,0.00329
1540.15385,0.01273
1538.66406,0.02219
1537.17427,0.02481
1535.68448,0.00582
1534.19470,0.00976
1532.70491,0.01217
1531.21512,0.01307
1529.72533,0.01805
1528.23554,0.01416
1526.74575,0.00779
1525.25597,0.00588
1523.76618,0.01927
1522.27639,0.02340
1520.78660,0.04340
1519.29681,0.04140
1517.80702,0.03575
1516.31724,0.04597
1514.82745,0.05080
1513.33766,0.04639
1511.84787,0.04199
1510.35808,0.05869
1508.86829,0.04449
1507.37850,0.03727
1505.88872,0.04090
1504.39893,0.05092
1502.90914,0.05576
1501.41935,0.06448
1499.92956,0.05526
1498.43977,0.06654
1496.94999,0.07437
1495.46020,0.07044
1493.97041,0.06865
1492.48062,0.10708
1490.99083,0.10361
1489.50104,0.12045
1488.01125,0.12456
1486.52147,0.12869
1485.03168,0.13961
1483.54189,0.15867
1482.05210,0.15921
1480.56231,0.16673
1479.07252,0.17059
1477.58274,0.19265
1476.09295,0.20391
1474.60316,0.19993
1473.11337,0.20911
1471.62358,0.22508
1470.13379,0.24185
1468.64401,0.26386
1467.15422,0.26908
1465.66443,0.28321
1464.17464,0.29737
1462.68485,0.32373
1461.19506,0.34064
1459.70527,0.37748
1458.21549,0.41647
1456.72570,0.49992
1455.23591,0.56852
1453.74612,0.59135
1452.25633,0.64319
1450.76654,0.67128
1449.27676,0.67815
1447.78697,0.68484
1446.29718,0.62876
1444.80739,0.61261
1443.31760,0.59648
1441.82781,0.55439
1440.33802,0.52140
1438.84824,0.49830
1437.35845,0.47521
1435.86866,0.44693
1434.37887,0.49423
1432.88908,0.54175
1431.39929,0.60416
1429.90951,0.66158
1428.41972,0.69081
1426.92993,0.72297
1425.44014,0.75708
1423.95035,0.78184
1422.46056,0.80663
1420.97078,0.82864
1419.48099,0.87598
1417.99120,0.87968
1416.50141,0.83143
1415.01162,0.77161
1413.52183,0.72322
1412.03204,0.70151
1410.54226,0.65916
1409.05247,0.64156
1407.56268,0.59248
1406.07289,0.50363
1404.58310,0.47519
1403.09331,0.44677
1401.60353,0.40359
1400.11374,0.37145
1398.62395,0.33334
1397.13416,0.27227
1395.64437,0.21779
1394.15458,0.18072
1392.66479,0.14754
1391.17501,0.13023
1389.68522,0.10058
1388.19543,0.08293
1386.70564,0.07275
1385.21585,0.06259
1383.72606,0.03883
1382.23628,0.03538
1380.74649,0.02307
1379.25670,0.00982
1377.76691,0.01109
1376.27712,0.00329
1374.78733,0.00369
1373.29755,0.00431
1371.80776,0.01171
1370.31797,0.01237
1368.82818,0.00891
1367.33839,0.00546
1365.84860,0.02621
1364.35881,0.03365
1362.86903,0.04826
1361.37924,0.06521
1359.88945,0.07253
1358.39966,0.09862
1356.90987,0.12028
1355.42008,0.15936
1353.93030,0.21063
1352.44051,0.24329
1350.95072,0.27597
1349.46093,0.37291
1347.97114,0.44844
1346.48135,0.50698
1344.99156,0.56266
1343.50178,0.60888
1342.01199,0.66171
1340.52220,0.71475
1339.03241,0.74694
1337.54262,0.77819
1336.05283,0.79160
1334.56305,0.80503
1333.07326,0.83307
1331.58347,0.84954
1330.09368,0.83242
1328.60389,0.77590
1327.11410,0.76443
1325.62432,0.72110
1324.13453,0.71450
1322.64474,0.69074
1321.15495,0.64246
1319.66516,0.62927
1318.17537,0.61611
1316.68558,0.55708
1315.19580,0.52841
1313.70601,0.49378
1312.21622,0.47598
1310.72643,0.44178
1309.23664,0.40200
1307.74685,0.36688
1306.25707,0.32927
1304.76728,0.31150
1303.27749,0.29375
1301.78770,0.23940
1300.29791,0.21851
1298.80812,0.18084
1297.31834,0.16695
1295.82855,0.12662
1294.33876,0.10157
1292.84897,0.07191
1291.35918,0.09387
1289.86939,0.08735
1288.37960,0.08085
1286.88982,0.07950
1285.40003,0.07064
1283.91024,0.05137
1282.42045,0.04313
1280.93066,0.03512
1279.44087,0.03853
1277.95109,0.04621
1276.46130,0.04638
1274.97151,0.04522
1273.48172,0.04409
1271.99193,0.03081
1270.50214,0.03301
1269.01235,0.01282
1267.52257,0.02164
1266.03278,0.01831
1264.54299,0.02505
1263.05320,0.00863
1261.56341,0.00595
1260.07362,0.00329
1258.58384,0.00356
1257.09405,0.01319
1255.60426,0.01860
1254.11447,0.00432
1252.62468,0.02116
1251.13489,0.01484
1249.64511,0.01647
1248.15532,0.00981
1246.66553,0.01013
1245.17574,0.01047
1243.68595,0.01393
1242.19616,0.01529
1240.70637,0.01088
1239.21659,0.00881
1237.72680,0.01275
1236.23701,0.00184
1234.74722,0.01124
1233.25743,0.00752
1231.76764,0.00382
1230.27786,0.02933
1228.78807,0.00945
1227.29828,0.02689
1225.80849,0.01035
1224.31870,0.00329
1222.82891,0.00471
1221.33912,0.01369
1219.84934,0.02511
1218.35955,0.03655
1216.86976,0.03014
1215.37997,0.03825
1213.89018,0.04290
1212.40039,0.05377
1210.91061,0.06156
1209.42082,0.06513
1207.93103,0.06215
1206.44124,0.05920
1204.95145,0.06149
1203.46166,0.04718
1201.97188,0.03638
1200.48209,0.04396
1198.99230,0.02470
1197.50251,0.02383
1196.01272,0.02587
1194.52293,0.02563
1193.03314,0.02540
1191.54336,0.01767
1190.05357,0.02039
1188.56378,0.02102
1187.07399,0.01567
1185.58420,0.01557
1184.09441,0.01723
1182.60463,0.01157
1181.11484,0.00594
1179.62505,0.02391
1178.13526,0.00789
1176.64547,0.00329
1175.15568,0.00869
1173.66589,0.00736
1172.17611,0.00527
1170.68632,0.00427
1169.19653,0.00329
1167.70674,0.01323
1166.21695,0.01372
1164.72716,0.01173
1163.23738,0.03159
1161.74759,0.04433
1160.25780,0.05844
1158.76801,0.05674
1157.27822,0.05506
1155.78843,0.06210
1154.29865,0.06414
1152.80886,0.07026
1151.31907,0.07389
1149.82928,0.08528
1148.33949,0.10229
1146.84970,0.11141
1145.35991,0.12055
1143.87013,0.12469
1142.38034,0.13639
1140.89055,0.15159
1139.40076,0.14904
1137.91097,0.16680
1136.42118,0.19116
1134.93140,0.19313
1133.44161,0.19512
1131.95182,0.22226
1130.46203,0.24980
1128.97224,0.25264
1127.48245,0.22652
1125.99266,0.23500
1124.50288,0.23907
1123.01309,0.24481
1121.52330,0.25057
1120.03351,0.24872
1118.54372,0.23801
1117.05393,0.24684
1115.56415,0.24371
1114.07436,0.24292
1112.58457,0.24293
1111.09478,0.24297
1109.60499,0.24767
1108.11520,0.26495
1106.62542,0.24728
1105.13563,0.25147
1103.64584,0.21685
1102.15605,0.20370
1100.66626,0.20796
1099.17647,0.21225
1097.68668,0.19704
1096.19690,0.19017
1094.70711,0.19260
1093.21732,0.18713
1091.72753,0.16932
1090.23774,0.16824
1088.74795,0.16719
1087.25817,0.16105
1085.76838,0.15879
1084.27859,0.17105
1082.78880,0.16691
1081.29901,0.16994
1079.80922,0.17299
1078.31943,0.17578
1076.82965,0.17860
1075.33986,0.19216
1073.85007,0.18623
1072.36028,0.20062
1070.87049,0.21522
1069.38070,0.22598
1067.89092,0.23329
1066.40113,0.24062
1064.91134,0.30189
1063.42155,0.39738
1061.93176,0.46912
1060.44197,0.51906
1058.95219,0.60458
1057.46240,0.63244
1055.97261,0.66032
1054.48282,0.70630
1052.99303,0.72254
1051.50324,0.73785
1050.01345,0.76554
1048.52367,0.75790
1047.03388,0.75270
1045.54409,0.74752
1044.05430,0.75714
1042.56451,0.73182
1041.07472,0.67020
1039.58494,0.59681
1038.09515,0.52403
1036.60536,0.50383
1035.11557,0.48365
1033.62578,0.42659
1032.13599,0.41593
1030.64620,0.34946
1029.15642,0.30174
1027.66663,0.27222
1026.17684,0.24272
1024.68705,0.21518
1023.19726,0.17935
1021.70747,0.16461
1020.21769,0.14235
1018.72790,0.13307
1017.23811,0.12391
1015.74832,0.11477
1014.25853,0.10498
1012.76874,0.09463
1011.27896,0.09822
1009.78917,0.09701
1008.29938,0.08461
1006.80959,0.07233
1005.31980,0.06008
1003.83001,0.03828
1002.34022,0.02579
1000.85044,0.03206
999.36065,0.01884
997.87086,0.02545
996.38107,0.03208
994.89128,0.06164
993.40149,0.05489
991.91171,0.07734
990.42192,0.06891
988.93213,0.09759
987.44234,0.09152
985.95255,0.08548
984.46276,0.10013
982.97297,0.07153
981.48319,0.06053
979.99340,0.04917
978.50361,0.04566
977.01382,0.04218
975.52403,0.03340
974.03424,0.01885
972.54446,0.00375
971.05467,0.01174
969.56488,0.01048
968.07509,0.01281
966.58530,0.01517
965.09551,0.00703
963.60573,0.00374
962.11594,0.00337
960.62615,0.00329
959.13636,0.00844
957.64657,0.01362
956.15678,0.00548
954.66699,0.02307
953.17721,0.02155
951.68742,0.03262
950.19763,0.03656
948.70784,0.04053
947.21805,0.05688
945.72826,0.08157
944.23848,0.07363
942.74869,0.09451
941.25890,0.12468
939.76911,0.12464
938.27932,0.12462
936.78953,0.14481
935.29974,0.14610
933.80996,0.17311
932.32017,0.21618
930.83038,0.22237
929.34059,0.22858
927.85080,0.24815
926.36101,0.26543
924.87123,0.26572
923.38144,0.32594
921.89165,0.35672
920.40186,0.38752
918.91207,0.48491
917.42228,0.57286
915.93250,0.70894
914.44271,0.92408
912.95292,1.01635
911.46313,1.10864
909.97334,1.31419
908.48355,1.55821
906.99376,1.79897
905.50398,1.92653
904.01419,1.94620
902.52440,1.96589
901.03461,2.00000
899.54482,1.97733
898.05503,1.82445
896.56525,1.60686
895.07546,1.47654
893.58567,1.34624
892.09588,1.10709
890.60609,0.86815
889.11630,0.63252
887.62651,0.47209
886.13673,0.40132
884.64694,0.33059
883.15715,0.24500
881.66736,0.16484
880.17757,0.11041
878.68778,0.08885
877.19800,0.06731
875.70821,0.03208
874.21842,0.01910
872.72863,0.01367
871.23884,0.01117
869.74905,0.01091
868.25927,0.01068
866.76948,0.01365
865.27969,0.00468
863.78990,0.00461
862.30011,0.02660
860.81032,0.03441
859.32053,0.04225
857.83075,0.05348
856.34096,0.07344
854.85117,0.06309
853.36138,0.08271
851.87159,0.08361
850.38180,0.08454
848.89202,0.08742
847.40223,0.10386
845.91244,0.10795
844.42265,0.11738
842.93286,0.12683
841.44307,0.14684
839.95329,0.16397
838.46350,0.17147
836.97371,0.17570
835.48392,0.18054
833.99413,0.18541
832.50434,0.17909
831.01455,0.17202
829.52477,0.15261
828.03498,0.13574
826.54519,0.12498
825.05540,0.11424
823.56561,0.10130
822.07582,0.09071
820.58604,0.06236
819.09625,0.05636
817.60646,0.05038
816.11667,0.06887
814.62688,0.06400
813.13709,0.07616
811.64730,0.08042
810.15752,0.06838
808.66773,0.05636
807.17794,0.05393
805.68815,0.07510
804.19836,0.09050
802.70857,0.09567
801.21879,0.10088
799.72900,0.10186
798.23921,0.06054
796.74942,0.04070
795.25963,0.04677
793.76984,0.05287
792.28006,0.07696
790.79027,0.10185
789.30048,0.11826
787.81069,0.14725
786.32090,0.14343
784.83111,0.13962
783.34132,0.15806
781.85154,0.19913
780.36175,0.22632
778.87196,0.24338
777.38217,0.26047
775.89238,0.27787
774.40259,0.29819
772.91281,0.28956
771.42302,0.28394
769.93323,0.27835
768.44344,0.25452
766.95365,0.20290
765.46386,0.19110
763.97407,0.16773
762.48429,0.16004
760.99450,0.15237
759.50471,0.11130
758.01492,0.07218
756.52513,0.07038
755.03534,0.06252
753.54556,0.05468
752.05577,0.05566
750.56598,0.05164
749.07619,0.02098
747.58640,0.02338
746.09661,0.02581
744.60683,0.00972
743.11704,0.01297
741.62725,0.00329
740.13746,0.00634
738.64767,0.00941
737.15788,0.00574
735.66809,0.00655
734.17831,0.01529
732.68852,0.01721
731.19873,0.01914
729.70894,0.00226
728.21915,0.01203
726.72936,0.01099
725.23958,0.00593
723.74979,0.00726
722.26000,0.00862
720.77021,0.00344
719.28042,0.01833
717.79063,0.00968
716.30084,0.01525
714.81106,0.02084
713.32127,0.02270
711.83148,0.03733
710.34169,0.03053
708.85190,0.02975
707.36211,0.02900
705.87233,0.02904
704.38254,0.02466
702.89275,0.03345
701.40296,0.03849
699.91317,0.04355
698.42338,0.05492
696.93360,0.06458
695.44381,0.08797
693.95402,0.09652
692.46423,0.10509
690.97444,0.10981
689.48465,0.12867
687.99486,0.16572
686.50508,0.17622
685.01529,0.18674
683.52550,0.21516
682.03571,0.23182
680.54592,0.25662
679.05613,0.24377
677.56635,0.23094
676.07656,0.23146
674.58677,0.21211
673.09698,0.20998
671.60719,0.19686
670.11740,0.18376
668.62761,0.15504
667.13783,0.13542
665.64804,0.13206
664.15825,0.12872
662.66846,0.11594
661.17867,0.08019
659.68888,0.06224
658.19910,0.04962
656.70931,0.03703
655.21952,0.03481
653.72973,0.02565
652.23994,0.04086
650.75015,0.03745
649.26037,0.03406
647.77058,0.03891
646.28079,0.04282
644.79100,0.01487
643.30121,0.01719
641.81142,0.01953
640.32163,0.01735
638.83185,0.00824
637.34206,0.00765
635.85227,0.01259
634.36248,0.01755
632.87269,0.00698
631.38290,0.01557
629.89312,0.02630
628.40333,0.02575
626.91354,0.02523
625.42375,0.00976
623.93396,0.01421
622.44417,0.00874
620.95438,0.00329
619.46460,0.01651
617.97481,0.01892
616.48502,0.02020
614.99523,0.03204
613.50544,0.04390
612.01565,0.09627
610.52587,0.13610
609.03608,0.15605
607.54629,0.17516
606.05650,0.19429
604.56671,0.24639
603.07692,0.29851
601.58714,0.31250
600.09735,0.32651
598.60756,0.36035
597.11777,0.36967
595.62798,0.37960
594.13819,0.36888
592.64840,0.35818
591.15862,0.34983
589.66883,0.27020
588.17904,0.23465
586.68925,0.20830
585.19946,0.18198
583.70967,0.14592
582.21989,0.12650
580.73010,0.11262
579.24031,0.09876
577.75052,0.08695
576.26073,0.05720
574.77094,0.03230
573.28115,0.02974
571.79137,0.02721
570.30158,0.03755
568.81179,0.04849
567.32200,0.05492
565.83221,0.06137
564.34242,0.08727
562.85264,0.09425
561.36285,0.09817
559.87306,0.10723
558.38327,0.11632
556.89348,0.13364
555.40369,0.13533
553.91391,0.12942
552.42412,0.12353
550.93433,0.12298
549.44454,0.11743
547.95475,0.12562
546.46496,0.12765
544.97517,0.12971
543.48539,0.15633
541.99560,0.19070
540.50581,0.21612
539.01602,0.24155
537.52623,0.27774
536.03644,0.29579
534.54666,0.32738
533.05687,0.34789
531.56708,0.36843
530.07729,0.45014
528.58750,0.48493
527.09771,0.50911
525.60792,0.53331
524.11814,0.58556
522.62835,0.66179
521.13856,0.72298
519.64877,0.76080
518.15898,0.79866
516.66919,0.81257
515.17941,0.81917
513.68962,0.80454
512.19983,0.78994
510.71004,0.72357
509.22025,0.68872
507.73046,0.60695
506.24068,0.55698
504.75089,0.50704
503.26110,0.42437
501.77131,0.34327
500.28152,0.29813
498.79173,0.25302
497.30194,0.20310
495.81216,0.16191
494.32237,0.14759
492.83258,0.13330
491.34279,0.11169
489.85300,0.05204
488.36321,0.07028
486.87343,0.05946
485.38364,0.04867
483.89385,0.05269
482.40406,0.07180
480.91427,0.07673
479.42448,0.08169
477.93469,0.09373
476.44491,0.10598
474.95512,0.12000
473.46533,0.13403
471.97554,0.14462
470.48575,0.12547
468.99596,0.13804
467.50618,0.13807
466.01639,0.13813
464.52660,0.10903
463.03681,0.09117
461.54702,0.07381
460.05723,0.05647
458.56745,0.02747
457.07766,0.00951
455.58787,0.01795
454.09808,0.02641
452.60829,0.03576
451.11850,0.02524
449.62871,0.02885
448.13893,0.03248
446.64914,0.02377
445.15935,0.00329
443.66956,0.02667
442.17977,0.02804
440.68998,0.02944
439.20020,0.02699
437.71041,0.04119
436.22062,0.04285
434.73083,0.04454
433.24104,0.05398
431.75125,0.04914
430.26146,0.05042
428.77168,0.05172
427.28189,0.05120
425.79210,0.03700
424.30231,0.04881
422.81252,0.06064
421.32273,0.07027
419.83295,0.03143
418.34316,0.03125
416.85337,0.03110
415.36358,0.02287
413.87379,0.01426
412.38400,0.02795
410.89422,0.04166
409.40443,0.05347
407.91464,0.04443
406.42485,0.06498
404.93506,0.05744
403.44527,0.04992
401.95548,0.03711
400.46570,0.05196
398.97591,0.04171
397.48612,0.03149
395.99633,0.03231
394.50654,0.04088
393.01675,0.04483
391.52697,0.04881
390.03718,0.03330
388.54739,0.04294
387.05760,0.02912
385.56781,0.01533
384.07802,0.03470
382.58824,0.02317
381.09845,0.01322
379.60866,0.00329
378.11887,0.02402
376.62908,0.03241
375.13929,0.02131
373.64950,0.01023
372.15972,0.01599
370.66993,0.03703
369.18014,0.03312
367.69035,0.02923
366.20056,0.03001
364.71077,0.03815
363.22099,0.03569
361.73120,0.03325
360.24141,0.05924
358.75162,0.02226
357.26183,0.03439
355.77204,0.04654
354.28225,0.03843
352.79247,0.03111
351.30268,0.04101
349.81289,0.05094
348.32310,0.07191
346.83331,0.06991
345.34352,0.05334
343.85374,0.03680
342.36395,0.02211
340.87416,0.03680
339.38437,0.02910
337.89458,0.02142
336.40479,0.01531
334.91501,0.01058
333.42522,0.00896
331.93543,0.00737
330.44564,0.02010
328.95585,0.01971
327.46606,0.03143
325.97627,0.04317
324.48649,0.03242
322.99670,0.03271
321.50691,0.04027
320.01712,0.04786
318.52733,0.06909
317.03754,0.07025
315.54776,0.04458
314.05797,0.01893
312.56818,0.00510
311.07839,0.01891
309.58860,0.01817
308.09881,0.01745
306.60902,0.01221
305.11924,0.01607
303.62945,0.01369
302.13966,0.00533
300.64987,0.00329
299.16008,0.00329
