1778.52000,0.00742
1777.03021,0.00679
1775.54042,0.01576
1774.05063,0.00695
1772.56085,0.00951
1771.07106,0.01676
1769.58127,0.01025
1768.09148,0.00310
1766.60169,0.01109
1765.11190,0.00955
1763.62212,0.01136
1762.13233,0.00831
1760.64254,0.00706
1759.15275,0.01050
1757.66296,0.01708
1756.17317,0.01524
1754.68339,0.02009
1753.19360,0.01073
1751.70381,0.02074
1750.21402,0.00453
1748.72423,0.01114
1747.23444,0.00598
1745.74465,0.01353
1744.25487,0.00620
1742.76508,0.01068
1741.27529,0.01029
1739.78550,0.01504
1738.29571,0.01025
1736.80592,0.00859
1735.31614,0.01698
1733.82635,0.01092
1732.33656,0.00000
1730.84677,0.00623
1729.35698,0.00448
1727.86719,0.00675
1726.37740,0.00638
1724.88762,0.00025
1723.39783,0.00637
1721.90804,0.00341
1720.41825,0.00558
1718.92846,0.00421
1717.43867,0.00310
1715.94889,0.00765
1714.45910,0.00643
1712.96931,0.01170
1711.47952,0.00075
1709.98973,0.00139
1708.49994,0.01206
1707.01016,0.00708
1705.52037,0.00212
1704.03058,0.00500
1702.54079,0.00968
1701.05100,0.01639
1699.56121,0.02156
1698.07142,0.01186
1696.58164,0.00618
1695.09185,0.01832
1693.60206,0.01536
1692.11227,0.01866
1690.62248,0.02909
1689.13269,0.02109
1687.64291,0.02356
1686.15312,0.02206
1684.66333,0.02525
1683.17354,0.02669
1681.68375,0.03927
1680.19396,0.03697
1678.70417,0.04026
1677.21439,0.04290
1675.72460,0.05224
1674.23481,0.04292
1672.74502,0.05320
1671.25523,0.05683
1669.76544,0.05270
1668.27566,0.06172
1666.78587,0.07588
1665.29608,0.07382
1663.80629,0.08046
1662.31650,0.07979
1660.82671,0.08492
1659.33693,0.08051
1657.84714,0.08658
1656.35735,0.06999
1654.86756,0.08034
1653.37777,0.07669
1651.88798,0.08486
1650.39819,0.07170
1648.90841,0.09304
1647.41862,0.07526
1645.92883,0.07652
1644.43904,0.07780
1642.94925,0.09345
1641.45946,0.06442
1639.96968,0.08012
1638.47989,0.08295
1636.99010,0.07757
1635.50031,0.06687
1634.01052,0.07666
1632.52073,0.07313
1631.03094,0.08097
1629.54116,0.07082
1628.05137,0.07470
1626.56158,0.09707
1625.07179,0.09700
1623.58200,0.09984
1622.09221,0.08647
1620.60243,0.07512
1619.11264,0.08516
1617.62285,0.09232
1616.13306,0.07971
1614.64327,0.08292
1613.15348,0.07748
1611.66370,0.07518
1610.17391,0.07891
1608.68412,0.08533
1607.19433,0.08599
1605.70454,0.09357
1604.21475,0.08293
1602.72496,0.07232
1601.23518,0.07886
1599.74539,0.07653
1598.25560,0.08757
1596.76581,0.08217
1595.27602,0.05744
1593.78623,0.07811
1592.29645,0.07256
1590.80666,0.06437
1589.31687,0.06443
1587.82708,0.06651
1586.33729,0.07530
1584.84750,0.07721
1583.35771,0.08003
1581.86793,0.06286
1580.37814,0.07464
1578.88835,0.07509
1577.39856,0.08001
1575.90877,0.06027
1574.41898,0.04722
1572.92920,0.05066
1571.43941,0.03210
1569.94962,0.03281
1568.45983,0.03354
1566.97004,0.04130
1565.48025,0.03329
1563.99047,0.03487
1562.50068,0.03403
1561.01089,0.02365
1559.52110,0.03197
1558.03131,0.02119
1556.54152,0.01444
1555.05173,0.01261
1553.56195,0.02481
1552.07216,0.01991
1550.58237,0.01726
1549.09258,0.01908
1547.60279,0.00825
1546.11300,0.01123
1544.62322,0.00067
1543.13343,0.01081
1541.64364,0.00206
1540.15385,0.00257
1538.66406,0.00310
1537.17427,0.01796
1535.68448,0.00927
1534.19470,0.00794
1532.70491,0.01531
1531.21512,0.00758
1529.72533,0.02189
1528.23554,0.01510
1526.74575,0.00722
1525.25597,0.00715
1523.76618,0.02890
1522.27639,0.03377
1520.78660,0.03822
1519.29681,0.04203
1517.80702,0.04386
1516.31724,0.04860
1514.82745,0.03846
1513.33766,0.04070
1511.84787,0.04296
1510.35808,0.04201
1508.86829,0.03909
1507.37850,0.04643
1505.88872,0.05357
1504.39893,0.05806
1502.90914,0.04989
1501.41935,0.06155
1499.92956,0.05433
1498.43977,0.05358
1496.94999,0.07532
1495.46020,0.09108
1493.97041,0.08061
1492.48062,0.09953
1490.99083,0.09757
1489.50104,0.12054
1488.01125,0.13675
1486.52147,0.15299
1485.03168,0.16625
1483.54189,0.18509
1482.05210,0.18660
1480.56231,0.20527
1479.07252,0.23019
1477.58274,0.22066
1476.09295,0.23584
1474.60316,0.23948
1473.11337,0.24092
1471.62358,0.25595
1470.13379,0.29102
1468.64401,0.29676
1467.15422,0.31253
1465.66443,0.33044
1464.17464,0.34837
1462.68485,0.37600
1461.19506,0.39209
1459.70527,0.44024
1458.21549,0.50287
1456.72570,0.54083
1455.23591,0.59617
1453.74612,0.65419
1452.25633,0.71447
1450.76654,0.72450
1449.27676,0.74679
1447.78697,0.72395
1446.29718,0.69890
1444.80739,0.67377
1443.31760,0.64866
1441.82781,0.60189
1440.33802,0.56382
1438.84824,0.53467
1437.35845,0.51132
1435.86866,0.48867
1434.37887,0.50942
1432.88908,0.57246
1431.39929,0.65576
1429.90951,0.71329
1428.41972,0.77350
1426.92993,0.80038
1425.44014,0.82483
1423.95035,0.84063
1422.46056,0.85646
1420.97078,0.93904
1419.48099,0.94357
1417.99120,0.95279
1416.50141,0.90376
1415.01162,0.85653
1413.52183,0.82512
1412.03204,0.77794
1410.54226,0.73457
1409.05247,0.70256
1407.56268,0.66102
1406.07289,0.59391
1404.58310,0.55686
1403.09331,0.51984
1401.60353,0.46459
1400.11374,0.39069
1398.62395,0.34573
1397.13416,0.32192
1395.64437,0.25699
1394.15458,0.21321
1392.66479,0.18992
1391.17501,0.14842
1389.68522,0.14765
1388.19543,0.12065
1386.70564,0.10457
1385.21585,0.08852
1383.72606,0.07183
1382.23628,0.05805
1380.74649,0.04386
1379.25670,0.02790
1377.76691,0.01575
1376.27712,0.01586
1374.78733,0.00310
1373.29755,0.02404
1371.80776,0.01476
1370.31797,0.03909
1368.82818,0.03565
1367.33839,0.03222
1365.84860,0.04395
1364.35881,0.02566
1362.86903,0.06057
1361.37924,0.07949
1359.88945,0.08819
1358.39966,0.11516
1356.90987,0.14127
1355.42008,0.18698
1353.93030,0.22536
1352.44051,0.27067
1350.95072,0.31600
1349.46093,0.38805
1347.97114,0.47681
1346.48135,0.54646
1344.99156,0.63660
1343.50178,0.67249
1342.01199,0.73843
1340.52220,0.78949
1339.03241,0.83346
1337.54262,0.88412
1336.05283,0.90890
1334.56305,0.93370
1333.07326,0.95018
1331.58347,0.96935
1330.09368,0.98855
1328.60389,0.93325
1327.11410,0.89466
1325.62432,0.86677
1324.13453,0.83535
1322.64474,0.82041
1321.15495,0.81351
1319.66516,0.77270
1318.17537,0.73192
1316.68558,0.67415
1315.19580,0.61952
1313.70601,0.59538
1312.21622,0.54858
1310.72643,0.51314
1309.23664,0.48708
1307.74685,0.45481
1306.25707,0.39876
1304.76728,0.36609
1303.27749,0.33345
1301.78770,0.30528
1300.29791,0.28292
1298.80812,0.25480
1297.31834,0.19800
1295.82855,0.16348
1294.33876,0.14366
1292.84897,0.12164
1291.35918,0.10031
1289.86939,0.10670
1288.37960,0.11312
1286.88982,0.09920
1285.40003,0.08931
1283.91024,0.07011
1282.42045,0.06249
1280.93066,0.05846
1279.44087,0.02665
1277.95109,0.04936
1276.46130,0.04940
1274.97151,0.04647
1273.48172,0.04356
1271.99193,0.04301
1270.50214,0.02824
1269.01235,0.03063
1267.52257,0.02304
1266.03278,0.02347
1264.54299,0.02971
1263.05320,0.00751
1261.56341,0.00757
1260.07362,0.00766
1258.58384,0.00310
1257.09405,0.00471
1255.60426,0.00502
1254.11447,0.00624
1252.62468,0.00882
1251.13489,0.01031
1249.64511,0.01472
1248.15532,0.02316
1246.66553,0.01782
1245.17574,0.01252
1243.68595,0.01235
1242.19616,0.00486
1240.70637,0.00341
1239.21659,0.01154
1237.72680,0.01348
1236.23701,0.00942
1234.74722,0.00829
1233.25743,0.01040
1231.76764,0.01254
1230.27786,0.01971
1228.78807,0.00310
1227.29828,0.02182
1225.80849,0.00453
1224.31870,0.01596
1222.82891,0.00939
1221.33912,0.02287
1219.84934,0.02981
1218.35955,0.03677
1216.86976,0.04654
1215.37997,0.06145
1213.89018,0.04636
1212.40039,0.06665
1210.91061,0.07407
1209.42082,0.09286
1207.93103,0.08342
1206.44124,0.07401
1204.95145,0.08241
1203.46166,0.06904
1201.97188,0.06370
1200.48209,0.06328
1198.99230,0.04487
1197.50251,0.03359
1196.01272,0.03591
1194.52293,0.03581
1193.03314,0.03573
1191.54336,0.02367
1190.05357,0.01808
1188.56378,0.01651
1187.07399,0.03233
1185.58420,0.02480
1184.09441,0.02398
1182.60463,0.02062
1181.11484,0.01729
1179.62505,0.03033
1178.13526,0.02426
1176.64547,0.00310
1175.15568,0.00332
1173.66589,0.00758
1172.17611,0.01208
1170.68632,0.00938
1169.19653,0.00670
1167.70674,0.01438
1166.21695,0.01831
1164.72716,0.02583
1163.23738,0.02291
1161.74759,0.04537
1160.25780,0.07320
1158.76801,0.07658
1157.27822,0.07999
1155.78843,0.07163
1154.29865,0.06953
1152.80886,0.09191
1151.31907,0.07184
1149.82928,0.09472
1148.33949,0.10205
1146.84970,0.11619
1145.35991,0.13036
1143.87013,0.13621
1142.38034,0.15320
1140.89055,0.16288
1139.40076,0.15634
1137.91097,0.17297
1136.42118,0.17738
1134.93140,0.18326
1133.44161,0.18916
1131.95182,0.22813
1130.46203,0.23931
1128.97224,0.24495
1127.48245,0.23438
1125.99266,0.22739
1124.50288,0.21643
1123.01309,0.21950
1121.52330,0.22259
1120.03351,0.24106
1118.54372,0.21595
1117.05393,0.22290
1115.56415,0.22876
1114.07436,0.23020
1112.58457,0.23410
1111.09478,0.23803
1109.60499,0.23509
1108.11520,0.24663
1106.62542,0.23373
1105.13563,0.22019
1103.64584,0.20689
1102.15605,0.20429
1100.66626,0.20694
1099.17647,0.20962
1097.68668,0.21110
1096.19690,0.18212
1094.70711,0.17008
1093.21732,0.16874
1091.72753,0.17209
1090.23774,0.17870
1088.74795,0.18532
1087.25817,0.17140
1085.76838,0.16306
1084.27859,0.14874
1082.78880,0.17226
1081.29901,0.17422
1079.80922,0.19022
1078.31943,0.19669
1076.82965,0.20317
1075.33986,0.20501
1073.85007,0.23290
1072.36028,0.21877
1070.87049,0.22691
1069.38070,0.27311
1067.89092,0.27741
1066.40113,0.28172
1064.91134,0.34201
1063.42155,0.41767
1061.93176,0.51449
1060.44197,0.59398
1058.95219,0.69485
1057.46240,0.73190
1055.97261,0.76897
1054.48282,0.83121
1052.99303,0.89503
1051.50324,0.89147
1050.01345,0.90995
1048.52367,0.87819
1047.03388,0.87181
1045.54409,0.86546
1044.05430,0.86446
1042.56451,0.82056
1041.07472,0.71240
1039.58494,0.64141
1038.09515,0.56199
1036.60536,0.53676
1035.11557,0.51156
1033.62578,0.45557
1032.13599,0.41206
1030.64620,0.33521
1029.15642,0.30865
1027.66663,0.28479
1026.17684,0.26095
1024.68705,0.21200
1023.19726,0.17976
1021.70747,0.15488
1020.21769,0.15227
1018.72790,0.14034
1017.23811,0.13100
1015.74832,0.12168
1014.25853,0.11115
1012.76874,0.11400
1011.27896,0.11043
1009.78917,0.10176
1008.29938,0.08622
1006.80959,0.07782
1005.31980,0.06944
1003.83001,0.04686
1002.34022,0.03097
1000.85044,0.03223
999.36065,0.03885
997.87086,0.04350
996.38107,0.04817
994.89128,0.06777
993.40149,0.06671
991.91171,0.07746
990.42192,0.09891
988.93213,0.11349
987.44234,0.11786
985.95255,0.12225
984.46276,0.13601
982.97297,0.11243
981.48319,0.07952
979.99340,0.07712
978.50361,0.06629
977.01382,0.05548
975.52403,0.04625
974.03424,0.02792
972.54446,0.01007
971.05467,0.01181
969.56488,0.03271
968.07509,0.02805
966.58530,0.02342
965.09551,0.02414
963.60573,0.00310
962.11594,0.01167
960.62615,0.01315
959.13636,0.00787
957.64657,0.00261
956.15678,0.02250
954.66699,0.03307
953.17721,0.03810
951.68742,0.04027
950.19763,0.04168
948.70784,0.04312
947.21805,0.05937
945.72826,0.09122
944.23848,0.10440
942.74869,0.12696
941.25890,0.12640
939.76911,0.12943
938.27932,0.13248
936.78953,0.16469
935.29974,0.16779
933.80996,0.17758
932.32017,0.20364
930.83038,0.22361
929.34059,0.24360
927.85080,0.26550
926.36101,0.29166
924.87123,0.33163
923.38144,0.38341
921.89165,0.41408
920.40186,0.44478
918.91207,0.52111
917.42228,0.63772
915.93250,0.74279
914.44271,0.99069
912.95292,1.06800
911.46313,1.14533
909.97334,1.31723
908.48355,1.60060
906.99376,1.76431
905.50398,1.89268
904.01419,1.93221
902.52440,1.97176
901.03461,1.97742
899.54482,2.00000
898.05503,1.85822
896.56525,1.61615
895.07546,1.50978
893.58567,1.40345
892.09588,1.12363
890.60609,0.87408
889.11630,0.65304
887.62651,0.50475
886.13673,0.44314
884.64694,0.38154
883.15715,0.29562
881.66736,0.21750
880.17757,0.12117
878.68778,0.11183
877.19800,0.10252
875.70821,0.06921
874.21842,0.04505
872.72863,0.03203
871.23884,0.03416
869.74905,0.03476
868.25927,0.03538
866.76948,0.05004
865.27969,0.04537
863.78990,0.05074
862.30011,0.04434
860.81032,0.05442
859.32053,0.06453
857.83075,0.08445
856.34096,0.11663
854.85117,0.12881
853.36138,0.12323
851.87159,0.13913
850.38180,0.15505
848.89202,0.16422
847.40223,0.18253
845.91244,0.20776
844.42265,0.21533
842.93286,0.22292
841.44307,0.22153
839.95329,0.26331
838.46350,0.27754
836.97371,0.27044
835.48392,0.26981
833.99413,0.26921
832.50434,0.26863
831.01455,0.27385
829.52477,0.24774
828.03498,0.22365
826.54519,0.20849
825.05540,0.19335
823.56561,0.16622
822.07582,0.15135
820.58604,0.14318
819.09625,0.13414
817.60646,0.12512
816.11667,0.11013
814.62688,0.11050
813.13709,0.14516
811.64730,0.13980
810.15752,0.13391
808.66773,0.12804
807.17794,0.13543
805.68815,0.14819
804.19836,0.15919
802.70857,0.16109
801.21879,0.16302
799.72900,0.16008
798.23921,0.14626
796.74942,0.13269
795.25963,0.13905
793.76984,0.14543
792.28006,0.12971
790.79027,0.15360
789.30048,0.18531
787.81069,0.23394
786.32090,0.25202
784.83111,0.27011
783.34132,0.27099
781.85154,0.30460
780.36175,0.34045
778.87196,0.35364
777.38217,0.36685
775.89238,0.39232
774.40259,0.39513
772.91281,0.37282
771.42302,0.36633
769.93323,0.35987
768.44344,0.33207
766.95365,0.27650
765.46386,0.24252
763.97407,0.22258
762.48429,0.21557
760.99450,0.20858
759.50471,0.15157
758.01492,0.11860
756.52513,0.10212
755.03534,0.09879
753.54556,0.09548
752.05577,0.08552
750.56598,0.07225
749.07619,0.04855
747.58640,0.04189
746.09661,0.03525
744.60683,0.02386
743.11704,0.01961
741.62725,0.02094
740.13746,0.01796
738.64767,0.01500
737.15788,0.00929
735.66809,0.01272
734.17831,0.01261
732.68852,0.01798
731.19873,0.02338
729.70894,0.00310
728.21915,0.00310
726.72936,0.00578
725.23958,0.00225
723.74979,0.00531
722.26000,0.00839
720.77021,0.00739
719.28042,0.00641
717.79063,0.00567
716.30084,0.00551
714.81106,0.00538
713.32127,0.00605
711.83148,0.02165
710.34169,0.01303
708.85190,0.02044
707.36211,0.02788
705.87233,0.01911
704.38254,0.02727
702.89275,0.02544
701.40296,0.02619
699.91317,0.02696
698.42338,0.03855
696.93360,0.06485
695.44381,0.09250
693.95402,0.09904
692.46423,0.10561
690.97444,0.11265
689.48465,0.12394
687.99486,0.15327
686.50508,0.16260
685.01529,0.17196
683.52550,0.20203
682.03571,0.22612
680.54592,0.24512
679.05613,0.24556
677.56635,0.24603
676.07656,0.23151
674.58677,0.21501
673.09698,0.19453
671.60719,0.19132
670.11740,0.18812
668.62761,0.16260
667.13783,0.14222
665.64804,0.12798
664.15825,0.11376
662.66846,0.11102
661.17867,0.07205
659.68888,0.06202
658.19910,0.05435
656.70931,0.04670
655.21952,0.04253
653.72973,0.05061
652.23994,0.04604
650.75015,0.03849
649.26037,0.03097
647.77058,0.03937
646.28079,0.03934
644.79100,0.03467
643.30121,0.02780
641.81142,0.02095
640.32163,0.01612
638.83185,0.01133
637.34206,0.01408
635.85227,0.01920
634.36248,0.02433
632.87269,0.01248
631.38290,0.00310
629.89312,0.02391
628.40333,0.02440
626.91354,0.02492
625.42375,0.00599
623.93396,0.00266
622.44417,0.01203
620.95438,0.02143
619.46460,0.02595
617.97481,0.02850
616.48502,0.02929
614.99523,0.03934
613.50544,0.04941
612.01565,0.09721
610.52587,0.12858
609.03608,0.16908
607.54629,0.18737
606.05650,0.20568
604.56671,0.24003
603.07692,0.30422
601.58714,0.32338
600.09735,0.34257
598.60756,0.38035
597.11777,0.39792
595.62798,0.39015
594.13819,0.38329
592.64840,0.37646
591.15862,0.35876
589.66883,0.28190
588.17904,0.21397
586.68925,0.18800
585.19946,0.16205
583.70967,0.14446
582.21989,0.11511
580.73010,0.09713
579.24031,0.07917
577.75052,0.07881
576.26073,0.05890
574.77094,0.04123
573.28115,0.02815
571.79137,0.01510
570.30158,0.02131
568.81179,0.03154
567.32200,0.04125
565.83221,0.05098
564.34242,0.08709
562.85264,0.11834
561.36285,0.13826
559.87306,0.14720
558.38327,0.15616
556.89348,0.16926
555.40369,0.16525
553.91391,0.16817
552.42412,0.17111
550.93433,0.16295
549.44454,0.15948
547.95475,0.17940
546.46496,0.17243
544.97517,0.16548
543.48539,0.20282
541.99560,0.24641
540.50581,0.27490
539.01602,0.30342
537.52623,0.33929
536.03644,0.37742
534.54666,0.38465
533.05687,0.40381
531.56708,0.42299
530.07729,0.47034
528.58750,0.50836
527.09771,0.52550
525.60792,0.54267
524.11814,0.58010
522.62835,0.63446
521.13856,0.69529
519.64877,0.73024
518.15898,0.76521
516.66919,0.76717
515.17941,0.79762
513.68962,0.79952
512.19983,0.80144
510.71004,0.76190
509.22025,0.72639
507.73046,0.62305
506.24068,0.56801
504.75089,0.51300
503.26110,0.42931
501.77131,0.33831
500.28152,0.29070
498.79173,0.24312
497.30194,0.19068
495.81216,0.15249
494.32237,0.13190
492.83258,0.11133
491.34279,0.09991
489.85300,0.07805
488.36321,0.06379
486.87343,0.05766
485.38364,0.05157
483.89385,0.05161
482.40406,0.10017
480.91427,0.10615
479.42448,0.11216
477.93469,0.13388
476.44491,0.12136
474.95512,0.14101
473.46533,0.16069
471.97554,0.16782
470.48575,0.16941
468.99596,0.14745
467.50618,0.13986
466.01639,0.13229
464.52660,0.12486
463.03681,0.12546
461.54702,0.11041
460.05723,0.09538
458.56745,0.03021
457.07766,0.02957
455.58787,0.03285
454.09808,0.03615
452.60829,0.03025
451.11850,0.01325
449.62871,0.02007
448.13893,0.02692
446.64914,0.00977
445.15935,0.00310
443.66956,0.02714
442.17977,0.01906
440.68998,0.01100
439.20020,0.02866
437.71041,0.03144
436.22062,0.03481
434.73083,0.03819
433.24104,0.03192
431.75125,0.04303
430.26146,0.03426
428.77168,0.02550
427.28189,0.03335
425.79210,0.03120
424.30231,0.02619
422.81252,0.02121
421.32273,0.04005
419.83295,0.04712
418.34316,0.03798
416.85337,0.02887
415.36358,0.02222
413.87379,0.02094
412.38400,0.01201
410.89422,0.00310
409.40443,0.02361
407.91464,0.03570
406.42485,0.03602
404.93506,0.02814
403.44527,0.02028
401.95548,0.02668
400.46570,0.02376
398.97591,0.01742
397.48612,0.01110
395.99633,0.00292
394.50654,0.02834
393.01675,0.03745
391.52697,0.04657
390.03718,0.03559
388.54739,0.02531
387.05760,0.02416
385.56781,0.02304
384.07802,0.01104
382.58824,0.01623
381.09845,0.00965
379.60866,0.00310
378.11887,0.02300
376.62908,0.02291
375.13929,0.01572
373.64950,0.00856
372.15972,0.03946
370.66993,0.04369
369.18014,0.03126
367.69035,0.01886
366.20056,0.02304
364.71077,0.03369
363.22099,0.04047
361.73120,0.04728
360.24141,0.05734
358.75162,0.05607
357.26183,0.04560
355.77204,0.03516
354.28225,0.04019
352.79247,0.04503
351.30268,0.06057
349.81289,0.07614
348.32310,0.06970
346.83331,0.07775
345.34352,0.07103
343.85374,0.06434
342.36395,0.07379
340.87416,0.04679
339.38437,0.02493
337.89458,0.00310
336.40479,0.01876
334.91501,0.00307
333.42522,0.00632
331.93543,0.00960
330.44564,0.02224
328.95585,0.05337
327.46606,0.05260
325.97627,0.05185
324.48649,0.03879
322.99670,0.04287
321.50691,0.04465
320.01712,0.04645
318.52733,0.05283
317.03754,0.05968
315.54776,0.04542
314.05797,0.03119
312.56818,0.03255
311.07839,0.04284
309.58860,0.03724
308.09881,0.03167
306.60902,0.00310
305.11924,0.01234
303.62945,0.01038
302.13966,0.00452
300.64987,0.00569
299.16008,0.00310
