1778.52000,0.00232
1777.03021,0.00241
1775.54042,0.01254
1774.05063,0.01359
1772.56085,0.01717
1771.07106,0.00757
1769.58127,0.01347
1768.09148,0.00710
1766.60169,0.00736
1765.11190,0.01105
1763.62212,0.00954
1762.13233,0.01078
1760.64254,0.00749
1759.15275,0.01174
1757.66296,0.00371
1756.17317,0.00437
1754.68339,0.00937
1753.19360,0.00870
1751.70381,0.00669
1750.21402,0.01496
1748.72423,0.00844
1747.23444,0.00332
1745.74465,0.00300
1744.25487,0.00157
1742.76508,0.00949
1741.27529,0.00697
1739.78550,0.00925
1738.29571,0.01292
1736.80592,0.01343
1735.31614,0.00371
1733.82635,0.01403
1732.33656,0.00000
1730.84677,0.00194
1729.35698,0.00982
1727.86719,0.00907
1726.37740,0.00015
1724.88762,0.00013
1723.39783,0.00901
1721.90804,0.01018
1720.41825,0.00751
1718.92846,0.00690
1717.43867,0.00313
1715.94889,0.00371
1714.45910,0.01100
1712.96931,0.01399
1711.47952,0.00744
1709.98973,0.00957
1708.49994,0.00899
1707.01016,0.01105
1705.52037,0.01313
1704.03058,0.01422
1702.54079,0.00371
1701.05100,0.01168
1699.56121,0.01057
1698.07142,0.00766
1696.58164,0.01046
1695.09185,0.01465
1693.60206,0.01090
1692.11227,0.01537
1690.62248,0.01622
1689.13269,0.02279
1687.64291,0.01503
1686.15312,0.02210
1684.66333,0.03193
1683.17354,0.02675
1681.68375,0.02046
1680.19396,0.03696
1678.70417,0.03276
1677.21439,0.04248
1675.72460,0.04903
1674.23481,0.05311
1672.74502,0.05447
1671.25523,0.03765
1669.76544,0.05158
1668.27566,0.06736
1666.78587,0.07064
1665.29608,0.06689
1663.80629,0.06953
1662.31650,0.07016
1660.82671,0.08218
1659.33693,0.09128
1657.84714,0.08742
1656.35735,0.07311
1654.86756,0.07521
1653.37777,0.07438
1651.88798,0.07084
1650.39819,0.06938
1648.90841,0.06361
1647.41862,0.08701
1645.92883,0.08664
1644.43904,0.08630
1642.94925,0.08974
1641.45946,0.07407
1639.96968,0.08689
1638.47989,0.06786
1636.99010,0.07731
1635.50031,0.08337
1634.01052,0.09469
1632.52073,0.08349
1631.03094,0.07619
1629.54116,0.08257
1628.05137,0.08101
1626.56158,0.09723
1625.07179,0.10004
1623.58200,0.09263
1622.09221,0.09822
1620.60243,0.08608
1619.11264,0.09764
1617.62285,0.09488
1616.13306,0.09260
1614.64327,0.08237
1613.15348,0.07877
1611.66370,0.08362
1610.17391,0.10192
1608.68412,0.10021
1607.19433,0.08442
1605.70454,0.08572
1604.21475,0.07725
1602.72496,0.06881
1601.23518,0.07610
1599.74539,0.09070
1598.25560,0.08871
1596.76581,0.09106
1595.27602,0.09276
1593.78623,0.08104
1592.29645,0.07983
1590.80666,0.07567
1589.31687,0.07268
1587.82708,0.06676
1586.33729,0.07634
1584.84750,0.07228
1583.35771,0.07872
1581.86793,0.07334
1580.37814,0.08507
1578.88835,0.06949
1577.39856,0.06829
1575.90877,0.06028
1574.41898,0.05980
1572.92920,0.04660
1571.43941,0.04845
1569.94962,0.04725
1568.45983,0.04607
1566.97004,0.05392
1565.48025,0.05040
1563.99047,0.04531
1562.50068,0.04206
1561.01089,0.04954
1559.52110,0.03838
1558.03131,0.02542
1556.54152,0.02068
1555.05173,0.02438
1553.56195,0.02242
1552.07216,0.00705
1550.58237,0.01424
1549.09258,0.01895
1547.60279,0.01071
1546.11300,0.00432
1544.62322,0.01980
1543.13343,0.01277
1541.64364,0.00371
1540.15385,0.00767
1538.66406,0.01164
1537.17427,0.02327
1535.68448,0.01762
1534.19470,0.01973
1532.70491,0.01754
1531.21512,0.01538
1529.72533,0.01187
1528.23554,0.01727
1526.74575,0.03202
1525.25597,0.02358
1523.76618,0.02768
1522.27639,0.02748
1520.78660,0.02662
1519.29681,0.02943
1517.80702,0.03658
1516.31724,0.03898
1514.82745,0.04664
1513.33766,0.04101
1511.84787,0.03540
1510.35808,0.05087
1508.86829,0.04633
1507.37850,0.04796
1505.88872,0.04734
1504.39893,0.04948
1502.90914,0.05095
1501.41935,0.05337
1499.92956,0.06764
1498.43977,0.05689
1496.94999,0.07076
1495.46020,0.06894
1493.97041,0.08354
1492.48062,0.07744
1490.99083,0.06795
1489.50104,0.10812
1488.01125,0.10813
1486.52147,0.10816
1485.03168,0.14726
1483.54189,0.15542
1482.05210,0.16178
1480.56231,0.16248
1479.07252,0.17550
1477.58274,0.18466
1476.09295,0.19021
1474.60316,0.20649
1473.11337,0.19842
1471.62358,0.20928
1470.13379,0.20786
1468.64401,0.23858
1467.15422,0.25042
1465.66443,0.26854
1464.17464,0.28669
1462.68485,0.32114
1461.19506,0.34833
1459.70527,0.36325
1458.21549,0.40028
1456.72570,0.45691
1455.23591,0.50423
1453.74612,0.55499
1452.25633,0.59826
1450.76654,0.63609
1449.27676,0.64275
1447.78697,0.64306
1446.29718,0.61084
1444.80739,0.61461
1443.31760,0.61841
1441.82781,0.52911
1440.33802,0.50131
1438.84824,0.46533
1437.35845,0.45374
1435.86866,0.44787
1434.37887,0.46251
1432.88908,0.50905
1431.39929,0.55653
1429.90951,0.62361
1428.41972,0.70528
1426.92993,0.71891
1425.44014,0.74325
1423.95035,0.76705
1422.46056,0.79088
1420.97078,0.82259
1419.48099,0.85545
1417.99120,0.85305
1416.50141,0.83246
1415.01162,0.80916
1413.52183,0.77223
1412.03204,0.71984
1410.54226,0.70481
1409.05247,0.62992
1407.56268,0.62678
1406.07289,0.55581
1404.58310,0.52573
1403.09331,0.49568
1401.60353,0.46281
1400.11374,0.39626
1398.62395,0.34772
1397.13416,0.29785
1395.64437,0.24116
1394.15458,0.19520
1392.66479,0.17795
1391.17501,0.15458
1389.68522,0.13943
1388.19543,0.11087
1386.70564,0.09907
1385.21585,0.08729
1383.72606,0.07018
1382.23628,0.03648
1380.74649,0.03035
1379.25670,0.03176
1377.76691,0.01862
1376.27712,0.00779
1374.78733,0.01564
1373.29755,0.00371
1371.80776,0.00900
1370.31797,0.01954
1368.82818,0.02976
1367.33839,0.04001
1365.84860,0.03014
1364.35881,0.03690
1362.86903,0.04210
1361.37924,0.05028
1359.88945,0.07443
1358.39966,0.08972
1356.90987,0.12483
1355.42008,0.16066
1353.93030,0.20220
1352.44051,0.23125
1350.95072,0.26032
1349.46093,0.35931
1347.97114,0.42462
1346.48135,0.49588
1344.99156,0.57149
1343.50178,0.59294
1342.01199,0.65767
1340.52220,0.70148
1339.03241,0.73119
1337.54262,0.78711
1336.05283,0.80025
1334.56305,0.81342
1333.07326,0.88193
1331.58347,0.89902
1330.09368,0.87537
1328.60389,0.85926
1327.11410,0.84295
1325.62432,0.79182
1324.13453,0.82473
1322.64474,0.77366
1321.15495,0.72738
1319.66516,0.69628
1318.17537,0.66519
1316.68558,0.60305
1315.19580,0.55301
1313.70601,0.51733
1312.21622,0.48418
1310.72643,0.45697
1309.23664,0.42978
1307.74685,0.40650
1306.25707,0.35022
1304.76728,0.33244
1303.27749,0.31469
1301.78770,0.28603
1300.29791,0.23189
1298.80812,0.22537
1297.31834,0.17356
1295.82855,0.15592
1294.33876,0.12921
1292.84897,0.10638
1291.35918,0.08336
1289.86939,0.07891
1288.37960,0.07449
1286.88982,0.08272
1285.40003,0.07664
1283.91024,0.06694
1282.42045,0.05840
1280.93066,0.05330
1279.44087,0.02955
1277.95109,0.01972
1276.46130,0.03837
1274.97151,0.04327
1273.48172,0.04819
1271.99193,0.03413
1270.50214,0.02760
1269.01235,0.02952
1267.52257,0.02828
1266.03278,0.02911
1264.54299,0.02951
1263.05320,0.01969
1261.56341,0.01455
1260.07362,0.00945
1258.58384,0.00220
1257.09405,0.00255
1255.60426,0.01999
1254.11447,0.00741
1252.62468,0.01762
1251.13489,0.00371
1249.64511,0.01631
1248.15532,0.02461
1246.66553,0.02359
1245.17574,0.02260
1243.68595,0.01526
1242.19616,0.01864
1240.70637,0.00520
1239.21659,0.01386
1237.72680,0.02050
1236.23701,0.02398
1234.74722,0.00517
1233.25743,0.00927
1231.76764,0.01338
1230.27786,0.01923
1228.78807,0.01532
1227.29828,0.01211
1225.80849,0.01575
1224.31870,0.00371
1222.82891,0.01167
1221.33912,0.02671
1219.84934,0.02640
1218.35955,0.02612
1216.86976,0.04055
1215.37997,0.04976
1213.89018,0.04693
1212.40039,0.03434
1210.91061,0.06161
1209.42082,0.05703
1207.93103,0.05623
1206.44124,0.05546
1204.95145,0.03752
1203.46166,0.05216
1201.97188,0.06136
1200.48209,0.04896
1198.99230,0.05456
1197.50251,0.04608
1196.01272,0.03921
1194.52293,0.03624
1193.03314,0.03329
1191.54336,0.01943
1190.05357,0.01152
1188.56378,0.01684
1187.07399,0.01490
1185.58420,0.01685
1184.09441,0.02269
1182.60463,0.02184
1181.11484,0.02102
1179.62505,0.01988
1178.13526,0.02263
1176.64547,0.01494
1175.15568,0.01523
1173.66589,0.00371
1172.17611,0.00764
1170.68632,0.00897
1169.19653,0.01033
1167.70674,0.03050
1166.21695,0.03611
1164.72716,0.03424
1163.23738,0.03194
1161.74759,0.03626
1160.25780,0.05313
1158.76801,0.05716
1157.27822,0.06121
1155.78843,0.07086
1154.29865,0.09762
1152.80886,0.10891
1151.31907,0.11614
1149.82928,0.10949
1148.33949,0.13316
1146.84970,0.13168
1145.35991,0.13023
1143.87013,0.12642
1142.38034,0.13970
1140.89055,0.15643
1139.40076,0.17363
1137.91097,0.18699
1136.42118,0.18580
1134.93140,0.19328
1133.44161,0.20079
1131.95182,0.20491
1130.46203,0.21588
1128.97224,0.22664
1127.48245,0.24518
1125.99266,0.25326
1124.50288,0.22243
1123.01309,0.22965
1121.52330,0.23690
1120.03351,0.24872
1118.54372,0.23393
1117.05393,0.24352
1115.56415,0.25177
1114.07436,0.24729
1112.58457,0.24113
1111.09478,0.23500
1109.60499,0.24585
1108.11520,0.26628
1106.62542,0.25737
1105.13563,0.23073
1103.64584,0.20889
1102.15605,0.21121
1100.66626,0.20990
1099.17647,0.20863
1097.68668,0.22081
1096.19690,0.20774
1094.70711,0.17989
1093.21732,0.16664
1091.72753,0.15866
1090.23774,0.16447
1088.74795,0.17030
1087.25817,0.16876
1085.76838,0.15085
1084.27859,0.16575
1082.78880,0.14629
1081.29901,0.15327
1079.80922,0.18281
1078.31943,0.17538
1076.82965,0.16797
1075.33986,0.19235
1073.85007,0.19375
1072.36028,0.17651
1070.87049,0.21417
1069.38070,0.23067
1067.89092,0.23855
1066.40113,0.24644
1064.91134,0.29285
1063.42155,0.36591
1061.93176,0.45198
1060.44197,0.54968
1058.95219,0.60984
1057.46240,0.66637
1055.97261,0.72294
1054.48282,0.79410
1052.99303,0.84023
1051.50324,0.88252
1050.01345,0.89774
1048.52367,0.88567
1047.03388,0.85995
1045.54409,0.83426
1044.05430,0.83091
1042.56451,0.79639
1041.07472,0.73525
1039.58494,0.66321
1038.09515,0.58960
1036.60536,0.55062
1035.11557,0.51166
1033.62578,0.45838
1032.13599,0.41515
1030.64620,0.35441
1029.15642,0.31873
1027.66663,0.29447
1026.17684,0.27023
1024.68705,0.21618
1023.19726,0.19085
1021.70747,0.15120
1020.21769,0.13684
1018.72790,0.13799
1017.23811,0.13051
1015.74832,0.12306
1014.25853,0.10493
1012.76874,0.11118
1011.27896,0.09265
1009.78917,0.10031
1008.29938,0.07408
1006.80959,0.06302
1005.31980,0.05197
1003.83001,0.02854
1002.34022,0.03110
1000.85044,0.02843
999.36065,0.03581
997.87086,0.04026
996.38107,0.04473
994.89128,0.05309
993.40149,0.05829
991.91171,0.06647
990.42192,0.07992
988.93213,0.08473
987.44234,0.09037
985.95255,0.09603
984.46276,0.09431
982.97297,0.11152
981.48319,0.10165
979.99340,0.07451
978.50361,0.05832
977.01382,0.04215
975.52403,0.03602
974.03424,0.02673
972.54446,0.02475
971.05467,0.00413
969.56488,0.03420
968.07509,0.03618
966.58530,0.03818
965.09551,0.00913
963.60573,0.00423
962.11594,0.00567
960.62615,0.00805
959.13636,0.00943
957.64657,0.01083
956.15678,0.00371
954.66699,0.01233
953.17721,0.02393
951.68742,0.01324
950.19763,0.02807
948.70784,0.04293
947.21805,0.06077
945.72826,0.09275
944.23848,0.10814
942.74869,0.11740
941.25890,0.12783
939.76911,0.13497
938.27932,0.14214
936.78953,0.15173
935.29974,0.17454
933.80996,0.20262
932.32017,0.21364
930.83038,0.22230
929.34059,0.23098
927.85080,0.25049
926.36101,0.24590
924.87123,0.28391
923.38144,0.32513
921.89165,0.35419
920.40186,0.38328
918.91207,0.48172
917.42228,0.57677
915.93250,0.69074
914.44271,0.91151
912.95292,1.01676
911.46313,1.12204
909.97334,1.33970
908.48355,1.51481
906.99376,1.74253
905.50398,1.88604
904.01419,1.92427
902.52440,1.96252
901.03461,2.00000
899.54482,1.93664
898.05503,1.84098
896.56525,1.67771
895.07546,1.53986
893.58567,1.40203
892.09588,1.11088
890.60609,0.88601
889.11630,0.68485
887.62651,0.50374
886.13673,0.43855
884.64694,0.37338
883.15715,0.29161
881.66736,0.20372
880.17757,0.14842
878.68778,0.12569
877.19800,0.10299
875.70821,0.05572
874.21842,0.04309
872.72863,0.04254
871.23884,0.02859
869.74905,0.01614
868.25927,0.00371
866.76948,0.01910
865.27969,0.01994
863.78990,0.02717
862.30011,0.02305
860.81032,0.02863
859.32053,0.03423
857.83075,0.05659
856.34096,0.06371
854.85117,0.08180
853.36138,0.08874
851.87159,0.10004
850.38180,0.11136
848.89202,0.12203
847.40223,0.12133
845.91244,0.14593
844.42265,0.14596
842.93286,0.14602
841.44307,0.16409
839.95329,0.18172
838.46350,0.19551
836.97371,0.21161
835.48392,0.20814
833.99413,0.20470
832.50434,0.20902
831.01455,0.19788
829.52477,0.19747
828.03498,0.15747
826.54519,0.14891
825.05540,0.14038
823.56561,0.11866
822.07582,0.12474
820.58604,0.09761
819.09625,0.09327
817.60646,0.08895
816.11667,0.08511
814.62688,0.06763
813.13709,0.07773
811.64730,0.09104
810.15752,0.08935
808.66773,0.08768
807.17794,0.08626
805.68815,0.09352
804.19836,0.09647
802.70857,0.10776
801.21879,0.11907
799.72900,0.11550
798.23921,0.10762
796.74942,0.09954
795.25963,0.09990
793.76984,0.10029
792.28006,0.09820
790.79027,0.11025
789.30048,0.13007
787.81069,0.16288
786.32090,0.17922
784.83111,0.19557
783.34132,0.20820
781.85154,0.22859
780.36175,0.26243
778.87196,0.27126
777.38217,0.28011
775.89238,0.30378
774.40259,0.30243
772.91281,0.31704
771.42302,0.29833
769.93323,0.27963
768.44344,0.25903
766.95365,0.21636
765.46386,0.18282
763.97407,0.15295
762.48429,0.15111
760.99450,0.14929
759.50471,0.11494
758.01492,0.09155
756.52513,0.08456
755.03534,0.08318
753.54556,0.08183
752.05577,0.07105
750.56598,0.05642
749.07619,0.02929
747.58640,0.03566
746.09661,0.04205
744.60683,0.03321
743.11704,0.02212
741.62725,0.01833
740.13746,0.02266
738.64767,0.02701
737.15788,0.00371
735.66809,0.00924
734.17831,0.01797
732.68852,0.01500
731.19873,0.01206
729.70894,0.01745
728.21915,0.01604
726.72936,0.02603
725.23958,0.00371
723.74979,0.00696
722.26000,0.01023
720.77021,0.02002
719.28042,0.01571
717.79063,0.02122
716.30084,0.02288
714.81106,0.02457
713.32127,0.02946
711.83148,0.02801
710.34169,0.03386
708.85190,0.03519
707.36211,0.03654
705.87233,0.03540
704.38254,0.04454
702.89275,0.05871
701.40296,0.06220
699.91317,0.06572
698.42338,0.05811
696.93360,0.07010
695.44381,0.09850
693.95402,0.10223
692.46423,0.10598
690.97444,0.13263
689.48465,0.13472
687.99486,0.16917
686.50508,0.17313
685.01529,0.17711
683.52550,0.21163
682.03571,0.22750
680.54592,0.24795
679.05613,0.25203
677.56635,0.25613
676.07656,0.24113
674.58677,0.23709
673.09698,0.22737
671.60719,0.20323
670.11740,0.17910
668.62761,0.13758
667.13783,0.12910
665.64804,0.12463
664.15825,0.12018
662.66846,0.10176
661.17867,0.07812
659.68888,0.06725
658.19910,0.06336
656.70931,0.05948
655.21952,0.05188
653.72973,0.03701
652.23994,0.03560
650.75015,0.04548
649.26037,0.05539
647.77058,0.03470
646.28079,0.04181
644.79100,0.03642
643.30121,0.03401
641.81142,0.03163
640.32163,0.01356
638.83185,0.00371
637.34206,0.01048
635.85227,0.01238
634.36248,0.01429
632.87269,0.01203
631.38290,0.01046
629.89312,0.03397
628.40333,0.03109
626.91354,0.02823
625.42375,0.01402
623.93396,0.00666
622.44417,0.00843
620.95438,0.01022
619.46460,0.02888
617.97481,0.04484
616.48502,0.05763
614.99523,0.05941
613.50544,0.06121
612.01565,0.08136
610.52587,0.13386
609.03608,0.16248
607.54629,0.17622
606.05650,0.18998
604.56671,0.23552
603.07692,0.31933
601.58714,0.32406
600.09735,0.32880
598.60756,0.35395
597.11777,0.38231
595.62798,0.37608
594.13819,0.36908
592.64840,0.36211
591.15862,0.31861
589.66883,0.28380
588.17904,0.22851
586.68925,0.20194
585.19946,0.17539
583.70967,0.13953
582.21989,0.11098
580.73010,0.09850
579.24031,0.08605
577.75052,0.06987
576.26073,0.06304
574.77094,0.03210
573.28115,0.03238
571.79137,0.03269
570.30158,0.02300
568.81179,0.03064
567.32200,0.03352
565.83221,0.03642
564.34242,0.06462
562.85264,0.08260
561.36285,0.09081
559.87306,0.09449
558.38327,0.09820
556.89348,0.14656
555.40369,0.14166
553.91391,0.13667
552.42412,0.13171
550.93433,0.13531
549.44454,0.12436
547.95475,0.15418
546.46496,0.14715
544.97517,0.14015
543.48539,0.18917
541.99560,0.18904
540.50581,0.21387
539.01602,0.23872
537.52623,0.30446
536.03644,0.39823
534.54666,0.36885
533.05687,0.38674
531.56708,0.40465
530.07729,0.46960
528.58750,0.51431
527.09771,0.54402
525.60792,0.57375
524.11814,0.61466
522.62835,0.65719
521.13856,0.69041
519.64877,0.71921
518.15898,0.74804
516.66919,0.75606
515.17941,0.78004
513.68962,0.79425
512.19983,0.80849
510.71004,0.76332
509.22025,0.71887
507.73046,0.63823
506.24068,0.58449
504.75089,0.53077
503.26110,0.45977
501.77131,0.35396
500.28152,0.30566
498.79173,0.25738
497.30194,0.18102
495.81216,0.14770
494.32237,0.14151
492.83258,0.13533
491.34279,0.10278
489.85300,0.08208
488.36321,0.06619
486.87343,0.05829
485.38364,0.05042
483.89385,0.04302
482.40406,0.06548
480.91427,0.07783
479.42448,0.09020
477.93469,0.11113
476.44491,0.12367
474.95512,0.13565
473.46533,0.14767
471.97554,0.15594
470.48575,0.15855
468.99596,0.12749
467.50618,0.11626
466.01639,0.10506
464.52660,0.09934
463.03681,0.08704
461.54702,0.08422
460.05723,0.08142
458.56745,0.03276
457.07766,0.00371
455.58787,0.01344
454.09808,0.02319
452.60829,0.01203
451.11850,0.00202
449.62871,0.00683
448.13893,0.01167
446.64914,0.01358
445.15935,0.00480
443.66956,0.02087
442.17977,0.02512
440.68998,0.02940
439.20020,0.01480
437.71041,0.02709
436.22062,0.02154
434.73083,0.01600
433.24104,0.02381
431.75125,0.02596
430.26146,0.03017
428.77168,0.03441
427.28189,0.03344
425.79210,0.01814
424.30231,0.01164
422.81252,0.00516
421.32273,0.00838
419.83295,0.02210
418.34316,0.02047
416.85337,0.01886
415.36358,0.02810
413.87379,0.04487
412.38400,0.03355
410.89422,0.02225
409.40443,0.02862
407.91464,0.01589
406.42485,0.02482
404.93506,0.02545
403.44527,0.02611
401.95548,0.02464
400.46570,0.02523
398.97591,0.02915
397.48612,0.03309
395.99633,0.02078
394.50654,0.00371
393.01675,0.00880
391.52697,0.01151
390.03718,0.01834
388.54739,0.04636
387.05760,0.03446
385.56781,0.02257
384.07802,0.03223
382.58824,0.00684
381.09845,0.00767
379.60866,0.00852
378.11887,0.00711
376.62908,0.01734
375.13929,0.01826
373.64950,0.01921
372.15972,0.03270
370.66993,0.03528
369.18014,0.02138
367.69035,0.00751
366.20056,0.02321
364.71077,0.04099
363.22099,0.03750
361.73120,0.03404
360.24141,0.05280
358.75162,0.05086
357.26183,0.04485
355.77204,0.03887
354.28225,0.03518
352.79247,0.05315
351.30268,0.05031
349.81289,0.04749
348.32310,0.06781
346.83331,0.07813
345.34352,0.07470
343.85374,0.07130
342.36395,0.07327
340.87416,0.03997
339.38437,0.02560
337.89458,0.01125
336.40479,0.02105
334.91501,0.02428
333.42522,0.01398
331.93543,0.00371
330.44564,0.01277
328.95585,0.03073
327.46606,0.03482
325.97627,0.03894
324.48649,0.03694
322.99670,0.07457
321.50691,0.08719
320.01712,0.09983
318.52733,0.09928
317.03754,0.08624
315.54776,0.07186
314.05797,0.05750
312.56818,0.06638
311.07839,0.06323
309.58860,0.05235
308.09881,0.04151
306.60902,0.01747
305.11924,0.00371
303.62945,0.00940
302.13966,0.01343
300.64987,0.00371
299.16008,0.00371
