1778.52000,0.00322
1777.03021,0.01075
1775.54042,0.01551
1774.05063,0.01552
1772.56085,0.01248
1771.07106,0.01394
1769.58127,0.00674
1768.09148,0.00152
1766.60169,0.00783
1765.11190,0.02089
1763.62212,0.01042
1762.13233,0.01624
1760.64254,0.01872
1759.15275,0.00692
1757.66296,0.01029
1756.17317,0.00387
1754.68339,0.00000
1753.19360,0.01045
1751.70381,0.01504
1750.21402,0.02050
1748.72423,0.02233
1747.23444,0.00989
1745.74465,0.01346
1744.25487,0.00920
1742.76508,0.00692
1741.27529,0.01242
1739.78550,0.01204
1738.29571,0.01030
1736.80592,0.01362
1735.31614,0.01276
1733.82635,0.02538
1732.33656,0.01616
1730.84677,0.01398
1729.35698,0.02051
1727.86719,0.00575
1726.37740,0.00813
1724.88762,0.00716
1723.39783,0.01098
1721.90804,0.00530
1720.41825,0.01394
1718.92846,0.00550
1717.43867,0.00802
1715.94889,0.00692
1714.45910,0.01556
1712.96931,0.01273
1711.47952,0.01385
1709.98973,0.02369
1708.49994,0.01364
1707.01016,0.01722
1705.52037,0.02082
1704.03058,0.00692
1702.54079,0.01382
1701.05100,0.01990
1699.56121,0.01788
1698.07142,0.02905
1696.58164,0.01306
1695.09185,0.02513
1693.60206,0.02376
1692.11227,0.02102
1690.62248,0.02082
1689.13269,0.02373
1687.64291,0.02639
1686.15312,0.02851
1684.66333,0.03346
1683.17354,0.03760
1681.68375,0.04231
1680.19396,0.03921
1678.70417,0.04706
1677.21439,0.05830
1675.72460,0.05555
1674.23481,0.05366
1672.74502,0.05881
1671.25523,0.05781
1669.76544,0.05880
1668.27566,0.07103
1666.78587,0.05833
1665.29608,0.08267
1663.80629,0.08824
1662.31650,0.09216
1660.82671,0.07395
1659.33693,0.09979
1657.84714,0.08695
1656.35735,0.08059
1654.86756,0.08576
1653.37777,0.08365
1651.88798,0.08578
1650.39819,0.08008
1648.90841,0.10132
1647.41862,0.07941
1645.92883,0.08374
1644.43904,0.08809
1642.94925,0.09541
1641.45946,0.08453
1639.96968,0.08545
1638.47989,0.09509
1636.99010,0.08148
1635.50031,0.08416
1634.01052,0.08490
1632.52073,0.07136
1631.03094,0.08925
1629.54116,0.08362
1628.05137,0.07408
1626.56158,0.09177
1625.07179,0.09798
1623.58200,0.09525
1622.09221,0.08469
1620.60243,0.08537
1619.11264,0.08551
1617.62285,0.08737
1616.13306,0.09569
1614.64327,0.07824
1613.15348,0.10400
1611.66370,0.09081
1610.17391,0.09391
1608.68412,0.08665
1607.19433,0.08728
1605.70454,0.08231
1604.21475,0.08256
1602.72496,0.08284
1601.23518,0.07178
1599.74539,0.06580
1598.25560,0.09629
1596.76581,0.07745
1595.27602,0.07295
1593.78623,0.08052
1592.29645,0.07353
1590.80666,0.06181
1589.31687,0.06132
1587.82708,0.07040
1586.33729,0.07024
1584.84750,0.06731
1583.35771,0.05991
1581.86793,0.07161
1580.37814,0.08052
1578.88835,0.07264
1577.39856,0.05917
1575.90877,0.06031
1574.41898,0.05755
1572.92920,0.03995
1571.43941,0.04789
1569.94962,0.05179
1568.45983,0.05572
1566.97004,0.04298
1565.48025,0.04682
1563.99047,0.04871
1562.50068,0.03773
1561.01089,0.04613
1559.52110,0.03043
1558.03131,0.03271
1556.54152,0.03613
1555.05173,0.03593
1553.56195,0.01529
1552.07216,0.01990
1550.58237,0.01024
1549.09258,0.01014
1547.60279,0.01315
1546.11300,0.01450
1544.62322,0.02709
1543.13343,0.01335
1541.64364,0.00692
1540.15385,0.00863
1538.66406,0.01035
1537.17427,0.02585
1535.68448,0.01585
1534.19470,0.02830
1532.70491,0.01751
1531.21512,0.01572
1529.72533,0.01815
1528.23554,0.02510
1526.74575,0.04441
1525.25597,0.01551
1523.76618,0.03095
1522.27639,0.03042
1520.78660,0.04927
1519.29681,0.04992
1517.80702,0.04582
1516.31724,0.05156
1514.82745,0.05172
1513.33766,0.05387
1511.84787,0.05604
1510.35808,0.05991
1508.86829,0.04531
1507.37850,0.03325
1505.88872,0.03496
1504.39893,0.04959
1502.90914,0.04378
1501.41935,0.04724
1499.92956,0.07457
1498.43977,0.06406
1496.94999,0.07096
1495.46020,0.08574
1493.97041,0.08036
1492.48062,0.11061
1490.99083,0.08929
1489.50104,0.10164
1488.01125,0.10449
1486.52147,0.10736
1485.03168,0.15932
1483.54189,0.18916
1482.05210,0.20865
1480.56231,0.19703
1479.07252,0.22695
1477.58274,0.24735
1476.09295,0.21057
1474.60316,0.24392
1473.11337,0.24870
1471.62358,0.27368
1470.13379,0.27093
1468.64401,0.28503
1467.15422,0.29299
1465.66443,0.31962
1464.17464,0.34627
1462.68485,0.37926
1461.19506,0.42124
1459.70527,0.46157
1458.21549,0.49322
1456.72570,0.54145
1455.23591,0.57316
1453.74612,0.66545
1452.25633,0.72385
1450.76654,0.72310
1449.27676,0.73556
1447.78697,0.72449
1446.29718,0.69662
1444.80739,0.69583
1443.31760,0.69507
1441.82781,0.63502
1440.33802,0.57865
1438.84824,0.52202
1437.35845,0.51897
1435.86866,0.49071
1434.37887,0.50510
1432.88908,0.56325
1431.39929,0.63293
1429.90951,0.69590
1428.41972,0.79002
1426.92993,0.78153
1425.44014,0.82691
1423.95035,0.85156
1422.46056,0.87624
1420.97078,0.91889
1419.48099,0.93072
1417.99120,0.95575
1416.50141,0.93818
1415.01162,0.91223
1413.52183,0.86808
1412.03204,0.85087
1410.54226,0.78966
1409.05247,0.71754
1407.56268,0.68301
1406.07289,0.63281
1404.58310,0.59778
1403.09331,0.56277
1401.60353,0.51797
1400.11374,0.45778
1398.62395,0.40602
1397.13416,0.32344
1395.64437,0.26865
1394.15458,0.22621
1392.66479,0.19671
1391.17501,0.18152
1389.68522,0.14730
1388.19543,0.12515
1386.70564,0.11453
1385.21585,0.10393
1383.72606,0.09139
1382.23628,0.05056
1380.74649,0.03078
1379.25670,0.01804
1377.76691,0.02775
1376.27712,0.00692
1374.78733,0.01484
1373.29755,0.00764
1371.80776,0.01443
1370.31797,0.02910
1368.82818,0.02431
1367.33839,0.01954
1365.84860,0.04858
1364.35881,0.05101
1362.86903,0.05515
1361.37924,0.04865
1359.88945,0.07640
1358.39966,0.08593
1356.90987,0.13251
1355.42008,0.15388
1353.93030,0.22349
1352.44051,0.25290
1350.95072,0.28233
1349.46093,0.38259
1347.97114,0.46156
1346.48135,0.53046
1344.99156,0.60499
1343.50178,0.66525
1342.01199,0.70450
1340.52220,0.77490
1339.03241,0.79710
1337.54262,0.84820
1336.05283,0.89330
1334.56305,0.93842
1333.07326,1.00586
1331.58347,1.01472
1330.09368,0.98659
1328.60389,0.98008
1327.11410,0.94387
1325.62432,0.90937
1324.13453,0.92985
1322.64474,0.92175
1321.15495,0.82816
1319.66516,0.79095
1318.17537,0.75376
1316.68558,0.67622
1315.19580,0.60348
1313.70601,0.57085
1312.21622,0.51470
1310.72643,0.49222
1309.23664,0.44733
1307.74685,0.42209
1306.25707,0.39464
1304.76728,0.36174
1303.27749,0.32887
1301.78770,0.28663
1300.29791,0.25142
1298.80812,0.22830
1297.31834,0.19342
1295.82855,0.17847
1294.33876,0.13776
1292.84897,0.12483
1291.35918,0.10519
1289.86939,0.09637
1288.37960,0.08758
1286.88982,0.10194
1285.40003,0.07540
1283.91024,0.07439
1282.42045,0.06920
1280.93066,0.06936
1279.44087,0.04824
1277.95109,0.05041
1276.46130,0.03887
1274.97151,0.03241
1273.48172,0.02596
1271.99193,0.02599
1270.50214,0.03642
1269.01235,0.02977
1267.52257,0.03156
1266.03278,0.03197
1264.54299,0.04614
1263.05320,0.02529
1261.56341,0.01876
1260.07362,0.01226
1258.58384,0.01251
1257.09405,0.00943
1255.60426,0.00692
1254.11447,0.00723
1252.62468,0.01529
1251.13489,0.01300
1249.64511,0.00878
1248.15532,0.02393
1246.66553,0.02747
1245.17574,0.03103
1243.68595,0.02045
1242.19616,0.03907
1240.70637,0.02938
1239.21659,0.02169
1237.72680,0.01990
1236.23701,0.02992
1234.74722,0.04109
1233.25743,0.03419
1231.76764,0.02732
1230.27786,0.02846
1228.78807,0.02009
1227.29828,0.02493
1225.80849,0.03008
1224.31870,0.00692
1222.82891,0.02636
1221.33912,0.04750
1219.84934,0.04651
1218.35955,0.04555
1216.86976,0.06060
1215.37997,0.06698
1213.89018,0.07646
1212.40039,0.06775
1210.91061,0.05569
1209.42082,0.07142
1207.93103,0.07400
1206.44124,0.07660
1204.95145,0.07698
1203.46166,0.05327
1201.97188,0.07249
1200.48209,0.05752
1198.99230,0.06165
1197.50251,0.04365
1196.01272,0.04951
1194.52293,0.04445
1193.03314,0.03942
1191.54336,0.03301
1190.05357,0.02327
1188.56378,0.01607
1187.07399,0.01618
1185.58420,0.03343
1184.09441,0.01144
1182.60463,0.01093
1181.11484,0.01045
1179.62505,0.03845
1178.13526,0.03002
1176.64547,0.01629
1175.15568,0.02277
1173.66589,0.00993
1172.17611,0.00692
1170.68632,0.01905
1169.19653,0.03120
1167.70674,0.03931
1166.21695,0.03875
1164.72716,0.03709
1163.23738,0.04780
1161.74759,0.05068
1160.25780,0.05751
1158.76801,0.06170
1157.27822,0.06591
1155.78843,0.04478
1154.29865,0.08087
1152.80886,0.10801
1151.31907,0.12284
1149.82928,0.11919
1148.33949,0.11415
1146.84970,0.11349
1145.35991,0.11286
1143.87013,0.12893
1142.38034,0.13494
1140.89055,0.14405
1139.40076,0.15767
1137.91097,0.17805
1136.42118,0.17294
1134.93140,0.18215
1133.44161,0.19138
1131.95182,0.21130
1130.46203,0.18722
1128.97224,0.19288
1127.48245,0.19633
1125.99266,0.20260
1124.50288,0.19768
1123.01309,0.20387
1121.52330,0.21007
1120.03351,0.20944
1118.54372,0.20602
1117.05393,0.21216
1115.56415,0.21805
1114.07436,0.22340
1112.58457,0.21068
1111.09478,0.19800
1109.60499,0.20651
1108.11520,0.22121
1106.62542,0.21658
1105.13563,0.21984
1103.64584,0.20601
1102.15605,0.18520
1100.66626,0.18348
1099.17647,0.18179
1097.68668,0.17956
1096.19690,0.17931
1094.70711,0.17573
1093.21732,0.18086
1091.72753,0.14508
1090.23774,0.14578
1088.74795,0.14650
1087.25817,0.15734
1085.76838,0.15979
1084.27859,0.15722
1082.78880,0.17122
1081.29901,0.14122
1079.80922,0.16283
1078.31943,0.16373
1076.82965,0.16465
1075.33986,0.20597
1073.85007,0.20413
1072.36028,0.19559
1070.87049,0.19688
1069.38070,0.22512
1067.89092,0.23544
1066.40113,0.24578
1064.91134,0.31083
1063.42155,0.40899
1061.93176,0.47044
1060.44197,0.54425
1058.95219,0.61781
1057.46240,0.68816
1055.97261,0.75855
1054.48282,0.85377
1052.99303,0.92125
1051.50324,0.95764
1050.01345,0.93601
1048.52367,0.95057
1047.03388,0.94259
1045.54409,0.93463
1044.05430,0.87103
1042.56451,0.82148
1041.07472,0.76944
1039.58494,0.68853
1038.09515,0.59952
1036.60536,0.54950
1035.11557,0.49952
1033.62578,0.44479
1032.13599,0.39485
1030.64620,0.33540
1029.15642,0.28804
1027.66663,0.26789
1026.17684,0.24778
1024.68705,0.21282
1023.19726,0.17986
1021.70747,0.14047
1020.21769,0.14064
1018.72790,0.12176
1017.23811,0.12745
1015.74832,0.13316
1014.25853,0.10539
1012.76874,0.10681
1011.27896,0.11021
1009.78917,0.09849
1008.29938,0.09634
1006.80959,0.07360
1005.31980,0.05088
1003.83001,0.03085
1002.34022,0.00860
1000.85044,0.02255
999.36065,0.02307
997.87086,0.03861
996.38107,0.05417
994.89128,0.07972
993.40149,0.08510
991.91171,0.08041
990.42192,0.14024
988.93213,0.13251
987.44234,0.12537
985.95255,0.11826
984.46276,0.12911
982.97297,0.12121
981.48319,0.09341
979.99340,0.08331
978.50361,0.07029
977.01382,0.05730
975.52403,0.04334
974.03424,0.02745
972.54446,0.02953
971.05467,0.02042
969.56488,0.03349
968.07509,0.03914
966.58530,0.04483
965.09551,0.03469
963.60573,0.03832
962.11594,0.00692
960.62615,0.03790
959.13636,0.03511
957.64657,0.03234
956.15678,0.02329
954.66699,0.02969
953.17721,0.03779
951.68742,0.03638
950.19763,0.03809
948.70784,0.03982
947.21805,0.05783
945.72826,0.08961
944.23848,0.10207
942.74869,0.12100
941.25890,0.13295
939.76911,0.13847
938.27932,0.14401
936.78953,0.16949
935.29974,0.18995
933.80996,0.18463
932.32017,0.21691
930.83038,0.22356
929.34059,0.23024
927.85080,0.26400
926.36101,0.27927
924.87123,0.32542
923.38144,0.36009
921.89165,0.38021
920.40186,0.40035
918.91207,0.52819
917.42228,0.61904
915.93250,0.77357
914.44271,0.97018
912.95292,1.07036
911.46313,1.17056
909.97334,1.38183
908.48355,1.57939
906.99376,1.71079
905.50398,1.85651
904.01419,1.87945
902.52440,1.90241
901.03461,1.97166
899.54482,2.00000
898.05503,1.87246
896.56525,1.65942
895.07546,1.51524
893.58567,1.37109
892.09588,1.12055
890.60609,0.86330
889.11630,0.66665
887.62651,0.48853
886.13673,0.41824
884.64694,0.34798
883.15715,0.26780
881.66736,0.20698
880.17757,0.13694
878.68778,0.12510
877.19800,0.11329
875.70821,0.08117
874.21842,0.06029
872.72863,0.06132
871.23884,0.05283
869.74905,0.04661
868.25927,0.04041
866.76948,0.04658
865.27969,0.04267
863.78990,0.05674
862.30011,0.06270
860.81032,0.07135
859.32053,0.08002
857.83075,0.08016
856.34096,0.11146
854.85117,0.10184
853.36138,0.10065
851.87159,0.11702
850.38180,0.13341
848.89202,0.15109
847.40223,0.16150
845.91244,0.18680
844.42265,0.20202
842.93286,0.21728
841.44307,0.21124
839.95329,0.22711
838.46350,0.23290
836.97371,0.22890
835.48392,0.23797
833.99413,0.24706
832.50434,0.24369
831.01455,0.22409
829.52477,0.23620
828.03498,0.19786
826.54519,0.19796
825.05540,0.19809
823.56561,0.16151
822.07582,0.14514
820.58604,0.14393
819.09625,0.13196
817.60646,0.12001
816.11667,0.12786
814.62688,0.12479
813.13709,0.12595
811.64730,0.12041
810.15752,0.12976
808.66773,0.13912
807.17794,0.08991
805.68815,0.12737
804.19836,0.12532
802.70857,0.12637
801.21879,0.12745
799.72900,0.12856
798.23921,0.12885
796.74942,0.12355
795.25963,0.12599
793.76984,0.12846
792.28006,0.16053
790.79027,0.16963
789.30048,0.16670
787.81069,0.19885
786.32090,0.21153
784.83111,0.22424
783.34132,0.24075
781.85154,0.29263
780.36175,0.30751
778.87196,0.31933
777.38217,0.33118
775.89238,0.39409
774.40259,0.36365
772.91281,0.36183
771.42302,0.34588
769.93323,0.32995
768.44344,0.28979
766.95365,0.27517
765.46386,0.19496
763.97407,0.17367
762.48429,0.16922
760.99450,0.16479
759.50471,0.13936
758.01492,0.11620
756.52513,0.10568
755.03534,0.10682
753.54556,0.10799
752.05577,0.08437
750.56598,0.06750
749.07619,0.07196
747.58640,0.05935
746.09661,0.04675
744.60683,0.04625
743.11704,0.05445
741.62725,0.04839
740.13746,0.04347
738.64767,0.03857
737.15788,0.02977
735.66809,0.01090
734.17831,0.00692
732.68852,0.02143
731.19873,0.03596
729.70894,0.03775
728.21915,0.03200
726.72936,0.01141
725.23958,0.01132
723.74979,0.00914
722.26000,0.00699
720.77021,0.01078
719.28042,0.01122
717.79063,0.00580
716.30084,0.01892
714.81106,0.03207
713.32127,0.01903
711.83148,0.03040
710.34169,0.00759
708.85190,0.02266
707.36211,0.03776
705.87233,0.03100
704.38254,0.03409
702.89275,0.04730
701.40296,0.04945
699.91317,0.05163
698.42338,0.08678
696.93360,0.08017
695.44381,0.07864
693.95402,0.09115
692.46423,0.10369
690.97444,0.13448
689.48465,0.13500
687.99486,0.17005
686.50508,0.17791
685.01529,0.18581
683.52550,0.20129
682.03571,0.22242
680.54592,0.24889
679.05613,0.23655
677.56635,0.22424
676.07656,0.23564
674.58677,0.23866
673.09698,0.21955
671.60719,0.20509
670.11740,0.19066
668.62761,0.14358
667.13783,0.13242
665.64804,0.10741
664.15825,0.08242
662.66846,0.07918
661.17867,0.06167
659.68888,0.06325
658.19910,0.06065
656.70931,0.05808
655.21952,0.05300
653.72973,0.05328
652.23994,0.05134
650.75015,0.05713
649.26037,0.06295
647.77058,0.05015
646.28079,0.05616
644.79100,0.06107
643.30121,0.04469
641.81142,0.02834
640.32163,0.02239
638.83185,0.01142
637.34206,0.00692
635.85227,0.01011
634.36248,0.01333
632.87269,0.01433
631.38290,0.02292
629.89312,0.01135
628.40333,0.01929
626.91354,0.02725
625.42375,0.01660
623.93396,0.01578
622.44417,0.01400
620.95438,0.01225
619.46460,0.01095
617.97481,0.02509
616.48502,0.07459
614.99523,0.06761
613.50544,0.06065
612.01565,0.09676
610.52587,0.11860
609.03608,0.15280
607.54629,0.17104
606.05650,0.18930
604.56671,0.25021
603.07692,0.31171
601.58714,0.33005
600.09735,0.34841
598.60756,0.38418
597.11777,0.38633
595.62798,0.38738
594.13819,0.38243
592.64840,0.37750
591.15862,0.35283
589.66883,0.30351
588.17904,0.24439
586.68925,0.21447
585.19946,0.18457
583.70967,0.14235
582.21989,0.09820
580.73010,0.08281
579.24031,0.06745
577.75052,0.05927
576.26073,0.05531
574.77094,0.07577
573.28115,0.05855
571.79137,0.04135
570.30158,0.04814
568.81179,0.07431
567.32200,0.07078
565.83221,0.06728
564.34242,0.09044
562.85264,0.08727
561.36285,0.11244
559.87306,0.11801
558.38327,0.12360
556.89348,0.17100
555.40369,0.18701
553.91391,0.18230
552.42412,0.17762
550.93433,0.16427
549.44454,0.15599
547.95475,0.19961
546.46496,0.20203
544.97517,0.20448
543.48539,0.20976
541.99560,0.21758
540.50581,0.24464
539.01602,0.27172
537.52623,0.36767
536.03644,0.42158
534.54666,0.43570
533.05687,0.45517
531.56708,0.47466
530.07729,0.50400
528.58750,0.53279
527.09771,0.55264
525.60792,0.57252
524.11814,0.62073
522.62835,0.69365
521.13856,0.68808
519.64877,0.71240
518.15898,0.73675
516.66919,0.78004
515.17941,0.81467
513.68962,0.80712
512.19983,0.79959
510.71004,0.77961
509.22025,0.73415
507.73046,0.65309
506.24068,0.60514
504.75089,0.55722
503.26110,0.47091
501.77131,0.40706
500.28152,0.34786
498.79173,0.28868
497.30194,0.21256
495.81216,0.16479
494.32237,0.16541
492.83258,0.16606
491.34279,0.12425
489.85300,0.09761
488.36321,0.06201
486.87343,0.06781
485.38364,0.07362
483.89385,0.05128
482.40406,0.08393
480.91427,0.09459
479.42448,0.10527
477.93469,0.12509
476.44491,0.15923
474.95512,0.16845
473.46533,0.17769
471.97554,0.18947
470.48575,0.17352
468.99596,0.17947
467.50618,0.16553
466.01639,0.15162
464.52660,0.11446
463.03681,0.10088
461.54702,0.09251
460.05723,0.08416
458.56745,0.07093
457.07766,0.03418
455.58787,0.03348
454.09808,0.03280
452.60829,0.05528
451.11850,0.01974
449.62871,0.01942
448.13893,0.01912
446.64914,0.03694
445.15935,0.02169
443.66956,0.01684
442.17977,0.01818
440.68998,0.01955
439.20020,0.02711
437.71041,0.02628
436.22062,0.02730
434.73083,0.02835
433.24104,0.03825
431.75125,0.06024
430.26146,0.06220
428.77168,0.06418
427.28189,0.07923
425.79210,0.08505
424.30231,0.05739
422.81252,0.02975
421.32273,0.04658
419.83295,0.02333
418.34316,0.01512
416.85337,0.00692
415.36358,0.02000
413.87379,0.03591
412.38400,0.05731
410.89422,0.07873
409.40443,0.06415
407.91464,0.05436
406.42485,0.05805
404.93506,0.05504
403.44527,0.05205
401.95548,0.05638
400.46570,0.03970
398.97591,0.04856
397.48612,0.05745
395.99633,0.05627
394.50654,0.03548
393.01675,0.03702
391.52697,0.03857
390.03718,0.00692
388.54739,0.03543
387.05760,0.03157
385.56781,0.02773
384.07802,0.00752
382.58824,0.02687
381.09845,0.01414
379.60866,0.00143
378.11887,0.00619
376.62908,0.03789
375.13929,0.02139
373.64950,0.00491
372.15972,0.03079
370.66993,0.02951
369.18014,0.03189
367.69035,0.03430
366.20056,0.03533
364.71077,0.04844
363.22099,0.04209
361.73120,0.03576
360.24141,0.06773
358.75162,0.07421
357.26183,0.06880
355.77204,0.06341
354.28225,0.05230
352.79247,0.04150
351.30268,0.03058
349.81289,0.01968
348.32310,0.06138
346.83331,0.07844
345.34352,0.07701
343.85374,0.07560
342.36395,0.04842
340.87416,0.04679
339.38437,0.05008
337.89458,0.05340
336.40479,0.03810
334.91501,0.03460
333.42522,0.02075
331.93543,0.00692
330.44564,0.03392
328.95585,0.02254
327.46606,0.01888
325.97627,0.01525
324.48649,0.02972
322.99670,0.05683
321.50691,0.06560
320.01712,0.07440
318.52733,0.09794
317.03754,0.08645
315.54776,0.09294
314.05797,0.09945
312.56818,0.08608
311.07839,0.06291
309.58860,0.05674
308.09881,0.05059
306.60902,0.04376
305.11924,0.03724
303.62945,0.02513
302.13966,0.01305
300.64987,0.00692
299.16008,0.00692
