1778.52000,0.00388
1777.03021,0.01406
1775.54042,0.00708
1774.05063,0.00784
1772.56085,0.00967
1771.07106,0.01224
1769.58127,0.02499
1768.09148,0.00621
1766.60169,0.01691
1765.11190,0.01221
1763.62212,0.01173
1762.13233,0.01690
1760.64254,0.01121
1759.15275,0.02239
1757.66296,0.01676
1756.17317,0.01500
1754.68339,0.01713
1753.19360,0.01263
1751.70381,0.00814
1750.21402,0.01701
1748.72423,0.02380
1747.23444,0.02255
1745.74465,0.02728
1744.25487,0.01976
1742.76508,0.01437
1741.27529,0.02549
1739.78550,0.00963
1738.29571,0.02918
1736.80592,0.03333
1735.31614,0.03680
1733.82635,0.03327
1732.33656,0.01294
1730.84677,0.02104
1729.35698,0.01829
1727.86719,0.02048
1726.37740,0.00621
1724.88762,0.01262
1723.39783,0.00924
1721.90804,0.02061
1720.41825,0.03201
1718.92846,0.01608
1717.43867,0.01876
1715.94889,0.01269
1714.45910,0.01226
1712.96931,0.01642
1711.47952,0.01463
1709.98973,0.02726
1708.49994,0.01570
1707.01016,0.01189
1705.52037,0.00810
1704.03058,0.02784
1702.54079,0.00621
1701.05100,0.00878
1699.56121,0.01278
1698.07142,0.01400
1696.58164,0.01980
1695.09185,0.05053
1693.60206,0.03955
1692.11227,0.03946
1690.62248,0.02151
1689.13269,0.03901
1687.64291,0.03304
1686.15312,0.03164
1684.66333,0.03273
1683.17354,0.04297
1681.68375,0.06761
1680.19396,0.05930
1678.70417,0.06540
1677.21439,0.07362
1675.72460,0.07311
1674.23481,0.07542
1672.74502,0.08477
1671.25523,0.07065
1669.76544,0.07233
1668.27566,0.09369
1666.78587,0.09402
1665.29608,0.10244
1663.80629,0.10808
1662.31650,0.11060
1660.82671,0.12120
1659.33693,0.12200
1657.84714,0.11862
1656.35735,0.10896
1654.86756,0.10878
1653.37777,0.10022
1651.88798,0.10991
1650.39819,0.09613
1648.90841,0.09010
1647.41862,0.09636
1645.92883,0.11247
1644.43904,0.12860
1642.94925,0.11635
1641.45946,0.12833
1639.96968,0.10525
1638.47989,0.09833
1636.99010,0.09845
1635.50031,0.09334
1634.01052,0.10368
1632.52073,0.08458
1631.03094,0.09007
1629.54116,0.10680
1628.05137,0.09584
1626.56158,0.09859
1625.07179,0.12487
1623.58200,0.11118
1622.09221,0.09647
1620.60243,0.10598
1619.11264,0.10780
1617.62285,0.12543
1616.13306,0.11046
1614.64327,0.11060
1613.15348,0.11498
1611.66370,0.12955
1610.17391,0.11047
1608.68412,0.09352
1607.19433,0.11343
1605.70454,0.09512
1604.21475,0.08965
1602.72496,0.08420
1601.23518,0.09613
1599.74539,0.09582
1598.25560,0.09658
1596.76581,0.10614
1595.27602,0.10484
1593.78623,0.09305
1592.29645,0.09777
1590.80666,0.08532
1589.31687,0.05326
1587.82708,0.07033
1586.33729,0.07901
1584.84750,0.07648
1583.35771,0.08591
1581.86793,0.08203
1580.37814,0.08624
1578.88835,0.08943
1577.39856,0.08913
1575.90877,0.08325
1574.41898,0.07563
1572.92920,0.06524
1571.43941,0.06890
1569.94962,0.05925
1568.45983,0.04963
1566.97004,0.05933
1565.48025,0.06238
1563.99047,0.05144
1562.50068,0.04823
1561.01089,0.06679
1559.52110,0.03136
1558.03131,0.05418
1556.54152,0.04546
1555.05173,0.04448
1553.56195,0.04247
1552.07216,0.03067
1550.58237,0.01854
1549.09258,0.00292
1547.60279,0.02101
1546.11300,0.01211
1544.62322,0.01411
1543.13343,0.01928
1541.64364,0.00555
1540.15385,0.00587
1538.66406,0.00621
1537.17427,0.03764
1535.68448,0.02772
1534.19470,0.01851
1532.70491,0.02407
1531.21512,0.02894
1529.72533,0.01666
1528.23554,0.02194
1526.74575,0.02303
1525.25597,0.01853
1523.76618,0.03546
1522.27639,0.04750
1520.78660,0.03115
1519.29681,0.05166
1517.80702,0.05781
1516.31724,0.06925
1514.82745,0.06983
1513.33766,0.06571
1511.84787,0.06161
1510.35808,0.04193
1508.86829,0.04121
1507.37850,0.04929
1505.88872,0.04196
1504.39893,0.06166
1502.90914,0.07016
1501.41935,0.07342
1499.92956,0.07215
1498.43977,0.07126
1496.94999,0.07319
1495.46020,0.09129
1493.97041,0.10590
1492.48062,0.12124
1490.99083,0.11380
1489.50104,0.09832
1488.01125,0.10672
1486.52147,0.11514
1485.03168,0.15270
1483.54189,0.18221
1482.05210,0.19176
1480.56231,0.21712
1479.07252,0.21198
1477.58274,0.22897
1476.09295,0.24563
1474.60316,0.25004
1473.11337,0.23378
1471.62358,0.25577
1470.13379,0.26376
1468.64401,0.30054
1467.15422,0.28262
1465.66443,0.30103
1464.17464,0.31947
1462.68485,0.37529
1461.19506,0.40272
1459.70527,0.44666
1458.21549,0.45941
1456.72570,0.50901
1455.23591,0.56986
1453.74612,0.60372
1452.25633,0.68427
1450.76654,0.69082
1449.27676,0.71494
1447.78697,0.71067
1446.29718,0.70713
1444.80739,0.67766
1443.31760,0.64821
1441.82781,0.59739
1440.33802,0.54273
1438.84824,0.52107
1437.35845,0.49523
1435.86866,0.48975
1434.37887,0.51447
1432.88908,0.54517
1431.39929,0.62150
1429.90951,0.70627
1428.41972,0.72231
1426.92993,0.73908
1425.44014,0.78885
1423.95035,0.82163
1422.46056,0.85444
1420.97078,0.90077
1419.48099,0.94888
1417.99120,0.91389
1416.50141,0.87611
1415.01162,0.86818
1413.52183,0.84378
1412.03204,0.78573
1410.54226,0.76559
1409.05247,0.67638
1407.56268,0.68154
1406.07289,0.58782
1404.58310,0.57619
1403.09331,0.56459
1401.60353,0.50111
1400.11374,0.46045
1398.62395,0.37912
1397.13416,0.32518
1395.64437,0.25267
1394.15458,0.23105
1392.66479,0.19717
1391.17501,0.19524
1389.68522,0.15966
1388.19543,0.12025
1386.70564,0.11892
1385.21585,0.11761
1383.72606,0.07757
1382.23628,0.06737
1380.74649,0.06000
1379.25670,0.05511
1377.76691,0.03200
1376.27712,0.02681
1374.78733,0.00621
1373.29755,0.02208
1371.80776,0.04114
1370.31797,0.04127
1368.82818,0.04915
1367.33839,0.05706
1365.84860,0.07200
1364.35881,0.06487
1362.86903,0.07109
1361.37924,0.06436
1359.88945,0.07835
1358.39966,0.12323
1356.90987,0.15972
1355.42008,0.18256
1353.93030,0.22400
1352.44051,0.26355
1350.95072,0.30311
1349.46093,0.36428
1347.97114,0.44581
1346.48135,0.51474
1344.99156,0.56230
1343.50178,0.63830
1342.01199,0.70379
1340.52220,0.72757
1339.03241,0.76365
1337.54262,0.80607
1336.05283,0.84045
1334.56305,0.87485
1333.07326,0.93979
1331.58347,0.94583
1330.09368,0.93787
1328.60389,0.89660
1327.11410,0.89500
1325.62432,0.84080
1324.13453,0.87432
1322.64474,0.82228
1321.15495,0.80464
1319.66516,0.76265
1318.17537,0.72068
1316.68558,0.66979
1315.19580,0.57683
1313.70601,0.57404
1312.21622,0.51306
1310.72643,0.48401
1309.23664,0.44307
1307.74685,0.40109
1306.25707,0.39317
1304.76728,0.36475
1303.27749,0.33635
1301.78770,0.29518
1300.29791,0.24176
1298.80812,0.22904
1297.31834,0.19952
1295.82855,0.19107
1294.33876,0.17983
1292.84897,0.13109
1291.35918,0.12060
1289.86939,0.11786
1288.37960,0.11514
1286.88982,0.10438
1285.40003,0.09399
1283.91024,0.08363
1282.42045,0.07224
1280.93066,0.04755
1279.44087,0.05094
1277.95109,0.04664
1276.46130,0.04622
1274.97151,0.04302
1273.48172,0.03985
1271.99193,0.03530
1270.50214,0.04726
1269.01235,0.03258
1267.52257,0.04985
1266.03278,0.04539
1264.54299,0.03851
1263.05320,0.04112
1261.56341,0.03095
1260.07362,0.02081
1258.58384,0.02209
1257.09405,0.00621
1255.60426,0.02378
1254.11447,0.01331
1252.62468,0.02742
1251.13489,0.01384
1249.64511,0.02765
1248.15532,0.03306
1246.66553,0.03289
1245.17574,0.03274
1243.68595,0.03367
1242.19616,0.04023
1240.70637,0.02191
1239.21659,0.03098
1237.72680,0.01903
1236.23701,0.01587
1234.74722,0.02537
1233.25743,0.02208
1231.76764,0.01882
1230.27786,0.02909
1228.78807,0.03097
1227.29828,0.00621
1225.80849,0.00647
1224.31870,0.01587
1222.82891,0.01373
1221.33912,0.03756
1219.84934,0.04213
1218.35955,0.04672
1216.86976,0.05836
1215.37997,0.04756
1213.89018,0.07012
1212.40039,0.06534
1210.91061,0.03989
1209.42082,0.06217
1207.93103,0.07132
1206.44124,0.08049
1204.95145,0.04041
1203.46166,0.04525
1201.97188,0.08519
1200.48209,0.04062
1198.99230,0.05149
1197.50251,0.03363
1196.01272,0.05297
1194.52293,0.04410
1193.03314,0.03526
1191.54336,0.03152
1190.05357,0.04570
1188.56378,0.01185
1187.07399,0.01065
1185.58420,0.01157
1184.09441,0.00621
1182.60463,0.01723
1181.11484,0.02828
1179.62505,0.02024
1178.13526,0.03256
1176.64547,0.01264
1175.15568,0.02256
1173.66589,0.00584
1172.17611,0.01830
1170.68632,0.01552
1169.19653,0.01277
1167.70674,0.02004
1166.21695,0.03154
1164.72716,0.02833
1163.23738,0.02340
1161.74759,0.00621
1160.25780,0.06056
1158.76801,0.05988
1157.27822,0.05921
1155.78843,0.05822
1154.29865,0.08461
1152.80886,0.10823
1151.31907,0.09679
1149.82928,0.09519
1148.33949,0.10380
1146.84970,0.11260
1145.35991,0.12143
1143.87013,0.11362
1142.38034,0.13705
1140.89055,0.13280
1139.40076,0.16189
1137.91097,0.19522
1136.42118,0.19315
1134.93140,0.18829
1133.44161,0.18346
1131.95182,0.20286
1130.46203,0.19176
1128.97224,0.17543
1127.48245,0.20262
1125.99266,0.18949
1124.50288,0.20410
1123.01309,0.21347
1121.52330,0.22287
1120.03351,0.23159
1118.54372,0.21473
1117.05393,0.23157
1115.56415,0.21405
1114.07436,0.23550
1112.58457,0.22417
1111.09478,0.21287
1109.60499,0.21440
1108.11520,0.24716
1106.62542,0.23541
1105.13563,0.21561
1103.64584,0.19163
1102.15605,0.18627
1100.66626,0.18338
1099.17647,0.18052
1097.68668,0.19276
1096.19690,0.18223
1094.70711,0.17278
1093.21732,0.15318
1091.72753,0.14658
1090.23774,0.14282
1088.74795,0.13907
1087.25817,0.16552
1085.76838,0.17446
1084.27859,0.12870
1082.78880,0.15382
1081.29901,0.14318
1079.80922,0.14660
1078.31943,0.14461
1076.82965,0.14264
1075.33986,0.14509
1073.85007,0.17035
1072.36028,0.16197
1070.87049,0.17957
1069.38070,0.21684
1067.89092,0.22010
1066.40113,0.22339
1064.91134,0.24355
1063.42155,0.31423
1061.93176,0.37583
1060.44197,0.44726
1058.95219,0.53942
1057.46240,0.58951
1055.97261,0.63963
1054.48282,0.77956
1052.99303,0.80518
1051.50324,0.82134
1050.01345,0.80877
1048.52367,0.82323
1047.03388,0.81386
1045.54409,0.80452
1044.05430,0.76819
1042.56451,0.73189
1041.07472,0.66895
1039.58494,0.61165
1038.09515,0.52176
1036.60536,0.50274
1035.11557,0.48375
1033.62578,0.44514
1032.13599,0.39884
1030.64620,0.33327
1029.15642,0.27790
1027.66663,0.26254
1026.17684,0.24720
1024.68705,0.19471
1023.19726,0.14645
1021.70747,0.13154
1020.21769,0.14190
1018.72790,0.14037
1017.23811,0.13465
1015.74832,0.12896
1014.25853,0.12609
1012.76874,0.11273
1011.27896,0.12746
1009.78917,0.10748
1008.29938,0.07736
1006.80959,0.05778
1005.31980,0.03823
1003.83001,0.02712
1002.34022,0.00727
1000.85044,0.01234
999.36065,0.03568
997.87086,0.03519
996.38107,0.03473
994.89128,0.04236
993.40149,0.04685
991.91171,0.06611
990.42192,0.07381
988.93213,0.07207
987.44234,0.07210
985.95255,0.07216
984.46276,0.08277
982.97297,0.08674
981.48319,0.07319
979.99340,0.06423
978.50361,0.05336
977.01382,0.04252
975.52403,0.00768
974.03424,0.03950
972.54446,0.02891
971.05467,0.02045
969.56488,0.04568
968.07509,0.03744
966.58530,0.02923
965.09551,0.01981
963.60573,0.00621
962.11594,0.01955
960.62615,0.00591
959.13636,0.01622
957.64657,0.02655
956.15678,0.03059
954.66699,0.04307
953.17721,0.04471
951.68742,0.03935
950.19763,0.04683
948.70784,0.05432
947.21805,0.10201
945.72826,0.08798
944.23848,0.11221
942.74869,0.11227
941.25890,0.14953
939.76911,0.14717
938.27932,0.14485
936.78953,0.16113
935.29974,0.19779
933.80996,0.18817
932.32017,0.22663
930.83038,0.21338
929.34059,0.20015
927.85080,0.24184
926.36101,0.25479
924.87123,0.26531
923.38144,0.30357
921.89165,0.32887
920.40186,0.35420
918.91207,0.46373
917.42228,0.55260
915.93250,0.65131
914.44271,0.86790
912.95292,0.96648
911.46313,1.06509
909.97334,1.27439
908.48355,1.48161
906.99376,1.69447
905.50398,1.80352
904.01419,1.85578
902.52440,1.90806
901.03461,2.00000
899.54482,1.94079
898.05503,1.85494
896.56525,1.62004
895.07546,1.49952
893.58567,1.37902
892.09588,1.08422
890.60609,0.87783
889.11630,0.70619
887.62651,0.51564
886.13673,0.44665
884.64694,0.37769
883.15715,0.31103
881.66736,0.23597
880.17757,0.15884
878.68778,0.13435
877.19800,0.10988
875.70821,0.06439
874.21842,0.04312
872.72863,0.05871
871.23884,0.02803
869.74905,0.02420
868.25927,0.02040
866.76948,0.02977
865.27969,0.03742
863.78990,0.06158
862.30011,0.05349
860.81032,0.04876
859.32053,0.04405
857.83075,0.06305
856.34096,0.08031
854.85117,0.08287
853.36138,0.09843
851.87159,0.10787
850.38180,0.11735
848.89202,0.14245
847.40223,0.13671
845.91244,0.18291
844.42265,0.15688
842.93286,0.13087
841.44307,0.18381
839.95329,0.20134
838.46350,0.20908
836.97371,0.24350
835.48392,0.23761
833.99413,0.23175
832.50434,0.23713
831.01455,0.23762
829.52477,0.19991
828.03498,0.18783
826.54519,0.17857
825.05540,0.16935
823.56561,0.11735
822.07582,0.12571
820.58604,0.13375
819.09625,0.12163
817.60646,0.10955
816.11667,0.10433
814.62688,0.08896
813.13709,0.10343
811.64730,0.09968
810.15752,0.10280
808.66773,0.10595
807.17794,0.08860
805.68815,0.08565
804.19836,0.10799
802.70857,0.11369
801.21879,0.11941
799.72900,0.13024
798.23921,0.13935
796.74942,0.12147
795.25963,0.12325
793.76984,0.12507
792.28006,0.12340
790.79027,0.13894
789.30048,0.14573
787.81069,0.17956
786.32090,0.20500
784.83111,0.23046
783.34132,0.25560
781.85154,0.27795
780.36175,0.29857
778.87196,0.31501
777.38217,0.33148
775.89238,0.36761
774.40259,0.35746
772.91281,0.34945
771.42302,0.33830
769.93323,0.32717
768.44344,0.27714
766.95365,0.26326
765.46386,0.21082
763.97407,0.20015
762.48429,0.18669
760.99450,0.17326
759.50471,0.16547
758.01492,0.13174
756.52513,0.13592
755.03534,0.12662
753.54556,0.11735
752.05577,0.11985
750.56598,0.10834
749.07619,0.08950
747.58640,0.08383
746.09661,0.07818
744.60683,0.05275
743.11704,0.04908
741.62725,0.05701
740.13746,0.05498
738.64767,0.05296
737.15788,0.03993
735.66809,0.01639
734.17831,0.00621
732.68852,0.02419
731.19873,0.04219
729.70894,0.03829
728.21915,0.04810
726.72936,0.01339
725.23958,0.02956
723.74979,0.01787
722.26000,0.00621
720.77021,0.02861
719.28042,0.02578
717.79063,0.04472
716.30084,0.05123
714.81106,0.05777
713.32127,0.05118
711.83148,0.05654
710.34169,0.01878
708.85190,0.01770
707.36211,0.01665
705.87233,0.05543
704.38254,0.06688
702.89275,0.07765
701.40296,0.08230
699.91317,0.08698
698.42338,0.09782
696.93360,0.09922
695.44381,0.12064
693.95402,0.13559
692.46423,0.15056
690.97444,0.16925
689.48465,0.18024
687.99486,0.20283
686.50508,0.21264
685.01529,0.22248
683.52550,0.23707
682.03571,0.27765
680.54592,0.30878
679.05613,0.30504
677.56635,0.30132
676.07656,0.32691
674.58677,0.30868
673.09698,0.29609
671.60719,0.26704
670.11740,0.23801
668.62761,0.18551
667.13783,0.18038
665.64804,0.15424
664.15825,0.12811
662.66846,0.10658
661.17867,0.10646
659.68888,0.08637
658.19910,0.08630
656.70931,0.08626
655.21952,0.05502
653.72973,0.08099
652.23994,0.10382
650.75015,0.09352
649.26037,0.08326
647.77058,0.05495
646.28079,0.09366
644.79100,0.06470
643.30121,0.06348
641.81142,0.06228
640.32163,0.05128
638.83185,0.03294
637.34206,0.00621
635.85227,0.01240
634.36248,0.01861
632.87269,0.03660
631.38290,0.03602
629.89312,0.07124
628.40333,0.05966
626.91354,0.04811
625.42375,0.02904
623.93396,0.03841
622.44417,0.02921
620.95438,0.02003
619.46460,0.02526
617.97481,0.07962
616.48502,0.07298
614.99523,0.07056
613.50544,0.06818
612.01565,0.12579
610.52587,0.16695
609.03608,0.19235
607.54629,0.22215
606.05650,0.25198
604.56671,0.30446
603.07692,0.40537
601.58714,0.41247
600.09735,0.41960
598.60756,0.50550
597.11777,0.49356
595.62798,0.49147
594.13819,0.48169
592.64840,0.47193
591.15862,0.42676
589.66883,0.39460
588.17904,0.34248
586.68925,0.28037
585.19946,0.21830
583.70967,0.21500
582.21989,0.16998
580.73010,0.14271
579.24031,0.11545
577.75052,0.12207
576.26073,0.07716
574.77094,0.06068
573.28115,0.05071
571.79137,0.04077
570.30158,0.05769
568.81179,0.05323
567.32200,0.05897
565.83221,0.06474
564.34242,0.08175
562.85264,0.09493
561.36285,0.11866
559.87306,0.12803
558.38327,0.13743
556.89348,0.20121
555.40369,0.23802
553.91391,0.21838
552.42412,0.19876
550.93433,0.18477
549.44454,0.16661
547.95475,0.18740
546.46496,0.17647
544.97517,0.16557
543.48539,0.20012
541.99560,0.27327
540.50581,0.30226
539.01602,0.33126
537.52623,0.40169
536.03644,0.47178
534.54666,0.52612
533.05687,0.53944
531.56708,0.55279
530.07729,0.62614
528.58750,0.71951
527.09771,0.72925
525.60792,0.73901
524.11814,0.82964
522.62835,0.88663
521.13856,0.88998
519.64877,0.91738
518.15898,0.94480
516.66919,0.97313
515.17941,1.02147
513.68962,1.02950
512.19983,1.03755
510.71004,1.01196
509.22025,1.01199
507.73046,0.84053
506.24068,0.78028
504.75089,0.72006
503.26110,0.61531
501.77131,0.52778
500.28152,0.45115
498.79173,0.37454
497.30194,0.28392
495.81216,0.21157
494.32237,0.20010
492.83258,0.18866
491.34279,0.12831
489.85300,0.11183
488.36321,0.06415
486.87343,0.06438
485.38364,0.06463
483.89385,0.07877
482.40406,0.09784
480.91427,0.11114
479.42448,0.12447
477.93469,0.17027
476.44491,0.16243
474.95512,0.18250
473.46533,0.20259
471.97554,0.24533
470.48575,0.21058
468.99596,0.21760
467.50618,0.18237
466.01639,0.14716
464.52660,0.11847
463.03681,0.12769
461.54702,0.12342
460.05723,0.11919
458.56745,0.04429
457.07766,0.03852
455.58787,0.03857
454.09808,0.03864
452.60829,0.02417
451.11850,0.01149
449.62871,0.02005
448.13893,0.02863
446.64914,0.02444
445.15935,0.01466
443.66956,0.02350
442.17977,0.04305
440.68998,0.06264
439.20020,0.03436
437.71041,0.03628
436.22062,0.03401
434.73083,0.03177
433.24104,0.06568
431.75125,0.04279
430.26146,0.06307
428.77168,0.08338
427.28189,0.07354
425.79210,0.04409
424.30231,0.04360
422.81252,0.04313
421.32273,0.02427
419.83295,0.01807
418.34316,0.03223
416.85337,0.04642
415.36358,0.01959
413.87379,0.07101
412.38400,0.07773
410.89422,0.08448
409.40443,0.05284
407.91464,0.02859
406.42485,0.05558
404.93506,0.05540
403.44527,0.05526
401.95548,0.01357
400.46570,0.04907
398.97591,0.05286
397.48612,0.05667
395.99633,0.05156
394.50654,0.02753
393.01675,0.01686
391.52697,0.00621
390.03718,0.02312
388.54739,0.03691
387.05760,0.02546
385.56781,0.01403
384.07802,0.03841
382.58824,0.03476
381.09845,0.02779
379.60866,0.02085
378.11887,0.00324
376.62908,0.00950
375.13929,0.00474
373.64950,0.00000
372.15972,0.01230
370.66993,0.02813
369.18014,0.03400
367.69035,0.03988
366.20056,0.03948
364.71077,0.01666
363.22099,0.02157
361.73120,0.02651
360.24141,0.07601
358.75162,0.05995
357.26183,0.04795
355.77204,0.03597
354.28225,0.02840
352.79247,0.05628
351.30268,0.05473
349.81289,0.05319
348.32310,0.07589
346.83331,0.09230
345.34352,0.09803
343.85374,0.10378
342.36395,0.09781
340.87416,0.09713
339.38437,0.08735
337.89458,0.07760
336.40479,0.07664
334.91501,0.05431
333.42522,0.03024
331.93543,0.00621
330.44564,0.06016
328.95585,0.06994
327.46606,0.07116
325.97627,0.07240
324.48649,0.10885
322.99670,0.12744
321.50691,0.17148
320.01712,0.21555
318.52733,0.19107
317.03754,0.16029
315.54776,0.16953
314.05797,0.17880
312.56818,0.13933
311.07839,0.11743
309.58860,0.11660
308.09881,0.11579
306.60902,0.09466
305.11924,0.04655
303.62945,0.04809
302.13966,0.04126
300.64987,0.00621
299.16008,0.00621
