1778.52000,0.01130
1777.03021,0.00246
1775.54042,0.01387
1774.05063,0.01610
1772.56085,0.01758
1771.07106,0.02170
1769.58127,0.02637
1768.09148,0.01479
1766.60169,0.00901
1765.11190,0.02058
1763.62212,0.01511
1762.13233,0.02148
1760.64254,0.01501
1759.15275,0.02170
1757.66296,0.01422
1756.17317,0.02306
1754.68339,0.02692
1753.19360,0.02767
1751.70381,0.01294
1750.21402,0.01504
1748.72423,0.01087
1747.23444,0.01815
1745.74465,0.02257
1744.25487,0.01546
1742.76508,0.02151
1741.27529,0.01550
1739.78550,0.01397
1738.29571,0.01799
1736.80592,0.02098
1735.31614,0.02794
1733.82635,0.01916
1732.33656,0.02039
1730.84677,0.01481
1729.35698,0.02501
1727.86719,0.02133
1726.37740,0.00427
1724.88762,0.02188
1723.39783,0.01011
1721.90804,0.01229
1720.41825,0.02157
1718.92846,0.01198
1717.43867,0.01186
1715.94889,0.01728
1714.45910,0.01275
1712.96931,0.01349
1711.47952,0.00690
1709.98973,0.00166
1708.49994,0.00930
1707.01016,0.01251
1705.52037,0.01574
1704.03058,0.00323
1702.54079,0.01597
1701.05100,0.00246
1699.56121,0.01767
1698.07142,0.02582
1696.58164,0.01876
1695.09185,0.02170
1693.60206,0.02572
1692.11227,0.02109
1690.62248,0.01833
1689.13269,0.01192
1687.64291,0.01840
1686.15312,0.02149
1684.66333,0.02224
1683.17354,0.02590
1681.68375,0.03248
1680.19396,0.02884
1678.70417,0.03573
1677.21439,0.03371
1675.72460,0.04774
1674.23481,0.04787
1672.74502,0.04987
1671.25523,0.04191
1669.76544,0.05919
1668.27566,0.05470
1666.78587,0.06178
1665.29608,0.06417
1663.80629,0.07524
1662.31650,0.07557
1660.82671,0.07908
1659.33693,0.07841
1657.84714,0.08301
1656.35735,0.07084
1654.86756,0.08494
1653.37777,0.08175
1651.88798,0.07857
1650.39819,0.08409
1648.90841,0.07991
1647.41862,0.08653
1645.92883,0.08162
1644.43904,0.07673
1642.94925,0.09418
1641.45946,0.07464
1639.96968,0.09293
1638.47989,0.08788
1636.99010,0.09257
1635.50031,0.08992
1634.01052,0.06788
1632.52073,0.08367
1631.03094,0.07873
1629.54116,0.08328
1628.05137,0.08864
1626.56158,0.07696
1625.07179,0.08709
1623.58200,0.09384
1622.09221,0.09037
1620.60243,0.08219
1619.11264,0.08665
1617.62285,0.08352
1616.13306,0.08540
1614.64327,0.09570
1613.15348,0.08949
1611.66370,0.08540
1610.17391,0.08659
1608.68412,0.09647
1607.19433,0.10113
1605.70454,0.09556
1604.21475,0.09409
1602.72496,0.09265
1601.23518,0.07324
1599.74539,0.08301
1598.25560,0.08308
1596.76581,0.09342
1595.27602,0.08382
1593.78623,0.09132
1592.29645,0.08362
1590.80666,0.07856
1589.31687,0.07300
1587.82708,0.08323
1586.33729,0.07115
1584.84750,0.07302
1583.35771,0.08017
1581.86793,0.07789
1580.37814,0.09322
1578.88835,0.08994
1577.39856,0.08510
1575.90877,0.07347
1574.41898,0.06080
1572.92920,0.05578
1571.43941,0.06365
1569.94962,0.05696
1568.45983,0.05031
1566.97004,0.03882
1565.48025,0.04468
1563.99047,0.06029
1562.50068,0.04257
1561.01089,0.05139
1559.52110,0.03871
1558.03131,0.03183
1556.54152,0.03837
1555.05173,0.04913
1553.56195,0.02736
1552.07216,0.03581
1550.58237,0.03142
1549.09258,0.01234
1547.60279,0.01719
1546.11300,0.00184
1544.62322,0.00752
1543.13343,0.00246
1541.64364,0.02228
1540.15385,0.01612
1538.66406,0.00999
1537.17427,0.01334
1535.68448,0.01724
1534.19470,0.01564
1532.70491,0.01696
1531.21512,0.00465
1529.72533,0.02230
1528.23554,0.00794
1526.74575,0.03509
1525.25597,0.02367
1523.76618,0.01516
1522.27639,0.02873
1520.78660,0.03392
1519.29681,0.04098
1517.80702,0.05305
1516.31724,0.04439
1514.82745,0.06019
1513.33766,0.06866
1511.84787,0.07715
1510.35808,0.05494
1508.86829,0.05035
1507.37850,0.04841
1505.88872,0.03153
1504.39893,0.03725
1502.90914,0.05114
1501.41935,0.06033
1499.92956,0.06324
1498.43977,0.07642
1496.94999,0.08541
1495.46020,0.08866
1493.97041,0.09193
1492.48062,0.10915
1490.99083,0.10091
1489.50104,0.10977
1488.01125,0.12338
1486.52147,0.13701
1485.03168,0.16013
1483.54189,0.18116
1482.05210,0.18936
1480.56231,0.20230
1479.07252,0.20950
1477.58274,0.22695
1476.09295,0.23603
1474.60316,0.22413
1473.11337,0.23851
1471.62358,0.25633
1470.13379,0.26183
1468.64401,0.26815
1467.15422,0.29497
1465.66443,0.29976
1464.17464,0.30457
1462.68485,0.33645
1461.19506,0.37650
1459.70527,0.44415
1458.21549,0.47033
1456.72570,0.52988
1455.23591,0.56583
1453.74612,0.61965
1452.25633,0.67272
1450.76654,0.69219
1449.27676,0.71169
1447.78697,0.68894
1446.29718,0.67199
1444.80739,0.65112
1443.31760,0.63028
1441.82781,0.59213
1440.33802,0.54797
1438.84824,0.51670
1437.35845,0.49701
1435.86866,0.48049
1434.37887,0.53385
1432.88908,0.56071
1431.39929,0.64326
1429.90951,0.72006
1428.41972,0.76039
1426.92993,0.81755
1425.44014,0.84427
1423.95035,0.87311
1422.46056,0.90198
1420.97078,0.91407
1419.48099,0.95218
1417.99120,0.92887
1416.50141,0.89350
1415.01162,0.85606
1413.52183,0.82993
1412.03204,0.75814
1410.54226,0.71919
1409.05247,0.67082
1407.56268,0.62457
1406.07289,0.58018
1404.58310,0.54304
1403.09331,0.50592
1401.60353,0.47421
1400.11374,0.42441
1398.62395,0.37279
1397.13416,0.30991
1395.64437,0.25414
1394.15458,0.20995
1392.66479,0.16999
1391.17501,0.16471
1389.68522,0.13898
1388.19543,0.11143
1386.70564,0.10150
1385.21585,0.09159
1383.72606,0.06832
1382.23628,0.05190
1380.74649,0.03970
1379.25670,0.01650
1377.76691,0.02720
1376.27712,0.00983
1374.78733,0.01847
1373.29755,0.00246
1371.80776,0.01010
1370.31797,0.03484
1368.82818,0.03347
1367.33839,0.03212
1365.84860,0.04144
1364.35881,0.04316
1362.86903,0.06723
1361.37924,0.06901
1359.88945,0.09286
1358.39966,0.10624
1356.90987,0.13119
1355.42008,0.19451
1353.93030,0.24236
1352.44051,0.28708
1350.95072,0.33183
1349.46093,0.42729
1347.97114,0.48022
1346.48135,0.55761
1344.99156,0.61768
1343.50178,0.71192
1342.01199,0.77704
1340.52220,0.84191
1339.03241,0.83907
1337.54262,0.84123
1336.05283,0.88242
1334.56305,0.92363
1333.07326,0.97314
1331.58347,0.95203
1330.09368,0.97532
1328.60389,0.93457
1327.11410,0.91223
1325.62432,0.86995
1324.13453,0.86813
1322.64474,0.85741
1321.15495,0.79735
1319.66516,0.77591
1318.17537,0.75450
1316.68558,0.65985
1315.19580,0.60567
1313.70601,0.59588
1312.21622,0.55382
1310.72643,0.50864
1309.23664,0.44851
1307.74685,0.43121
1306.25707,0.39161
1304.76728,0.38224
1303.27749,0.37289
1301.78770,0.31341
1300.29791,0.25816
1298.80812,0.24783
1297.31834,0.21547
1295.82855,0.19758
1294.33876,0.17157
1292.84897,0.12327
1291.35918,0.11280
1289.86939,0.10905
1288.37960,0.10533
1286.88982,0.11647
1285.40003,0.10479
1283.91024,0.08657
1282.42045,0.07783
1280.93066,0.07200
1279.44087,0.05464
1277.95109,0.04282
1276.46130,0.04468
1274.97151,0.05129
1273.48172,0.05792
1271.99193,0.04331
1270.50214,0.04081
1269.01235,0.05224
1267.52257,0.03980
1266.03278,0.04000
1264.54299,0.05361
1263.05320,0.04124
1261.56341,0.03599
1260.07362,0.03077
1258.58384,0.00246
1257.09405,0.01688
1255.60426,0.01740
1254.11447,0.01348
1252.62468,0.01877
1251.13489,0.02593
1249.64511,0.01027
1248.15532,0.00749
1246.66553,0.01368
1245.17574,0.01988
1243.68595,0.03609
1242.19616,0.02029
1240.70637,0.02604
1239.21659,0.03156
1237.72680,0.02213
1236.23701,0.02901
1234.74722,0.00913
1233.25743,0.01566
1231.76764,0.02222
1230.27786,0.02736
1228.78807,0.02333
1227.29828,0.00987
1225.80849,0.01902
1224.31870,0.00246
1222.82891,0.01604
1221.33912,0.02885
1219.84934,0.03853
1218.35955,0.04824
1216.86976,0.06401
1215.37997,0.07876
1213.89018,0.07515
1212.40039,0.08548
1210.91061,0.06196
1209.42082,0.07628
1207.93103,0.07448
1206.44124,0.07270
1204.95145,0.05374
1203.46166,0.07368
1201.97188,0.05556
1200.48209,0.05190
1198.99230,0.04513
1197.50251,0.03785
1196.01272,0.04293
1194.52293,0.04608
1193.03314,0.04924
1191.54336,0.03891
1190.05357,0.02388
1188.56378,0.02594
1187.07399,0.03406
1185.58420,0.00938
1184.09441,0.01309
1182.60463,0.00777
1181.11484,0.00246
1179.62505,0.00630
1178.13526,0.02250
1176.64547,0.03111
1175.15568,0.01926
1173.66589,0.00245
1172.17611,0.00246
1170.68632,0.00334
1169.19653,0.00424
1167.70674,0.00700
1166.21695,0.02555
1164.72716,0.03361
1163.23738,0.04039
1161.74759,0.03958
1160.25780,0.06058
1158.76801,0.05785
1157.27822,0.05514
1155.78843,0.07385
1154.29865,0.05767
1152.80886,0.08562
1151.31907,0.10021
1149.82928,0.11220
1148.33949,0.13891
1146.84970,0.13651
1145.35991,0.13412
1143.87013,0.13177
1142.38034,0.15884
1140.89055,0.16231
1139.40076,0.17683
1137.91097,0.19611
1136.42118,0.21645
1134.93140,0.21122
1133.44161,0.20602
1131.95182,0.25926
1130.46203,0.25870
1128.97224,0.24556
1127.48245,0.23874
1125.99266,0.22486
1124.50288,0.23937
1123.01309,0.23945
1121.52330,0.23956
1120.03351,0.22605
1118.54372,0.24931
1117.05393,0.26000
1115.56415,0.27360
1114.07436,0.26780
1112.58457,0.25401
1111.09478,0.24024
1109.60499,0.25158
1108.11520,0.25453
1106.62542,0.27800
1105.13563,0.27575
1103.64584,0.24885
1102.15605,0.23326
1100.66626,0.22347
1099.17647,0.21371
1097.68668,0.22157
1096.19690,0.23496
1094.70711,0.22659
1093.21732,0.21246
1091.72753,0.19888
1090.23774,0.18585
1088.74795,0.17285
1087.25817,0.20477
1085.76838,0.17790
1084.27859,0.20619
1082.78880,0.19014
1081.29901,0.18566
1079.80922,0.20274
1078.31943,0.19791
1076.82965,0.19311
1075.33986,0.22235
1073.85007,0.22403
1072.36028,0.23598
1070.87049,0.25767
1069.38070,0.29435
1067.89092,0.30782
1066.40113,0.32131
1064.91134,0.37908
1063.42155,0.46837
1061.93176,0.52382
1060.44197,0.60004
1058.95219,0.68233
1057.46240,0.73916
1055.97261,0.79602
1054.48282,0.90543
1052.99303,0.96050
1051.50324,0.96439
1050.01345,0.95307
1048.52367,0.92629
1047.03388,0.90583
1045.54409,0.88540
1044.05430,0.83295
1042.56451,0.77318
1041.07472,0.74337
1039.58494,0.68075
1038.09515,0.61528
1036.60536,0.58002
1035.11557,0.54479
1033.62578,0.46889
1032.13599,0.42819
1030.64620,0.36389
1029.15642,0.31405
1027.66663,0.28604
1026.17684,0.25804
1024.68705,0.20986
1023.19726,0.17902
1021.70747,0.16476
1020.21769,0.14527
1018.72790,0.13867
1017.23811,0.13643
1015.74832,0.13421
1014.25853,0.10668
1012.76874,0.11804
1011.27896,0.10893
1009.78917,0.10878
1008.29938,0.08424
1006.80959,0.06260
1005.31980,0.04099
1003.83001,0.02834
1002.34022,0.03068
1000.85044,0.01150
999.36065,0.01835
997.87086,0.02746
996.38107,0.03659
994.89128,0.06216
993.40149,0.06648
991.91171,0.10286
990.42192,0.12982
988.93213,0.12870
987.44234,0.13023
985.95255,0.13179
984.46276,0.12864
982.97297,0.11606
981.48319,0.09747
979.99340,0.06630
978.50361,0.05945
977.01382,0.05262
975.52403,0.03885
974.03424,0.03483
972.54446,0.02453
971.05467,0.01897
969.56488,0.00951
968.07509,0.01031
966.58530,0.01113
965.09551,0.01618
963.60573,0.00393
962.11594,0.00246
960.62615,0.01739
959.13636,0.01776
957.64657,0.01816
956.15678,0.00165
954.66699,0.01740
953.17721,0.02767
951.68742,0.02877
950.19763,0.03449
948.70784,0.04024
947.21805,0.05743
945.72826,0.08121
944.23848,0.09215
942.74869,0.11204
941.25890,0.12854
939.76911,0.13299
938.27932,0.13746
936.78953,0.16402
935.29974,0.16854
933.80996,0.19304
932.32017,0.20812
930.83038,0.21508
929.34059,0.22206
927.85080,0.26321
926.36101,0.27470
924.87123,0.29252
923.38144,0.35711
921.89165,0.37958
920.40186,0.40207
918.91207,0.51716
917.42228,0.60390
915.93250,0.73295
914.44271,0.92084
912.95292,1.05834
911.46313,1.19587
909.97334,1.40616
908.48355,1.63433
906.99376,1.76982
905.50398,1.90692
904.01419,1.95345
902.52440,2.00000
901.03461,1.99852
899.54482,1.94717
898.05503,1.84701
896.56525,1.65837
895.07546,1.50692
893.58567,1.35549
892.09588,1.05559
890.60609,0.82976
889.11630,0.63100
887.62651,0.45853
886.13673,0.39625
884.64694,0.33398
883.15715,0.24352
881.66736,0.16909
880.17757,0.14327
878.68778,0.11301
877.19800,0.08278
875.70821,0.07647
874.21842,0.03446
872.72863,0.03424
871.23884,0.02590
869.74905,0.01417
868.25927,0.00246
866.76948,0.00573
865.27969,0.00376
863.78990,0.03859
862.30011,0.03930
860.81032,0.04148
859.32053,0.04369
857.83075,0.05314
856.34096,0.07285
854.85117,0.08734
853.36138,0.10002
851.87159,0.09723
850.38180,0.09446
848.89202,0.15080
847.40223,0.16436
845.91244,0.17690
844.42265,0.18158
842.93286,0.18629
841.44307,0.18130
839.95329,0.21521
838.46350,0.21500
836.97371,0.23792
835.48392,0.23908
833.99413,0.24025
832.50434,0.25065
831.01455,0.22430
829.52477,0.20980
828.03498,0.19007
826.54519,0.17115
825.05540,0.15225
823.56561,0.14651
822.07582,0.12583
820.58604,0.11961
819.09625,0.11920
817.60646,0.11881
816.11667,0.10820
814.62688,0.10550
813.13709,0.11779
811.64730,0.12432
810.15752,0.12300
808.66773,0.12171
807.17794,0.10967
805.68815,0.10187
804.19836,0.10852
802.70857,0.10930
801.21879,0.11010
799.72900,0.11552
798.23921,0.08892
796.74942,0.11146
795.25963,0.10947
793.76984,0.10750
792.28006,0.13484
790.79027,0.13174
789.30048,0.15335
787.81069,0.18496
786.32090,0.19953
784.83111,0.21412
783.34132,0.23478
781.85154,0.27200
780.36175,0.31686
778.87196,0.32867
777.38217,0.34049
775.89238,0.36941
774.40259,0.37945
772.91281,0.37454
771.42302,0.36835
769.93323,0.36218
768.44344,0.30746
766.95365,0.24225
765.46386,0.20123
763.97407,0.16207
762.48429,0.16416
760.99450,0.16628
759.50471,0.12903
758.01492,0.10914
756.52513,0.12079
755.03534,0.10686
753.54556,0.09295
752.05577,0.08261
750.56598,0.07938
749.07619,0.06804
747.58640,0.06158
746.09661,0.05515
744.60683,0.04257
743.11704,0.02923
741.62725,0.03193
740.13746,0.03084
738.64767,0.02978
737.15788,0.01943
735.66809,0.00831
734.17831,0.00246
732.68852,0.01030
731.19873,0.01817
729.70894,0.02067
728.21915,0.01664
726.72936,0.01132
725.23958,0.00549
723.74979,0.00849
722.26000,0.01150
720.77021,0.00246
719.28042,0.01815
717.79063,0.00392
716.30084,0.00653
714.81106,0.00916
713.32127,0.03019
711.83148,0.02211
710.34169,0.03347
708.85190,0.03069
707.36211,0.02793
705.87233,0.03753
704.38254,0.03298
702.89275,0.04263
701.40296,0.04798
699.91317,0.05335
698.42338,0.07909
696.93360,0.08648
695.44381,0.08208
693.95402,0.09280
692.46423,0.10354
690.97444,0.13335
689.48465,0.16370
687.99486,0.17807
686.50508,0.19784
685.01529,0.21763
683.52550,0.24625
682.03571,0.25966
680.54592,0.27835
679.05613,0.26804
677.56635,0.25776
676.07656,0.28808
674.58677,0.25041
673.09698,0.26816
671.60719,0.24787
670.11740,0.22760
668.62761,0.17296
667.13783,0.14381
665.64804,0.13242
664.15825,0.12104
662.66846,0.08856
661.17867,0.07421
659.68888,0.06016
658.19910,0.05558
656.70931,0.05103
655.21952,0.06068
653.72973,0.06746
652.23994,0.05878
650.75015,0.04894
649.26037,0.03913
647.77058,0.07437
646.28079,0.05004
644.79100,0.05828
643.30121,0.05618
641.81142,0.05410
640.32163,0.04693
638.83185,0.01064
637.34206,0.00246
635.85227,0.00826
634.36248,0.01408
632.87269,0.02793
631.38290,0.02158
629.89312,0.05045
628.40333,0.03891
626.91354,0.02739
625.42375,0.03506
623.93396,0.02175
622.44417,0.01463
620.95438,0.00754
619.46460,0.01899
617.97481,0.04412
616.48502,0.08030
614.99523,0.08643
613.50544,0.09260
612.01565,0.11441
610.52587,0.15462
609.03608,0.19066
607.54629,0.20021
606.05650,0.20977
604.56671,0.27976
603.07692,0.37210
601.58714,0.38463
600.09735,0.39718
598.60756,0.42499
597.11777,0.47015
595.62798,0.46781
594.13819,0.44383
592.64840,0.41988
591.15862,0.41472
589.66883,0.36495
588.17904,0.28763
586.68925,0.26193
585.19946,0.23626
583.70967,0.17004
582.21989,0.12643
580.73010,0.11121
579.24031,0.09601
577.75052,0.09528
576.26073,0.08695
574.77094,0.07078
573.28115,0.06513
571.79137,0.05950
570.30158,0.05443
568.81179,0.10767
567.32200,0.10948
565.83221,0.11130
564.34242,0.11998
562.85264,0.12921
561.36285,0.14083
559.87306,0.14393
558.38327,0.14706
556.89348,0.19998
555.40369,0.20881
553.91391,0.21162
552.42412,0.21445
550.93433,0.20418
549.44454,0.20575
547.95475,0.20893
546.46496,0.20648
544.97517,0.20405
543.48539,0.20152
541.99560,0.24392
540.50581,0.26953
539.01602,0.29517
537.52623,0.35313
536.03644,0.42661
534.54666,0.44208
533.05687,0.49041
531.56708,0.53875
530.07729,0.56743
528.58750,0.62081
527.09771,0.65072
525.60792,0.68065
524.11814,0.74224
522.62835,0.81122
521.13856,0.82350
519.64877,0.83882
518.15898,0.85417
516.66919,0.91458
515.17941,0.89964
513.68962,0.91152
512.19983,0.92342
510.71004,0.89806
509.22025,0.84987
507.73046,0.75917
506.24068,0.68110
504.75089,0.60305
503.26110,0.51322
501.77131,0.43075
500.28152,0.38167
498.79173,0.33260
497.30194,0.25704
495.81216,0.19385
494.32237,0.17283
492.83258,0.15183
491.34279,0.15015
489.85300,0.11095
488.36321,0.08937
486.87343,0.07924
485.38364,0.06913
483.89385,0.05891
482.40406,0.09888
480.91427,0.10762
479.42448,0.11638
477.93469,0.13699
476.44491,0.14606
474.95512,0.17328
473.46533,0.20053
471.97554,0.20233
470.48575,0.22988
468.99596,0.21991
467.50618,0.18108
466.01639,0.14227
464.52660,0.11819
463.03681,0.09992
461.54702,0.09060
460.05723,0.08130
458.56745,0.06598
457.07766,0.03678
455.58787,0.03451
454.09808,0.03227
452.60829,0.02099
451.11850,0.00554
449.62871,0.01979
448.13893,0.03405
446.64914,0.02682
445.15935,0.03824
443.66956,0.03000
442.17977,0.03203
440.68998,0.03408
439.20020,0.03484
437.71041,0.03169
436.22062,0.04300
434.73083,0.05434
433.24104,0.04548
431.75125,0.03902
430.26146,0.04951
428.77168,0.06003
427.28189,0.07044
425.79210,0.07536
424.30231,0.06429
422.81252,0.05324
421.32273,0.05508
419.83295,0.00574
418.34316,0.00409
416.85337,0.00246
415.36358,0.00585
413.87379,0.03422
412.38400,0.05105
410.89422,0.06791
409.40443,0.05958
407.91464,0.05233
406.42485,0.03643
404.93506,0.04525
403.44527,0.05409
401.95548,0.03801
400.46570,0.04663
398.97591,0.04688
397.48612,0.04715
395.99633,0.03117
394.50654,0.06458
393.01675,0.05061
391.52697,0.03667
390.03718,0.03418
388.54739,0.01070
387.05760,0.00776
385.56781,0.00483
384.07802,0.01688
382.58824,0.04785
381.09845,0.04091
379.60866,0.03399
378.11887,0.01462
376.62908,0.00000
375.13929,0.00023
373.64950,0.00049
372.15972,0.01022
370.66993,0.01683
369.18014,0.01412
367.69035,0.01143
366.20056,0.00983
364.71077,0.01848
363.22099,0.02270
361.73120,0.02694
360.24141,0.05615
358.75162,0.07174
357.26183,0.05806
355.77204,0.04441
354.28225,0.04930
352.79247,0.03269
351.30268,0.03447
349.81289,0.03628
348.32310,0.04889
346.83331,0.08042
345.34352,0.06931
343.85374,0.05822
342.36395,0.05490
340.87416,0.03375
339.38437,0.04125
337.89458,0.04877
336.40479,0.05869
334.91501,0.06915
333.42522,0.05468
331.93543,0.04025
330.44564,0.00246
328.95585,0.02501
327.46606,0.02473
325.97627,0.02447
324.48649,0.03531
322.99670,0.04565
321.50691,0.05194
320.01712,0.05826
318.52733,0.09860
317.03754,0.08147
315.54776,0.07827
314.05797,0.07510
312.56818,0.10346
311.07839,0.06804
309.58860,0.06613
308.09881,0.06424
306.60902,0.08246
305.11924,0.02350
303.62945,0.01670
302.13966,0.00991
300.64987,0.00460
299.16008,0.00246
