1778.52000,0.01193
1777.03021,0.01742
1775.54042,0.01540
1774.05063,0.01694
1772.56085,0.01615
1771.07106,0.00408
1769.58127,0.01205
1768.09148,0.00827
1766.60169,0.01604
1765.11190,0.02196
1763.62212,0.01308
1762.13233,0.01316
1760.64254,0.01656
1759.15275,0.01223
1757.66296,0.01356
1756.17317,0.00903
1754.68339,0.00806
1753.19360,0.01276
1751.70381,0.02360
1750.21402,0.01776
1748.72423,0.02465
1747.23444,0.02356
1745.74465,0.01520
1744.25487,0.00969
1742.76508,0.01832
1741.27529,0.01616
1739.78550,0.00837
1738.29571,0.01295
1736.80592,0.02108
1735.31614,0.02571
1733.82635,0.02378
1732.33656,0.02163
1730.84677,0.01740
1729.35698,0.01553
1727.86719,0.01393
1726.37740,0.00835
1724.88762,0.01598
1723.39783,0.01186
1721.90804,0.00000
1720.41825,0.01823
1718.92846,0.01154
1717.43867,0.01264
1715.94889,0.01329
1714.45910,0.01068
1712.96931,0.00408
1711.47952,0.01855
1709.98973,0.00716
1708.49994,0.00991
1707.01016,0.00622
1705.52037,0.00255
1704.03058,0.00490
1702.54079,0.01010
1701.05100,0.00803
1699.56121,0.01116
1698.07142,0.00773
1696.58164,0.00408
1695.09185,0.00991
1693.60206,0.01224
1692.11227,0.00941
1690.62248,0.00967
1689.13269,0.02053
1687.64291,0.01354
1686.15312,0.01763
1684.66333,0.00881
1683.17354,0.02307
1681.68375,0.02911
1680.19396,0.02789
1678.70417,0.03516
1677.21439,0.03798
1675.72460,0.03613
1674.23481,0.04159
1672.74502,0.05178
1671.25523,0.04552
1669.76544,0.05600
1668.27566,0.04909
1666.78587,0.06008
1665.29608,0.07368
1663.80629,0.08049
1662.31650,0.07814
1660.82671,0.08265
1659.33693,0.09494
1657.84714,0.08937
1656.35735,0.08288
1654.86756,0.07925
1653.37777,0.08858
1651.88798,0.08781
1650.39819,0.07695
1648.90841,0.09129
1647.41862,0.09789
1645.92883,0.09511
1644.43904,0.09235
1642.94925,0.08843
1641.45946,0.09348
1639.96968,0.08562
1638.47989,0.09660
1636.99010,0.09443
1635.50031,0.08146
1634.01052,0.10145
1632.52073,0.09700
1631.03094,0.09116
1629.54116,0.10299
1628.05137,0.09532
1626.56158,0.08296
1625.07179,0.10004
1623.58200,0.10279
1622.09221,0.09216
1620.60243,0.09684
1619.11264,0.09802
1617.62285,0.10651
1616.13306,0.10868
1614.64327,0.10852
1613.15348,0.09568
1611.66370,0.10050
1610.17391,0.10724
1608.68412,0.11446
1607.19433,0.10877
1605.70454,0.10287
1604.21475,0.09618
1602.72496,0.08950
1601.23518,0.08720
1599.74539,0.10069
1598.25560,0.09444
1596.76581,0.10069
1595.27602,0.09378
1593.78623,0.09396
1592.29645,0.08757
1590.80666,0.08215
1589.31687,0.07322
1587.82708,0.08666
1586.33729,0.08037
1584.84750,0.09457
1583.35771,0.09586
1581.86793,0.10399
1580.37814,0.09309
1578.88835,0.08174
1577.39856,0.07842
1575.90877,0.05489
1574.41898,0.06314
1572.92920,0.04507
1571.43941,0.04348
1569.94962,0.04263
1568.45983,0.04181
1566.97004,0.05183
1565.48025,0.05081
1563.99047,0.04841
1562.50068,0.03733
1561.01089,0.03333
1559.52110,0.03877
1558.03131,0.03529
1556.54152,0.03465
1555.05173,0.03475
1553.56195,0.00617
1552.07216,0.00537
1550.58237,0.00601
1549.09258,0.00408
1547.60279,0.00538
1546.11300,0.01400
1544.62322,0.00806
1543.13343,0.01813
1541.64364,0.00965
1540.15385,0.01095
1538.66406,0.01228
1537.17427,0.00857
1535.68448,0.01768
1534.19470,0.02798
1532.70491,0.02279
1531.21512,0.01032
1529.72533,0.01082
1528.23554,0.01652
1526.74575,0.01260
1525.25597,0.01411
1523.76618,0.02906
1522.27639,0.01439
1520.78660,0.04397
1519.29681,0.03900
1517.80702,0.04533
1516.31724,0.05240
1514.82745,0.04162
1513.33766,0.04403
1511.84787,0.04646
1510.35808,0.04681
1508.86829,0.04811
1507.37850,0.04803
1505.88872,0.03621
1504.39893,0.05618
1502.90914,0.05947
1501.41935,0.06772
1499.92956,0.06376
1498.43977,0.05583
1496.94999,0.07591
1495.46020,0.08473
1493.97041,0.10299
1492.48062,0.10338
1490.99083,0.10286
1489.50104,0.11178
1488.01125,0.11554
1486.52147,0.11933
1485.03168,0.16055
1483.54189,0.19991
1482.05210,0.19365
1480.56231,0.21424
1479.07252,0.21485
1477.58274,0.23125
1476.09295,0.22815
1474.60316,0.24554
1473.11337,0.25119
1471.62358,0.25828
1470.13379,0.25692
1468.64401,0.28900
1467.15422,0.32462
1465.66443,0.31675
1464.17464,0.30890
1462.68485,0.38248
1461.19506,0.42103
1459.70527,0.44783
1458.21549,0.49372
1456.72570,0.52575
1455.23591,0.59569
1453.74612,0.66000
1452.25633,0.69493
1450.76654,0.71835
1449.27676,0.68863
1447.78697,0.70128
1446.29718,0.70807
1444.80739,0.68441
1443.31760,0.66078
1441.82781,0.61777
1440.33802,0.56019
1438.84824,0.50969
1437.35845,0.51922
1435.86866,0.49653
1434.37887,0.49552
1432.88908,0.55099
1431.39929,0.63919
1429.90951,0.71989
1428.41972,0.75732
1426.92993,0.77501
1425.44014,0.82496
1423.95035,0.85482
1422.46056,0.88470
1420.97078,0.91778
1419.48099,0.93324
1417.99120,0.93226
1416.50141,0.89953
1415.01162,0.87177
1413.52183,0.85368
1412.03204,0.80692
1410.54226,0.77758
1409.05247,0.70051
1407.56268,0.66817
1406.07289,0.59373
1404.58310,0.56838
1403.09331,0.54305
1401.60353,0.50327
1400.11374,0.43317
1398.62395,0.37885
1397.13416,0.32668
1395.64437,0.25830
1394.15458,0.22005
1392.66479,0.18254
1391.17501,0.16269
1389.68522,0.14429
1388.19543,0.11273
1386.70564,0.10378
1385.21585,0.09485
1383.72606,0.07325
1382.23628,0.04437
1380.74649,0.02799
1379.25670,0.03186
1377.76691,0.01788
1376.27712,0.01663
1374.78733,0.01611
1373.29755,0.00408
1371.80776,0.00893
1370.31797,0.02980
1368.82818,0.03093
1367.33839,0.03208
1365.84860,0.02737
1364.35881,0.03728
1362.86903,0.04533
1361.37924,0.06752
1359.88945,0.06667
1358.39966,0.08938
1356.90987,0.11235
1355.42008,0.15722
1353.93030,0.21999
1352.44051,0.25574
1350.95072,0.29151
1349.46093,0.38376
1347.97114,0.45181
1346.48135,0.50106
1344.99156,0.58845
1343.50178,0.63234
1342.01199,0.67155
1340.52220,0.75689
1339.03241,0.79474
1337.54262,0.82131
1336.05283,0.84109
1334.56305,0.86089
1333.07326,0.94306
1331.58347,0.95679
1330.09368,0.94302
1328.60389,0.93633
1327.11410,0.90331
1325.62432,0.88349
1324.13453,0.88322
1322.64474,0.85993
1321.15495,0.80065
1319.66516,0.76740
1318.17537,0.73418
1316.68558,0.66604
1315.19580,0.60522
1313.70601,0.55242
1312.21622,0.51541
1310.72643,0.49160
1309.23664,0.44169
1307.74685,0.41769
1306.25707,0.39513
1304.76728,0.36859
1303.27749,0.34208
1301.78770,0.28830
1300.29791,0.24677
1298.80812,0.22880
1297.31834,0.20027
1295.82855,0.18140
1294.33876,0.14138
1292.84897,0.12939
1291.35918,0.10495
1289.86939,0.09701
1288.37960,0.08908
1286.88982,0.08660
1285.40003,0.09096
1283.91024,0.07417
1282.42045,0.06964
1280.93066,0.06066
1279.44087,0.05571
1277.95109,0.02772
1276.46130,0.03717
1274.97151,0.03440
1273.48172,0.03166
1271.99193,0.02848
1270.50214,0.03073
1269.01235,0.02547
1267.52257,0.03130
1266.03278,0.02750
1264.54299,0.02820
1263.05320,0.01457
1261.56341,0.01614
1260.07362,0.01774
1258.58384,0.01171
1257.09405,0.00312
1255.60426,0.01730
1254.11447,0.00586
1252.62468,0.00408
1251.13489,0.00723
1249.64511,0.01676
1248.15532,0.01054
1246.66553,0.01117
1245.17574,0.01183
1243.68595,0.00639
1242.19616,0.02662
1240.70637,0.01841
1239.21659,0.01187
1237.72680,0.01641
1236.23701,0.00356
1234.74722,0.01591
1233.25743,0.01700
1231.76764,0.01811
1230.27786,0.01359
1228.78807,0.01428
1227.29828,0.01616
1225.80849,0.00890
1224.31870,0.00801
1222.82891,0.00408
1221.33912,0.01226
1219.84934,0.02800
1218.35955,0.04375
1216.86976,0.04071
1215.37997,0.06028
1213.89018,0.06270
1212.40039,0.06962
1210.91061,0.07702
1209.42082,0.07293
1207.93103,0.07274
1206.44124,0.07257
1204.95145,0.06949
1203.46166,0.04972
1201.97188,0.06974
1200.48209,0.06085
1198.99230,0.05504
1197.50251,0.04831
1196.01272,0.05337
1194.52293,0.05364
1193.03314,0.05392
1191.54336,0.02118
1190.05357,0.02821
1188.56378,0.02116
1187.07399,0.01507
1185.58420,0.01842
1184.09441,0.01497
1182.60463,0.01648
1181.11484,0.01802
1179.62505,0.03488
1178.13526,0.03717
1176.64547,0.01713
1175.15568,0.02054
1173.66589,0.02395
1172.17611,0.02736
1170.68632,0.03077
1169.19653,0.03417
1167.70674,0.03758
1166.21695,0.04099
1164.72716,0.04440
1163.23738,0.04781
1161.74759,0.05122
1160.25780,0.05463
1158.76801,0.06323
1157.27822,0.07185
1155.78843,0.06885
1154.29865,0.09740
1152.80886,0.12316
1151.31907,0.13411
1149.82928,0.13474
1148.33949,0.13962
1146.84970,0.14477
1145.35991,0.14994
1143.87013,0.16525
1142.38034,0.15988
1140.89055,0.16512
1139.40076,0.18662
1137.91097,0.20179
1136.42118,0.21816
1134.93140,0.21785
1133.44161,0.21757
1131.95182,0.23143
1130.46203,0.22625
1128.97224,0.22839
1127.48245,0.23761
1125.99266,0.23862
1124.50288,0.23237
1123.01309,0.24013
1121.52330,0.24792
1120.03351,0.23492
1118.54372,0.25534
1117.05393,0.26003
1115.56415,0.24239
1114.07436,0.26783
1112.58457,0.25835
1111.09478,0.24890
1109.60499,0.24641
1108.11520,0.24583
1106.62542,0.27633
1105.13563,0.25862
1103.64584,0.23082
1102.15605,0.23387
1100.66626,0.22412
1099.17647,0.21439
1097.68668,0.21915
1096.19690,0.22512
1094.70711,0.21840
1093.21732,0.20394
1091.72753,0.18128
1090.23774,0.17910
1088.74795,0.17696
1087.25817,0.20353
1085.76838,0.20002
1084.27859,0.18948
1082.78880,0.18625
1081.29901,0.20727
1079.80922,0.20951
1078.31943,0.20600
1076.82965,0.20251
1075.33986,0.23210
1073.85007,0.24761
1072.36028,0.23443
1070.87049,0.26833
1069.38070,0.27803
1067.89092,0.29057
1066.40113,0.30313
1064.91134,0.36489
1063.42155,0.45585
1061.93176,0.55366
1060.44197,0.64890
1058.95219,0.75687
1057.46240,0.80605
1055.97261,0.85525
1054.48282,1.01247
1052.99303,1.07654
1051.50324,1.06205
1050.01345,1.06712
1048.52367,1.06444
1047.03388,1.05768
1045.54409,1.05093
1044.05430,0.99822
1042.56451,0.93023
1041.07472,0.85404
1039.58494,0.78634
1038.09515,0.67937
1036.60536,0.63901
1035.11557,0.59867
1033.62578,0.50683
1032.13599,0.43878
1030.64620,0.37052
1029.15642,0.32134
1027.66663,0.29359
1026.17684,0.26587
1024.68705,0.22617
1023.19726,0.19002
1021.70747,0.17649
1020.21769,0.15781
1018.72790,0.14079
1017.23811,0.13615
1015.74832,0.13154
1014.25853,0.11812
1012.76874,0.09932
1011.27896,0.10996
1009.78917,0.08674
1008.29938,0.06377
1006.80959,0.05624
1005.31980,0.04874
1003.83001,0.01526
1002.34022,0.01051
1000.85044,0.01778
999.36065,0.02273
997.87086,0.03876
996.38107,0.05481
994.89128,0.05771
993.40149,0.09404
991.91171,0.08875
990.42192,0.12890
988.93213,0.12248
987.44234,0.12221
985.95255,0.12196
984.46276,0.12526
982.97297,0.11965
981.48319,0.09359
979.99340,0.07438
978.50361,0.07131
977.01382,0.06826
975.52403,0.03195
974.03424,0.01777
972.54446,0.01092
971.05467,0.00408
969.56488,0.00955
968.07509,0.01493
966.58530,0.02033
965.09551,0.00422
963.60573,0.00431
962.11594,0.00476
960.62615,0.00712
959.13636,0.00538
957.64657,0.00367
956.15678,0.01276
954.66699,0.01623
953.17721,0.01290
951.68742,0.02160
950.19763,0.02831
948.70784,0.03506
947.21805,0.06288
945.72826,0.07261
944.23848,0.07954
942.74869,0.10508
941.25890,0.13324
939.76911,0.13260
938.27932,0.13198
936.78953,0.16562
935.29974,0.17340
933.80996,0.17838
932.32017,0.20080
930.83038,0.20877
929.34059,0.21677
927.85080,0.25267
926.36101,0.26389
924.87123,0.27255
923.38144,0.33158
921.89165,0.35840
920.40186,0.38525
918.91207,0.48223
917.42228,0.59523
915.93250,0.75296
914.44271,0.97189
912.95292,1.06344
911.46313,1.15502
909.97334,1.41495
908.48355,1.61445
906.99376,1.79209
905.50398,1.93070
904.01419,1.96534
902.52440,2.00000
901.03461,1.99234
899.54482,1.98423
898.05503,1.88933
896.56525,1.67234
895.07546,1.52079
893.58567,1.36926
892.09588,1.14223
890.60609,0.87076
889.11630,0.67318
887.62651,0.50104
886.13673,0.42716
884.64694,0.35330
883.15715,0.25134
881.66736,0.19906
880.17757,0.15197
878.68778,0.12761
877.19800,0.10328
875.70821,0.06521
874.21842,0.02457
872.72863,0.04489
871.23884,0.02877
869.74905,0.01915
868.25927,0.00955
866.76948,0.00408
865.27969,0.03185
863.78990,0.03963
862.30011,0.04862
860.81032,0.04928
859.32053,0.04997
857.83075,0.07197
856.34096,0.08740
854.85117,0.09722
853.36138,0.10541
851.87159,0.11315
850.38180,0.12092
848.89202,0.15083
847.40223,0.17535
845.91244,0.17919
844.42265,0.19106
842.93286,0.20295
841.44307,0.23086
839.95329,0.23245
838.46350,0.23735
836.97371,0.24345
835.48392,0.24923
833.99413,0.25503
832.50434,0.26850
831.01455,0.24364
829.52477,0.21693
828.03498,0.19165
826.54519,0.17816
825.05540,0.16469
823.56561,0.16842
822.07582,0.16748
820.58604,0.14679
819.09625,0.13330
817.60646,0.11984
816.11667,0.12698
814.62688,0.12075
813.13709,0.12747
811.64730,0.14269
810.15752,0.13546
808.66773,0.12826
807.17794,0.11626
805.68815,0.13299
804.19836,0.11798
802.70857,0.12911
801.21879,0.14026
799.72900,0.14532
798.23921,0.13676
796.74942,0.12257
795.25963,0.12076
793.76984,0.11898
792.28006,0.12416
790.79027,0.15501
789.30048,0.17553
787.81069,0.18808
786.32090,0.20206
784.83111,0.21606
783.34132,0.26680
781.85154,0.29520
780.36175,0.32622
778.87196,0.34444
777.38217,0.36269
775.89238,0.38107
774.40259,0.40513
772.91281,0.39298
771.42302,0.36814
769.93323,0.34334
768.44344,0.31573
766.95365,0.24979
765.46386,0.19235
763.97407,0.17894
762.48429,0.16248
760.99450,0.14605
759.50471,0.13482
758.01492,0.12832
756.52513,0.11620
755.03534,0.10705
753.54556,0.09791
752.05577,0.07363
750.56598,0.07243
749.07619,0.07101
747.58640,0.05939
746.09661,0.04779
744.60683,0.04056
743.11704,0.04325
741.62725,0.03019
740.13746,0.03351
738.64767,0.03685
737.15788,0.01634
735.66809,0.02079
734.17831,0.00408
732.68852,0.01108
731.19873,0.01811
729.70894,0.01845
728.21915,0.01552
726.72936,0.01144
725.23958,0.00408
723.74979,0.00996
722.26000,0.01585
720.77021,0.02071
719.28042,0.02442
717.79063,0.00957
716.30084,0.01215
714.81106,0.01475
713.32127,0.01997
711.83148,0.01980
710.34169,0.01848
708.85190,0.02471
707.36211,0.03096
705.87233,0.02924
704.38254,0.02919
702.89275,0.04681
701.40296,0.04916
699.91317,0.05154
698.42338,0.06570
696.93360,0.07307
695.44381,0.08092
693.95402,0.10340
692.46423,0.12589
690.97444,0.14653
689.48465,0.16507
687.99486,0.18293
686.50508,0.20034
685.01529,0.21778
683.52550,0.21737
682.03571,0.22850
680.54592,0.26460
679.05613,0.26555
677.56635,0.26652
676.07656,0.26434
674.58677,0.26101
673.09698,0.25135
671.60719,0.22442
670.11740,0.19751
668.62761,0.16816
667.13783,0.13413
665.64804,0.12706
664.15825,0.12002
662.66846,0.09711
661.17867,0.08012
659.68888,0.06832
658.19910,0.06702
656.70931,0.06574
655.21952,0.05708
653.72973,0.04961
652.23994,0.05111
650.75015,0.05181
649.26037,0.05254
647.77058,0.06328
646.28079,0.06488
644.79100,0.05968
643.30121,0.05227
641.81142,0.04488
640.32163,0.02728
638.83185,0.00570
637.34206,0.01345
635.85227,0.00876
634.36248,0.00408
632.87269,0.01837
631.38290,0.02068
629.89312,0.02654
628.40333,0.02866
626.91354,0.03081
625.42375,0.02757
623.93396,0.03000
622.44417,0.02575
620.95438,0.02152
619.46460,0.02002
617.97481,0.04937
616.48502,0.09121
614.99523,0.08685
613.50544,0.08251
612.01565,0.11713
610.52587,0.16565
609.03608,0.18738
607.54629,0.21572
606.05650,0.24408
604.56671,0.29459
603.07692,0.34606
601.58714,0.37085
600.09735,0.39566
598.60756,0.45450
597.11777,0.46513
595.62798,0.45602
594.13819,0.44622
592.64840,0.43646
591.15862,0.43495
589.66883,0.38452
588.17904,0.30848
586.68925,0.26457
585.19946,0.22069
583.70967,0.18660
582.21989,0.13112
580.73010,0.11037
579.24031,0.08964
577.75052,0.09070
576.26073,0.09626
574.77094,0.10701
573.28115,0.08368
571.79137,0.06036
570.30158,0.05260
568.81179,0.10086
567.32200,0.10515
565.83221,0.10946
564.34242,0.11592
562.85264,0.14474
561.36285,0.17007
559.87306,0.16859
558.38327,0.16714
556.89348,0.20313
555.40369,0.21725
553.91391,0.22246
552.42412,0.22770
550.93433,0.20166
549.44454,0.22059
547.95475,0.23037
546.46496,0.23276
544.97517,0.23517
543.48539,0.26808
541.99560,0.27113
540.50581,0.30397
539.01602,0.33683
537.52623,0.40418
536.03644,0.44262
534.54666,0.49943
533.05687,0.51581
531.56708,0.53220
530.07729,0.57897
528.58750,0.61047
527.09771,0.63188
525.60792,0.65331
524.11814,0.72676
522.62835,0.78918
521.13856,0.82386
519.64877,0.84609
518.15898,0.86835
516.66919,0.92522
515.17941,0.95529
513.68962,0.94657
512.19983,0.93786
510.71004,0.90778
509.22025,0.87160
507.73046,0.75733
506.24068,0.70602
504.75089,0.65473
503.26110,0.52830
501.77131,0.43437
500.28152,0.37410
498.79173,0.31385
497.30194,0.23128
495.81216,0.19931
494.32237,0.18043
492.83258,0.16157
491.34279,0.14568
489.85300,0.11193
488.36321,0.07538
486.87343,0.06980
485.38364,0.06423
483.89385,0.07528
482.40406,0.10259
480.91427,0.12510
479.42448,0.14763
477.93469,0.15313
476.44491,0.18383
474.95512,0.19985
473.46533,0.21589
471.97554,0.22007
470.48575,0.22122
468.99596,0.20357
467.50618,0.20124
466.01639,0.19893
464.52660,0.15524
463.03681,0.11581
461.54702,0.10769
460.05723,0.09960
458.56745,0.08070
457.07766,0.04584
455.58787,0.03970
454.09808,0.03359
452.60829,0.02985
451.11850,0.04590
449.62871,0.03633
448.13893,0.02678
446.64914,0.04643
445.15935,0.02329
443.66956,0.03005
442.17977,0.02707
440.68998,0.02411
439.20020,0.04765
437.71041,0.01474
436.22062,0.01738
434.73083,0.02005
433.24104,0.06180
431.75125,0.04570
430.26146,0.05785
428.77168,0.07003
427.28189,0.08858
425.79210,0.07398
424.30231,0.05823
422.81252,0.04251
421.32273,0.02257
419.83295,0.01607
418.34316,0.01007
416.85337,0.00408
415.36358,0.00805
413.87379,0.02780
412.38400,0.03229
410.89422,0.03679
409.40443,0.06321
407.91464,0.03835
406.42485,0.04999
404.93506,0.04189
403.44527,0.03382
401.95548,0.03800
400.46570,0.03632
398.97591,0.03844
397.48612,0.04057
395.99633,0.05238
394.50654,0.02751
393.01675,0.02560
391.52697,0.02372
390.03718,0.00692
388.54739,0.01222
387.05760,0.00814
385.56781,0.00408
384.07802,0.02583
382.58824,0.01537
381.09845,0.01694
379.60866,0.01852
378.11887,0.01025
376.62908,0.01212
375.13929,0.01355
373.64950,0.01499
372.15972,0.02400
370.66993,0.03349
369.18014,0.02078
367.69035,0.00809
366.20056,0.03565
364.71077,0.03452
363.22099,0.04295
361.73120,0.05141
360.24141,0.04895
358.75162,0.06063
357.26183,0.05786
355.77204,0.05512
354.28225,0.05087
352.79247,0.03254
351.30268,0.03881
349.81289,0.04510
348.32310,0.07224
346.83331,0.07823
345.34352,0.06648
343.85374,0.05476
342.36395,0.05635
340.87416,0.03538
339.38437,0.02938
337.89458,0.02340
336.40479,0.04767
334.91501,0.01433
333.42522,0.00971
331.93543,0.00512
330.44564,0.00408
328.95585,0.01053
327.46606,0.02252
325.97627,0.03454
324.48649,0.03188
322.99670,0.05701
321.50691,0.06357
320.01712,0.07015
318.52733,0.08759
317.03754,0.07705
315.54776,0.07383
314.05797,0.07063
312.56818,0.06510
311.07839,0.06524
309.58860,0.06494
308.09881,0.06466
306.60902,0.06935
305.11924,0.05594
303.62945,0.03738
302.13966,0.01885
300.64987,0.00408
299.16008,0.00408
