1778.52000,0.01474
1777.03021,0.01871
1775.54042,0.02483
1774.05063,0.03308
1772.56085,0.02836
1771.07106,0.01428
1769.58127,0.00265
1768.09148,0.02492
1766.60169,0.01546
1765.11190,0.01237
1763.62212,0.01566
1762.13233,0.01958
1760.64254,0.01233
1759.15275,0.02296
1757.66296,0.01213
1756.17317,0.00345
1754.68339,0.01113
1753.19360,0.00642
1751.70381,0.01808
1750.21402,0.01676
1748.72423,0.01153
1747.23444,0.00996
1745.74465,0.01718
1744.25487,0.00265
1742.76508,0.01244
1741.27529,0.02196
1739.78550,0.01395
1738.29571,0.01142
1736.80592,0.01133
1735.31614,0.01066
1733.82635,0.02933
1732.33656,0.01989
1730.84677,0.01925
1729.35698,0.01772
1727.86719,0.01199
1726.37740,0.00719
1724.88762,0.00968
1723.39783,0.00039
1721.90804,0.01342
1720.41825,0.00772
1718.92846,0.01595
1717.43867,0.01030
1715.94889,0.01072
1714.45910,0.00754
1712.96931,0.00590
1711.47952,0.00000
1709.98973,0.01591
1708.49994,0.01702
1707.01016,0.01407
1705.52037,0.01114
1704.03058,0.00265
1702.54079,0.00265
1701.05100,0.01722
1699.56121,0.01003
1698.07142,0.01406
1696.58164,0.01509
1695.09185,0.02643
1693.60206,0.02600
1692.11227,0.02499
1690.62248,0.02854
1689.13269,0.03212
1687.64291,0.02574
1686.15312,0.03088
1684.66333,0.02879
1683.17354,0.04789
1681.68375,0.04161
1680.19396,0.04565
1678.70417,0.04910
1677.21439,0.05197
1675.72460,0.06545
1674.23481,0.06202
1672.74502,0.07193
1671.25523,0.07520
1669.76544,0.07759
1668.27566,0.07759
1666.78587,0.06824
1665.29608,0.09642
1663.80629,0.09407
1662.31650,0.09961
1660.82671,0.10125
1659.33693,0.10503
1657.84714,0.10460
1656.35735,0.10540
1654.86756,0.09534
1653.37777,0.08924
1651.88798,0.08740
1650.39819,0.09889
1648.90841,0.08227
1647.41862,0.09109
1645.92883,0.09586
1644.43904,0.10064
1642.94925,0.11589
1641.45946,0.10213
1639.96968,0.10593
1638.47989,0.09917
1636.99010,0.09032
1635.50031,0.10297
1634.01052,0.08268
1632.52073,0.09084
1631.03094,0.08905
1629.54116,0.10513
1628.05137,0.09915
1626.56158,0.10258
1625.07179,0.11722
1623.58200,0.12282
1622.09221,0.08851
1620.60243,0.11291
1619.11264,0.10889
1617.62285,0.10521
1616.13306,0.09006
1614.64327,0.09036
1613.15348,0.10097
1611.66370,0.10041
1610.17391,0.10412
1608.68412,0.11026
1607.19433,0.10978
1605.70454,0.09420
1604.21475,0.09180
1602.72496,0.08943
1601.23518,0.08875
1599.74539,0.08143
1598.25560,0.09320
1596.76581,0.09139
1595.27602,0.09504
1593.78623,0.10628
1592.29645,0.08276
1590.80666,0.08437
1589.31687,0.07723
1587.82708,0.08192
1586.33729,0.08844
1584.84750,0.06444
1583.35771,0.07677
1581.86793,0.08186
1580.37814,0.09363
1578.88835,0.09211
1577.39856,0.07822
1575.90877,0.09279
1574.41898,0.08560
1572.92920,0.08146
1571.43941,0.07554
1569.94962,0.06752
1568.45983,0.05952
1566.97004,0.04339
1565.48025,0.04270
1563.99047,0.05354
1562.50068,0.06622
1561.01089,0.05381
1559.52110,0.05504
1558.03131,0.04935
1556.54152,0.04609
1555.05173,0.05829
1553.56195,0.04601
1552.07216,0.04797
1550.58237,0.01427
1549.09258,0.01598
1547.60279,0.01681
1546.11300,0.00012
1544.62322,0.01461
1543.13343,0.02852
1541.64364,0.02763
1540.15385,0.01513
1538.66406,0.00265
1537.17427,0.02260
1535.68448,0.02805
1534.19470,0.02960
1532.70491,0.04267
1531.21512,0.03761
1529.72533,0.02532
1528.23554,0.02636
1526.74575,0.04195
1525.25597,0.04335
1523.76618,0.01573
1522.27639,0.02837
1520.78660,0.04648
1519.29681,0.03769
1517.80702,0.07793
1516.31724,0.06042
1514.82745,0.06744
1513.33766,0.07161
1511.84787,0.07580
1510.35808,0.06081
1508.86829,0.06430
1507.37850,0.05088
1505.88872,0.04957
1504.39893,0.07462
1502.90914,0.06006
1501.41935,0.06125
1499.92956,0.07578
1498.43977,0.08156
1496.94999,0.09130
1495.46020,0.08897
1493.97041,0.10935
1492.48062,0.12279
1490.99083,0.10631
1489.50104,0.12011
1488.01125,0.12728
1486.52147,0.13448
1485.03168,0.18193
1483.54189,0.18463
1482.05210,0.20461
1480.56231,0.21463
1479.07252,0.22346
1477.58274,0.23595
1476.09295,0.24483
1474.60316,0.24769
1473.11337,0.26176
1471.62358,0.25983
1470.13379,0.28908
1468.64401,0.27177
1467.15422,0.31348
1465.66443,0.31936
1464.17464,0.32527
1462.68485,0.36977
1461.19506,0.39645
1459.70527,0.45159
1458.21549,0.49284
1456.72570,0.52323
1455.23591,0.61172
1453.74612,0.64488
1452.25633,0.67019
1450.76654,0.73970
1449.27676,0.74571
1447.78697,0.73511
1446.29718,0.71667
1444.80739,0.70279
1443.31760,0.68893
1441.82781,0.59766
1440.33802,0.53183
1438.84824,0.51079
1437.35845,0.47223
1435.86866,0.47998
1434.37887,0.49562
1432.88908,0.55060
1431.39929,0.63012
1429.90951,0.70301
1428.41972,0.74718
1426.92993,0.76174
1425.44014,0.81141
1423.95035,0.83614
1422.46056,0.86091
1420.97078,0.91459
1419.48099,0.94772
1417.99120,0.97997
1416.50141,0.94297
1415.01162,0.87303
1413.52183,0.87117
1412.03204,0.80733
1410.54226,0.76317
1409.05247,0.72116
1407.56268,0.65709
1406.07289,0.60999
1404.58310,0.58454
1403.09331,0.55911
1401.60353,0.48939
1400.11374,0.42938
1398.62395,0.38997
1397.13416,0.32577
1395.64437,0.26553
1394.15458,0.21560
1392.66479,0.17417
1391.17501,0.17148
1389.68522,0.14765
1388.19543,0.10962
1386.70564,0.09808
1385.21585,0.08657
1383.72606,0.05648
1382.23628,0.04668
1380.74649,0.03721
1379.25670,0.02898
1377.76691,0.01684
1376.27712,0.02590
1374.78733,0.01199
1373.29755,0.00265
1371.80776,0.01755
1370.31797,0.01796
1368.82818,0.02203
1367.33839,0.02612
1365.84860,0.05625
1364.35881,0.05918
1362.86903,0.07938
1361.37924,0.07903
1359.88945,0.09353
1358.39966,0.09415
1356.90987,0.11717
1355.42008,0.15564
1353.93030,0.23437
1352.44051,0.26231
1350.95072,0.29027
1349.46093,0.36757
1347.97114,0.43370
1346.48135,0.49441
1344.99156,0.58176
1343.50178,0.64615
1342.01199,0.70572
1340.52220,0.76199
1339.03241,0.82373
1337.54262,0.85011
1336.05283,0.88694
1334.56305,0.92380
1333.07326,0.98444
1331.58347,0.98217
1330.09368,1.00111
1328.60389,0.96230
1327.11410,0.89780
1325.62432,0.85540
1324.13453,0.85599
1322.64474,0.85388
1321.15495,0.78615
1319.66516,0.77063
1318.17537,0.75513
1316.68558,0.65330
1315.19580,0.61229
1313.70601,0.56405
1312.21622,0.50767
1310.72643,0.48519
1309.23664,0.44579
1307.74685,0.41459
1306.25707,0.36073
1304.76728,0.34531
1303.27749,0.32991
1301.78770,0.26070
1300.29791,0.22478
1298.80812,0.21702
1297.31834,0.17087
1295.82855,0.17436
1294.33876,0.14338
1292.84897,0.11092
1291.35918,0.10148
1289.86939,0.10098
1288.37960,0.10051
1286.88982,0.08720
1285.40003,0.07755
1283.91024,0.06974
1282.42045,0.08102
1280.93066,0.04452
1279.44087,0.04193
1277.95109,0.03665
1276.46130,0.04379
1274.97151,0.03250
1273.48172,0.02124
1271.99193,0.03602
1270.50214,0.02723
1269.01235,0.02784
1267.52257,0.02666
1266.03278,0.01946
1264.54299,0.04101
1263.05320,0.02327
1261.56341,0.01842
1260.07362,0.01358
1258.58384,0.00620
1257.09405,0.01791
1255.60426,0.01118
1254.11447,0.00811
1252.62468,0.00265
1251.13489,0.02261
1249.64511,0.03079
1248.15532,0.02509
1246.66553,0.02108
1245.17574,0.01709
1243.68595,0.02023
1242.19616,0.01070
1240.70637,0.02025
1239.21659,0.02589
1237.72680,0.01734
1236.23701,0.01304
1234.74722,0.00545
1233.25743,0.01497
1231.76764,0.02452
1230.27786,0.04181
1228.78807,0.01677
1227.29828,0.00265
1225.80849,0.01006
1224.31870,0.02445
1222.82891,0.01133
1221.33912,0.01035
1219.84934,0.01952
1218.35955,0.02872
1216.86976,0.02992
1215.37997,0.07109
1213.89018,0.06418
1212.40039,0.06788
1210.91061,0.04589
1209.42082,0.05418
1207.93103,0.05720
1206.44124,0.06025
1204.95145,0.06075
1203.46166,0.04222
1201.97188,0.03854
1200.48209,0.03821
1198.99230,0.02156
1197.50251,0.05063
1196.01272,0.03797
1194.52293,0.03517
1193.03314,0.03239
1191.54336,0.04128
1190.05357,0.01723
1188.56378,0.03132
1187.07399,0.03787
1185.58420,0.02357
1184.09441,0.00265
1182.60463,0.00504
1181.11484,0.00745
1179.62505,0.01277
1178.13526,0.03051
1176.64547,0.03376
1175.15568,0.03037
1173.66589,0.01099
1172.17611,0.01219
1170.68632,0.01841
1169.19653,0.02466
1167.70674,0.00265
1166.21695,0.02238
1164.72716,0.04607
1163.23738,0.05042
1161.74759,0.04966
1160.25780,0.06344
1158.76801,0.06711
1157.27822,0.07081
1155.78843,0.05925
1154.29865,0.05983
1152.80886,0.06889
1151.31907,0.10340
1149.82928,0.11614
1148.33949,0.12347
1146.84970,0.12795
1145.35991,0.13245
1143.87013,0.12806
1142.38034,0.12944
1140.89055,0.13841
1139.40076,0.14770
1137.91097,0.17668
1136.42118,0.17241
1134.93140,0.18163
1133.44161,0.19087
1131.95182,0.23266
1130.46203,0.24513
1128.97224,0.20923
1127.48245,0.18454
1125.99266,0.19799
1124.50288,0.18697
1123.01309,0.18989
1121.52330,0.19283
1120.03351,0.19912
1118.54372,0.19576
1117.05393,0.21663
1115.56415,0.21785
1114.07436,0.21850
1112.58457,0.22280
1111.09478,0.22713
1109.60499,0.21031
1108.11520,0.23949
1106.62542,0.23391
1105.13563,0.23078
1103.64584,0.21618
1102.15605,0.18647
1100.66626,0.17933
1099.17647,0.17221
1097.68668,0.17284
1096.19690,0.17893
1094.70711,0.17567
1093.21732,0.18665
1091.72753,0.14956
1090.23774,0.13791
1088.74795,0.12628
1087.25817,0.13887
1085.76838,0.15815
1084.27859,0.16021
1082.78880,0.14929
1081.29901,0.15019
1079.80922,0.14839
1078.31943,0.15206
1076.82965,0.15576
1075.33986,0.16402
1073.85007,0.17230
1072.36028,0.17396
1070.87049,0.18744
1069.38070,0.23452
1067.89092,0.24336
1066.40113,0.25222
1064.91134,0.30392
1063.42155,0.37167
1061.93176,0.47484
1060.44197,0.51632
1058.95219,0.60714
1057.46240,0.65019
1055.97261,0.69326
1054.48282,0.78082
1052.99303,0.87598
1051.50324,0.86135
1050.01345,0.85854
1048.52367,0.83640
1047.03388,0.83062
1045.54409,0.82486
1044.05430,0.81278
1042.56451,0.73115
1041.07472,0.70913
1039.58494,0.62543
1038.09515,0.56868
1036.60536,0.51906
1035.11557,0.46947
1033.62578,0.44002
1032.13599,0.36461
1030.64620,0.31555
1029.15642,0.27589
1027.66663,0.25289
1026.17684,0.22992
1024.68705,0.20848
1023.19726,0.17285
1021.70747,0.14028
1020.21769,0.12527
1018.72790,0.10484
1017.23811,0.10017
1015.74832,0.09552
1014.25853,0.09120
1012.76874,0.09992
1011.27896,0.11259
1009.78917,0.09746
1008.29938,0.06450
1006.80959,0.05819
1005.31980,0.05190
1003.83001,0.02659
1002.34022,0.01309
1000.85044,0.00265
999.36065,0.01045
997.87086,0.01450
996.38107,0.01857
994.89128,0.03160
993.40149,0.05372
991.91171,0.08101
990.42192,0.10742
988.93213,0.09422
987.44234,0.10934
985.95255,0.12448
984.46276,0.11741
982.97297,0.09403
981.48319,0.07673
979.99340,0.06157
978.50361,0.05748
977.01382,0.05341
975.52403,0.03016
974.03424,0.03869
972.54446,0.01186
971.05467,0.01137
969.56488,0.00939
968.07509,0.01485
966.58530,0.02034
965.09551,0.01814
963.60573,0.00265
962.11594,0.02900
960.62615,0.01756
959.13636,0.01779
957.64657,0.01805
956.15678,0.01093
954.66699,0.04981
953.17721,0.04515
951.68742,0.02086
950.19763,0.01504
948.70784,0.00925
947.21805,0.06913
945.72826,0.08002
944.23848,0.08127
942.74869,0.10704
941.25890,0.12103
939.76911,0.12356
938.27932,0.12611
936.78953,0.14382
935.29974,0.17818
933.80996,0.18656
932.32017,0.23005
930.83038,0.22910
929.34059,0.22818
927.85080,0.27235
926.36101,0.32078
924.87123,0.34413
923.38144,0.40411
921.89165,0.44898
920.40186,0.49389
918.91207,0.55031
917.42228,0.66696
915.93250,0.85018
914.44271,1.00559
912.95292,1.10628
911.46313,1.20699
909.97334,1.38336
908.48355,1.59090
906.99376,1.73767
905.50398,1.80763
904.01419,1.86627
902.52440,1.92494
901.03461,1.98651
899.54482,2.00000
898.05503,1.86802
896.56525,1.66195
895.07546,1.50702
893.58567,1.35213
892.09588,1.04600
890.60609,0.84215
889.11630,0.65315
887.62651,0.44693
886.13673,0.40756
884.64694,0.36822
883.15715,0.23860
881.66736,0.17708
880.17757,0.14038
878.68778,0.11551
877.19800,0.09066
875.70821,0.06039
874.21842,0.02228
872.72863,0.03925
871.23884,0.01783
869.74905,0.01232
868.25927,0.00683
866.76948,0.00485
865.27969,0.01559
863.78990,0.03423
862.30011,0.03050
860.81032,0.03830
859.32053,0.04612
857.83075,0.05246
856.34096,0.08574
854.85117,0.06943
853.36138,0.08704
851.87159,0.08621
850.38180,0.08541
848.89202,0.10218
847.40223,0.13501
845.91244,0.16514
844.42265,0.16853
842.93286,0.17194
841.44307,0.18429
839.95329,0.20243
838.46350,0.19820
836.97371,0.21063
835.48392,0.21235
833.99413,0.21410
832.50434,0.24113
831.01455,0.22795
829.52477,0.19423
828.03498,0.16295
826.54519,0.16029
825.05540,0.15765
823.56561,0.13461
822.07582,0.13611
820.58604,0.11887
819.09625,0.11800
817.60646,0.11715
816.11667,0.10876
814.62688,0.10796
813.13709,0.09055
811.64730,0.12277
810.15752,0.10828
808.66773,0.09382
807.17794,0.07227
805.68815,0.07374
804.19836,0.09278
802.70857,0.09596
801.21879,0.09917
799.72900,0.10588
798.23921,0.08328
796.74942,0.12059
795.25963,0.11286
793.76984,0.10515
792.28006,0.10806
790.79027,0.10887
789.30048,0.12937
787.81069,0.15292
786.32090,0.18073
784.83111,0.20857
783.34132,0.24339
781.85154,0.24435
780.36175,0.29011
778.87196,0.30429
777.38217,0.31849
775.89238,0.35010
774.40259,0.35029
772.91281,0.35745
771.42302,0.34105
769.93323,0.32467
768.44344,0.28502
766.95365,0.23451
765.46386,0.19764
763.97407,0.17047
762.48429,0.16662
760.99450,0.16279
759.50471,0.13721
758.01492,0.09049
756.52513,0.11729
755.03534,0.10509
753.54556,0.09292
752.05577,0.07080
750.56598,0.08197
749.07619,0.06595
747.58640,0.04979
746.09661,0.03367
744.60683,0.02528
743.11704,0.01873
741.62725,0.00797
740.13746,0.01751
738.64767,0.02707
737.15788,0.02486
735.66809,0.01117
734.17831,0.01174
732.68852,0.00718
731.19873,0.00265
729.70894,0.01982
728.21915,0.02855
726.72936,0.03398
725.23958,0.01705
723.74979,0.01754
722.26000,0.01805
720.77021,0.01420
719.28042,0.01734
717.79063,0.00265
716.30084,0.00960
714.81106,0.01657
713.32127,0.04142
711.83148,0.04542
710.34169,0.04522
708.85190,0.05486
707.36211,0.06454
705.87233,0.06410
704.38254,0.05099
702.89275,0.08841
701.40296,0.08125
699.91317,0.07411
698.42338,0.09739
696.93360,0.13280
695.44381,0.13708
693.95402,0.13866
692.46423,0.14027
690.97444,0.14462
689.48465,0.16715
687.99486,0.18245
686.50508,0.19096
685.01529,0.19950
683.52550,0.24391
682.03571,0.27261
680.54592,0.31072
679.05613,0.28699
677.56635,0.26329
676.07656,0.27183
674.58677,0.30217
673.09698,0.27476
671.60719,0.26886
670.11740,0.26298
668.62761,0.18604
667.13783,0.18595
665.64804,0.17334
664.15825,0.16076
662.66846,0.12596
661.17867,0.09875
659.68888,0.08609
658.19910,0.08722
656.70931,0.08837
655.21952,0.05794
653.72973,0.08954
652.23994,0.09455
650.75015,0.08310
649.26037,0.07168
647.77058,0.09430
646.28079,0.07703
644.79100,0.09124
643.30121,0.08052
641.81142,0.06982
640.32163,0.05326
638.83185,0.03580
637.34206,0.00265
635.85227,0.01518
634.36248,0.02773
632.87269,0.04954
631.38290,0.05110
629.89312,0.05178
628.40333,0.05400
626.91354,0.05624
625.42375,0.03220
623.93396,0.04568
622.44417,0.03772
620.95438,0.02978
619.46460,0.03699
617.97481,0.07780
616.48502,0.10472
614.99523,0.11292
613.50544,0.12114
612.01565,0.15237
610.52587,0.17032
609.03608,0.20100
607.54629,0.22429
606.05650,0.24761
604.56671,0.27443
603.07692,0.36662
601.58714,0.38366
600.09735,0.40072
598.60756,0.42008
597.11777,0.43554
595.62798,0.43347
594.13819,0.41373
592.64840,0.39402
591.15862,0.38265
589.66883,0.35739
588.17904,0.30131
586.68925,0.25674
585.19946,0.21220
583.70967,0.19097
582.21989,0.15344
580.73010,0.14103
579.24031,0.12866
577.75052,0.08999
576.26073,0.09006
574.77094,0.07655
573.28115,0.06594
571.79137,0.05535
570.30158,0.08729
568.81179,0.08538
567.32200,0.09362
565.83221,0.10189
564.34242,0.10307
562.85264,0.13574
561.36285,0.12397
559.87306,0.13295
558.38327,0.14195
556.89348,0.20103
555.40369,0.20056
553.91391,0.21008
552.42412,0.21964
550.93433,0.20078
549.44454,0.18347
547.95475,0.19340
546.46496,0.19534
544.97517,0.19731
543.48539,0.23847
541.99560,0.25365
540.50581,0.28685
539.01602,0.32007
537.52623,0.36194
536.03644,0.41957
534.54666,0.45877
533.05687,0.49013
531.56708,0.52151
530.07729,0.53114
528.58750,0.56832
527.09771,0.59071
525.60792,0.61312
524.11814,0.66641
522.62835,0.69915
521.13856,0.71892
519.64877,0.73190
518.15898,0.74491
516.66919,0.78562
515.17941,0.78612
513.68962,0.80647
512.19983,0.82683
510.71004,0.82167
509.22025,0.77932
507.73046,0.69948
506.24068,0.62315
504.75089,0.54685
503.26110,0.46769
501.77131,0.38282
500.28152,0.35559
498.79173,0.32839
497.30194,0.26537
495.81216,0.20359
494.32237,0.18100
492.83258,0.15844
491.34279,0.14210
489.85300,0.10159
488.36321,0.06655
486.87343,0.06693
485.38364,0.06734
483.89385,0.06776
482.40406,0.08183
480.91427,0.08866
479.42448,0.09552
477.93469,0.09423
476.44491,0.11596
474.95512,0.13469
473.46533,0.15345
471.97554,0.19522
470.48575,0.18407
468.99596,0.16630
467.50618,0.15476
466.01639,0.14324
464.52660,0.12947
463.03681,0.10817
461.54702,0.09037
460.05723,0.07260
458.56745,0.05138
457.07766,0.01112
455.58787,0.01732
454.09808,0.02355
452.60829,0.03388
451.11850,0.00643
449.62871,0.00789
448.13893,0.00938
446.64914,0.01861
445.15935,0.01969
443.66956,0.00265
442.17977,0.00418
440.68998,0.00574
439.20020,0.00521
437.71041,0.05340
436.22062,0.04672
434.73083,0.04006
433.24104,0.05445
431.75125,0.01865
430.26146,0.02764
428.77168,0.03666
427.28189,0.04026
425.79210,0.04661
424.30231,0.04860
422.81252,0.05061
421.32273,0.04191
419.83295,0.02930
418.34316,0.01596
416.85337,0.00265
415.36358,0.01259
413.87379,0.02862
412.38400,0.02334
410.89422,0.01808
409.40443,0.04295
407.91464,0.03488
406.42485,0.05133
404.93506,0.03664
403.44527,0.02199
401.95548,0.01371
400.46570,0.04629
398.97591,0.04305
397.48612,0.03984
395.99633,0.02834
394.50654,0.03349
393.01675,0.03565
391.52697,0.03783
390.03718,0.03671
388.54739,0.02836
387.05760,0.01549
385.56781,0.00265
384.07802,0.02024
382.58824,0.03665
381.09845,0.02948
379.60866,0.02234
378.11887,0.00283
376.62908,0.02236
375.13929,0.02074
373.64950,0.01915
372.15972,0.04723
370.66993,0.04599
369.18014,0.03812
367.69035,0.03028
366.20056,0.03668
364.71077,0.06034
363.22099,0.05167
361.73120,0.04302
360.24141,0.08491
358.75162,0.08417
357.26183,0.08830
355.77204,0.09246
354.28225,0.06397
352.79247,0.05063
351.30268,0.03747
349.81289,0.02433
348.32310,0.09849
346.83331,0.06559
345.34352,0.06992
343.85374,0.07427
342.36395,0.03933
340.87416,0.03557
339.38437,0.04545
337.89458,0.05535
336.40479,0.05348
334.91501,0.06313
333.42522,0.03288
331.93543,0.00265
330.44564,0.01990
328.95585,0.01903
327.46606,0.02001
325.97627,0.02100
324.48649,0.01900
322.99670,0.05302
321.50691,0.06770
320.01712,0.08241
318.52733,0.07718
317.03754,0.09890
315.54776,0.11535
314.05797,0.13182
312.56818,0.12125
311.07839,0.06018
309.58860,0.07204
308.09881,0.08393
306.60902,0.07769
305.11924,0.07510
303.62945,0.05243
302.13966,0.02978
300.64987,0.00338
299.16008,0.00265
