1778.52000,0.00791
1777.03021,0.01448
1775.54042,0.02320
1774.05063,0.01467
1772.56085,0.01279
1771.07106,0.01425
1769.58127,0.01100
1768.09148,0.00565
1766.60169,0.01120
1765.11190,0.01347
1763.62212,0.00440
1762.13233,0.00742
1760.64254,0.01118
1759.15275,0.01306
1757.66296,0.01521
1756.17317,0.00556
1754.68339,0.01059
1753.19360,0.01234
1751.70381,0.01174
1750.21402,0.00715
1748.72423,0.01441
1747.23444,0.01129
1745.74465,0.00440
1744.25487,0.01052
1742.76508,0.01572
1741.27529,0.02047
1739.78550,0.01484
1738.29571,0.01159
1736.80592,0.01831
1735.31614,0.01677
1733.82635,0.01715
1732.33656,0.00075
1730.84677,0.00709
1729.35698,0.01108
1727.86719,0.01037
1726.37740,0.00732
1724.88762,0.01092
1723.39783,0.00697
1721.90804,0.00967
1720.41825,0.02351
1718.92846,0.00331
1717.43867,0.00934
1715.94889,0.01162
1714.45910,0.00564
1712.96931,0.01893
1711.47952,0.00717
1709.98973,0.01010
1708.49994,0.00572
1707.01016,0.00574
1705.52037,0.00578
1704.03058,0.00408
1702.54079,0.00429
1701.05100,0.00712
1699.56121,0.02205
1698.07142,0.01405
1696.58164,0.01105
1695.09185,0.01871
1693.60206,0.00440
1692.11227,0.00850
1690.62248,0.01995
1689.13269,0.02031
1687.64291,0.01501
1686.15312,0.01613
1684.66333,0.01632
1683.17354,0.01583
1681.68375,0.02861
1680.19396,0.02770
1678.70417,0.02681
1677.21439,0.02972
1675.72460,0.03621
1674.23481,0.03847
1672.74502,0.04477
1671.25523,0.04376
1669.76544,0.05437
1668.27566,0.05767
1666.78587,0.06950
1665.29608,0.06433
1663.80629,0.06439
1662.31650,0.07464
1660.82671,0.06978
1659.33693,0.07535
1657.84714,0.07291
1656.35735,0.06812
1654.86756,0.07352
1653.37777,0.06310
1651.88798,0.06335
1650.39819,0.07356
1648.90841,0.07386
1647.41862,0.08317
1645.92883,0.08068
1644.43904,0.07821
1642.94925,0.07246
1641.45946,0.06223
1639.96968,0.07190
1638.47989,0.07024
1636.99010,0.07428
1635.50031,0.06107
1634.01052,0.06729
1632.52073,0.07211
1631.03094,0.06702
1629.54116,0.07118
1628.05137,0.07252
1626.56158,0.08714
1625.07179,0.09515
1623.58200,0.09184
1622.09221,0.08169
1620.60243,0.08008
1619.11264,0.08512
1617.62285,0.08048
1616.13306,0.07137
1614.64327,0.06796
1613.15348,0.06979
1611.66370,0.09671
1610.17391,0.08012
1608.68412,0.08438
1607.19433,0.07850
1605.70454,0.07949
1604.21475,0.07826
1602.72496,0.07706
1601.23518,0.05542
1599.74539,0.08537
1598.25560,0.08341
1596.76581,0.07793
1595.27602,0.07247
1593.78623,0.06372
1592.29645,0.07155
1590.80666,0.07752
1589.31687,0.06719
1587.82708,0.05901
1586.33729,0.06600
1584.84750,0.06757
1583.35771,0.07768
1581.86793,0.07125
1580.37814,0.06721
1578.88835,0.07597
1577.39856,0.06938
1575.90877,0.05738
1574.41898,0.05840
1572.92920,0.05922
1571.43941,0.04917
1569.94962,0.04164
1568.45983,0.03413
1566.97004,0.03788
1565.48025,0.04567
1563.99047,0.04379
1562.50068,0.04714
1561.01089,0.02000
1559.52110,0.02316
1558.03131,0.02682
1556.54152,0.01489
1555.05173,0.03160
1553.56195,0.03036
1552.07216,0.00928
1550.58237,0.00667
1549.09258,0.01520
1547.60279,0.00980
1546.11300,0.00797
1544.62322,0.01658
1543.13343,0.01953
1541.64364,0.00926
1540.15385,0.00682
1538.66406,0.00440
1537.17427,0.02264
1535.68448,0.02245
1534.19470,0.01069
1532.70491,0.00440
1531.21512,0.02215
1529.72533,0.02478
1528.23554,0.02034
1526.74575,0.01380
1525.25597,0.01864
1523.76618,0.01048
1522.27639,0.03524
1520.78660,0.03873
1519.29681,0.04200
1517.80702,0.03915
1516.31724,0.04082
1514.82745,0.03423
1513.33766,0.04517
1511.84787,0.05614
1510.35808,0.03566
1508.86829,0.03343
1507.37850,0.04092
1505.88872,0.05127
1504.39893,0.05621
1502.90914,0.05359
1501.41935,0.06875
1499.92956,0.07660
1498.43977,0.06128
1496.94999,0.06019
1495.46020,0.08017
1493.97041,0.08456
1492.48062,0.09679
1490.99083,0.09366
1489.50104,0.11161
1488.01125,0.12698
1486.52147,0.14238
1485.03168,0.15259
1483.54189,0.15716
1482.05210,0.15772
1480.56231,0.18338
1479.07252,0.16957
1477.58274,0.19031
1476.09295,0.20138
1474.60316,0.20467
1473.11337,0.20963
1471.62358,0.24065
1470.13379,0.25536
1468.64401,0.25401
1467.15422,0.28344
1465.66443,0.29941
1464.17464,0.31540
1462.68485,0.33213
1461.19506,0.35858
1459.70527,0.41013
1458.21549,0.45839
1456.72570,0.50668
1455.23591,0.55711
1453.74612,0.61680
1452.25633,0.65735
1450.76654,0.69178
1449.27676,0.68128
1447.78697,0.68476
1446.29718,0.64380
1444.80739,0.61859
1443.31760,0.59340
1441.82781,0.56504
1440.33802,0.51258
1438.84824,0.51857
1437.35845,0.46143
1435.86866,0.47125
1434.37887,0.49837
1432.88908,0.56360
1431.39929,0.63501
1429.90951,0.66267
1428.41972,0.73531
1426.92993,0.77863
1425.44014,0.78129
1423.95035,0.80468
1422.46056,0.82808
1420.97078,0.85471
1419.48099,0.89224
1417.99120,0.93547
1416.50141,0.87559
1415.01162,0.82472
1413.52183,0.78239
1412.03204,0.73866
1410.54226,0.72217
1409.05247,0.68961
1407.56268,0.66464
1406.07289,0.56329
1404.58310,0.53294
1403.09331,0.50260
1401.60353,0.45644
1400.11374,0.40416
1398.62395,0.34433
1397.13416,0.30533
1395.64437,0.25123
1394.15458,0.20330
1392.66479,0.18354
1391.17501,0.15387
1389.68522,0.12210
1388.19543,0.09910
1386.70564,0.09127
1385.21585,0.08346
1383.72606,0.05983
1382.23628,0.03858
1380.74649,0.04102
1379.25670,0.03094
1377.76691,0.01923
1376.27712,0.01441
1374.78733,0.00440
1373.29755,0.01937
1371.80776,0.01615
1370.31797,0.02265
1368.82818,0.01900
1367.33839,0.01538
1365.84860,0.03757
1364.35881,0.03588
1362.86903,0.06285
1361.37924,0.05104
1359.88945,0.07120
1358.39966,0.10699
1356.90987,0.13121
1355.42008,0.16516
1353.93030,0.22160
1352.44051,0.25075
1350.95072,0.27992
1349.46093,0.37405
1347.97114,0.44833
1346.48135,0.52855
1344.99156,0.61116
1343.50178,0.65902
1342.01199,0.70808
1340.52220,0.73257
1339.03241,0.77222
1337.54262,0.81285
1336.05283,0.83303
1334.56305,0.85324
1333.07326,0.91427
1331.58347,0.93110
1330.09368,0.93328
1328.60389,0.89409
1327.11410,0.88260
1325.62432,0.83305
1324.13453,0.84858
1322.64474,0.82273
1321.15495,0.72972
1319.66516,0.69765
1318.17537,0.66561
1316.68558,0.62069
1315.19580,0.59071
1313.70601,0.55507
1312.21622,0.50100
1310.72643,0.46730
1309.23664,0.45894
1307.74685,0.41062
1306.25707,0.35712
1304.76728,0.34292
1303.27749,0.32874
1301.78770,0.27650
1300.29791,0.23847
1298.80812,0.23146
1297.31834,0.18828
1295.82855,0.14228
1294.33876,0.12588
1292.84897,0.09933
1291.35918,0.09362
1289.86939,0.10142
1288.37960,0.10925
1286.88982,0.08658
1285.40003,0.09350
1283.91024,0.07254
1282.42045,0.04379
1280.93066,0.04275
1279.44087,0.04338
1277.95109,0.04759
1276.46130,0.05253
1274.97151,0.04945
1273.48172,0.04640
1271.99193,0.02704
1270.50214,0.02758
1269.01235,0.02555
1267.52257,0.03016
1266.03278,0.03314
1264.54299,0.02384
1263.05320,0.03042
1261.56341,0.01904
1260.07362,0.00769
1258.58384,0.00440
1257.09405,0.00768
1255.60426,0.01736
1254.11447,0.01974
1252.62468,0.03113
1251.13489,0.01250
1249.64511,0.01779
1248.15532,0.01010
1246.66553,0.01106
1245.17574,0.01204
1243.68595,0.02026
1242.19616,0.00273
1240.70637,0.01332
1239.21659,0.01021
1237.72680,0.01943
1236.23701,0.01590
1234.74722,0.00766
1233.25743,0.00631
1231.76764,0.00498
1230.27786,0.01669
1228.78807,0.01540
1227.29828,0.03260
1225.80849,0.01149
1224.31870,0.00532
1222.82891,0.01624
1221.33912,0.00779
1219.84934,0.02432
1218.35955,0.04087
1216.86976,0.03509
1215.37997,0.04093
1213.89018,0.05767
1212.40039,0.06167
1210.91061,0.05811
1209.42082,0.07280
1207.93103,0.07012
1206.44124,0.06747
1204.95145,0.05857
1203.46166,0.06153
1201.97188,0.04795
1200.48209,0.04906
1198.99230,0.03884
1197.50251,0.02462
1196.01272,0.03763
1194.52293,0.03931
1193.03314,0.04102
1191.54336,0.02453
1190.05357,0.02250
1188.56378,0.00440
1187.07399,0.02314
1185.58420,0.01848
1184.09441,0.01929
1182.60463,0.01528
1181.11484,0.01129
1179.62505,0.02376
1178.13526,0.01426
1176.64547,0.02323
1175.15568,0.01165
1173.66589,0.01097
1172.17611,0.00440
1170.68632,0.00552
1169.19653,0.00666
1167.70674,0.03172
1166.21695,0.02747
1164.72716,0.03199
1163.23738,0.03465
1161.74759,0.04301
1160.25780,0.07694
1158.76801,0.07222
1157.27822,0.06752
1155.78843,0.08544
1154.29865,0.08990
1152.80886,0.10834
1151.31907,0.09747
1149.82928,0.10933
1148.33949,0.11530
1146.84970,0.12012
1145.35991,0.12496
1143.87013,0.13573
1142.38034,0.14961
1140.89055,0.14908
1139.40076,0.15709
1137.91097,0.15708
1136.42118,0.19991
1134.93140,0.20007
1133.44161,0.20025
1131.95182,0.20980
1130.46203,0.24232
1128.97224,0.23134
1127.48245,0.23576
1125.99266,0.23192
1124.50288,0.23189
1123.01309,0.23342
1121.52330,0.23498
1120.03351,0.23810
1118.54372,0.22563
1117.05393,0.22170
1115.56415,0.23506
1114.07436,0.23496
1112.58457,0.23796
1111.09478,0.24099
1109.60499,0.25350
1108.11520,0.25303
1106.62542,0.22443
1105.13563,0.23275
1103.64584,0.22431
1102.15605,0.21565
1100.66626,0.21281
1099.17647,0.21000
1097.68668,0.19266
1096.19690,0.18812
1094.70711,0.18029
1093.21732,0.18029
1091.72753,0.16542
1090.23774,0.17599
1088.74795,0.18660
1087.25817,0.16682
1085.76838,0.15583
1084.27859,0.17703
1082.78880,0.19092
1081.29901,0.17976
1079.80922,0.17477
1078.31943,0.17384
1076.82965,0.17292
1075.33986,0.18717
1073.85007,0.19340
1072.36028,0.19634
1070.87049,0.21184
1069.38070,0.23659
1067.89092,0.24067
1066.40113,0.24477
1064.91134,0.31313
1063.42155,0.41391
1061.93176,0.47451
1060.44197,0.54624
1058.95219,0.63196
1057.46240,0.67548
1055.97261,0.71902
1054.48282,0.76199
1052.99303,0.78464
1051.50324,0.82127
1050.01345,0.81653
1048.52367,0.85818
1047.03388,0.84710
1045.54409,0.83605
1044.05430,0.80893
1042.56451,0.77024
1041.07472,0.70296
1039.58494,0.63025
1038.09515,0.54622
1036.60536,0.50869
1035.11557,0.47119
1033.62578,0.42745
1032.13599,0.40147
1030.64620,0.35115
1029.15642,0.28358
1027.66663,0.26181
1026.17684,0.24007
1024.68705,0.21847
1023.19726,0.18104
1021.70747,0.15215
1020.21769,0.12944
1018.72790,0.13632
1017.23811,0.12277
1015.74832,0.10923
1014.25853,0.09348
1012.76874,0.10968
1011.27896,0.09705
1009.78917,0.08941
1008.29938,0.06500
1006.80959,0.04936
1005.31980,0.03375
1003.83001,0.02999
1002.34022,0.02318
1000.85044,0.03035
999.36065,0.02501
997.87086,0.03897
996.38107,0.05295
994.89128,0.05336
993.40149,0.07508
991.91171,0.08121
990.42192,0.07176
988.93213,0.07462
987.44234,0.08319
985.95255,0.09179
984.46276,0.09828
982.97297,0.08090
981.48319,0.07111
979.99340,0.07081
978.50361,0.05989
977.01382,0.04900
975.52403,0.03197
974.03424,0.02396
972.54446,0.02331
971.05467,0.02576
969.56488,0.00694
968.07509,0.00577
966.58530,0.00462
965.09551,0.00752
963.60573,0.01092
962.11594,0.00440
960.62615,0.00901
959.13636,0.01661
957.64657,0.02423
956.15678,0.01756
954.66699,0.01848
953.17721,0.03244
951.68742,0.03767
950.19763,0.05038
948.70784,0.06311
947.21805,0.07006
945.72826,0.08107
944.23848,0.08926
942.74869,0.09842
941.25890,0.12132
939.76911,0.12781
938.27932,0.13432
936.78953,0.15919
935.29974,0.16303
933.80996,0.18156
932.32017,0.20555
930.83038,0.20934
929.34059,0.21316
927.85080,0.23250
926.36101,0.24949
924.87123,0.27810
923.38144,0.32613
921.89165,0.36331
920.40186,0.40050
918.91207,0.51437
917.42228,0.58616
915.93250,0.71971
914.44271,0.90083
912.95292,0.99197
911.46313,1.08313
909.97334,1.30194
908.48355,1.53023
906.99376,1.74010
905.50398,1.85702
904.01419,1.88774
902.52440,1.91849
901.03461,2.00000
899.54482,1.99827
898.05503,1.80186
896.56525,1.57568
895.07546,1.46685
893.58567,1.35805
892.09588,1.11112
890.60609,0.89781
889.11630,0.64762
887.62651,0.48947
886.13673,0.41923
884.64694,0.34902
883.15715,0.24299
881.66736,0.17909
880.17757,0.12752
878.68778,0.10542
877.19800,0.08334
875.70821,0.05621
874.21842,0.03170
872.72863,0.01904
871.23884,0.03314
869.74905,0.01876
868.25927,0.00440
866.76948,0.01948
865.27969,0.01211
863.78990,0.01778
862.30011,0.02252
860.81032,0.03427
859.32053,0.04604
857.83075,0.06268
856.34096,0.06303
854.85117,0.07594
853.36138,0.10212
851.87159,0.10395
850.38180,0.10581
848.89202,0.11480
847.40223,0.13752
845.91244,0.15696
844.42265,0.15135
842.93286,0.14576
841.44307,0.16362
839.95329,0.17463
838.46350,0.20626
836.97371,0.21496
835.48392,0.21470
833.99413,0.21446
832.50434,0.20762
831.01455,0.19157
829.52477,0.18005
828.03498,0.16477
826.54519,0.15365
825.05540,0.14255
823.56561,0.11717
822.07582,0.11286
820.58604,0.10551
819.09625,0.09250
817.60646,0.07951
816.11667,0.06418
814.62688,0.09453
813.13709,0.09321
811.64730,0.10823
810.15752,0.09832
808.66773,0.08844
807.17794,0.06923
805.68815,0.10423
804.19836,0.12623
802.70857,0.12200
801.21879,0.11779
799.72900,0.11101
798.23921,0.08816
796.74942,0.08379
795.25963,0.07850
793.76984,0.07323
792.28006,0.10371
790.79027,0.14178
789.30048,0.15101
787.81069,0.17257
786.32090,0.17547
784.83111,0.17839
783.34132,0.20948
781.85154,0.21978
780.36175,0.26346
778.87196,0.27972
777.38217,0.29601
775.89238,0.34615
774.40259,0.35775
772.91281,0.33271
771.42302,0.31917
769.93323,0.30565
768.44344,0.27737
766.95365,0.23469
765.46386,0.19368
763.97407,0.17589
762.48429,0.16982
760.99450,0.16378
759.50471,0.11980
758.01492,0.09594
756.52513,0.08465
755.03534,0.07492
753.54556,0.06522
752.05577,0.06204
750.56598,0.05439
749.07619,0.04985
747.58640,0.03823
746.09661,0.02663
744.60683,0.02429
743.11704,0.01439
741.62725,0.00831
740.13746,0.01089
738.64767,0.01349
737.15788,0.00440
735.66809,0.00832
734.17831,0.01770
732.68852,0.01776
731.19873,0.01784
729.70894,0.00908
728.21915,0.00460
726.72936,0.01745
725.23958,0.02560
723.74979,0.01438
722.26000,0.00318
720.77021,0.02095
719.28042,0.01319
717.79063,0.01326
716.30084,0.00697
714.81106,0.00070
713.32127,0.02047
711.83148,0.01896
710.34169,0.02861
708.85190,0.02242
707.36211,0.01626
705.87233,0.02787
704.38254,0.01963
702.89275,0.03554
701.40296,0.03859
699.91317,0.04165
698.42338,0.04652
696.93360,0.07554
695.44381,0.09654
693.95402,0.10467
692.46423,0.11283
690.97444,0.11616
689.48465,0.13111
687.99486,0.17423
686.50508,0.18224
685.01529,0.19028
683.52550,0.22189
682.03571,0.21803
680.54592,0.26742
679.05613,0.26314
677.56635,0.25888
676.07656,0.23737
674.58677,0.23245
673.09698,0.21005
671.60719,0.20115
670.11740,0.19228
668.62761,0.15718
667.13783,0.13842
665.64804,0.13152
664.15825,0.12463
662.66846,0.10784
661.17867,0.08397
659.68888,0.06273
658.19910,0.05583
656.70931,0.04895
655.21952,0.04765
653.72973,0.03716
652.23994,0.02432
650.75015,0.02936
649.26037,0.03443
647.77058,0.03254
646.28079,0.03257
644.79100,0.02955
643.30121,0.03117
641.81142,0.03281
640.32163,0.01638
638.83185,0.02694
637.34206,0.00440
635.85227,0.01046
634.36248,0.01655
632.87269,0.02669
631.38290,0.00870
629.89312,0.02881
628.40333,0.02471
626.91354,0.02063
625.42375,0.00131
623.93396,0.00000
622.44417,0.00018
620.95438,0.00038
619.46460,0.00215
617.97481,0.03658
616.48502,0.04407
614.99523,0.06081
613.50544,0.07758
612.01565,0.12110
610.52587,0.14548
609.03608,0.16847
607.54629,0.19266
606.05650,0.21688
604.56671,0.26431
603.07692,0.33092
601.58714,0.34551
600.09735,0.36012
598.60756,0.39582
597.11777,0.41639
595.62798,0.41689
594.13819,0.41220
592.64840,0.40754
591.15862,0.38137
589.66883,0.33512
588.17904,0.24371
586.68925,0.21691
585.19946,0.19013
583.70967,0.15037
582.21989,0.13121
580.73010,0.11372
579.24031,0.09627
577.75052,0.08498
576.26073,0.07467
574.77094,0.03718
573.28115,0.03094
571.79137,0.02472
570.30158,0.05614
568.81179,0.04405
567.32200,0.05435
565.83221,0.06467
564.34242,0.09169
562.85264,0.12228
561.36285,0.12049
559.87306,0.12795
558.38327,0.13543
556.89348,0.15997
555.40369,0.15827
553.91391,0.15104
552.42412,0.14383
550.93433,0.17107
549.44454,0.17728
547.95475,0.15157
546.46496,0.16445
544.97517,0.17735
543.48539,0.20045
541.99560,0.22145
540.50581,0.25370
539.01602,0.28598
537.52623,0.34631
536.03644,0.35534
534.54666,0.39703
533.05687,0.42716
531.56708,0.45731
530.07729,0.49482
528.58750,0.53236
527.09771,0.54365
525.60792,0.55498
524.11814,0.62310
522.62835,0.68320
521.13856,0.75161
519.64877,0.78136
518.15898,0.81114
516.66919,0.85572
515.17941,0.86461
513.68962,0.85637
512.19983,0.84816
510.71004,0.79065
509.22025,0.75066
507.73046,0.69272
506.24068,0.62748
504.75089,0.56225
503.26110,0.46654
501.77131,0.37818
500.28152,0.32663
498.79173,0.27511
497.30194,0.22088
495.81216,0.16905
494.32237,0.14812
492.83258,0.12720
491.34279,0.09721
489.85300,0.04997
488.36321,0.06095
486.87343,0.05894
485.38364,0.05695
483.89385,0.07723
482.40406,0.09634
480.91427,0.09360
479.42448,0.09089
477.93469,0.11599
476.44491,0.13520
474.95512,0.14415
473.46533,0.15312
471.97554,0.16744
470.48575,0.15978
468.99596,0.14907
467.50618,0.14512
466.01639,0.14120
464.52660,0.11755
463.03681,0.10528
461.54702,0.08180
460.05723,0.05834
458.56745,0.02627
457.07766,0.00440
455.58787,0.01709
454.09808,0.02981
452.60829,0.03144
451.11850,0.01014
449.62871,0.00767
448.13893,0.00523
446.64914,0.02895
445.15935,0.00444
443.66956,0.03034
442.17977,0.03189
440.68998,0.03347
439.20020,0.01473
437.71041,0.03978
436.22062,0.04924
434.73083,0.05872
433.24104,0.04386
431.75125,0.04322
430.26146,0.03716
428.77168,0.03113
427.28189,0.04381
425.79210,0.04728
424.30231,0.04818
422.81252,0.04911
421.32273,0.05360
419.83295,0.01909
418.34316,0.01866
416.85337,0.01826
415.36358,0.00440
413.87379,0.01485
412.38400,0.02745
410.89422,0.04008
409.40443,0.04800
407.91464,0.04104
406.42485,0.05255
404.93506,0.04777
403.44527,0.04301
401.95548,0.03851
400.46570,0.04633
398.97591,0.03632
397.48612,0.02634
395.99633,0.05482
394.50654,0.02678
393.01675,0.02633
391.52697,0.02088
390.03718,0.02645
388.54739,0.03347
387.05760,0.03625
385.56781,0.03906
384.07802,0.03148
382.58824,0.01234
381.09845,0.00836
379.60866,0.00440
378.11887,0.03396
376.62908,0.01836
375.13929,0.02809
373.64950,0.03785
372.15972,0.03013
370.66993,0.04230
369.18014,0.03594
367.69035,0.02960
366.20056,0.03795
364.71077,0.04136
363.22099,0.03309
361.73120,0.02483
360.24141,0.05008
358.75162,0.05855
357.26183,0.04316
355.77204,0.02778
354.28225,0.02545
352.79247,0.02313
351.30268,0.03977
349.81289,0.05643
348.32310,0.07595
346.83331,0.09455
345.34352,0.08562
343.85374,0.07671
342.36395,0.05257
340.87416,0.03602
339.38437,0.03451
337.89458,0.03303
336.40479,0.01087
334.91501,0.02139
333.42522,0.01288
331.93543,0.00440
330.44564,0.05754
328.95585,0.03358
327.46606,0.03874
325.97627,0.04393
324.48649,0.06108
322.99670,0.06927
321.50691,0.06341
320.01712,0.05757
318.52733,0.06204
317.03754,0.07600
315.54776,0.05876
314.05797,0.04155
312.56818,0.03500
311.07839,0.04811
309.58860,0.03215
308.09881,0.01621
306.60902,0.03318
305.11924,0.03645
303.62945,0.02283
302.13966,0.00924
300.64987,0.00440
299.16008,0.00440
