1778.52000,0.02581
1777.03021,0.01930
1775.54042,0.03041
1774.05063,0.02685
1772.56085,0.02376
1771.07106,0.02247
1769.58127,0.02298
1768.09148,0.01217
1766.60169,0.02097
1765.11190,0.02067
1763.62212,0.02129
1762.13233,0.01547
1760.64254,0.00878
1759.15275,0.02372
1757.66296,0.01329
1756.17317,0.01224
1754.68339,0.01812
1753.19360,0.01467
1751.70381,0.01236
1750.21402,0.01185
1748.72423,0.01115
1747.23444,0.01381
1745.74465,0.00892
1744.25487,0.01408
1742.76508,0.01258
1741.27529,0.01444
1739.78550,0.01589
1738.29571,0.01735
1736.80592,0.01840
1735.31614,0.01947
1733.82635,0.01411
1732.33656,0.02035
1730.84677,0.00857
1729.35698,0.00684
1727.86719,0.01249
1726.37740,0.00969
1724.88762,0.01316
1723.39783,0.01509
1721.90804,0.01170
1720.41825,0.00878
1718.92846,0.01555
1717.43867,0.01522
1715.94889,0.01447
1714.45910,0.01574
1712.96931,0.01526
1711.47952,0.01636
1709.98973,0.01548
1708.49994,0.01641
1707.01016,0.01669
1705.52037,0.01700
1704.03058,0.01666
1702.54079,0.00878
1701.05100,0.01528
1699.56121,0.01111
1698.07142,0.02413
1696.58164,0.01778
1695.09185,0.03129
1693.60206,0.02566
1692.11227,0.02830
1690.62248,0.02828
1689.13269,0.04099
1687.64291,0.02076
1686.15312,0.02572
1684.66333,0.02714
1683.17354,0.03260
1681.68375,0.02538
1680.19396,0.03890
1678.70417,0.04799
1677.21439,0.05243
1675.72460,0.05711
1674.23481,0.06405
1672.74502,0.04651
1671.25523,0.06196
1669.76544,0.06139
1668.27566,0.07176
1666.78587,0.05231
1665.29608,0.06986
1663.80629,0.07563
1662.31650,0.10302
1660.82671,0.08879
1659.33693,0.08661
1657.84714,0.09047
1656.35735,0.09614
1654.86756,0.08490
1653.37777,0.08371
1651.88798,0.07741
1650.39819,0.07026
1648.90841,0.07938
1647.41862,0.08964
1645.92883,0.08668
1644.43904,0.08374
1642.94925,0.08561
1641.45946,0.09463
1639.96968,0.08475
1638.47989,0.10295
1636.99010,0.10425
1635.50031,0.08241
1634.01052,0.08866
1632.52073,0.07755
1631.03094,0.08942
1629.54116,0.09017
1628.05137,0.08538
1626.56158,0.08306
1625.07179,0.09947
1623.58200,0.09943
1622.09221,0.09340
1620.60243,0.08716
1619.11264,0.09499
1617.62285,0.09170
1616.13306,0.08910
1614.64327,0.09121
1613.15348,0.08599
1611.66370,0.09727
1610.17391,0.09945
1608.68412,0.09675
1607.19433,0.10655
1605.70454,0.09610
1604.21475,0.08668
1602.72496,0.07729
1601.23518,0.08585
1599.74539,0.09688
1598.25560,0.08521
1596.76581,0.09540
1595.27602,0.10495
1593.78623,0.08846
1592.29645,0.08112
1590.80666,0.08205
1589.31687,0.07031
1587.82708,0.06840
1586.33729,0.07831
1584.84750,0.07265
1583.35771,0.09397
1581.86793,0.07767
1580.37814,0.07855
1578.88835,0.08234
1577.39856,0.07169
1575.90877,0.07330
1574.41898,0.05289
1572.92920,0.05678
1571.43941,0.04355
1569.94962,0.04092
1568.45983,0.03831
1566.97004,0.04831
1565.48025,0.04586
1563.99047,0.04812
1562.50068,0.04082
1561.01089,0.02931
1559.52110,0.03097
1558.03131,0.03755
1556.54152,0.03102
1555.05173,0.03609
1553.56195,0.02893
1552.07216,0.02759
1550.58237,0.00912
1549.09258,0.01140
1547.60279,0.01146
1546.11300,0.01378
1544.62322,0.00878
1543.13343,0.00940
1541.64364,0.01225
1540.15385,0.01400
1538.66406,0.01578
1537.17427,0.01313
1535.68448,0.01919
1534.19470,0.01324
1532.70491,0.01712
1531.21512,0.00878
1529.72533,0.02679
1528.23554,0.02746
1526.74575,0.02993
1525.25597,0.03064
1523.76618,0.02804
1522.27639,0.04016
1520.78660,0.03894
1519.29681,0.04064
1517.80702,0.04304
1516.31724,0.05904
1514.82745,0.06749
1513.33766,0.06907
1511.84787,0.07067
1510.35808,0.05358
1508.86829,0.05545
1507.37850,0.04264
1505.88872,0.05235
1504.39893,0.06610
1502.90914,0.04913
1501.41935,0.07963
1499.92956,0.07920
1498.43977,0.08346
1496.94999,0.09287
1495.46020,0.08983
1493.97041,0.10753
1492.48062,0.11345
1490.99083,0.11695
1489.50104,0.11668
1488.01125,0.13336
1486.52147,0.15007
1485.03168,0.17972
1483.54189,0.20427
1482.05210,0.23263
1480.56231,0.25033
1479.07252,0.24399
1477.58274,0.25705
1476.09295,0.27326
1474.60316,0.28014
1473.11337,0.26321
1471.62358,0.28528
1470.13379,0.29913
1468.64401,0.30855
1467.15422,0.34651
1465.66443,0.34340
1464.17464,0.34031
1462.68485,0.39838
1461.19506,0.43020
1459.70527,0.47562
1458.21549,0.53422
1456.72570,0.56499
1455.23591,0.61517
1453.74612,0.67918
1452.25633,0.70334
1450.76654,0.74713
1449.27676,0.74662
1447.78697,0.74279
1446.29718,0.72919
1444.80739,0.70002
1443.31760,0.67087
1441.82781,0.64286
1440.33802,0.58124
1438.84824,0.54103
1437.35845,0.52913
1435.86866,0.52415
1434.37887,0.53569
1432.88908,0.60538
1431.39929,0.66062
1429.90951,0.74885
1428.41972,0.81037
1426.92993,0.82002
1425.44014,0.84996
1423.95035,0.87536
1422.46056,0.90079
1420.97078,0.94194
1419.48099,0.96485
1417.99120,0.95883
1416.50141,0.92321
1415.01162,0.90298
1413.52183,0.86296
1412.03204,0.80670
1410.54226,0.76338
1409.05247,0.70048
1407.56268,0.63271
1406.07289,0.59948
1404.58310,0.56907
1403.09331,0.53867
1401.60353,0.49394
1400.11374,0.43274
1398.62395,0.36823
1397.13416,0.30687
1395.64437,0.26423
1394.15458,0.21672
1392.66479,0.17859
1391.17501,0.16409
1389.68522,0.15029
1388.19543,0.10622
1386.70564,0.09914
1385.21585,0.09209
1383.72606,0.06324
1382.23628,0.06358
1380.74649,0.04458
1379.25670,0.04163
1377.76691,0.03203
1376.27712,0.01198
1374.78733,0.00933
1373.29755,0.01828
1371.80776,0.00878
1370.31797,0.03958
1368.82818,0.03187
1367.33839,0.02418
1365.84860,0.04882
1364.35881,0.05454
1362.86903,0.06697
1361.37924,0.07520
1359.88945,0.08612
1358.39966,0.09974
1356.90987,0.16038
1355.42008,0.19921
1353.93030,0.24431
1352.44051,0.27696
1350.95072,0.30963
1349.46093,0.41471
1347.97114,0.48351
1346.48135,0.54521
1344.99156,0.62319
1343.50178,0.69051
1342.01199,0.73246
1340.52220,0.80049
1339.03241,0.81420
1337.54262,0.82036
1336.05283,0.84592
1334.56305,0.87150
1333.07326,0.94299
1331.58347,0.93121
1330.09368,0.91365
1328.60389,0.88944
1327.11410,0.85345
1325.62432,0.81948
1324.13453,0.83677
1322.64474,0.81867
1321.15495,0.76496
1319.66516,0.73565
1318.17537,0.70638
1316.68558,0.64204
1315.19580,0.57795
1313.70601,0.55732
1312.21622,0.51645
1310.72643,0.50433
1309.23664,0.45014
1307.74685,0.42025
1306.25707,0.41622
1304.76728,0.39317
1303.27749,0.37015
1301.78770,0.32254
1300.29791,0.27361
1298.80812,0.23563
1297.31834,0.22439
1295.82855,0.19514
1294.33876,0.15678
1292.84897,0.12669
1291.35918,0.11555
1289.86939,0.11234
1288.37960,0.10916
1286.88982,0.11569
1285.40003,0.09440
1283.91024,0.09296
1282.42045,0.07194
1280.93066,0.08926
1279.44087,0.06517
1277.95109,0.05314
1276.46130,0.05271
1274.97151,0.05086
1273.48172,0.04903
1271.99193,0.04689
1270.50214,0.03386
1269.01235,0.05115
1267.52257,0.04708
1266.03278,0.04258
1264.54299,0.03611
1263.05320,0.02921
1261.56341,0.02869
1260.07362,0.02819
1258.58384,0.02248
1257.09405,0.01769
1255.60426,0.01782
1254.11447,0.01129
1252.62468,0.01704
1251.13489,0.00878
1249.64511,0.01893
1248.15532,0.03245
1246.66553,0.02795
1245.17574,0.02347
1243.68595,0.01768
1242.19616,0.02952
1240.70637,0.02489
1239.21659,0.03009
1237.72680,0.02395
1236.23701,0.02452
1234.74722,0.02979
1233.25743,0.03408
1231.76764,0.03840
1230.27786,0.04374
1228.78807,0.03708
1227.29828,0.02911
1225.80849,0.01982
1224.31870,0.00878
1222.82891,0.03370
1221.33912,0.03347
1219.84934,0.04786
1218.35955,0.06227
1216.86976,0.07147
1215.37997,0.08159
1213.89018,0.09752
1212.40039,0.08029
1210.91061,0.08224
1209.42082,0.07998
1207.93103,0.08331
1206.44124,0.08666
1204.95145,0.07378
1203.46166,0.07318
1201.97188,0.08485
1200.48209,0.06113
1198.99230,0.06572
1197.50251,0.05117
1196.01272,0.05715
1194.52293,0.05580
1193.03314,0.05447
1191.54336,0.04403
1190.05357,0.04788
1188.56378,0.03147
1187.07399,0.03069
1185.58420,0.02547
1184.09441,0.01270
1182.60463,0.01154
1181.11484,0.01041
1179.62505,0.01242
1178.13526,0.01712
1176.64547,0.02363
1175.15568,0.01190
1173.66589,0.01600
1172.17611,0.00878
1170.68632,0.00946
1169.19653,0.01016
1167.70674,0.01612
1166.21695,0.01877
1164.72716,0.04839
1163.23738,0.03460
1161.74759,0.04778
1160.25780,0.05008
1158.76801,0.05162
1157.27822,0.05318
1155.78843,0.05844
1154.29865,0.07442
1152.80886,0.08374
1151.31907,0.11425
1149.82928,0.11159
1148.33949,0.12165
1146.84970,0.13240
1145.35991,0.14318
1143.87013,0.12591
1142.38034,0.15834
1140.89055,0.14425
1139.40076,0.16381
1137.91097,0.17960
1136.42118,0.20366
1134.93140,0.20436
1133.44161,0.20509
1131.95182,0.23323
1130.46203,0.21240
1128.97224,0.20829
1127.48245,0.20733
1125.99266,0.22777
1124.50288,0.21795
1123.01309,0.22129
1121.52330,0.22466
1120.03351,0.21869
1118.54372,0.22478
1117.05393,0.22064
1115.56415,0.23368
1114.07436,0.24051
1112.58457,0.23856
1111.09478,0.23664
1109.60499,0.22683
1108.11520,0.24600
1106.62542,0.24538
1105.13563,0.24233
1103.64584,0.22772
1102.15605,0.19910
1100.66626,0.20603
1099.17647,0.21298
1097.68668,0.22653
1096.19690,0.23231
1094.70711,0.19713
1093.21732,0.21387
1091.72753,0.18676
1090.23774,0.18873
1088.74795,0.19074
1087.25817,0.21537
1085.76838,0.20082
1084.27859,0.20791
1082.78880,0.20165
1081.29901,0.19943
1079.80922,0.19723
1078.31943,0.19751
1076.82965,0.19781
1075.33986,0.22909
1073.85007,0.25082
1072.36028,0.24674
1070.87049,0.27899
1069.38070,0.31749
1067.89092,0.33253
1066.40113,0.34758
1064.91134,0.40287
1063.42155,0.48602
1061.93176,0.58924
1060.44197,0.66754
1058.95219,0.77192
1057.46240,0.82978
1055.97261,0.88766
1054.48282,0.98432
1052.99303,1.06029
1051.50324,1.03337
1050.01345,1.01028
1048.52367,0.99165
1047.03388,0.97361
1045.54409,0.95560
1044.05430,0.90096
1042.56451,0.83989
1041.07472,0.78776
1039.58494,0.72228
1038.09515,0.62721
1036.60536,0.58339
1035.11557,0.53959
1033.62578,0.48958
1032.13599,0.42712
1030.64620,0.36469
1029.15642,0.31007
1027.66663,0.29334
1026.17684,0.27664
1024.68705,0.23457
1023.19726,0.18919
1021.70747,0.15763
1020.21769,0.13546
1018.72790,0.12979
1017.23811,0.13105
1015.74832,0.13234
1014.25853,0.10692
1012.76874,0.11092
1011.27896,0.11050
1009.78917,0.10742
1008.29938,0.08076
1006.80959,0.07261
1005.31980,0.06449
1003.83001,0.03567
1002.34022,0.01780
1000.85044,0.02021
999.36065,0.03780
997.87086,0.04639
996.38107,0.05500
994.89128,0.08380
993.40149,0.10772
991.91171,0.12899
990.42192,0.15808
988.93213,0.15556
987.44234,0.15051
985.95255,0.14548
984.46276,0.16687
982.97297,0.14753
981.48319,0.10949
979.99340,0.10334
978.50361,0.08685
977.01382,0.07038
975.52403,0.05160
974.03424,0.03574
972.54446,0.03326
971.05467,0.03683
969.56488,0.02149
968.07509,0.02499
966.58530,0.02851
965.09551,0.02393
963.60573,0.01358
962.11594,0.01239
960.62615,0.00878
959.13636,0.01140
957.64657,0.01404
956.15678,0.01348
954.66699,0.02386
953.17721,0.03181
951.68742,0.02486
950.19763,0.02930
948.70784,0.03376
947.21805,0.04492
945.72826,0.07794
944.23848,0.07735
942.74869,0.11398
941.25890,0.12235
939.76911,0.12350
938.27932,0.12467
936.78953,0.16095
935.29974,0.17098
933.80996,0.19728
932.32017,0.20624
930.83038,0.21043
929.34059,0.21464
927.85080,0.24194
926.36101,0.29442
924.87123,0.29971
923.38144,0.36271
921.89165,0.38821
920.40186,0.41373
918.91207,0.51912
917.42228,0.60962
915.93250,0.77119
914.44271,0.96820
912.95292,1.07982
911.46313,1.19146
909.97334,1.41727
908.48355,1.59077
906.99376,1.77810
905.50398,1.89106
904.01419,1.91974
902.52440,1.94844
901.03461,2.00000
899.54482,1.93064
898.05503,1.82388
896.56525,1.59508
895.07546,1.45373
893.58567,1.31241
892.09588,1.05362
890.60609,0.82091
889.11630,0.63411
887.62651,0.47919
886.13673,0.41238
884.64694,0.34559
883.15715,0.25132
881.66736,0.19316
880.17757,0.13480
878.68778,0.12569
877.19800,0.11660
875.70821,0.05876
874.21842,0.05685
872.72863,0.04070
871.23884,0.03127
869.74905,0.02898
868.25927,0.02672
866.76948,0.02292
865.27969,0.03831
863.78990,0.05015
862.30011,0.04843
860.81032,0.05698
859.32053,0.06555
857.83075,0.07460
856.34096,0.10126
854.85117,0.11303
853.36138,0.12370
851.87159,0.13685
850.38180,0.15002
848.89202,0.17191
847.40223,0.18134
845.91244,0.19191
844.42265,0.20552
842.93286,0.21914
841.44307,0.23380
839.95329,0.24469
838.46350,0.27365
836.97371,0.28280
835.48392,0.27984
833.99413,0.27691
832.50434,0.28436
831.01455,0.28181
829.52477,0.24097
828.03498,0.22421
826.54519,0.20903
825.05540,0.19388
823.56561,0.17965
822.07582,0.16298
820.58604,0.15503
819.09625,0.15356
817.60646,0.15212
816.11667,0.13622
814.62688,0.13527
813.13709,0.14815
811.64730,0.15616
810.15752,0.15361
808.66773,0.15108
807.17794,0.12330
805.68815,0.12450
804.19836,0.14889
802.70857,0.14891
801.21879,0.14895
799.72900,0.14267
798.23921,0.15179
796.74942,0.12707
795.25963,0.13456
793.76984,0.14208
792.28006,0.14282
790.79027,0.16475
789.30048,0.18270
787.81069,0.21782
786.32090,0.23581
784.83111,0.25383
783.34132,0.27743
781.85154,0.32223
780.36175,0.35658
778.87196,0.37190
777.38217,0.38726
775.89238,0.42836
774.40259,0.43875
772.91281,0.42823
771.42302,0.40113
769.93323,0.37406
768.44344,0.34891
766.95365,0.27522
765.46386,0.25123
763.97407,0.19096
762.48429,0.19174
760.99450,0.19255
759.50471,0.15128
758.01492,0.13543
756.52513,0.10245
755.03534,0.11248
753.54556,0.12254
752.05577,0.11012
750.56598,0.10085
749.07619,0.07111
747.58640,0.06422
746.09661,0.05736
744.60683,0.03749
743.11704,0.03324
741.62725,0.03570
740.13746,0.03294
738.64767,0.03021
737.15788,0.02360
735.66809,0.00878
734.17831,0.01734
732.68852,0.01892
731.19873,0.02051
729.70894,0.01913
728.21915,0.01265
726.72936,0.01928
725.23958,0.01546
723.74979,0.01445
722.26000,0.01347
720.77021,0.02176
719.28042,0.02717
717.79063,0.00878
716.30084,0.01240
714.81106,0.01606
713.32127,0.03443
711.83148,0.03791
710.34169,0.02827
708.85190,0.02556
707.36211,0.02287
705.87233,0.02823
704.38254,0.04074
702.89275,0.03545
701.40296,0.04299
699.91317,0.05056
698.42338,0.05604
696.93360,0.06777
695.44381,0.09468
693.95402,0.10012
692.46423,0.10558
690.97444,0.13033
689.48465,0.14686
687.99486,0.15986
686.50508,0.18112
685.01529,0.20240
683.52550,0.22772
682.03571,0.25038
680.54592,0.25682
679.05613,0.25169
677.56635,0.24659
676.07656,0.24329
674.58677,0.25272
673.09698,0.22229
671.60719,0.21172
670.11740,0.20117
668.62761,0.17906
667.13783,0.13047
665.64804,0.12077
664.15825,0.11110
662.66846,0.10089
661.17867,0.06843
659.68888,0.06117
658.19910,0.05382
656.70931,0.04649
655.21952,0.04821
653.72973,0.05329
652.23994,0.05461
650.75015,0.05328
649.26037,0.05198
647.77058,0.05605
646.28079,0.05457
644.79100,0.06469
643.30121,0.06081
641.81142,0.05696
640.32163,0.05067
638.83185,0.01011
637.34206,0.00878
635.85227,0.01123
634.36248,0.01372
632.87269,0.01132
631.38290,0.02455
629.89312,0.02287
628.40333,0.02066
626.91354,0.01847
625.42375,0.03981
623.93396,0.01573
622.44417,0.01473
620.95438,0.01375
619.46460,0.02494
617.97481,0.04662
616.48502,0.05652
614.99523,0.07279
613.50544,0.08908
612.01565,0.11220
610.52587,0.16228
609.03608,0.16829
607.54629,0.19794
606.05650,0.22760
604.56671,0.29560
603.07692,0.34225
601.58714,0.36341
600.09735,0.38460
598.60756,0.42530
597.11777,0.45266
595.62798,0.45310
594.13819,0.43295
592.64840,0.41283
591.15862,0.39730
589.66883,0.34727
588.17904,0.27210
586.68925,0.24405
585.19946,0.21603
583.70967,0.16744
582.21989,0.12933
580.73010,0.10784
579.24031,0.08638
577.75052,0.09312
576.26073,0.08362
574.77094,0.07481
573.28115,0.06603
571.79137,0.05727
570.30158,0.06546
568.81179,0.08793
567.32200,0.10041
565.83221,0.11290
564.34242,0.11807
562.85264,0.14643
561.36285,0.16658
559.87306,0.16981
558.38327,0.17308
556.89348,0.21534
555.40369,0.21420
553.91391,0.21286
552.42412,0.21154
550.93433,0.21069
549.44454,0.21966
547.95475,0.22198
546.46496,0.22031
544.97517,0.21867
543.48539,0.25291
541.99560,0.28093
540.50581,0.29718
539.01602,0.31345
537.52623,0.37630
536.03644,0.41890
534.54666,0.42811
533.05687,0.45974
531.56708,0.49139
530.07729,0.53564
528.58750,0.59106
527.09771,0.59962
525.60792,0.60820
524.11814,0.67505
522.62835,0.72254
521.13856,0.75492
519.64877,0.78208
518.15898,0.80927
516.66919,0.83659
515.17941,0.85057
513.68962,0.84865
512.19983,0.84676
510.71004,0.84232
509.22025,0.79025
507.73046,0.67917
506.24068,0.63706
504.75089,0.59497
503.26110,0.50312
501.77131,0.40061
500.28152,0.35146
498.79173,0.30234
497.30194,0.21370
495.81216,0.17053
494.32237,0.15144
492.83258,0.13237
491.34279,0.12358
489.85300,0.08206
488.36321,0.07621
486.87343,0.07283
485.38364,0.06947
483.89385,0.09198
482.40406,0.10047
480.91427,0.10988
479.42448,0.11932
477.93469,0.14571
476.44491,0.14873
474.95512,0.17406
473.46533,0.19940
471.97554,0.23390
470.48575,0.22789
468.99596,0.20208
467.50618,0.19088
466.01639,0.17971
464.52660,0.14930
463.03681,0.11823
461.54702,0.11437
460.05723,0.11053
458.56745,0.05861
457.07766,0.03522
455.58787,0.03134
454.09808,0.02749
452.60829,0.02666
451.11850,0.02119
449.62871,0.02119
448.13893,0.02122
446.64914,0.01492
445.15935,0.01957
443.66956,0.03381
442.17977,0.03071
440.68998,0.02763
439.20020,0.02101
437.71041,0.03602
436.22062,0.03501
434.73083,0.03403
433.24104,0.03397
431.75125,0.05219
430.26146,0.05317
428.77168,0.05418
427.28189,0.06424
425.79210,0.05494
424.30231,0.05090
422.81252,0.04688
421.32273,0.04166
419.83295,0.03825
418.34316,0.02350
416.85337,0.00878
415.36358,0.01942
413.87379,0.02564
412.38400,0.03767
410.89422,0.04973
409.40443,0.04399
407.91464,0.05587
406.42485,0.04818
404.93506,0.04574
403.44527,0.04333
401.95548,0.04083
400.46570,0.04637
398.97591,0.03835
397.48612,0.03036
395.99633,0.03152
394.50654,0.02825
393.01675,0.02734
391.52697,0.02645
390.03718,0.00878
388.54739,0.02780
387.05760,0.01712
385.56781,0.00646
384.07802,0.00551
382.58824,0.01053
381.09845,0.01245
379.60866,0.01440
378.11887,0.00568
376.62908,0.00345
375.13929,0.00658
373.64950,0.00974
372.15972,0.00000
370.66993,0.03305
369.18014,0.02470
367.69035,0.01637
366.20056,0.01659
364.71077,0.02552
363.22099,0.02746
361.73120,0.02942
360.24141,0.05802
358.75162,0.08264
357.26183,0.06941
355.77204,0.05621
354.28225,0.03502
352.79247,0.06085
351.30268,0.05885
349.81289,0.05689
348.32310,0.05027
346.83331,0.04189
345.34352,0.05002
343.85374,0.05817
342.36395,0.04362
340.87416,0.04670
339.38437,0.04947
337.89458,0.05226
336.40479,0.05831
334.91501,0.05814
333.42522,0.04140
331.93543,0.02469
330.44564,0.00878
328.95585,0.01922
327.46606,0.02645
325.97627,0.03371
324.48649,0.03759
322.99670,0.05553
321.50691,0.06503
320.01712,0.07456
318.52733,0.09257
317.03754,0.10393
315.54776,0.09604
314.05797,0.08817
312.56818,0.08267
311.07839,0.07831
309.58860,0.08444
308.09881,0.09059
306.60902,0.09276
305.11924,0.05731
303.62945,0.04160
302.13966,0.02591
300.64987,0.00878
299.16008,0.00878
