1778.52000,0.00581
1777.03021,0.01064
1775.54042,0.00000
1774.05063,0.00648
1772.56085,0.00044
1771.07106,0.00884
1769.58127,0.00925
1768.09148,0.00701
1766.60169,0.00587
1765.11190,0.01117
1763.62212,0.00660
1762.13233,0.01809
1760.64254,0.01517
1759.15275,0.00614
1757.66296,0.00274
1756.17317,0.00524
1754.68339,0.00830
1753.19360,0.01058
1751.70381,0.00808
1750.21402,0.01094
1748.72423,0.01196
1747.23444,0.00633
1745.74465,0.01274
1744.25487,0.00903
1742.76508,0.01656
1741.27529,0.00274
1739.78550,0.01819
1738.29571,0.00935
1736.80592,0.00856
1735.31614,0.01046
1733.82635,0.02307
1732.33656,0.01860
1730.84677,0.01630
1729.35698,0.01643
1727.86719,0.02112
1726.37740,0.01328
1724.88762,0.01081
1723.39783,0.00970
1721.90804,0.01181
1720.41825,0.00274
1718.92846,0.01402
1717.43867,0.01839
1715.94889,0.01690
1714.45910,0.02105
1712.96931,0.01534
1711.47952,0.01713
1709.98973,0.01921
1708.49994,0.00796
1707.01016,0.01076
1705.52037,0.01358
1704.03058,0.01630
1702.54079,0.00274
1701.05100,0.00597
1699.56121,0.01831
1698.07142,0.01625
1696.58164,0.01902
1695.09185,0.01567
1693.60206,0.02570
1692.11227,0.02374
1690.62248,0.02741
1689.13269,0.01774
1687.64291,0.01719
1686.15312,0.01799
1684.66333,0.03352
1683.17354,0.04185
1681.68375,0.03178
1680.19396,0.03027
1678.70417,0.04215
1677.21439,0.05032
1675.72460,0.05450
1674.23481,0.05016
1672.74502,0.06988
1671.25523,0.04902
1669.76544,0.05998
1668.27566,0.07470
1666.78587,0.07262
1665.29608,0.09247
1663.80629,0.09150
1662.31650,0.09056
1660.82671,0.09605
1659.33693,0.10477
1657.84714,0.09028
1656.35735,0.08836
1654.86756,0.08701
1653.37777,0.09503
1651.88798,0.09131
1650.39819,0.08629
1648.90841,0.08984
1647.41862,0.08353
1645.92883,0.09368
1644.43904,0.10385
1642.94925,0.08559
1641.45946,0.10636
1639.96968,0.10338
1638.47989,0.09988
1636.99010,0.09561
1635.50031,0.08656
1634.01052,0.08073
1632.52073,0.10192
1631.03094,0.08759
1629.54116,0.09013
1628.05137,0.09909
1626.56158,0.09446
1625.07179,0.12165
1623.58200,0.10637
1622.09221,0.09620
1620.60243,0.09407
1619.11264,0.09651
1617.62285,0.09389
1616.13306,0.10359
1614.64327,0.08873
1613.15348,0.10195
1611.66370,0.08446
1610.17391,0.09666
1608.68412,0.10702
1607.19433,0.09442
1605.70454,0.09707
1604.21475,0.08733
1602.72496,0.07760
1601.23518,0.09182
1599.74539,0.09644
1598.25560,0.08185
1596.76581,0.09721
1595.27602,0.09656
1593.78623,0.08712
1592.29645,0.09079
1590.80666,0.07071
1589.31687,0.07390
1587.82708,0.07017
1586.33729,0.06058
1584.84750,0.08068
1583.35771,0.08717
1581.86793,0.07686
1580.37814,0.09008
1578.88835,0.08355
1577.39856,0.07812
1575.90877,0.05587
1574.41898,0.05797
1572.92920,0.04700
1571.43941,0.03605
1569.94962,0.03889
1568.45983,0.04175
1566.97004,0.05172
1565.48025,0.05236
1563.99047,0.05784
1562.50068,0.04837
1561.01089,0.03252
1559.52110,0.03165
1558.03131,0.03989
1556.54152,0.03614
1555.05173,0.03080
1553.56195,0.01587
1552.07216,0.00711
1550.58237,0.01628
1549.09258,0.01078
1547.60279,0.00129
1546.11300,0.00387
1544.62322,0.00274
1543.13343,0.01374
1541.64364,0.01168
1540.15385,0.00911
1538.66406,0.00656
1537.17427,0.01312
1535.68448,0.02265
1534.19470,0.02792
1532.70491,0.02387
1531.21512,0.00274
1529.72533,0.01328
1528.23554,0.01129
1526.74575,0.03739
1525.25597,0.02316
1523.76618,0.02418
1522.27639,0.03805
1520.78660,0.03084
1519.29681,0.03141
1517.80702,0.05123
1516.31724,0.04116
1514.82745,0.05301
1513.33766,0.04659
1511.84787,0.04020
1510.35808,0.06121
1508.86829,0.04912
1507.37850,0.03732
1505.88872,0.04879
1504.39893,0.05708
1502.90914,0.03947
1501.41935,0.07025
1499.92956,0.06713
1498.43977,0.06482
1496.94999,0.06736
1495.46020,0.09182
1493.97041,0.10055
1492.48062,0.09353
1490.99083,0.08307
1489.50104,0.11191
1488.01125,0.12060
1486.52147,0.12931
1485.03168,0.18040
1483.54189,0.20025
1482.05210,0.19127
1480.56231,0.20716
1479.07252,0.22655
1477.58274,0.24142
1476.09295,0.23094
1474.60316,0.25174
1473.11337,0.24691
1471.62358,0.25814
1470.13379,0.28115
1468.64401,0.28147
1467.15422,0.31201
1465.66443,0.31973
1464.17464,0.32747
1462.68485,0.37332
1461.19506,0.40769
1459.70527,0.45332
1458.21549,0.47145
1456.72570,0.55025
1455.23591,0.59488
1453.74612,0.64568
1452.25633,0.69891
1450.76654,0.73159
1449.27676,0.75708
1447.78697,0.73824
1446.29718,0.68976
1444.80739,0.68058
1443.31760,0.67143
1441.82781,0.62383
1440.33802,0.59015
1438.84824,0.53244
1437.35845,0.53622
1435.86866,0.49165
1434.37887,0.49841
1432.88908,0.56398
1431.39929,0.62877
1429.90951,0.70214
1428.41972,0.74133
1426.92993,0.78268
1425.44014,0.80428
1423.95035,0.83727
1422.46056,0.87027
1420.97078,0.92856
1419.48099,0.94812
1417.99120,0.92415
1416.50141,0.93575
1415.01162,0.89954
1413.52183,0.89916
1412.03204,0.84964
1410.54226,0.79186
1409.05247,0.75735
1407.56268,0.67424
1406.07289,0.62722
1404.58310,0.59773
1403.09331,0.56826
1401.60353,0.50742
1400.11374,0.45783
1398.62395,0.38475
1397.13416,0.31330
1395.64437,0.26565
1394.15458,0.23192
1392.66479,0.17630
1391.17501,0.18911
1389.68522,0.14423
1388.19543,0.11568
1386.70564,0.10091
1385.21585,0.08616
1383.72606,0.07745
1382.23628,0.04846
1380.74649,0.03419
1379.25670,0.01807
1377.76691,0.00892
1376.27712,0.01102
1374.78733,0.00540
1373.29755,0.00274
1371.80776,0.01962
1370.31797,0.01703
1368.82818,0.02742
1367.33839,0.03784
1365.84860,0.03532
1364.35881,0.04057
1362.86903,0.04184
1361.37924,0.06077
1359.88945,0.07278
1358.39966,0.07332
1356.90987,0.11824
1355.42008,0.16265
1353.93030,0.21243
1352.44051,0.24967
1350.95072,0.28694
1349.46093,0.38836
1347.97114,0.45801
1346.48135,0.49936
1344.99156,0.56933
1343.50178,0.62542
1342.01199,0.71868
1340.52220,0.77242
1339.03241,0.78290
1337.54262,0.83722
1336.05283,0.86658
1334.56305,0.89597
1333.07326,0.95117
1331.58347,0.96551
1330.09368,0.96865
1328.60389,0.94697
1327.11410,0.90981
1325.62432,0.92264
1324.13453,0.91119
1322.64474,0.87678
1321.15495,0.82021
1319.66516,0.78692
1318.17537,0.75365
1316.68558,0.66857
1315.19580,0.61023
1313.70601,0.56367
1312.21622,0.52222
1310.72643,0.49227
1309.23664,0.45835
1307.74685,0.41162
1306.25707,0.38523
1304.76728,0.36607
1303.27749,0.34694
1301.78770,0.29737
1300.29791,0.23741
1298.80812,0.21808
1297.31834,0.19584
1295.82855,0.16294
1294.33876,0.14101
1292.84897,0.11029
1291.35918,0.09029
1289.86939,0.08888
1288.37960,0.08749
1286.88982,0.08840
1285.40003,0.07784
1283.91024,0.08067
1282.42045,0.07497
1280.93066,0.04311
1279.44087,0.04842
1277.95109,0.04360
1276.46130,0.01715
1274.97151,0.01973
1273.48172,0.02233
1271.99193,0.02989
1270.50214,0.01744
1269.01235,0.02452
1267.52257,0.02361
1266.03278,0.01818
1264.54299,0.02613
1263.05320,0.01434
1261.56341,0.01513
1260.07362,0.01594
1258.58384,0.00529
1257.09405,0.00268
1255.60426,0.00276
1254.11447,0.01382
1252.62468,0.00274
1251.13489,0.00777
1249.64511,0.01470
1248.15532,0.00829
1246.66553,0.01246
1245.17574,0.01666
1243.68595,0.01754
1242.19616,0.01390
1240.70637,0.01964
1239.21659,0.00056
1237.72680,0.00326
1236.23701,0.01721
1234.74722,0.02209
1233.25743,0.01498
1231.76764,0.00789
1230.27786,0.01125
1228.78807,0.01116
1227.29828,0.01243
1225.80849,0.00250
1224.31870,0.00274
1222.82891,0.00339
1221.33912,0.01956
1219.84934,0.02186
1218.35955,0.02419
1216.86976,0.05246
1215.37997,0.05724
1213.89018,0.04815
1212.40039,0.05058
1210.91061,0.04154
1209.42082,0.05978
1207.93103,0.05653
1206.44124,0.05331
1204.95145,0.05719
1203.46166,0.04426
1201.97188,0.04739
1200.48209,0.04387
1198.99230,0.04143
1197.50251,0.03395
1196.01272,0.03557
1194.52293,0.02907
1193.03314,0.02259
1191.54336,0.02509
1190.05357,0.00971
1188.56378,0.01306
1187.07399,0.01109
1185.58420,0.00701
1184.09441,0.00829
1182.60463,0.01147
1181.11484,0.01468
1179.62505,0.01977
1178.13526,0.02677
1176.64547,0.01187
1175.15568,0.00288
1173.66589,0.00274
1172.17611,0.00698
1170.68632,0.00938
1169.19653,0.01180
1167.70674,0.02280
1166.21695,0.04344
1164.72716,0.03525
1163.23738,0.04284
1161.74759,0.04111
1160.25780,0.04047
1158.76801,0.05135
1157.27822,0.06225
1155.78843,0.06329
1154.29865,0.08840
1152.80886,0.12529
1151.31907,0.13015
1149.82928,0.11765
1148.33949,0.12870
1146.84970,0.13403
1145.35991,0.13938
1143.87013,0.14222
1142.38034,0.14187
1140.89055,0.16960
1139.40076,0.17706
1137.91097,0.17064
1136.42118,0.21020
1134.93140,0.20731
1133.44161,0.20444
1131.95182,0.23713
1130.46203,0.23618
1128.97224,0.21147
1127.48245,0.22766
1125.99266,0.22304
1124.50288,0.20669
1123.01309,0.20853
1121.52330,0.21040
1120.03351,0.24008
1118.54372,0.24226
1117.05393,0.23752
1115.56415,0.22960
1114.07436,0.24628
1112.58457,0.24095
1111.09478,0.23563
1109.60499,0.22647
1108.11520,0.23631
1106.62542,0.25979
1105.13563,0.24750
1103.64584,0.21572
1102.15605,0.21283
1100.66626,0.21263
1099.17647,0.21246
1097.68668,0.21551
1096.19690,0.21886
1094.70711,0.20540
1093.21732,0.19517
1091.72753,0.17081
1090.23774,0.17572
1088.74795,0.18066
1087.25817,0.16866
1085.76838,0.17806
1084.27859,0.17706
1082.78880,0.17742
1081.29901,0.19224
1079.80922,0.17288
1078.31943,0.18453
1076.82965,0.19621
1075.33986,0.20605
1073.85007,0.21965
1072.36028,0.21297
1070.87049,0.21727
1069.38070,0.25579
1067.89092,0.26481
1066.40113,0.27386
1064.91134,0.31753
1063.42155,0.39356
1061.93176,0.48591
1060.44197,0.57829
1058.95219,0.69046
1057.46240,0.75176
1055.97261,0.81308
1054.48282,0.96273
1052.99303,1.00660
1051.50324,1.01923
1050.01345,1.02334
1048.52367,1.02533
1047.03388,1.01866
1045.54409,1.01201
1044.05430,0.97453
1042.56451,0.90421
1041.07472,0.81922
1039.58494,0.77406
1038.09515,0.65972
1036.60536,0.60660
1035.11557,0.55350
1033.62578,0.48973
1032.13599,0.42332
1030.64620,0.37110
1029.15642,0.30313
1027.66663,0.28329
1026.17684,0.26346
1024.68705,0.22229
1023.19726,0.18702
1021.70747,0.14242
1020.21769,0.15610
1018.72790,0.13667
1017.23811,0.12581
1015.74832,0.11498
1014.25853,0.10470
1012.76874,0.10514
1011.27896,0.11228
1009.78917,0.10155
1008.29938,0.09297
1006.80959,0.07828
1005.31980,0.06361
1003.83001,0.00274
1002.34022,0.01074
1000.85044,0.02330
999.36065,0.02628
997.87086,0.03395
996.38107,0.04165
994.89128,0.07863
993.40149,0.07662
991.91171,0.08480
990.42192,0.10876
988.93213,0.10923
987.44234,0.11734
985.95255,0.12547
984.46276,0.12255
982.97297,0.11323
981.48319,0.09886
979.99340,0.07383
978.50361,0.06605
977.01382,0.05830
975.52403,0.03281
974.03424,0.03032
972.54446,0.01208
971.05467,0.03155
969.56488,0.03448
968.07509,0.02754
966.58530,0.02063
965.09551,0.02229
963.60573,0.01703
962.11594,0.00298
960.62615,0.01908
959.13636,0.01090
957.64657,0.00274
956.15678,0.01202
954.66699,0.01118
953.17721,0.01597
951.68742,0.01304
950.19763,0.02456
948.70784,0.03610
947.21805,0.06156
945.72826,0.08091
944.23848,0.08878
942.74869,0.10363
941.25890,0.12064
939.76911,0.13207
938.27932,0.14351
936.78953,0.17369
935.29974,0.17717
933.80996,0.20018
932.32017,0.21841
930.83038,0.22209
929.34059,0.22581
927.85080,0.26468
926.36101,0.28888
924.87123,0.32299
923.38144,0.35339
921.89165,0.39650
920.40186,0.43964
918.91207,0.54946
917.42228,0.65237
915.93250,0.79724
914.44271,1.00921
912.95292,1.12355
911.46313,1.23790
909.97334,1.43017
908.48355,1.55620
906.99376,1.77284
905.50398,1.88395
904.01419,1.93257
902.52440,1.98121
901.03461,1.98338
899.54482,2.00000
898.05503,1.88465
896.56525,1.63760
895.07546,1.50867
893.58567,1.37977
892.09588,1.12157
890.60609,0.88770
889.11630,0.65574
887.62651,0.47884
886.13673,0.41752
884.64694,0.35623
883.15715,0.25182
881.66736,0.18670
880.17757,0.13097
878.68778,0.10812
877.19800,0.08529
875.70821,0.06143
874.21842,0.03598
872.72863,0.03300
871.23884,0.01295
869.74905,0.01550
868.25927,0.01807
866.76948,0.00985
865.27969,0.01153
863.78990,0.02981
862.30011,0.04517
860.81032,0.04332
859.32053,0.04150
857.83075,0.06068
856.34096,0.08148
854.85117,0.08815
853.36138,0.08255
851.87159,0.09420
850.38180,0.10589
848.89202,0.13189
847.40223,0.14696
845.91244,0.16232
844.42265,0.16636
842.93286,0.17041
841.44307,0.20135
839.95329,0.20906
838.46350,0.20450
836.97371,0.21974
835.48392,0.22659
833.99413,0.23347
832.50434,0.24371
831.01455,0.23901
829.52477,0.21135
828.03498,0.19040
826.54519,0.17508
825.05540,0.15979
823.56561,0.15441
822.07582,0.13302
820.58604,0.12075
819.09625,0.10582
817.60646,0.09092
816.11667,0.10757
814.62688,0.09031
813.13709,0.10193
811.64730,0.11946
810.15752,0.10856
808.66773,0.09767
807.17794,0.12062
805.68815,0.10003
804.19836,0.11073
802.70857,0.12133
801.21879,0.13194
799.72900,0.12989
798.23921,0.12011
796.74942,0.12426
795.25963,0.11400
793.76984,0.10376
792.28006,0.11385
790.79027,0.12958
789.30048,0.13999
787.81069,0.17020
786.32090,0.18200
784.83111,0.19382
783.34132,0.21501
781.85154,0.26295
780.36175,0.28420
778.87196,0.30947
777.38217,0.33477
775.89238,0.36758
774.40259,0.36835
772.91281,0.33734
771.42302,0.33135
769.93323,0.32537
768.44344,0.27146
766.95365,0.23521
765.46386,0.18055
763.97407,0.16492
762.48429,0.15974
760.99450,0.15458
759.50471,0.12887
758.01492,0.10425
756.52513,0.09035
755.03534,0.09277
753.54556,0.09521
752.05577,0.07123
750.56598,0.06491
749.07619,0.04845
747.58640,0.03910
746.09661,0.02978
744.60683,0.03638
743.11704,0.01388
741.62725,0.01091
740.13746,0.00849
738.64767,0.00610
737.15788,0.00962
735.66809,0.00274
734.17831,0.00981
732.68852,0.01504
731.19873,0.02030
729.70894,0.01650
728.21915,0.01806
726.72936,0.00736
725.23958,0.00791
723.74979,0.01369
722.26000,0.01950
720.77021,0.01665
719.28042,0.00874
717.79063,0.00274
716.30084,0.01242
714.81106,0.02213
713.32127,0.02198
711.83148,0.03040
710.34169,0.01374
708.85190,0.02074
707.36211,0.02776
705.87233,0.02667
704.38254,0.02586
702.89275,0.05340
701.40296,0.05785
699.91317,0.06233
698.42338,0.06723
696.93360,0.08445
695.44381,0.08379
693.95402,0.09704
692.46423,0.11033
690.97444,0.12470
689.48465,0.14845
687.99486,0.17223
686.50508,0.18401
685.01529,0.19581
683.52550,0.21164
682.03571,0.23124
680.54592,0.24445
679.05613,0.24740
677.56635,0.25037
676.07656,0.25751
674.58677,0.23234
673.09698,0.24113
671.60719,0.21373
670.11740,0.18637
668.62761,0.15542
667.13783,0.14052
665.64804,0.12205
664.15825,0.10359
662.66846,0.07995
661.17867,0.08573
659.68888,0.05012
658.19910,0.05768
656.70931,0.06527
655.21952,0.04603
653.72973,0.06636
652.23994,0.05732
650.75015,0.06273
649.26037,0.06817
647.77058,0.05279
646.28079,0.05293
644.79100,0.05631
643.30121,0.04995
641.81142,0.04362
640.32163,0.02169
638.83185,0.01340
637.34206,0.00274
635.85227,0.00335
634.36248,0.00400
632.87269,0.00533
631.38290,0.00241
629.89312,0.01181
628.40333,0.01696
626.91354,0.02214
625.42375,0.02600
623.93396,0.02828
622.44417,0.02110
620.95438,0.01395
619.46460,0.02084
617.97481,0.03124
616.48502,0.05849
614.99523,0.06199
613.50544,0.06551
612.01565,0.10032
610.52587,0.12527
609.03608,0.16868
607.54629,0.19127
606.05650,0.21388
604.56671,0.27660
603.07692,0.32171
601.58714,0.33304
600.09735,0.34440
598.60756,0.38156
597.11777,0.44948
595.62798,0.41829
594.13819,0.41478
592.64840,0.41129
591.15862,0.37163
589.66883,0.33786
588.17904,0.28542
586.68925,0.25024
585.19946,0.21508
583.70967,0.15042
582.21989,0.11891
580.73010,0.10814
579.24031,0.09739
577.75052,0.08226
576.26073,0.06956
574.77094,0.06570
573.28115,0.05839
571.79137,0.05110
570.30158,0.07323
568.81179,0.09245
567.32200,0.08336
565.83221,0.07431
564.34242,0.09894
562.85264,0.12306
561.36285,0.12770
559.87306,0.14266
558.38327,0.15763
556.89348,0.15326
555.40369,0.17965
553.91391,0.19202
552.42412,0.20443
550.93433,0.19000
549.44454,0.18174
547.95475,0.20023
546.46496,0.20472
544.97517,0.20922
543.48539,0.21095
541.99560,0.25626
540.50581,0.27153
539.01602,0.28682
537.52623,0.35812
536.03644,0.41848
534.54666,0.46952
533.05687,0.49159
531.56708,0.51369
530.07729,0.55411
528.58750,0.58708
527.09771,0.59722
525.60792,0.60739
524.11814,0.66608
522.62835,0.73041
521.13856,0.76296
519.64877,0.77924
518.15898,0.79554
516.66919,0.85783
515.17941,0.83918
513.68962,0.85181
512.19983,0.86447
510.71004,0.84670
509.22025,0.79181
507.73046,0.70247
506.24068,0.65297
504.75089,0.60349
503.26110,0.50782
501.77131,0.43674
500.28152,0.38093
498.79173,0.32514
497.30194,0.23570
495.81216,0.18825
494.32237,0.17982
492.83258,0.17142
491.34279,0.11174
489.85300,0.09137
488.36321,0.07503
486.87343,0.06646
485.38364,0.05791
483.89385,0.05821
482.40406,0.07510
480.91427,0.09067
479.42448,0.10627
477.93469,0.14755
476.44491,0.14877
474.95512,0.17139
473.46533,0.19404
471.97554,0.20228
470.48575,0.21909
468.99596,0.18570
467.50618,0.17758
466.01639,0.16949
464.52660,0.13456
463.03681,0.10581
461.54702,0.09351
460.05723,0.08124
458.56745,0.06164
457.07766,0.05009
455.58787,0.03963
454.09808,0.02919
452.60829,0.03694
451.11850,0.02655
449.62871,0.02434
448.13893,0.02215
446.64914,0.02279
445.15935,0.02559
443.66956,0.00997
442.17977,0.01590
440.68998,0.02184
439.20020,0.03890
437.71041,0.03060
436.22062,0.03128
434.73083,0.03198
433.24104,0.05368
431.75125,0.04868
430.26146,0.05199
428.77168,0.05533
427.28189,0.06430
425.79210,0.07303
424.30231,0.06014
422.81252,0.04728
421.32273,0.04085
419.83295,0.02536
418.34316,0.01403
416.85337,0.00274
415.36358,0.01963
413.87379,0.03469
412.38400,0.05123
410.89422,0.06781
409.40443,0.05060
407.91464,0.05186
406.42485,0.03817
404.93506,0.03574
403.44527,0.03333
401.95548,0.03308
400.46570,0.04274
398.97591,0.04401
397.48612,0.04530
395.99633,0.03767
394.50654,0.04609
393.01675,0.03703
391.52697,0.02800
390.03718,0.02020
388.54739,0.01771
387.05760,0.02152
385.56781,0.02535
384.07802,0.00850
382.58824,0.02265
381.09845,0.01931
379.60866,0.01600
378.11887,0.01178
376.62908,0.01400
375.13929,0.00835
373.64950,0.00274
372.15972,0.04050
370.66993,0.03447
369.18014,0.02700
367.69035,0.01954
366.20056,0.04271
364.71077,0.04239
363.22099,0.03969
361.73120,0.03701
360.24141,0.05921
358.75162,0.06299
357.26183,0.05411
355.77204,0.04525
354.28225,0.04483
352.79247,0.04978
351.30268,0.03057
349.81289,0.01139
348.32310,0.03993
346.83331,0.07624
345.34352,0.07997
343.85374,0.08373
342.36395,0.02847
340.87416,0.04457
339.38437,0.03905
337.89458,0.03355
336.40479,0.04091
334.91501,0.03172
333.42522,0.01735
331.93543,0.00300
330.44564,0.01172
328.95585,0.01672
327.46606,0.02348
325.97627,0.03027
324.48649,0.04603
322.99670,0.06449
321.50691,0.05812
320.01712,0.05178
318.52733,0.08234
317.03754,0.07738
315.54776,0.06336
314.05797,0.04937
312.56818,0.07093
311.07839,0.04817
309.58860,0.04841
308.09881,0.04868
306.60902,0.05725
305.11924,0.03138
303.62945,0.02317
302.13966,0.00906
300.64987,0.00274
299.16008,0.00274
