1778.52000,0.01195
1777.03021,0.01545
1775.54042,0.01872
1774.05063,0.01207
1772.56085,0.01638
1771.07106,0.01425
1769.58127,0.02136
1768.09148,0.00758
1766.60169,0.01423
1765.11190,0.01419
1763.62212,0.01691
1762.13233,0.00597
1760.64254,0.01496
1759.15275,0.00605
1757.66296,0.00489
1756.17317,0.00325
1754.68339,0.00810
1753.19360,0.00676
1751.70381,0.00768
1750.21402,0.01261
1748.72423,0.00412
1747.23444,0.01595
1745.74465,0.00589
1744.25487,0.01179
1742.76508,0.01074
1741.27529,0.01072
1739.78550,0.00822
1738.29571,0.01994
1736.80592,0.01028
1735.31614,0.01309
1733.82635,0.01666
1732.33656,0.00732
1730.84677,0.00000
1729.35698,0.00315
1727.86719,0.01827
1726.37740,0.00231
1724.88762,0.00081
1723.39783,0.01525
1721.90804,0.00135
1720.41825,0.00241
1718.92846,0.01942
1717.43867,0.01082
1715.94889,0.00423
1714.45910,0.00489
1712.96931,0.02098
1711.47952,0.01022
1709.98973,0.00869
1708.49994,0.00495
1707.01016,0.00795
1705.52037,0.01097
1704.03058,0.00680
1702.54079,0.00589
1701.05100,0.01496
1699.56121,0.00489
1698.07142,0.01835
1696.58164,0.01617
1695.09185,0.01425
1693.60206,0.01062
1692.11227,0.01323
1690.62248,0.01612
1689.13269,0.02500
1687.64291,0.01449
1686.15312,0.01720
1684.66333,0.01844
1683.17354,0.01598
1681.68375,0.02921
1680.19396,0.03201
1678.70417,0.02564
1677.21439,0.03347
1675.72460,0.03958
1674.23481,0.03850
1672.74502,0.03993
1671.25523,0.04836
1669.76544,0.05482
1668.27566,0.05956
1666.78587,0.06656
1665.29608,0.06687
1663.80629,0.06571
1662.31650,0.06656
1660.82671,0.06047
1659.33693,0.07506
1657.84714,0.06653
1656.35735,0.05181
1654.86756,0.06995
1653.37777,0.06747
1651.88798,0.07023
1650.39819,0.07178
1648.90841,0.08007
1647.41862,0.07444
1645.92883,0.07569
1644.43904,0.07696
1642.94925,0.08310
1641.45946,0.07434
1639.96968,0.07431
1638.47989,0.07008
1636.99010,0.08304
1635.50031,0.07835
1634.01052,0.08365
1632.52073,0.06881
1631.03094,0.06917
1629.54116,0.07504
1628.05137,0.08989
1626.56158,0.10152
1625.07179,0.08705
1623.58200,0.08679
1622.09221,0.08854
1620.60243,0.08534
1619.11264,0.09362
1617.62285,0.08922
1616.13306,0.08759
1614.64327,0.08473
1613.15348,0.08539
1611.66370,0.09030
1610.17391,0.08329
1608.68412,0.07879
1607.19433,0.08800
1605.70454,0.09400
1604.21475,0.09567
1602.72496,0.09736
1601.23518,0.09174
1599.74539,0.07569
1598.25560,0.07857
1596.76581,0.08223
1595.27602,0.07844
1593.78623,0.07767
1592.29645,0.07418
1590.80666,0.07470
1589.31687,0.07698
1587.82708,0.08502
1586.33729,0.07117
1584.84750,0.08249
1583.35771,0.07118
1581.86793,0.06512
1580.37814,0.07576
1578.88835,0.07996
1577.39856,0.05979
1575.90877,0.05880
1574.41898,0.04615
1572.92920,0.05019
1571.43941,0.04729
1569.94962,0.04541
1568.45983,0.04355
1566.97004,0.04495
1565.48025,0.03766
1563.99047,0.02941
1562.50068,0.02267
1561.01089,0.02491
1559.52110,0.01648
1558.03131,0.01927
1556.54152,0.02606
1555.05173,0.02293
1553.56195,0.01509
1552.07216,0.02694
1550.58237,0.00148
1549.09258,0.00914
1547.60279,0.00812
1546.11300,0.01334
1544.62322,0.00241
1543.13343,0.01494
1541.64364,0.00385
1540.15385,0.00436
1538.66406,0.00489
1537.17427,0.01306
1535.68448,0.02251
1534.19470,0.01804
1532.70491,0.00489
1531.21512,0.00609
1529.72533,0.01403
1528.23554,0.01055
1526.74575,0.01107
1525.25597,0.01809
1523.76618,0.01792
1522.27639,0.02275
1520.78660,0.02884
1519.29681,0.02874
1517.80702,0.04708
1516.31724,0.05126
1514.82745,0.03505
1513.33766,0.03579
1511.84787,0.03656
1510.35808,0.03760
1508.86829,0.02796
1507.37850,0.04199
1505.88872,0.04285
1504.39893,0.04697
1502.90914,0.03693
1501.41935,0.05230
1499.92956,0.06471
1498.43977,0.05275
1496.94999,0.08038
1495.46020,0.08539
1493.97041,0.08645
1492.48062,0.08778
1490.99083,0.09485
1489.50104,0.11141
1488.01125,0.12052
1486.52147,0.12966
1485.03168,0.14380
1483.54189,0.15100
1482.05210,0.15274
1480.56231,0.17841
1479.07252,0.20533
1477.58274,0.19222
1476.09295,0.19804
1474.60316,0.20912
1473.11337,0.20429
1471.62358,0.22611
1470.13379,0.23551
1468.64401,0.26535
1467.15422,0.26584
1465.66443,0.27656
1464.17464,0.28731
1462.68485,0.31699
1461.19506,0.34744
1459.70527,0.38962
1458.21549,0.42559
1456.72570,0.49220
1455.23591,0.54142
1453.74612,0.59165
1452.25633,0.64340
1450.76654,0.68075
1449.27676,0.66759
1447.78697,0.65048
1446.29718,0.62543
1444.80739,0.60923
1443.31760,0.59306
1441.82781,0.56136
1440.33802,0.52845
1438.84824,0.49082
1437.35845,0.44949
1435.86866,0.46741
1434.37887,0.47889
1432.88908,0.53319
1431.39929,0.57358
1429.90951,0.63888
1428.41972,0.68978
1426.92993,0.72178
1425.44014,0.73464
1423.95035,0.76072
1422.46056,0.78682
1420.97078,0.82913
1419.48099,0.87967
1417.99120,0.86552
1416.50141,0.85215
1415.01162,0.79252
1413.52183,0.75953
1412.03204,0.73230
1410.54226,0.70185
1409.05247,0.64455
1407.56268,0.62386
1406.07289,0.56063
1404.58310,0.51286
1403.09331,0.46512
1401.60353,0.43009
1400.11374,0.39334
1398.62395,0.33745
1397.13416,0.27760
1395.64437,0.24192
1394.15458,0.20751
1392.66479,0.17238
1391.17501,0.16091
1389.68522,0.12408
1388.19543,0.09474
1386.70564,0.08135
1385.21585,0.06799
1383.72606,0.04694
1382.23628,0.03810
1380.74649,0.02531
1379.25670,0.01876
1377.76691,0.00925
1376.27712,0.00176
1374.78733,0.00309
1373.29755,0.00445
1371.80776,0.01877
1370.31797,0.02192
1368.82818,0.01664
1367.33839,0.01137
1365.84860,0.00489
1364.35881,0.02903
1362.86903,0.04673
1361.37924,0.04852
1359.88945,0.05904
1358.39966,0.08353
1356.90987,0.12646
1355.42008,0.14328
1353.93030,0.18451
1352.44051,0.21594
1350.95072,0.24739
1349.46093,0.32180
1347.97114,0.42385
1346.48135,0.49656
1344.99156,0.55511
1343.50178,0.61344
1342.01199,0.63421
1340.52220,0.67093
1339.03241,0.75172
1337.54262,0.78725
1336.05283,0.80077
1334.56305,0.81432
1333.07326,0.86859
1331.58347,0.90794
1330.09368,0.90103
1328.60389,0.84164
1327.11410,0.82457
1325.62432,0.81549
1324.13453,0.82834
1322.64474,0.79442
1321.15495,0.71449
1319.66516,0.69630
1318.17537,0.67814
1316.68558,0.61520
1315.19580,0.57095
1313.70601,0.52324
1312.21622,0.50443
1310.72643,0.46150
1309.23664,0.43925
1307.74685,0.38740
1306.25707,0.35002
1304.76728,0.32946
1303.27749,0.30892
1301.78770,0.26215
1300.29791,0.23781
1298.80812,0.23066
1297.31834,0.18570
1295.82855,0.14699
1294.33876,0.11951
1292.84897,0.10001
1291.35918,0.07232
1289.86939,0.08423
1288.37960,0.09616
1286.88982,0.09592
1285.40003,0.07754
1283.91024,0.08009
1282.42045,0.05728
1280.93066,0.03598
1279.44087,0.04980
1277.95109,0.03851
1276.46130,0.03869
1274.97151,0.04623
1273.48172,0.05380
1271.99193,0.04559
1270.50214,0.02695
1269.01235,0.02775
1267.52257,0.03056
1266.03278,0.03937
1264.54299,0.03999
1263.05320,0.02122
1261.56341,0.02587
1260.07362,0.03055
1258.58384,0.00638
1257.09405,0.01931
1255.60426,0.01435
1254.11447,0.01638
1252.62468,0.02192
1251.13489,0.02599
1249.64511,0.02735
1248.15532,0.01156
1246.66553,0.01484
1245.17574,0.01813
1243.68595,0.01511
1242.19616,0.00489
1240.70637,0.01054
1239.21659,0.02319
1237.72680,0.02442
1236.23701,0.02119
1234.74722,0.00753
1233.25743,0.01878
1231.76764,0.03006
1230.27786,0.02668
1228.78807,0.03253
1227.29828,0.03243
1225.80849,0.02066
1224.31870,0.00667
1222.82891,0.01496
1221.33912,0.02228
1219.84934,0.02738
1218.35955,0.03250
1216.86976,0.03591
1215.37997,0.05179
1213.89018,0.05027
1212.40039,0.05947
1210.91061,0.06347
1209.42082,0.07770
1207.93103,0.07665
1206.44124,0.07562
1204.95145,0.07375
1203.46166,0.06244
1201.97188,0.05912
1200.48209,0.05284
1198.99230,0.03588
1197.50251,0.04209
1196.01272,0.04360
1194.52293,0.03990
1193.03314,0.03623
1191.54336,0.03955
1190.05357,0.01801
1188.56378,0.01466
1187.07399,0.02726
1185.58420,0.02719
1184.09441,0.02490
1182.60463,0.02289
1181.11484,0.02091
1179.62505,0.01894
1178.13526,0.02298
1176.64547,0.00489
1175.15568,0.01723
1173.66589,0.00943
1172.17611,0.01311
1170.68632,0.01420
1169.19653,0.01532
1167.70674,0.02330
1166.21695,0.03304
1164.72716,0.03410
1163.23738,0.01852
1161.74759,0.05596
1160.25780,0.07899
1158.76801,0.08550
1157.27822,0.09203
1155.78843,0.08602
1154.29865,0.08576
1152.80886,0.09846
1151.31907,0.10646
1149.82928,0.09258
1148.33949,0.12327
1146.84970,0.12201
1145.35991,0.12077
1143.87013,0.15079
1142.38034,0.14997
1140.89055,0.14544
1139.40076,0.15562
1137.91097,0.18549
1136.42118,0.19124
1134.93140,0.20112
1133.44161,0.21102
1131.95182,0.24049
1130.46203,0.23887
1128.97224,0.22732
1127.48245,0.23371
1125.99266,0.22320
1124.50288,0.24681
1123.01309,0.25066
1121.52330,0.25454
1120.03351,0.25657
1118.54372,0.22105
1117.05393,0.25200
1115.56415,0.22324
1114.07436,0.24329
1112.58457,0.23387
1111.09478,0.22448
1109.60499,0.24385
1108.11520,0.24682
1106.62542,0.22916
1105.13563,0.24015
1103.64584,0.20785
1102.15605,0.21241
1100.66626,0.20754
1099.17647,0.20269
1097.68668,0.20310
1096.19690,0.18361
1094.70711,0.18257
1093.21732,0.19673
1091.72753,0.17658
1090.23774,0.17374
1088.74795,0.17093
1087.25817,0.16105
1085.76838,0.15119
1084.27859,0.16301
1082.78880,0.18332
1081.29901,0.18747
1079.80922,0.18343
1078.31943,0.19112
1076.82965,0.19882
1075.33986,0.21651
1073.85007,0.19988
1072.36028,0.21985
1070.87049,0.23189
1069.38070,0.25142
1067.89092,0.25305
1066.40113,0.25470
1064.91134,0.31810
1063.42155,0.39247
1061.93176,0.48404
1060.44197,0.56817
1058.95219,0.66651
1057.46240,0.70228
1055.97261,0.73807
1054.48282,0.80637
1052.99303,0.85378
1051.50324,0.88206
1050.01345,0.88721
1048.52367,0.88393
1047.03388,0.88938
1045.54409,0.89486
1044.05430,0.88269
1042.56451,0.82426
1041.07472,0.75465
1039.58494,0.67611
1038.09515,0.60232
1036.60536,0.56028
1035.11557,0.51827
1033.62578,0.46894
1032.13599,0.39499
1030.64620,0.37383
1029.15642,0.27829
1027.66663,0.25892
1026.17684,0.23957
1024.68705,0.23493
1023.19726,0.19249
1021.70747,0.15829
1020.21769,0.14153
1018.72790,0.14893
1017.23811,0.14006
1015.74832,0.13121
1014.25853,0.10807
1012.76874,0.09342
1011.27896,0.09796
1009.78917,0.09282
1008.29938,0.05609
1006.80959,0.05697
1005.31980,0.05787
1003.83001,0.02843
1002.34022,0.03038
1000.85044,0.03384
999.36065,0.04081
997.87086,0.04146
996.38107,0.04213
994.89128,0.06037
993.40149,0.07117
991.91171,0.08822
990.42192,0.10081
988.93213,0.08928
987.44234,0.09893
985.95255,0.10861
984.46276,0.10039
982.97297,0.08697
981.48319,0.09423
979.99340,0.06418
978.50361,0.06241
977.01382,0.06065
975.52403,0.03441
974.03424,0.02810
972.54446,0.01261
971.05467,0.01904
969.56488,0.01704
968.07509,0.01879
966.58530,0.02057
965.09551,0.01017
963.60573,0.02320
962.11594,0.00489
960.62615,0.01435
959.13636,0.01363
957.64657,0.01293
956.15678,0.03292
954.66699,0.02082
953.17721,0.02766
951.68742,0.04150
950.19763,0.04354
948.70784,0.04560
947.21805,0.06473
945.72826,0.09185
944.23848,0.09386
942.74869,0.10983
941.25890,0.13230
939.76911,0.13338
938.27932,0.13449
936.78953,0.17296
935.29974,0.16068
933.80996,0.18824
932.32017,0.20961
930.83038,0.22627
929.34059,0.24295
927.85080,0.24124
926.36101,0.25499
924.87123,0.29141
923.38144,0.32710
921.89165,0.36382
920.40186,0.40056
918.91207,0.46569
917.42228,0.57714
915.93250,0.71847
914.44271,0.87576
912.95292,0.99163
911.46313,1.10753
909.97334,1.27410
908.48355,1.49967
906.99376,1.73024
905.50398,1.85880
904.01419,1.89792
902.52440,1.93707
901.03461,2.00000
899.54482,1.97959
898.05503,1.82506
896.56525,1.59888
895.07546,1.48360
893.58567,1.36834
892.09588,1.13228
890.60609,0.89973
889.11630,0.70080
887.62651,0.49642
886.13673,0.43131
884.64694,0.36622
883.15715,0.26494
881.66736,0.18708
880.17757,0.14209
878.68778,0.11791
877.19800,0.09375
875.70821,0.06278
874.21842,0.03879
872.72863,0.02329
871.23884,0.02350
869.74905,0.02447
868.25927,0.02547
866.76948,0.02126
865.27969,0.01410
863.78990,0.03782
862.30011,0.04140
860.81032,0.04638
859.32053,0.05138
857.83075,0.05578
856.34096,0.08260
854.85117,0.08680
853.36138,0.11268
851.87159,0.11569
850.38180,0.11872
848.89202,0.12700
847.40223,0.15247
845.91244,0.15756
844.42265,0.16131
842.93286,0.16509
841.44307,0.18842
839.95329,0.19933
838.46350,0.20703
836.97371,0.20903
835.48392,0.20235
833.99413,0.19569
832.50434,0.19727
831.01455,0.19240
829.52477,0.18780
828.03498,0.16058
826.54519,0.16113
825.05540,0.16171
823.56561,0.14551
822.07582,0.13357
820.58604,0.12464
819.09625,0.11461
817.60646,0.10461
816.11667,0.09649
814.62688,0.08517
813.13709,0.10224
811.64730,0.11859
810.15752,0.11866
808.66773,0.11875
807.17794,0.10108
805.68815,0.11728
804.19836,0.13250
802.70857,0.13443
801.21879,0.13639
799.72900,0.12655
798.23921,0.11375
796.74942,0.08256
795.25963,0.08934
793.76984,0.09615
792.28006,0.11480
790.79027,0.13149
789.30048,0.16686
787.81069,0.19131
786.32090,0.20321
784.83111,0.21514
783.34132,0.22523
781.85154,0.24056
780.36175,0.27957
778.87196,0.29358
777.38217,0.30762
775.89238,0.33650
774.40259,0.33826
772.91281,0.35325
771.42302,0.33441
769.93323,0.31560
768.44344,0.28362
766.95365,0.24793
765.46386,0.19509
763.97407,0.15920
762.48429,0.16079
760.99450,0.16240
759.50471,0.13430
758.01492,0.10498
756.52513,0.09509
755.03534,0.09282
753.54556,0.09057
752.05577,0.06333
750.56598,0.06997
749.07619,0.04477
747.58640,0.04225
746.09661,0.03974
744.60683,0.01562
743.11704,0.01864
741.62725,0.01770
740.13746,0.02276
738.64767,0.02785
737.15788,0.01230
735.66809,0.01196
734.17831,0.00890
732.68852,0.01558
731.19873,0.02228
729.70894,0.00760
728.21915,0.00489
726.72936,0.00996
725.23958,0.02427
723.74979,0.02380
722.26000,0.02335
720.77021,0.01210
719.28042,0.01007
717.79063,0.01007
716.30084,0.00611
714.81106,0.00217
713.32127,0.01387
711.83148,0.02733
710.34169,0.02017
708.85190,0.02398
707.36211,0.02781
705.87233,0.02470
704.38254,0.01290
702.89275,0.03771
701.40296,0.04437
699.91317,0.05106
698.42338,0.06724
696.93360,0.07124
695.44381,0.09044
693.95402,0.10445
692.46423,0.11848
690.97444,0.12581
689.48465,0.15283
687.99486,0.16245
686.50508,0.17794
685.01529,0.19346
683.52550,0.20240
682.03571,0.22232
680.54592,0.24700
679.05613,0.24519
677.56635,0.24341
676.07656,0.24700
674.58677,0.21328
673.09698,0.19005
671.60719,0.17380
670.11740,0.15758
668.62761,0.14462
667.13783,0.15532
665.64804,0.14154
664.15825,0.12778
662.66846,0.10471
661.17867,0.06349
659.68888,0.06237
658.19910,0.05580
656.70931,0.04926
655.21952,0.05318
653.72973,0.03922
652.23994,0.04220
650.75015,0.03426
649.26037,0.02634
647.77058,0.03860
646.28079,0.05362
644.79100,0.04030
643.30121,0.03359
641.81142,0.02691
640.32163,0.02237
638.83185,0.01114
637.34206,0.02855
635.85227,0.02856
634.36248,0.02859
632.87269,0.02094
631.38290,0.00708
629.89312,0.02661
628.40333,0.02537
626.91354,0.02416
625.42375,0.00941
623.93396,0.00489
622.44417,0.01127
620.95438,0.01768
619.46460,0.02722
617.97481,0.03305
616.48502,0.05459
614.99523,0.06806
613.50544,0.08155
612.01565,0.11959
610.52587,0.14669
609.03608,0.15814
607.54629,0.18045
606.05650,0.20277
604.56671,0.27303
603.07692,0.32539
601.58714,0.33721
600.09735,0.34906
598.60756,0.38358
597.11777,0.38775
595.62798,0.40515
594.13819,0.39942
592.64840,0.39372
591.15862,0.35270
589.66883,0.29627
588.17904,0.25605
586.68925,0.21809
585.19946,0.18015
583.70967,0.13254
582.21989,0.12377
580.73010,0.11129
579.24031,0.09883
577.75052,0.06948
576.26073,0.05732
574.77094,0.05315
573.28115,0.03295
571.79137,0.01278
570.30158,0.03979
568.81179,0.04293
567.32200,0.05046
565.83221,0.05800
564.34242,0.10751
562.85264,0.11000
561.36285,0.11799
559.87306,0.13721
558.38327,0.15645
556.89348,0.14908
555.40369,0.14971
553.91391,0.16329
552.42412,0.17691
550.93433,0.15495
549.44454,0.16513
547.95475,0.16388
546.46496,0.16975
544.97517,0.17564
543.48539,0.18865
541.99560,0.22881
540.50581,0.25170
539.01602,0.27462
537.52623,0.32381
536.03644,0.36232
534.54666,0.38692
533.05687,0.40956
531.56708,0.43222
530.07729,0.49945
528.58750,0.48632
527.09771,0.50992
525.60792,0.53355
524.11814,0.61456
522.62835,0.66076
521.13856,0.74058
519.64877,0.77488
518.15898,0.80921
516.66919,0.82613
515.17941,0.85802
513.68962,0.84650
512.19983,0.83500
510.71004,0.77811
509.22025,0.74140
507.73046,0.64972
506.24068,0.59651
504.75089,0.54333
503.26110,0.44326
501.77131,0.35565
500.28152,0.31635
498.79173,0.27708
497.30194,0.20373
495.81216,0.18615
494.32237,0.16636
492.83258,0.14659
491.34279,0.09126
489.85300,0.07055
488.36321,0.05906
486.87343,0.06565
485.38364,0.07226
483.89385,0.06632
482.40406,0.09575
480.91427,0.10691
479.42448,0.11809
477.93469,0.13241
476.44491,0.12983
474.95512,0.14046
473.46533,0.15112
471.97554,0.16180
470.48575,0.16006
468.99596,0.15537
467.50618,0.15355
466.01639,0.15176
464.52660,0.14738
463.03681,0.12163
461.54702,0.09440
460.05723,0.06720
458.56745,0.03480
457.07766,0.01909
455.58787,0.01436
454.09808,0.00965
452.60829,0.04155
451.11850,0.02694
449.62871,0.03375
448.13893,0.04059
446.64914,0.00962
445.15935,0.01227
443.66956,0.03785
442.17977,0.03507
440.68998,0.03233
439.20020,0.02388
437.71041,0.03486
436.22062,0.03542
434.73083,0.03601
433.24104,0.04632
431.75125,0.03426
430.26146,0.03628
428.77168,0.03833
427.28189,0.05421
425.79210,0.05295
424.30231,0.06204
422.81252,0.07115
421.32273,0.08191
419.83295,0.04640
418.34316,0.04127
416.85337,0.03617
415.36358,0.01965
413.87379,0.00489
412.38400,0.02631
410.89422,0.04776
409.40443,0.03738
407.91464,0.04718
406.42485,0.05203
404.93506,0.04944
403.44527,0.04686
401.95548,0.05900
400.46570,0.04080
398.97591,0.03606
397.48612,0.03135
395.99633,0.01870
394.50654,0.01975
393.01675,0.02084
391.52697,0.02066
390.03718,0.03594
388.54739,0.03904
387.05760,0.03844
385.56781,0.03786
384.07802,0.02262
382.58824,0.00666
381.09845,0.00576
379.60866,0.00489
378.11887,0.01140
376.62908,0.01297
375.13929,0.01207
373.64950,0.01119
372.15972,0.02253
370.66993,0.02742
369.18014,0.02891
367.69035,0.03041
366.20056,0.05123
364.71077,0.04071
363.22099,0.02960
361.73120,0.01851
360.24141,0.04092
358.75162,0.05862
357.26183,0.05059
355.77204,0.04258
354.28225,0.03223
352.79247,0.02241
351.30268,0.03899
349.81289,0.05559
348.32310,0.08391
346.83331,0.09733
345.34352,0.07132
343.85374,0.04534
342.36395,0.03145
340.87416,0.01858
339.38437,0.01172
337.89458,0.00489
336.40479,0.04023
334.91501,0.02458
333.42522,0.02338
331.93543,0.02221
330.44564,0.01833
328.95585,0.01994
327.46606,0.02843
325.97627,0.03694
324.48649,0.04634
322.99670,0.03660
321.50691,0.04157
320.01712,0.04657
318.52733,0.05159
317.03754,0.04743
315.54776,0.04316
314.05797,0.03892
312.56818,0.03408
311.07839,0.04121
309.58860,0.02659
308.09881,0.01200
306.60902,0.00924
305.11924,0.04136
303.62945,0.02845
302.13966,0.01557
300.64987,0.00489
299.16008,0.00489
