1778.52000,0.00669
1777.03021,0.00817
1775.54042,0.00988
1774.05063,0.00512
1772.56085,0.00687
1771.07106,0.00727
1769.58127,0.00730
1768.09148,0.00874
1766.60169,0.00134
1765.11190,0.01167
1763.62212,0.00236
1762.13233,0.01293
1760.64254,0.00642
1759.15275,0.00819
1757.66296,0.00370
1756.17317,0.00827
1754.68339,0.00795
1753.19360,0.00726
1751.70381,0.00345
1750.21402,0.00910
1748.72423,0.00357
1747.23444,0.01516
1745.74465,0.01066
1744.25487,0.01208
1742.76508,0.00370
1741.27529,0.00812
1739.78550,0.01118
1738.29571,0.01172
1736.80592,0.00952
1735.31614,0.00932
1733.82635,0.00127
1732.33656,0.00426
1730.84677,0.00904
1729.35698,0.00264
1727.86719,0.00000
1726.37740,0.00485
1724.88762,0.00816
1723.39783,0.00185
1721.90804,0.00638
1720.41825,0.00150
1718.92846,0.00595
1717.43867,0.01336
1715.94889,0.00370
1714.45910,0.00524
1712.96931,0.00523
1711.47952,0.00057
1709.98973,0.01060
1708.49994,0.00965
1707.01016,0.00824
1705.52037,0.00684
1704.03058,0.01402
1702.54079,0.00393
1701.05100,0.00683
1699.56121,0.00721
1698.07142,0.01566
1696.58164,0.01530
1695.09185,0.01574
1693.60206,0.01798
1692.11227,0.00943
1690.62248,0.01191
1689.13269,0.01893
1687.64291,0.02009
1686.15312,0.02087
1684.66333,0.02836
1683.17354,0.01996
1681.68375,0.02966
1680.19396,0.03368
1678.70417,0.03144
1677.21439,0.03964
1675.72460,0.05180
1674.23481,0.04786
1672.74502,0.04571
1671.25523,0.04909
1669.76544,0.05800
1668.27566,0.06556
1666.78587,0.06705
1665.29608,0.07249
1663.80629,0.07835
1662.31650,0.08188
1660.82671,0.07854
1659.33693,0.08349
1657.84714,0.07490
1656.35735,0.08324
1654.86756,0.06900
1653.37777,0.08249
1651.88798,0.08029
1650.39819,0.08656
1648.90841,0.08440
1647.41862,0.08364
1645.92883,0.08006
1644.43904,0.07650
1642.94925,0.07483
1641.45946,0.07810
1639.96968,0.06979
1638.47989,0.08432
1636.99010,0.09552
1635.50031,0.08532
1634.01052,0.09402
1632.52073,0.08210
1631.03094,0.07944
1629.54116,0.08310
1628.05137,0.07990
1626.56158,0.09402
1625.07179,0.10758
1623.58200,0.09580
1622.09221,0.08818
1620.60243,0.09001
1619.11264,0.08892
1617.62285,0.08628
1616.13306,0.08563
1614.64327,0.08461
1613.15348,0.08185
1611.66370,0.09444
1610.17391,0.08170
1608.68412,0.08097
1607.19433,0.07594
1605.70454,0.08883
1604.21475,0.08808
1602.72496,0.08735
1601.23518,0.09087
1599.74539,0.08557
1598.25560,0.08678
1596.76581,0.08644
1595.27602,0.08258
1593.78623,0.09271
1592.29645,0.08871
1590.80666,0.07962
1589.31687,0.08156
1587.82708,0.08215
1586.33729,0.08748
1584.84750,0.09598
1583.35771,0.08171
1581.86793,0.08455
1580.37814,0.08507
1578.88835,0.07636
1577.39856,0.07830
1575.90877,0.06827
1574.41898,0.06200
1572.92920,0.05949
1571.43941,0.04638
1569.94962,0.04775
1568.45983,0.04914
1566.97004,0.04574
1565.48025,0.05357
1563.99047,0.04747
1562.50068,0.04178
1561.01089,0.04260
1559.52110,0.03107
1558.03131,0.03312
1556.54152,0.02477
1555.05173,0.03631
1553.56195,0.03607
1552.07216,0.02504
1550.58237,0.02918
1549.09258,0.01879
1547.60279,0.01924
1546.11300,0.02522
1544.62322,0.00370
1543.13343,0.01111
1541.64364,0.02091
1540.15385,0.01824
1538.66406,0.01560
1537.17427,0.01545
1535.68448,0.01295
1534.19470,0.02031
1532.70491,0.01315
1531.21512,0.00522
1529.72533,0.01403
1528.23554,0.01814
1526.74575,0.00871
1525.25597,0.01445
1523.76618,0.02866
1522.27639,0.01458
1520.78660,0.03238
1519.29681,0.03605
1517.80702,0.04347
1516.31724,0.04227
1514.82745,0.03697
1513.33766,0.03827
1511.84787,0.03960
1510.35808,0.04911
1508.86829,0.03801
1507.37850,0.04226
1505.88872,0.05145
1504.39893,0.05535
1502.90914,0.04925
1501.41935,0.06500
1499.92956,0.06269
1498.43977,0.05352
1496.94999,0.06718
1495.46020,0.07987
1493.97041,0.07687
1492.48062,0.08195
1490.99083,0.10828
1489.50104,0.11911
1488.01125,0.12878
1486.52147,0.13848
1485.03168,0.14918
1483.54189,0.17898
1482.05210,0.18560
1480.56231,0.19362
1479.07252,0.19459
1477.58274,0.21112
1476.09295,0.20466
1474.60316,0.22674
1473.11337,0.22702
1471.62358,0.24305
1470.13379,0.26500
1468.64401,0.28088
1467.15422,0.29324
1465.66443,0.31094
1464.17464,0.32866
1462.68485,0.34503
1461.19506,0.37204
1459.70527,0.41342
1458.21549,0.45562
1456.72570,0.53125
1455.23591,0.58843
1453.74612,0.62795
1452.25633,0.69894
1450.76654,0.72100
1449.27676,0.69768
1447.78697,0.71330
1446.29718,0.68236
1444.80739,0.65016
1443.31760,0.61799
1441.82781,0.57257
1440.33802,0.54664
1438.84824,0.52663
1437.35845,0.50055
1435.86866,0.49415
1434.37887,0.52022
1432.88908,0.57205
1431.39929,0.62215
1429.90951,0.68897
1428.41972,0.75091
1426.92993,0.76038
1425.44014,0.81214
1423.95035,0.82609
1422.46056,0.84005
1420.97078,0.88284
1419.48099,0.92802
1417.99120,0.92898
1416.50141,0.87158
1415.01162,0.81952
1413.52183,0.78242
1412.03204,0.73217
1410.54226,0.72402
1409.05247,0.66792
1407.56268,0.62502
1406.07289,0.56110
1404.58310,0.52562
1403.09331,0.49016
1401.60353,0.44814
1400.11374,0.37842
1398.62395,0.33783
1397.13416,0.29902
1395.64437,0.24746
1394.15458,0.21677
1392.66479,0.17725
1391.17501,0.15781
1389.68522,0.12758
1388.19543,0.10366
1386.70564,0.09530
1385.21585,0.08696
1383.72606,0.05584
1382.23628,0.04008
1380.74649,0.04636
1379.25670,0.01688
1377.76691,0.02380
1376.27712,0.01325
1374.78733,0.00370
1373.29755,0.00950
1371.80776,0.01886
1370.31797,0.01704
1368.82818,0.02115
1367.33839,0.02527
1365.84860,0.02667
1364.35881,0.04166
1362.86903,0.05195
1361.37924,0.06188
1359.88945,0.10190
1358.39966,0.10342
1356.90987,0.14329
1355.42008,0.17513
1353.93030,0.24867
1352.44051,0.28105
1350.95072,0.31346
1349.46093,0.39454
1347.97114,0.45028
1346.48135,0.53810
1344.99156,0.58878
1343.50178,0.64440
1342.01199,0.70575
1340.52220,0.75139
1339.03241,0.80394
1337.54262,0.83626
1336.05283,0.86281
1334.56305,0.88938
1333.07326,0.91627
1331.58347,0.93453
1330.09368,0.90014
1328.60389,0.86616
1327.11410,0.84478
1325.62432,0.80554
1324.13453,0.82078
1322.64474,0.78198
1321.15495,0.73338
1319.66516,0.71144
1318.17537,0.68952
1316.68558,0.63627
1315.19580,0.57911
1313.70601,0.55343
1312.21622,0.50693
1310.72643,0.48268
1309.23664,0.46493
1307.74685,0.42932
1306.25707,0.35933
1304.76728,0.34411
1303.27749,0.32892
1301.78770,0.28298
1300.29791,0.26027
1298.80812,0.23562
1297.31834,0.17815
1295.82855,0.15551
1294.33876,0.11953
1292.84897,0.11168
1291.35918,0.09205
1289.86939,0.09290
1288.37960,0.09377
1286.88982,0.08602
1285.40003,0.08595
1283.91024,0.06645
1282.42045,0.05424
1280.93066,0.04088
1279.44087,0.04504
1277.95109,0.03783
1276.46130,0.04144
1274.97151,0.04872
1273.48172,0.05602
1271.99193,0.04438
1270.50214,0.02863
1269.01235,0.02332
1267.52257,0.01961
1266.03278,0.01927
1264.54299,0.02308
1263.05320,0.01689
1261.56341,0.01337
1260.07362,0.00988
1258.58384,0.00572
1257.09405,0.01850
1255.60426,0.02107
1254.11447,0.01030
1252.62468,0.01863
1251.13489,0.01734
1249.64511,0.00370
1248.15532,0.02186
1246.66553,0.01901
1245.17574,0.01618
1243.68595,0.01594
1242.19616,0.01060
1240.70637,0.01532
1239.21659,0.01141
1237.72680,0.01794
1236.23701,0.01486
1234.74722,0.00552
1233.25743,0.00505
1231.76764,0.00460
1230.27786,0.02167
1228.78807,0.01931
1227.29828,0.01814
1225.80849,0.01189
1224.31870,0.00370
1222.82891,0.00854
1221.33912,0.01242
1219.84934,0.02055
1218.35955,0.02870
1216.86976,0.04720
1215.37997,0.05295
1213.89018,0.05911
1212.40039,0.06333
1210.91061,0.04851
1209.42082,0.06614
1207.93103,0.07171
1206.44124,0.07730
1204.95145,0.06611
1203.46166,0.06458
1201.97188,0.06720
1200.48209,0.04546
1198.99230,0.04656
1197.50251,0.02841
1196.01272,0.03093
1194.52293,0.03150
1193.03314,0.03210
1191.54336,0.02741
1190.05357,0.01509
1188.56378,0.02283
1187.07399,0.02549
1185.58420,0.03349
1184.09441,0.01634
1182.60463,0.01897
1181.11484,0.02163
1179.62505,0.01930
1178.13526,0.01267
1176.64547,0.00370
1175.15568,0.00693
1173.66589,0.00370
1172.17611,0.00414
1170.68632,0.01227
1169.19653,0.02042
1167.70674,0.02191
1166.21695,0.02658
1164.72716,0.02655
1163.23738,0.02831
1161.74759,0.05998
1160.25780,0.06002
1158.76801,0.06617
1157.27822,0.07236
1155.78843,0.06913
1154.29865,0.08460
1152.80886,0.08004
1151.31907,0.09182
1149.82928,0.09478
1148.33949,0.11467
1146.84970,0.12122
1145.35991,0.12779
1143.87013,0.13910
1142.38034,0.13864
1140.89055,0.15668
1139.40076,0.16374
1137.91097,0.17023
1136.42118,0.17341
1134.93140,0.17749
1133.44161,0.18160
1131.95182,0.22495
1130.46203,0.24041
1128.97224,0.24547
1127.48245,0.24997
1125.99266,0.23306
1124.50288,0.21991
1123.01309,0.23009
1121.52330,0.24028
1120.03351,0.22917
1118.54372,0.21573
1117.05393,0.23553
1115.56415,0.22547
1114.07436,0.23392
1112.58457,0.22912
1111.09478,0.22435
1109.60499,0.22638
1108.11520,0.24849
1106.62542,0.23268
1105.13563,0.21768
1103.64584,0.20722
1102.15605,0.20505
1100.66626,0.19789
1099.17647,0.19075
1097.68668,0.18530
1096.19690,0.19286
1094.70711,0.18314
1093.21732,0.18563
1091.72753,0.16613
1090.23774,0.16218
1088.74795,0.15825
1087.25817,0.17224
1085.76838,0.16030
1084.27859,0.15370
1082.78880,0.15596
1081.29901,0.17221
1079.80922,0.17669
1078.31943,0.18747
1076.82965,0.19829
1075.33986,0.19163
1073.85007,0.20288
1072.36028,0.21220
1070.87049,0.22684
1069.38070,0.23797
1067.89092,0.25915
1066.40113,0.28035
1064.91134,0.33146
1063.42155,0.41011
1061.93176,0.48093
1060.44197,0.55904
1058.95219,0.66037
1057.46240,0.69784
1055.97261,0.73533
1054.48282,0.78130
1052.99303,0.81628
1051.50324,0.84303
1050.01345,0.83658
1048.52367,0.84057
1047.03388,0.82474
1045.54409,0.80892
1044.05430,0.80060
1042.56451,0.75201
1041.07472,0.69813
1039.58494,0.61655
1038.09515,0.54070
1036.60536,0.50901
1035.11557,0.47734
1033.62578,0.43439
1032.13599,0.37928
1030.64620,0.34778
1029.15642,0.28859
1027.66663,0.25773
1026.17684,0.22689
1024.68705,0.19765
1023.19726,0.17119
1021.70747,0.15458
1020.21769,0.15588
1018.72790,0.13637
1017.23811,0.12435
1015.74832,0.11235
1014.25853,0.09390
1012.76874,0.10161
1011.27896,0.10286
1009.78917,0.09626
1008.29938,0.06847
1006.80959,0.06074
1005.31980,0.05304
1003.83001,0.02689
1002.34022,0.01354
1000.85044,0.04405
999.36065,0.05099
997.87086,0.05531
996.38107,0.05964
994.89128,0.05722
993.40149,0.07645
991.91171,0.10081
990.42192,0.11046
988.93213,0.11993
987.44234,0.11939
985.95255,0.11889
984.46276,0.12509
982.97297,0.10182
981.48319,0.08330
979.99340,0.07345
978.50361,0.06746
977.01382,0.06149
975.52403,0.04798
974.03424,0.03410
972.54446,0.01749
971.05467,0.02823
969.56488,0.03349
968.07509,0.02825
966.58530,0.02304
965.09551,0.00380
963.60573,0.00370
962.11594,0.01103
960.62615,0.00816
959.13636,0.01151
957.64657,0.01488
956.15678,0.01897
954.66699,0.03035
953.17721,0.03291
951.68742,0.02763
950.19763,0.03938
948.70784,0.05115
947.21805,0.05597
945.72826,0.07949
944.23848,0.08829
942.74869,0.10222
941.25890,0.12620
939.76911,0.13134
938.27932,0.13649
936.78953,0.15229
935.29974,0.17322
933.80996,0.18199
932.32017,0.19786
930.83038,0.21326
929.34059,0.22869
927.85080,0.25622
926.36101,0.25902
924.87123,0.30194
923.38144,0.33898
921.89165,0.37183
920.40186,0.40470
918.91207,0.48841
917.42228,0.56192
915.93250,0.71074
914.44271,0.90933
912.95292,1.01712
911.46313,1.12493
909.97334,1.29508
908.48355,1.52758
906.99376,1.74535
905.50398,1.88963
904.01419,1.92590
902.52440,1.96220
901.03461,2.00000
899.54482,1.96115
898.05503,1.85313
896.56525,1.61401
895.07546,1.48894
893.58567,1.36389
892.09588,1.11363
890.60609,0.87186
889.11630,0.68220
887.62651,0.47940
886.13673,0.42465
884.64694,0.36992
883.15715,0.28907
881.66736,0.18682
880.17757,0.14219
878.68778,0.12579
877.19800,0.10942
875.70821,0.06054
874.21842,0.03939
872.72863,0.03636
871.23884,0.03159
869.74905,0.03362
868.25927,0.03567
866.76948,0.02978
865.27969,0.02432
863.78990,0.02929
862.30011,0.03351
860.81032,0.04885
859.32053,0.06422
857.83075,0.06162
856.34096,0.09620
854.85117,0.11037
853.36138,0.11728
851.87159,0.12608
850.38180,0.13491
848.89202,0.15703
847.40223,0.15991
845.91244,0.17598
844.42265,0.18087
842.93286,0.18579
841.44307,0.22592
839.95329,0.21889
838.46350,0.21759
836.97371,0.24364
835.48392,0.24356
833.99413,0.24351
832.50434,0.25567
831.01455,0.23542
829.52477,0.21775
828.03498,0.18319
826.54519,0.17087
825.05540,0.15858
823.56561,0.13982
822.07582,0.14979
820.58604,0.11870
819.09625,0.10817
817.60646,0.09767
816.11667,0.09083
814.62688,0.09443
813.13709,0.10965
811.64730,0.12431
810.15752,0.11963
808.66773,0.11497
807.17794,0.12144
805.68815,0.13285
804.19836,0.13917
802.70857,0.13559
801.21879,0.13204
799.72900,0.14531
798.23921,0.11615
796.74942,0.10431
795.25963,0.10164
793.76984,0.09899
792.28006,0.11631
790.79027,0.14113
789.30048,0.17345
787.81069,0.19557
786.32090,0.20404
784.83111,0.21255
783.34132,0.24456
781.85154,0.28093
780.36175,0.29137
778.87196,0.31609
777.38217,0.34083
775.89238,0.35901
774.40259,0.36817
772.91281,0.34668
771.42302,0.34498
769.93323,0.34330
768.44344,0.29889
766.95365,0.25411
765.46386,0.21898
763.97407,0.20216
762.48429,0.18724
760.99450,0.17233
759.50471,0.14831
758.01492,0.11115
756.52513,0.10939
755.03534,0.09596
753.54556,0.08255
752.05577,0.05884
750.56598,0.05738
749.07619,0.05082
747.58640,0.04724
746.09661,0.04368
744.60683,0.02167
743.11704,0.01777
741.62725,0.01939
740.13746,0.01790
738.64767,0.01642
737.15788,0.01989
735.66809,0.01532
734.17831,0.00370
732.68852,0.00843
731.19873,0.01319
729.70894,0.01738
728.21915,0.01274
726.72936,0.00794
725.23958,0.01397
723.74979,0.01491
722.26000,0.01588
720.77021,0.00370
719.28042,0.00525
717.79063,0.00978
716.30084,0.01601
714.81106,0.02226
713.32127,0.02096
711.83148,0.02794
710.34169,0.01844
708.85190,0.02655
707.36211,0.03469
705.87233,0.04570
704.38254,0.02626
702.89275,0.03870
701.40296,0.03376
699.91317,0.02884
698.42338,0.04233
696.93360,0.07629
695.44381,0.10673
693.95402,0.10929
692.46423,0.11186
690.97444,0.12016
689.48465,0.13517
687.99486,0.15355
686.50508,0.16733
685.01529,0.18113
683.52550,0.20233
682.03571,0.23869
680.54592,0.24833
679.05613,0.24641
677.56635,0.24450
676.07656,0.24538
674.58677,0.23015
673.09698,0.20630
671.60719,0.18238
670.11740,0.15848
668.62761,0.15495
667.13783,0.14928
665.64804,0.13312
664.15825,0.11699
662.66846,0.10274
661.17867,0.07338
659.68888,0.05918
658.19910,0.05317
656.70931,0.04718
655.21952,0.03403
653.72973,0.03467
652.23994,0.04163
650.75015,0.04566
649.26037,0.04971
647.77058,0.04829
646.28079,0.04099
644.79100,0.02664
643.30121,0.02381
641.81142,0.02100
640.32163,0.03307
638.83185,0.01409
637.34206,0.00752
635.85227,0.00672
634.36248,0.00593
632.87269,0.00370
631.38290,0.00605
629.89312,0.01590
628.40333,0.01585
626.91354,0.01582
625.42375,0.02043
623.93396,0.01150
622.44417,0.01076
620.95438,0.01004
619.46460,0.01573
617.97481,0.03383
616.48502,0.04016
614.99523,0.04897
613.50544,0.05780
612.01565,0.10824
610.52587,0.13157
609.03608,0.17203
607.54629,0.19216
606.05650,0.21232
604.56671,0.24754
603.07692,0.31405
601.58714,0.33251
600.09735,0.35099
598.60756,0.36075
597.11777,0.38843
595.62798,0.40158
594.13819,0.38920
592.64840,0.37684
591.15862,0.33561
589.66883,0.27730
588.17904,0.22491
586.68925,0.19623
585.19946,0.16758
583.70967,0.13295
582.21989,0.10661
580.73010,0.09749
579.24031,0.08839
577.75052,0.06900
576.26073,0.04177
574.77094,0.02891
573.28115,0.02325
571.79137,0.01762
570.30158,0.01938
568.81179,0.03886
567.32200,0.04529
565.83221,0.05174
564.34242,0.07719
562.85264,0.09774
561.36285,0.12265
559.87306,0.13047
558.38327,0.13832
556.89348,0.14089
555.40369,0.14092
553.91391,0.13951
552.42412,0.13812
550.93433,0.15513
549.44454,0.15211
547.95475,0.15541
546.46496,0.15923
544.97517,0.16306
543.48539,0.18904
541.99560,0.21111
540.50581,0.23615
539.01602,0.26122
537.52623,0.31069
536.03644,0.33364
534.54666,0.37392
533.05687,0.38974
531.56708,0.40559
530.07729,0.46206
528.58750,0.47785
527.09771,0.50085
525.60792,0.52387
524.11814,0.59990
522.62835,0.65727
521.13856,0.71427
519.64877,0.73739
518.15898,0.76053
516.66919,0.80463
515.17941,0.82064
513.68962,0.81417
512.19983,0.80772
510.71004,0.75716
509.22025,0.70506
507.73046,0.63096
506.24068,0.57595
504.75089,0.52096
503.26110,0.43062
501.77131,0.32870
500.28152,0.28961
498.79173,0.25055
497.30194,0.20197
495.81216,0.17465
494.32237,0.15031
492.83258,0.12598
491.34279,0.10188
489.85300,0.07702
488.36321,0.04805
486.87343,0.05233
485.38364,0.05663
483.89385,0.06253
482.40406,0.08968
480.91427,0.09474
479.42448,0.09983
477.93469,0.12587
476.44491,0.11793
474.95512,0.12506
473.46533,0.13220
471.97554,0.15107
470.48575,0.13733
468.99596,0.14995
467.50618,0.14540
466.01639,0.14087
464.52660,0.11838
463.03681,0.07645
461.54702,0.06953
460.05723,0.06264
458.56745,0.03651
457.07766,0.01080
455.58787,0.01410
454.09808,0.01743
452.60829,0.02462
451.11850,0.02475
449.62871,0.02068
448.13893,0.01663
446.64914,0.02116
445.15935,0.00370
443.66956,0.00492
442.17977,0.00971
440.68998,0.01452
439.20020,0.01896
437.71041,0.03384
436.22062,0.02575
434.73083,0.01768
433.24104,0.03008
431.75125,0.04329
430.26146,0.03952
428.77168,0.03578
427.28189,0.04316
425.79210,0.02993
424.30231,0.03510
422.81252,0.04029
421.32273,0.05701
419.83295,0.04348
418.34316,0.03489
416.85337,0.02632
415.36358,0.00500
413.87379,0.02342
412.38400,0.02231
410.89422,0.02122
409.40443,0.02930
407.91464,0.02817
406.42485,0.02803
404.93506,0.03265
403.44527,0.03728
401.95548,0.04843
400.46570,0.02598
398.97591,0.02420
397.48612,0.02244
395.99633,0.00990
394.50654,0.01310
393.01675,0.02115
391.52697,0.02598
390.03718,0.02975
388.54739,0.01920
387.05760,0.02056
385.56781,0.02195
384.07802,0.02247
382.58824,0.00533
381.09845,0.00450
379.60866,0.00370
378.11887,0.01062
376.62908,0.02779
375.13929,0.02502
373.64950,0.02228
372.15972,0.01829
370.66993,0.02651
369.18014,0.02325
367.69035,0.02001
366.20056,0.01807
364.71077,0.03051
363.22099,0.02115
361.73120,0.01182
360.24141,0.05421
358.75162,0.04315
357.26183,0.03468
355.77204,0.02622
354.28225,0.03214
352.79247,0.04438
351.30268,0.03629
349.81289,0.02823
348.32310,0.07081
346.83331,0.07862
345.34352,0.06925
343.85374,0.05991
342.36395,0.03870
340.87416,0.01810
339.38437,0.01089
337.89458,0.00370
336.40479,0.02451
334.91501,0.01074
333.42522,0.01725
331.93543,0.02378
330.44564,0.02936
328.95585,0.03535
327.46606,0.03930
325.97627,0.04327
324.48649,0.02417
322.99670,0.02337
321.50691,0.03843
320.01712,0.05350
318.52733,0.05553
317.03754,0.05424
315.54776,0.05396
314.05797,0.05370
312.56818,0.02378
311.07839,0.04480
309.58860,0.03685
308.09881,0.02892
306.60902,0.02210
305.11924,0.01549
303.62945,0.01127
302.13966,0.00370
300.64987,0.00280
299.16008,0.00370
