1778.52000,0.01671
1777.03021,0.01866
1775.54042,0.01491
1774.05063,0.01555
1772.56085,0.02358
1771.07106,0.01118
1769.58127,0.01516
1768.09148,0.00472
1766.60169,0.01529
1765.11190,0.01553
1763.62212,0.01553
1762.13233,0.01936
1760.64254,0.00659
1759.15275,0.01510
1757.66296,0.00129
1756.17317,0.00168
1754.68339,0.00482
1753.19360,0.00389
1751.70381,0.00980
1750.21402,0.00811
1748.72423,0.01053
1747.23444,0.00970
1745.74465,0.00235
1744.25487,0.01002
1742.76508,0.00000
1741.27529,0.01617
1739.78550,0.00129
1738.29571,0.02267
1736.80592,0.01027
1735.31614,0.01343
1733.82635,0.00571
1732.33656,0.01246
1730.84677,0.01542
1729.35698,0.01296
1727.86719,0.01242
1726.37740,0.00156
1724.88762,0.01170
1723.39783,0.01016
1721.90804,0.01299
1720.41825,0.00767
1718.92846,0.00129
1717.43867,0.00776
1715.94889,0.01344
1714.45910,0.01041
1712.96931,0.01396
1711.47952,0.00635
1709.98973,0.00204
1708.49994,0.00865
1707.01016,0.00998
1705.52037,0.01133
1704.03058,0.01202
1702.54079,0.00129
1701.05100,0.01611
1699.56121,0.01459
1698.07142,0.02646
1696.58164,0.02554
1695.09185,0.02546
1693.60206,0.02977
1692.11227,0.01774
1690.62248,0.02482
1689.13269,0.02184
1687.64291,0.02679
1686.15312,0.03150
1684.66333,0.02614
1683.17354,0.03389
1681.68375,0.03049
1680.19396,0.03938
1678.70417,0.03548
1677.21439,0.06132
1675.72460,0.06647
1674.23481,0.05637
1672.74502,0.07220
1671.25523,0.07061
1669.76544,0.06495
1668.27566,0.06858
1666.78587,0.07333
1665.29608,0.07756
1663.80629,0.09272
1662.31650,0.09945
1660.82671,0.09666
1659.33693,0.09663
1657.84714,0.10616
1656.35735,0.11054
1654.86756,0.10076
1653.37777,0.10655
1651.88798,0.09682
1650.39819,0.08385
1648.90841,0.09080
1647.41862,0.09696
1645.92883,0.09742
1644.43904,0.09790
1642.94925,0.10386
1641.45946,0.10739
1639.96968,0.09895
1638.47989,0.11234
1636.99010,0.09932
1635.50031,0.09995
1634.01052,0.10251
1632.52073,0.09637
1631.03094,0.09026
1629.54116,0.09235
1628.05137,0.10347
1626.56158,0.10043
1625.07179,0.09632
1623.58200,0.11323
1622.09221,0.09091
1620.60243,0.09288
1619.11264,0.11204
1617.62285,0.10288
1616.13306,0.09429
1614.64327,0.09881
1613.15348,0.10117
1611.66370,0.10764
1610.17391,0.09969
1608.68412,0.09940
1607.19433,0.09995
1605.70454,0.09780
1604.21475,0.09281
1602.72496,0.08785
1601.23518,0.09477
1599.74539,0.08999
1598.25560,0.08469
1596.76581,0.09932
1595.27602,0.09489
1593.78623,0.08012
1592.29645,0.07165
1590.80666,0.07356
1589.31687,0.06241
1587.82708,0.07309
1586.33729,0.07154
1584.84750,0.07409
1583.35771,0.08212
1581.86793,0.08500
1580.37814,0.08899
1578.88835,0.06793
1577.39856,0.06733
1575.90877,0.05095
1574.41898,0.05559
1572.92920,0.05561
1571.43941,0.05784
1569.94962,0.05137
1568.45983,0.04493
1566.97004,0.05269
1565.48025,0.04657
1563.99047,0.04483
1562.50068,0.02458
1561.01089,0.03761
1559.52110,0.02641
1558.03131,0.04222
1556.54152,0.02534
1555.05173,0.02784
1553.56195,0.03173
1552.07216,0.00702
1550.58237,0.00196
1549.09258,0.00728
1547.60279,0.01345
1546.11300,0.01365
1544.62322,0.00541
1543.13343,0.00102
1541.64364,0.00129
1540.15385,0.00184
1538.66406,0.00241
1537.17427,0.00947
1535.68448,0.02064
1534.19470,0.02093
1532.70491,0.02724
1531.21512,0.01040
1529.72533,0.02385
1528.23554,0.00979
1526.74575,0.02056
1525.25597,0.00928
1523.76618,0.01655
1522.27639,0.02167
1520.78660,0.03827
1519.29681,0.03472
1517.80702,0.04455
1516.31724,0.05222
1514.82745,0.04329
1513.33766,0.04365
1511.84787,0.04403
1510.35808,0.05017
1508.86829,0.04842
1507.37850,0.02952
1505.88872,0.03709
1504.39893,0.05996
1502.90914,0.04222
1501.41935,0.04469
1499.92956,0.04882
1498.43977,0.05896
1496.94999,0.06232
1495.46020,0.07743
1493.97041,0.09528
1492.48062,0.09326
1490.99083,0.10980
1489.50104,0.09665
1488.01125,0.10861
1486.52147,0.12059
1485.03168,0.14650
1483.54189,0.17707
1482.05210,0.19566
1480.56231,0.21183
1479.07252,0.24356
1477.58274,0.23579
1476.09295,0.23786
1474.60316,0.26203
1473.11337,0.25842
1471.62358,0.25265
1470.13379,0.25672
1468.64401,0.27936
1467.15422,0.30202
1465.66443,0.31120
1464.17464,0.32042
1462.68485,0.36687
1461.19506,0.39208
1459.70527,0.43804
1458.21549,0.50201
1456.72570,0.53575
1455.23591,0.58232
1453.74612,0.65455
1452.25633,0.69954
1450.76654,0.72383
1449.27676,0.71107
1447.78697,0.73078
1446.29718,0.70934
1444.80739,0.68493
1443.31760,0.66055
1441.82781,0.63428
1440.33802,0.57505
1438.84824,0.51393
1437.35845,0.48092
1435.86866,0.48337
1434.37887,0.50712
1432.88908,0.56824
1431.39929,0.62638
1429.90951,0.70255
1428.41972,0.75829
1426.92993,0.79851
1425.44014,0.79760
1423.95035,0.82778
1422.46056,0.85800
1420.97078,0.90922
1419.48099,0.93376
1417.99120,0.95887
1416.50141,0.93983
1415.01162,0.90528
1413.52183,0.86721
1412.03204,0.81880
1410.54226,0.75978
1409.05247,0.72751
1407.56268,0.68818
1406.07289,0.59843
1404.58310,0.57495
1403.09331,0.55150
1401.60353,0.50436
1400.11374,0.46651
1398.62395,0.37116
1397.13416,0.29219
1395.64437,0.26723
1394.15458,0.22893
1392.66479,0.19284
1391.17501,0.17285
1389.68522,0.13408
1388.19543,0.11933
1386.70564,0.10719
1385.21585,0.09508
1383.72606,0.08531
1382.23628,0.05348
1380.74649,0.04348
1379.25670,0.02642
1377.76691,0.03774
1376.27712,0.00328
1374.78733,0.00129
1373.29755,0.00609
1371.80776,0.00846
1370.31797,0.03403
1368.82818,0.03754
1367.33839,0.04108
1365.84860,0.03046
1364.35881,0.05422
1362.86903,0.03274
1361.37924,0.05028
1359.88945,0.07739
1358.39966,0.08952
1356.90987,0.11994
1355.42008,0.17057
1353.93030,0.23921
1352.44051,0.27134
1350.95072,0.30350
1349.46093,0.39267
1347.97114,0.45977
1346.48135,0.51218
1344.99156,0.58233
1343.50178,0.68768
1342.01199,0.73416
1340.52220,0.81311
1339.03241,0.82556
1337.54262,0.87457
1336.05283,0.90943
1334.56305,0.94431
1333.07326,0.99640
1331.58347,0.99207
1330.09368,1.01176
1328.60389,0.98730
1327.11410,0.94379
1325.62432,0.91857
1324.13453,0.94354
1322.64474,0.91237
1321.15495,0.82697
1319.66516,0.79721
1318.17537,0.76747
1316.68558,0.70478
1315.19580,0.62465
1313.70601,0.59718
1312.21622,0.54137
1310.72643,0.51421
1309.23664,0.48517
1307.74685,0.46024
1306.25707,0.42525
1304.76728,0.39615
1303.27749,0.36707
1301.78770,0.30271
1300.29791,0.27790
1298.80812,0.25121
1297.31834,0.21255
1295.82855,0.18292
1294.33876,0.16175
1292.84897,0.12562
1291.35918,0.12032
1289.86939,0.11232
1288.37960,0.10434
1286.88982,0.09884
1285.40003,0.09255
1283.91024,0.07074
1282.42045,0.08167
1280.93066,0.06591
1279.44087,0.03327
1277.95109,0.04155
1276.46130,0.02668
1274.97151,0.03392
1273.48172,0.04118
1271.99193,0.04465
1270.50214,0.04787
1269.01235,0.03340
1267.52257,0.02495
1266.03278,0.02879
1264.54299,0.02093
1263.05320,0.01964
1261.56341,0.01238
1260.07362,0.00514
1258.58384,0.00474
1257.09405,0.01963
1255.60426,0.00129
1254.11447,0.01065
1252.62468,0.00177
1251.13489,0.01435
1249.64511,0.01714
1248.15532,0.01613
1246.66553,0.02619
1245.17574,0.03628
1243.68595,0.01000
1242.19616,0.00854
1240.70637,0.01475
1239.21659,0.01008
1237.72680,0.03078
1236.23701,0.03025
1234.74722,0.03437
1233.25743,0.03266
1231.76764,0.03097
1230.27786,0.02099
1228.78807,0.00422
1227.29828,0.01092
1225.80849,0.00129
1224.31870,0.01689
1222.82891,0.02379
1221.33912,0.03425
1219.84934,0.04447
1218.35955,0.05472
1216.86976,0.06526
1215.37997,0.07473
1213.89018,0.07305
1212.40039,0.05995
1210.91061,0.07931
1209.42082,0.06516
1207.93103,0.07558
1206.44124,0.08602
1204.95145,0.07822
1203.46166,0.05817
1201.97188,0.06541
1200.48209,0.05005
1198.99230,0.05244
1197.50251,0.04694
1196.01272,0.05428
1194.52293,0.04774
1193.03314,0.04122
1191.54336,0.02246
1190.05357,0.02581
1188.56378,0.01065
1187.07399,0.00587
1185.58420,0.00983
1184.09441,0.00701
1182.60463,0.01743
1181.11484,0.02788
1179.62505,0.02731
1178.13526,0.02104
1176.64547,0.01207
1175.15568,0.02357
1173.66589,0.00129
1172.17611,0.00880
1170.68632,0.01401
1169.19653,0.01924
1167.70674,0.01265
1166.21695,0.02652
1164.72716,0.03824
1163.23738,0.03717
1161.74759,0.03884
1160.25780,0.05118
1158.76801,0.05291
1157.27822,0.05466
1155.78843,0.07225
1154.29865,0.09695
1152.80886,0.10587
1151.31907,0.13035
1149.82928,0.12895
1148.33949,0.13739
1146.84970,0.13755
1145.35991,0.13772
1143.87013,0.13915
1142.38034,0.16078
1140.89055,0.15053
1139.40076,0.17630
1137.91097,0.18055
1136.42118,0.20991
1134.93140,0.21026
1133.44161,0.21063
1131.95182,0.23625
1130.46203,0.23027
1128.97224,0.21831
1127.48245,0.23964
1125.99266,0.24218
1124.50288,0.22975
1123.01309,0.22511
1121.52330,0.22050
1120.03351,0.24359
1118.54372,0.22471
1117.05393,0.24103
1115.56415,0.24184
1114.07436,0.24348
1112.58457,0.23125
1111.09478,0.21904
1109.60499,0.25102
1108.11520,0.26177
1106.62542,0.25699
1105.13563,0.24243
1103.64584,0.21153
1102.15605,0.20738
1100.66626,0.21333
1099.17647,0.21931
1097.68668,0.21741
1096.19690,0.22045
1094.70711,0.21505
1093.21732,0.20777
1091.72753,0.16944
1090.23774,0.17775
1088.74795,0.18608
1087.25817,0.17944
1085.76838,0.18946
1084.27859,0.19487
1082.78880,0.15587
1081.29901,0.16487
1079.80922,0.19925
1078.31943,0.19290
1076.82965,0.18657
1075.33986,0.21639
1073.85007,0.21516
1072.36028,0.23031
1070.87049,0.25802
1069.38070,0.25195
1067.89092,0.26990
1066.40113,0.28787
1064.91134,0.33068
1063.42155,0.41794
1061.93176,0.49788
1060.44197,0.59883
1058.95219,0.72925
1057.46240,0.78267
1055.97261,0.83612
1054.48282,0.96961
1052.99303,1.02652
1051.50324,1.02320
1050.01345,1.04062
1048.52367,0.99646
1047.03388,1.01407
1045.54409,1.03170
1044.05430,0.97289
1042.56451,0.90210
1041.07472,0.85288
1039.58494,0.75897
1038.09515,0.64164
1036.60536,0.60912
1035.11557,0.57662
1033.62578,0.47681
1032.13599,0.42774
1030.64620,0.36887
1029.15642,0.30485
1027.66663,0.28216
1026.17684,0.25949
1024.68705,0.21626
1023.19726,0.18396
1021.70747,0.13424
1020.21769,0.13770
1018.72790,0.13601
1017.23811,0.13176
1015.74832,0.12753
1014.25853,0.10328
1012.76874,0.08861
1011.27896,0.09822
1009.78917,0.09586
1008.29938,0.07880
1006.80959,0.06490
1005.31980,0.05103
1003.83001,0.01251
1002.34022,0.00318
1000.85044,0.00342
999.36065,0.01186
997.87086,0.02715
996.38107,0.04246
994.89128,0.05207
993.40149,0.07124
991.91171,0.07817
990.42192,0.11184
988.93213,0.12155
987.44234,0.11833
985.95255,0.11514
984.46276,0.11510
982.97297,0.10828
981.48319,0.10093
979.99340,0.07262
978.50361,0.06396
977.01382,0.05532
975.52403,0.02953
974.03424,0.02531
972.54446,0.01184
971.05467,0.01911
969.56488,0.00296
968.07509,0.00961
966.58530,0.01627
965.09551,0.00129
963.60573,0.00587
962.11594,0.00283
960.62615,0.00800
959.13636,0.00420
957.64657,0.00042
956.15678,0.00781
954.66699,0.01168
953.17721,0.01585
951.68742,0.03068
950.19763,0.03176
948.70784,0.03286
947.21805,0.05131
945.72826,0.06923
944.23848,0.07845
942.74869,0.09479
941.25890,0.10242
939.76911,0.11867
938.27932,0.13494
936.78953,0.13447
935.29974,0.15638
933.80996,0.17886
932.32017,0.20273
930.83038,0.20781
929.34059,0.21292
927.85080,0.24695
926.36101,0.26328
924.87123,0.28100
923.38144,0.30583
921.89165,0.34269
920.40186,0.37957
918.91207,0.47290
917.42228,0.58481
915.93250,0.74880
914.44271,0.91637
912.95292,1.03189
911.46313,1.14743
909.97334,1.37233
908.48355,1.55444
906.99376,1.78156
905.50398,1.88494
904.01419,1.93176
902.52440,1.97861
901.03461,2.00000
899.54482,1.97561
898.05503,1.85936
896.56525,1.60655
895.07546,1.47713
893.58567,1.34774
892.09588,1.10018
890.60609,0.86629
889.11630,0.65640
887.62651,0.51634
886.13673,0.43123
884.64694,0.34615
883.15715,0.26505
881.66736,0.17715
880.17757,0.13127
878.68778,0.11540
877.19800,0.09955
875.70821,0.05729
874.21842,0.03822
872.72863,0.02354
871.23884,0.01188
869.74905,0.00733
868.25927,0.00281
866.76948,0.01331
865.27969,0.03038
863.78990,0.03084
862.30011,0.03351
860.81032,0.02488
859.32053,0.01628
857.83075,0.04383
856.34096,0.06568
854.85117,0.07610
853.36138,0.09637
851.87159,0.10656
850.38180,0.11679
848.89202,0.12622
847.40223,0.15258
845.91244,0.16424
844.42265,0.16624
842.93286,0.16827
841.44307,0.20727
839.95329,0.20867
838.46350,0.23708
836.97371,0.23499
835.48392,0.24246
833.99413,0.24995
832.50434,0.25229
831.01455,0.25547
829.52477,0.21015
828.03498,0.17576
826.54519,0.16484
825.05540,0.15394
823.56561,0.13870
822.07582,0.13549
820.58604,0.13448
819.09625,0.11250
817.60646,0.09055
816.11667,0.10843
814.62688,0.10070
813.13709,0.11236
811.64730,0.10577
810.15752,0.11039
808.66773,0.11503
807.17794,0.09624
805.68815,0.10012
804.19836,0.12501
802.70857,0.12565
801.21879,0.12633
799.72900,0.12294
798.23921,0.13920
796.74942,0.10041
795.25963,0.11332
793.76984,0.12625
792.28006,0.12271
790.79027,0.13173
789.30048,0.16095
787.81069,0.22564
786.32090,0.23297
784.83111,0.24032
783.34132,0.25356
781.85154,0.30417
780.36175,0.31500
778.87196,0.33513
777.38217,0.35528
775.89238,0.40680
774.40259,0.40847
772.91281,0.38480
771.42302,0.36660
769.93323,0.34844
768.44344,0.30167
766.95365,0.25083
765.46386,0.22211
763.97407,0.17677
762.48429,0.17427
760.99450,0.17179
759.50471,0.14152
758.01492,0.11237
756.52513,0.11269
755.03534,0.10499
753.54556,0.09732
752.05577,0.07945
750.56598,0.08723
749.07619,0.05550
747.58640,0.05351
746.09661,0.05155
744.60683,0.02044
743.11704,0.02316
741.62725,0.02318
740.13746,0.02363
738.64767,0.02411
737.15788,0.02175
735.66809,0.00687
734.17831,0.00129
732.68852,0.00890
731.19873,0.01653
729.70894,0.00659
728.21915,0.00678
726.72936,0.02279
725.23958,0.01457
723.74979,0.01728
722.26000,0.02002
720.77021,0.00587
719.28042,0.00129
717.79063,0.01152
716.30084,0.02342
714.81106,0.03533
713.32127,0.03419
711.83148,0.03416
710.34169,0.03606
708.85190,0.03540
707.36211,0.03476
705.87233,0.04029
704.38254,0.04747
702.89275,0.06340
701.40296,0.06818
699.91317,0.07298
698.42338,0.09171
696.93360,0.09029
695.44381,0.11125
693.95402,0.11847
692.46423,0.12571
690.97444,0.14538
689.48465,0.18280
687.99486,0.18425
686.50508,0.20263
685.01529,0.22104
683.52550,0.25692
682.03571,0.25711
680.54592,0.27014
679.05613,0.27024
677.56635,0.27036
676.07656,0.27638
674.58677,0.25488
673.09698,0.24922
671.60719,0.23595
670.11740,0.22270
668.62761,0.19476
667.13783,0.17120
665.64804,0.15012
664.15825,0.12907
662.66846,0.10449
661.17867,0.09330
659.68888,0.07396
658.19910,0.07972
656.70931,0.08550
655.21952,0.06105
653.72973,0.07507
652.23994,0.06321
650.75015,0.06309
649.26037,0.06300
647.77058,0.05340
646.28079,0.06481
644.79100,0.05007
643.30121,0.05403
641.81142,0.05802
640.32163,0.03545
638.83185,0.00473
637.34206,0.00129
635.85227,0.01150
634.36248,0.02174
632.87269,0.01892
631.38290,0.03329
629.89312,0.03134
628.40333,0.03690
626.91354,0.04249
625.42375,0.03107
623.93396,0.00985
622.44417,0.01320
620.95438,0.01657
619.46460,0.02978
617.97481,0.06128
616.48502,0.08462
614.99523,0.09573
613.50544,0.10685
612.01565,0.13273
610.52587,0.15236
609.03608,0.18673
607.54629,0.21690
606.05650,0.24710
604.56671,0.31399
603.07692,0.35746
601.58714,0.37601
600.09735,0.39458
598.60756,0.43921
597.11777,0.47433
595.62798,0.44104
594.13819,0.43654
592.64840,0.43206
591.15862,0.43565
589.66883,0.35475
588.17904,0.32485
586.68925,0.26799
585.19946,0.21115
583.70967,0.17860
582.21989,0.16298
580.73010,0.13621
579.24031,0.10946
577.75052,0.09200
576.26073,0.06939
574.77094,0.06343
573.28115,0.06541
571.79137,0.06741
570.30158,0.05580
568.81179,0.08320
567.32200,0.09032
565.83221,0.09746
564.34242,0.08595
562.85264,0.11209
561.36285,0.13471
559.87306,0.15708
558.38327,0.17948
556.89348,0.18172
555.40369,0.20798
553.91391,0.21041
552.42412,0.21287
550.93433,0.20076
549.44454,0.18977
547.95475,0.18916
546.46496,0.19826
544.97517,0.20738
543.48539,0.22321
541.99560,0.25487
540.50581,0.28274
539.01602,0.31063
537.52623,0.36908
536.03644,0.47091
534.54666,0.46126
533.05687,0.48434
531.56708,0.50745
530.07729,0.55076
528.58750,0.59982
527.09771,0.63186
525.60792,0.66393
524.11814,0.70325
522.62835,0.71914
521.13856,0.75578
519.64877,0.78850
518.15898,0.82123
516.66919,0.84895
515.17941,0.85788
513.68962,0.87188
512.19983,0.88590
510.71004,0.86601
509.22025,0.80306
507.73046,0.71560
506.24068,0.65611
504.75089,0.59665
503.26110,0.52426
501.77131,0.42272
500.28152,0.36714
498.79173,0.31160
497.30194,0.24939
495.81216,0.19103
494.32237,0.16936
492.83258,0.14771
491.34279,0.12841
489.85300,0.09413
488.36321,0.06616
486.87343,0.06206
485.38364,0.05798
483.89385,0.06252
482.40406,0.06845
480.91427,0.07971
479.42448,0.09101
477.93469,0.14063
476.44491,0.14883
474.95512,0.18310
473.46533,0.21739
471.97554,0.21122
470.48575,0.19662
468.99596,0.18232
467.50618,0.17663
466.01639,0.17097
464.52660,0.13248
463.03681,0.13300
461.54702,0.11937
460.05723,0.10576
458.56745,0.04419
457.07766,0.04099
455.58787,0.03005
454.09808,0.01913
452.60829,0.02691
451.11850,0.03226
449.62871,0.02714
448.13893,0.02204
446.64914,0.01193
445.15935,0.00129
443.66956,0.01301
442.17977,0.01480
440.68998,0.01661
439.20020,0.00468
437.71041,0.04376
436.22062,0.03760
434.73083,0.03147
433.24104,0.04227
431.75125,0.05718
430.26146,0.05153
428.77168,0.04591
427.28189,0.07044
425.79210,0.06145
424.30231,0.04364
422.81252,0.02584
421.32273,0.01148
419.83295,0.01487
418.34316,0.01391
416.85337,0.01299
415.36358,0.02762
413.87379,0.05510
412.38400,0.05465
410.89422,0.05423
409.40443,0.04088
407.91464,0.04528
406.42485,0.05925
404.93506,0.05347
403.44527,0.04772
401.95548,0.04404
400.46570,0.03329
398.97591,0.03211
397.48612,0.03096
395.99633,0.03419
394.50654,0.03881
393.01675,0.03228
391.52697,0.02577
390.03718,0.03764
388.54739,0.02991
387.05760,0.02629
385.56781,0.02270
384.07802,0.02404
382.58824,0.02595
381.09845,0.03225
379.60866,0.03857
378.11887,0.00129
376.62908,0.02235
375.13929,0.02708
373.64950,0.03184
372.15972,0.03089
370.66993,0.04251
369.18014,0.03860
367.69035,0.03472
366.20056,0.04423
364.71077,0.04775
363.22099,0.05308
361.73120,0.05843
360.24141,0.08439
358.75162,0.07847
357.26183,0.07586
355.77204,0.07326
354.28225,0.05215
352.79247,0.06651
351.30268,0.06753
349.81289,0.06858
348.32310,0.06856
346.83331,0.10401
345.34352,0.09014
343.85374,0.07629
342.36395,0.06574
340.87416,0.08738
339.38437,0.07838
337.89458,0.06940
336.40479,0.07421
334.91501,0.04879
333.42522,0.03171
331.93543,0.01465
330.44564,0.00129
328.95585,0.04485
327.46606,0.05694
325.97627,0.06906
324.48649,0.09007
322.99670,0.11246
321.50691,0.12043
320.01712,0.12842
318.52733,0.11299
317.03754,0.13275
315.54776,0.13169
314.05797,0.13064
312.56818,0.10740
311.07839,0.10736
309.58860,0.09440
308.09881,0.08146
306.60902,0.08531
305.11924,0.04720
303.62945,0.02983
302.13966,0.01249
300.64987,0.00129
299.16008,0.00129
