1778.52000,0.03051
1777.03021,0.02191
1775.54042,0.02073
1774.05063,0.01974
1772.56085,0.02040
1771.07106,0.01424
1769.58127,0.01225
1768.09148,0.01424
1766.60169,0.00995
1765.11190,0.01524
1763.62212,0.00811
1762.13233,0.00587
1760.64254,0.01627
1759.15275,0.01282
1757.66296,0.01390
1756.17317,0.01320
1754.68339,0.00514
1753.19360,0.00610
1751.70381,0.01124
1750.21402,0.00325
1748.72423,0.00987
1747.23444,0.00535
1745.74465,0.00445
1744.25487,0.00610
1742.76508,0.01066
1741.27529,0.00731
1739.78550,0.01119
1738.29571,0.00609
1736.80592,0.00587
1735.31614,0.01013
1733.82635,0.00846
1732.33656,0.00538
1730.84677,0.00916
1729.35698,0.00000
1727.86719,0.00635
1726.37740,0.00589
1724.88762,0.00670
1723.39783,0.00736
1721.90804,0.00516
1720.41825,0.00443
1718.92846,0.00705
1717.43867,0.00610
1715.94889,0.00786
1714.45910,0.01344
1712.96931,0.00985
1711.47952,0.01061
1709.98973,0.00490
1708.49994,0.00427
1707.01016,0.00419
1705.52037,0.00414
1704.03058,0.01187
1702.54079,0.01258
1701.05100,0.01135
1699.56121,0.00905
1698.07142,0.00587
1696.58164,0.00702
1695.09185,0.01432
1693.60206,0.01588
1692.11227,0.01872
1690.62248,0.01654
1689.13269,0.01691
1687.64291,0.00811
1686.15312,0.01159
1684.66333,0.01563
1683.17354,0.02510
1681.68375,0.02144
1680.19396,0.03204
1678.70417,0.03059
1677.21439,0.02790
1675.72460,0.03353
1674.23481,0.03647
1672.74502,0.03530
1671.25523,0.04459
1669.76544,0.04599
1668.27566,0.05335
1666.78587,0.05497
1665.29608,0.05932
1663.80629,0.05865
1662.31650,0.06232
1660.82671,0.05845
1659.33693,0.06596
1657.84714,0.06628
1656.35735,0.06338
1654.86756,0.06663
1653.37777,0.06865
1651.88798,0.06654
1650.39819,0.07437
1648.90841,0.07123
1647.41862,0.07532
1645.92883,0.07637
1644.43904,0.07745
1642.94925,0.07854
1641.45946,0.08057
1639.96968,0.07000
1638.47989,0.07567
1636.99010,0.07741
1635.50031,0.08205
1634.01052,0.08455
1632.52073,0.08635
1631.03094,0.07773
1629.54116,0.09075
1628.05137,0.08812
1626.56158,0.09543
1625.07179,0.08275
1623.58200,0.08938
1622.09221,0.07892
1620.60243,0.08758
1619.11264,0.07248
1617.62285,0.09434
1616.13306,0.08415
1614.64327,0.07345
1613.15348,0.09051
1611.66370,0.08238
1610.17391,0.07553
1608.68412,0.08563
1607.19433,0.08604
1605.70454,0.08052
1604.21475,0.08178
1602.72496,0.08307
1601.23518,0.07726
1599.74539,0.07778
1598.25560,0.08517
1596.76581,0.08069
1595.27602,0.08399
1593.78623,0.08154
1592.29645,0.07552
1590.80666,0.07420
1589.31687,0.07759
1587.82708,0.08010
1586.33729,0.07723
1584.84750,0.06970
1583.35771,0.07030
1581.86793,0.06822
1580.37814,0.07752
1578.88835,0.07476
1577.39856,0.07654
1575.90877,0.06915
1574.41898,0.05746
1572.92920,0.04003
1571.43941,0.03992
1569.94962,0.03722
1568.45983,0.03454
1566.97004,0.02874
1565.48025,0.03611
1563.99047,0.03161
1562.50068,0.02371
1561.01089,0.01926
1559.52110,0.02583
1558.03131,0.01494
1556.54152,0.00587
1555.05173,0.01325
1553.56195,0.01326
1552.07216,0.00987
1550.58237,0.01119
1549.09258,0.01001
1547.60279,0.01696
1546.11300,0.00826
1544.62322,0.01129
1543.13343,0.00426
1541.64364,0.01248
1540.15385,0.01532
1538.66406,0.01819
1537.17427,0.00810
1535.68448,0.00669
1534.19470,0.01183
1532.70491,0.01286
1531.21512,0.00923
1529.72533,0.02255
1528.23554,0.02167
1526.74575,0.01541
1525.25597,0.01223
1523.76618,0.02349
1522.27639,0.03297
1520.78660,0.03616
1519.29681,0.04857
1517.80702,0.03903
1516.31724,0.03293
1514.82745,0.04487
1513.33766,0.03909
1511.84787,0.03333
1510.35808,0.04606
1508.86829,0.05485
1507.37850,0.04115
1505.88872,0.04945
1504.39893,0.04948
1502.90914,0.04702
1501.41935,0.05052
1499.92956,0.05711
1498.43977,0.07237
1496.94999,0.08208
1495.46020,0.08603
1493.97041,0.09993
1492.48062,0.11060
1490.99083,0.10850
1489.50104,0.14210
1488.01125,0.14168
1486.52147,0.14127
1485.03168,0.16143
1483.54189,0.16522
1482.05210,0.18056
1480.56231,0.18170
1479.07252,0.20735
1477.58274,0.23502
1476.09295,0.22811
1474.60316,0.22303
1473.11337,0.23293
1471.62358,0.24754
1470.13379,0.26631
1468.64401,0.28439
1467.15422,0.30663
1465.66443,0.31151
1464.17464,0.31642
1462.68485,0.33675
1461.19506,0.37260
1459.70527,0.41460
1458.21549,0.45500
1456.72570,0.51668
1455.23591,0.55767
1453.74612,0.61490
1452.25633,0.67035
1450.76654,0.67681
1449.27676,0.70222
1447.78697,0.67973
1446.29718,0.64087
1444.80739,0.62762
1443.31760,0.61439
1441.82781,0.58136
1440.33802,0.52692
1438.84824,0.50331
1437.35845,0.45739
1435.86866,0.43959
1434.37887,0.47767
1432.88908,0.52532
1431.39929,0.59371
1429.90951,0.65689
1428.41972,0.72047
1426.92993,0.78316
1425.44014,0.79490
1423.95035,0.81152
1422.46056,0.82816
1420.97078,0.89366
1419.48099,0.93197
1417.99120,0.88221
1416.50141,0.85679
1415.01162,0.83680
1413.52183,0.80602
1412.03204,0.74483
1410.54226,0.67789
1409.05247,0.65151
1407.56268,0.61380
1406.07289,0.53018
1404.58310,0.50351
1403.09331,0.47686
1401.60353,0.41547
1400.11374,0.38437
1398.62395,0.33581
1397.13416,0.28926
1395.64437,0.22598
1394.15458,0.21281
1392.66479,0.17480
1391.17501,0.13915
1389.68522,0.12245
1388.19543,0.08829
1386.70564,0.07929
1385.21585,0.07031
1383.72606,0.05568
1382.23628,0.03909
1380.74649,0.02127
1379.25670,0.03049
1377.76691,0.02442
1376.27712,0.02270
1374.78733,0.00587
1373.29755,0.01450
1371.80776,0.01487
1370.31797,0.01634
1368.82818,0.01198
1367.33839,0.00764
1365.84860,0.02012
1364.35881,0.04217
1362.86903,0.04208
1361.37924,0.04760
1359.88945,0.07459
1358.39966,0.09277
1356.90987,0.13187
1355.42008,0.18343
1353.93030,0.23681
1352.44051,0.26725
1350.95072,0.29771
1349.46093,0.37134
1347.97114,0.44644
1346.48135,0.50372
1344.99156,0.55346
1343.50178,0.64557
1342.01199,0.72040
1340.52220,0.76949
1339.03241,0.81374
1337.54262,0.84414
1336.05283,0.85772
1334.56305,0.87132
1333.07326,0.88234
1331.58347,0.90527
1330.09368,0.88679
1328.60389,0.87337
1327.11410,0.83728
1325.62432,0.80896
1324.13453,0.75850
1322.64474,0.73113
1321.15495,0.71585
1319.66516,0.70402
1318.17537,0.69221
1316.68558,0.61953
1315.19580,0.57786
1313.70601,0.53712
1312.21622,0.47983
1310.72643,0.45156
1309.23664,0.41935
1307.74685,0.38969
1306.25707,0.35700
1304.76728,0.33900
1303.27749,0.32104
1301.78770,0.28877
1300.29791,0.24806
1298.80812,0.22557
1297.31834,0.18724
1295.82855,0.16120
1294.33876,0.13968
1292.84897,0.12485
1291.35918,0.11076
1289.86939,0.10192
1288.37960,0.09311
1286.88982,0.10179
1285.40003,0.09248
1283.91024,0.08698
1282.42045,0.06295
1280.93066,0.05317
1279.44087,0.04756
1277.95109,0.05170
1276.46130,0.03803
1274.97151,0.03303
1273.48172,0.02806
1271.99193,0.02959
1270.50214,0.03709
1269.01235,0.03831
1267.52257,0.03055
1266.03278,0.02407
1264.54299,0.01888
1263.05320,0.02650
1261.56341,0.02396
1260.07362,0.02145
1258.58384,0.00986
1257.09405,0.00911
1255.60426,0.00730
1254.11447,0.00587
1252.62468,0.00637
1251.13489,0.01063
1249.64511,0.00735
1248.15532,0.00909
1246.66553,0.01338
1245.17574,0.01768
1243.68595,0.01156
1242.19616,0.01376
1240.70637,0.01723
1239.21659,0.01857
1237.72680,0.01147
1236.23701,0.01069
1234.74722,0.01300
1233.25743,0.01083
1231.76764,0.00869
1230.27786,0.01773
1228.78807,0.01365
1227.29828,0.01824
1225.80849,0.00952
1224.31870,0.00587
1222.82891,0.01199
1221.33912,0.02210
1219.84934,0.01728
1218.35955,0.01248
1216.86976,0.03401
1215.37997,0.06241
1213.89018,0.06579
1212.40039,0.05856
1210.91061,0.05424
1209.42082,0.05318
1207.93103,0.04927
1206.44124,0.04538
1204.95145,0.05755
1203.46166,0.05767
1201.97188,0.06718
1200.48209,0.05294
1198.99230,0.04466
1197.50251,0.04722
1196.01272,0.05214
1194.52293,0.04880
1193.03314,0.04549
1191.54336,0.03715
1190.05357,0.02037
1188.56378,0.02901
1187.07399,0.02579
1185.58420,0.02313
1184.09441,0.02374
1182.60463,0.01717
1181.11484,0.01061
1179.62505,0.02156
1178.13526,0.01740
1176.64547,0.00587
1175.15568,0.00990
1173.66589,0.01052
1172.17611,0.01478
1170.68632,0.01509
1169.19653,0.01542
1167.70674,0.00587
1166.21695,0.01581
1164.72716,0.03118
1163.23738,0.03054
1161.74759,0.05730
1160.25780,0.07220
1158.76801,0.06586
1157.27822,0.05955
1155.78843,0.09091
1154.29865,0.08969
1152.80886,0.09552
1151.31907,0.11794
1149.82928,0.11967
1148.33949,0.13458
1146.84970,0.13447
1145.35991,0.13438
1143.87013,0.13530
1142.38034,0.14256
1140.89055,0.13272
1139.40076,0.16254
1137.91097,0.17437
1136.42118,0.18838
1134.93140,0.19539
1133.44161,0.20243
1131.95182,0.22300
1130.46203,0.23422
1128.97224,0.23701
1127.48245,0.21657
1125.99266,0.24174
1124.50288,0.24081
1123.01309,0.24306
1121.52330,0.24532
1120.03351,0.23564
1118.54372,0.24381
1117.05393,0.23453
1115.56415,0.23716
1114.07436,0.24685
1112.58457,0.24133
1111.09478,0.23584
1109.60499,0.23118
1108.11520,0.25141
1106.62542,0.24644
1105.13563,0.22347
1103.64584,0.20828
1102.15605,0.20086
1100.66626,0.20292
1099.17647,0.20500
1097.68668,0.19188
1096.19690,0.20527
1094.70711,0.21454
1093.21732,0.18618
1091.72753,0.18703
1090.23774,0.18971
1088.74795,0.19240
1087.25817,0.18287
1085.76838,0.15788
1084.27859,0.14641
1082.78880,0.17245
1081.29901,0.18427
1079.80922,0.19107
1078.31943,0.20087
1076.82965,0.21070
1075.33986,0.22279
1073.85007,0.23185
1072.36028,0.22256
1070.87049,0.23941
1069.38070,0.24981
1067.89092,0.27058
1066.40113,0.29138
1064.91134,0.35751
1063.42155,0.44042
1061.93176,0.55506
1060.44197,0.64955
1058.95219,0.73091
1057.46240,0.76824
1055.97261,0.80560
1054.48282,0.84847
1052.99303,0.86056
1051.50324,0.92943
1050.01345,0.94950
1048.52367,0.95589
1047.03388,0.91755
1045.54409,0.87922
1044.05430,0.78985
1042.56451,0.73238
1041.07472,0.66972
1039.58494,0.62005
1038.09515,0.57094
1036.60536,0.54843
1035.11557,0.52595
1033.62578,0.44520
1032.13599,0.38953
1030.64620,0.32126
1029.15642,0.27122
1027.66663,0.25398
1026.17684,0.23677
1024.68705,0.21058
1023.19726,0.17324
1021.70747,0.14151
1020.21769,0.11503
1018.72790,0.10460
1017.23811,0.10068
1015.74832,0.09679
1014.25853,0.10103
1012.76874,0.09430
1011.27896,0.07355
1009.78917,0.05732
1008.29938,0.03715
1006.80959,0.03547
1005.31980,0.03381
1003.83001,0.02398
1002.34022,0.02373
1000.85044,0.04421
999.36065,0.04923
997.87086,0.05498
996.38107,0.06077
994.89128,0.07774
993.40149,0.10177
991.91171,0.10312
990.42192,0.12845
988.93213,0.12696
987.44234,0.14523
985.95255,0.16352
984.46276,0.14192
982.97297,0.12810
981.48319,0.11376
979.99340,0.10485
978.50361,0.08903
977.01382,0.07323
975.52403,0.06132
974.03424,0.04872
972.54446,0.02750
971.05467,0.02269
969.56488,0.01989
968.07509,0.01684
966.58530,0.01382
965.09551,0.01397
963.60573,0.02207
962.11594,0.00606
960.62615,0.00990
959.13636,0.01403
957.64657,0.01818
956.15678,0.00587
954.66699,0.02754
953.17721,0.03931
951.68742,0.02373
950.19763,0.03023
948.70784,0.03677
947.21805,0.06035
945.72826,0.07314
944.23848,0.08704
942.74869,0.09267
941.25890,0.11491
939.76911,0.12509
938.27932,0.13530
936.78953,0.15040
935.29974,0.16300
933.80996,0.18661
932.32017,0.21043
930.83038,0.21193
929.34059,0.21345
927.85080,0.23103
926.36101,0.25728
924.87123,0.29527
923.38144,0.34247
921.89165,0.38014
920.40186,0.41784
918.91207,0.48222
917.42228,0.58032
915.93250,0.73519
914.44271,0.91657
912.95292,1.01068
911.46313,1.10482
909.97334,1.36247
908.48355,1.61114
906.99376,1.81047
905.50398,1.87003
904.01419,1.90321
902.52440,1.93641
901.03461,2.00000
899.54482,1.87354
898.05503,1.68495
896.56525,1.49423
895.07546,1.39675
893.58567,1.29931
892.09588,1.04055
890.60609,0.81317
889.11630,0.59355
887.62651,0.44981
886.13673,0.37653
884.64694,0.30327
883.15715,0.24535
881.66736,0.17305
880.17757,0.11464
878.68778,0.10372
877.19800,0.09283
875.70821,0.06980
874.21842,0.04877
872.72863,0.03750
871.23884,0.02769
869.74905,0.02151
868.25927,0.01536
866.76948,0.01084
865.27969,0.01951
863.78990,0.03054
862.30011,0.02952
860.81032,0.04303
859.32053,0.05656
857.83075,0.06372
856.34096,0.07342
854.85117,0.09414
853.36138,0.11344
851.87159,0.12106
850.38180,0.12870
848.89202,0.15113
847.40223,0.16458
845.91244,0.19877
844.42265,0.20597
842.93286,0.21318
841.44307,0.20475
839.95329,0.23525
838.46350,0.26091
836.97371,0.26390
835.48392,0.25610
833.99413,0.24832
832.50434,0.24742
831.01455,0.24419
829.52477,0.20892
828.03498,0.19223
826.54519,0.19097
825.05540,0.18973
823.56561,0.16356
822.07582,0.13742
820.58604,0.12319
819.09625,0.11727
817.60646,0.11137
816.11667,0.13145
814.62688,0.13046
813.13709,0.13058
811.64730,0.12766
810.15752,0.11855
808.66773,0.10947
807.17794,0.12391
805.68815,0.13388
804.19836,0.14964
802.70857,0.15614
801.21879,0.16266
799.72900,0.13651
798.23921,0.11867
796.74942,0.11185
795.25963,0.12369
793.76984,0.13556
792.28006,0.14286
790.79027,0.15126
789.30048,0.16833
787.81069,0.20506
786.32090,0.22371
784.83111,0.24239
783.34132,0.25217
781.85154,0.29602
780.36175,0.32405
778.87196,0.34399
777.38217,0.36395
775.89238,0.40394
774.40259,0.42431
772.91281,0.39012
771.42302,0.37081
769.93323,0.35153
768.44344,0.31110
766.95365,0.28024
765.46386,0.25013
763.97407,0.18996
762.48429,0.17547
760.99450,0.16102
759.50471,0.11298
758.01492,0.10695
756.52513,0.09428
755.03534,0.09523
753.54556,0.09620
752.05577,0.08630
750.56598,0.07102
749.07619,0.05630
747.58640,0.04827
746.09661,0.04026
744.60683,0.02525
743.11704,0.03585
741.62725,0.02846
740.13746,0.02451
738.64767,0.02059
737.15788,0.00587
735.66809,0.00988
734.17831,0.01031
732.68852,0.01320
731.19873,0.01611
729.70894,0.00418
728.21915,0.02383
726.72936,0.01703
725.23958,0.02646
723.74979,0.02015
722.26000,0.01387
720.77021,0.00896
719.28042,0.01524
717.79063,0.00587
716.30084,0.00764
714.81106,0.00943
713.32127,0.01926
711.83148,0.03019
710.34169,0.01341
708.85190,0.01313
707.36211,0.01288
705.87233,0.03237
704.38254,0.02415
702.89275,0.03144
701.40296,0.04335
699.91317,0.05528
698.42338,0.06049
696.93360,0.07274
695.44381,0.08988
693.95402,0.09353
692.46423,0.09720
690.97444,0.11603
689.48465,0.15074
687.99486,0.17160
686.50508,0.17943
685.01529,0.18727
683.52550,0.19091
682.03571,0.20772
680.54592,0.23284
679.05613,0.24637
677.56635,0.25992
676.07656,0.23196
674.58677,0.22709
673.09698,0.19594
671.60719,0.18698
670.11740,0.17803
668.62761,0.14803
667.13783,0.14094
665.64804,0.12666
664.15825,0.11241
662.66846,0.10196
661.17867,0.07208
659.68888,0.05646
658.19910,0.04798
656.70931,0.03951
655.21952,0.03531
653.72973,0.03005
652.23994,0.03851
650.75015,0.03554
649.26037,0.03261
647.77058,0.03411
646.28079,0.03707
644.79100,0.02871
643.30121,0.02028
641.81142,0.01188
640.32163,0.02539
638.83185,0.02108
637.34206,0.00977
635.85227,0.00898
634.36248,0.00821
632.87269,0.01400
631.38290,0.01982
629.89312,0.01142
628.40333,0.00864
626.91354,0.00587
625.42375,0.01004
623.93396,0.01603
622.44417,0.01249
620.95438,0.00898
619.46460,0.02783
617.97481,0.03734
616.48502,0.04777
614.99523,0.06885
613.50544,0.08996
612.01565,0.11469
610.52587,0.12504
609.03608,0.17180
607.54629,0.19534
606.05650,0.21891
604.56671,0.26502
603.07692,0.30467
601.58714,0.31686
600.09735,0.32908
598.60756,0.36538
597.11777,0.40152
595.62798,0.43138
594.13819,0.41289
592.64840,0.39442
591.15862,0.34976
589.66883,0.30441
588.17904,0.25187
586.68925,0.22197
585.19946,0.19209
583.70967,0.15097
582.21989,0.13456
580.73010,0.11439
579.24031,0.09424
577.75052,0.08511
576.26073,0.06285
574.77094,0.05790
573.28115,0.05812
571.79137,0.05836
570.30158,0.05673
568.81179,0.07746
567.32200,0.08200
565.83221,0.08657
564.34242,0.11512
562.85264,0.12730
561.36285,0.14942
559.87306,0.16092
558.38327,0.17245
556.89348,0.17986
555.40369,0.18982
553.91391,0.19881
552.42412,0.20782
550.93433,0.20596
549.44454,0.19151
547.95475,0.17078
546.46496,0.18466
544.97517,0.19856
543.48539,0.23177
541.99560,0.25635
540.50581,0.27717
539.01602,0.29802
537.52623,0.35005
536.03644,0.38752
534.54666,0.40591
533.05687,0.42037
531.56708,0.43484
530.07729,0.47673
528.58750,0.54512
527.09771,0.58435
525.60792,0.62361
524.11814,0.66468
522.62835,0.68687
521.13856,0.74980
519.64877,0.76852
518.15898,0.78726
516.66919,0.83188
515.17941,0.85995
513.68962,0.85894
512.19983,0.85796
510.71004,0.83134
509.22025,0.75591
507.73046,0.66249
506.24068,0.60801
504.75089,0.55355
503.26110,0.44092
501.77131,0.35012
500.28152,0.31338
498.79173,0.27667
497.30194,0.21963
495.81216,0.17612
494.32237,0.14687
492.83258,0.11764
491.34279,0.11060
489.85300,0.07673
488.36321,0.08595
486.87343,0.08069
485.38364,0.07545
483.89385,0.09519
482.40406,0.10630
480.91427,0.10527
479.42448,0.10427
477.93469,0.11978
476.44491,0.14486
474.95512,0.15852
473.46533,0.17221
471.97554,0.20726
470.48575,0.19947
468.99596,0.18539
467.50618,0.16719
466.01639,0.14902
464.52660,0.13231
463.03681,0.10554
461.54702,0.08887
460.05723,0.07224
458.56745,0.03058
457.07766,0.04966
455.58787,0.03660
454.09808,0.02357
452.60829,0.03263
451.11850,0.01686
449.62871,0.01993
448.13893,0.02303
446.64914,0.01994
445.15935,0.00587
443.66956,0.03779
442.17977,0.03225
440.68998,0.02674
439.20020,0.02287
437.71041,0.02408
436.22062,0.03413
434.73083,0.04420
433.24104,0.04115
431.75125,0.03848
430.26146,0.02674
428.77168,0.01502
427.28189,0.01783
425.79210,0.04030
424.30231,0.04658
422.81252,0.05288
421.32273,0.05109
419.83295,0.05042
418.34316,0.04472
416.85337,0.03904
415.36358,0.01303
413.87379,0.04272
412.38400,0.03324
410.89422,0.02379
409.40443,0.03246
407.91464,0.03035
406.42485,0.03727
404.93506,0.03818
403.44527,0.03911
401.95548,0.04845
400.46570,0.03457
398.97591,0.02647
397.48612,0.01840
395.99633,0.02242
394.50654,0.00593
393.01675,0.00811
391.52697,0.00587
390.03718,0.01851
388.54739,0.04900
387.05760,0.03926
385.56781,0.02953
384.07802,0.00317
382.58824,0.00115
381.09845,0.00419
379.60866,0.00726
378.11887,0.02603
376.62908,0.01852
375.13929,0.02410
373.64950,0.02969
372.15972,0.02279
370.66993,0.00781
369.18014,0.00840
367.69035,0.00901
366.20056,0.01506
364.71077,0.03500
363.22099,0.03253
361.73120,0.03008
360.24141,0.02361
358.75162,0.00851
357.26183,0.01514
355.77204,0.02180
354.28225,0.02947
352.79247,0.02330
351.30268,0.03336
349.81289,0.04345
348.32310,0.03157
346.83331,0.04513
345.34352,0.04484
343.85374,0.04457
342.36395,0.02757
340.87416,0.01581
339.38437,0.02156
337.89458,0.02733
336.40479,0.02177
334.91501,0.01534
333.42522,0.01587
331.93543,0.01642
330.44564,0.02050
328.95585,0.00587
327.46606,0.01049
325.97627,0.01512
324.48649,0.03373
322.99670,0.06299
321.50691,0.06678
320.01712,0.07059
318.52733,0.05813
317.03754,0.04370
315.54776,0.04498
314.05797,0.04627
312.56818,0.06183
311.07839,0.07452
309.58860,0.06075
308.09881,0.04701
306.60902,0.04248
305.11924,0.05779
303.62945,0.04223
302.13966,0.02669
300.64987,0.00622
299.16008,0.00587
