1778.52000,0.01808
1777.03021,0.01984
1775.54042,0.01457
1774.05063,0.01956
1772.56085,0.01366
1771.07106,0.01688
1769.58127,0.01376
1768.09148,0.01088
1766.60169,0.00712
1765.11190,0.01317
1763.62212,0.00491
1762.13233,0.01260
1760.64254,0.01144
1759.15275,0.01668
1757.66296,0.01352
1756.17317,0.00993
1754.68339,0.00750
1753.19360,0.01078
1751.70381,0.00886
1750.21402,0.01447
1748.72423,0.00918
1747.23444,0.01461
1745.74465,0.00982
1744.25487,0.01279
1742.76508,0.00350
1741.27529,0.00744
1739.78550,0.00525
1738.29571,0.00491
1736.80592,0.01191
1735.31614,0.01188
1733.82635,0.01346
1732.33656,0.01416
1730.84677,0.00919
1729.35698,0.00858
1727.86719,0.01003
1726.37740,0.01697
1724.88762,0.00095
1723.39783,0.00557
1721.90804,0.00998
1720.41825,0.01602
1718.92846,0.00546
1717.43867,0.00903
1715.94889,0.01673
1714.45910,0.01148
1712.96931,0.00625
1711.47952,0.00411
1709.98973,0.01065
1708.49994,0.00719
1707.01016,0.00604
1705.52037,0.00491
1704.03058,0.00960
1702.54079,0.00862
1701.05100,0.01632
1699.56121,0.01766
1698.07142,0.01380
1696.58164,0.01747
1695.09185,0.01958
1693.60206,0.01283
1692.11227,0.01361
1690.62248,0.01306
1689.13269,0.02163
1687.64291,0.02180
1686.15312,0.02200
1684.66333,0.02792
1683.17354,0.02976
1681.68375,0.03094
1680.19396,0.02942
1678.70417,0.03315
1677.21439,0.03964
1675.72460,0.03614
1674.23481,0.04587
1672.74502,0.04355
1671.25523,0.05037
1669.76544,0.04696
1668.27566,0.04927
1666.78587,0.06868
1665.29608,0.06717
1663.80629,0.07661
1662.31650,0.07287
1660.82671,0.08646
1659.33693,0.08345
1657.84714,0.08320
1656.35735,0.06931
1654.86756,0.09256
1653.37777,0.08009
1651.88798,0.06741
1650.39819,0.06728
1648.90841,0.08197
1647.41862,0.07779
1645.92883,0.07864
1644.43904,0.07952
1642.94925,0.08065
1641.45946,0.07475
1639.96968,0.08981
1638.47989,0.07986
1636.99010,0.07903
1635.50031,0.08233
1634.01052,0.07268
1632.52073,0.08832
1631.03094,0.07849
1629.54116,0.08052
1628.05137,0.08803
1626.56158,0.09034
1625.07179,0.08971
1623.58200,0.08728
1622.09221,0.09262
1620.60243,0.07886
1619.11264,0.08948
1617.62285,0.08965
1616.13306,0.08370
1614.64327,0.07733
1613.15348,0.06824
1611.66370,0.09241
1610.17391,0.09089
1608.68412,0.08711
1607.19433,0.08358
1605.70454,0.08122
1604.21475,0.07603
1602.72496,0.07087
1601.23518,0.08611
1599.74539,0.07952
1598.25560,0.08387
1596.76581,0.08348
1595.27602,0.08561
1593.78623,0.08207
1592.29645,0.07514
1590.80666,0.05823
1589.31687,0.05613
1587.82708,0.06635
1586.33729,0.06703
1584.84750,0.06933
1583.35771,0.08918
1581.86793,0.07650
1580.37814,0.06909
1578.88835,0.06329
1577.39856,0.06662
1575.90877,0.05837
1574.41898,0.05014
1572.92920,0.05218
1571.43941,0.04081
1569.94962,0.04187
1568.45983,0.04296
1566.97004,0.03826
1565.48025,0.03610
1563.99047,0.03578
1562.50068,0.03571
1561.01089,0.03498
1559.52110,0.03792
1558.03131,0.03565
1556.54152,0.03772
1555.05173,0.03208
1553.56195,0.02306
1552.07216,0.01542
1550.58237,0.01349
1549.09258,0.00818
1547.60279,0.01040
1546.11300,0.00491
1544.62322,0.01794
1543.13343,0.00595
1541.64364,0.00651
1540.15385,0.00766
1538.66406,0.00884
1537.17427,0.00787
1535.68448,0.01669
1534.19470,0.00892
1532.70491,0.00806
1531.21512,0.00812
1529.72533,0.02538
1528.23554,0.01876
1526.74575,0.01466
1525.25597,0.03563
1523.76618,0.02453
1522.27639,0.02028
1520.78660,0.03746
1519.29681,0.04714
1517.80702,0.05799
1516.31724,0.04838
1514.82745,0.05381
1513.33766,0.04857
1511.84787,0.04335
1510.35808,0.04544
1508.86829,0.04346
1507.37850,0.05903
1505.88872,0.05528
1504.39893,0.05041
1502.90914,0.05740
1501.41935,0.06715
1499.92956,0.06440
1498.43977,0.07442
1496.94999,0.07696
1495.46020,0.10251
1493.97041,0.10396
1492.48062,0.10816
1490.99083,0.11489
1489.50104,0.12574
1488.01125,0.12785
1486.52147,0.12999
1485.03168,0.18689
1483.54189,0.21195
1482.05210,0.20972
1480.56231,0.24098
1479.07252,0.23584
1477.58274,0.24893
1476.09295,0.24794
1474.60316,0.24924
1473.11337,0.27061
1471.62358,0.27560
1470.13379,0.29542
1468.64401,0.30820
1467.15422,0.32374
1465.66443,0.33794
1464.17464,0.35216
1462.68485,0.41124
1461.19506,0.43667
1459.70527,0.49125
1458.21549,0.54153
1456.72570,0.55633
1455.23591,0.62145
1453.74612,0.70003
1452.25633,0.73721
1450.76654,0.76234
1449.27676,0.73720
1447.78697,0.73416
1446.29718,0.73843
1444.80739,0.70984
1443.31760,0.68127
1441.82781,0.61937
1440.33802,0.58846
1438.84824,0.53640
1437.35845,0.52852
1435.86866,0.50041
1434.37887,0.52149
1432.88908,0.60542
1431.39929,0.69141
1429.90951,0.74875
1428.41972,0.81932
1426.92993,0.86943
1425.44014,0.86379
1423.95035,0.89335
1422.46056,0.92293
1420.97078,0.94627
1419.48099,0.95940
1417.99120,0.97073
1416.50141,0.92814
1415.01162,0.90014
1413.52183,0.86329
1412.03204,0.81963
1410.54226,0.77851
1409.05247,0.69484
1407.56268,0.64784
1406.07289,0.59973
1404.58310,0.56666
1403.09331,0.53362
1401.60353,0.50857
1400.11374,0.43734
1398.62395,0.38434
1397.13416,0.32158
1395.64437,0.26841
1394.15458,0.22117
1392.66479,0.18921
1391.17501,0.17002
1389.68522,0.13834
1388.19543,0.12010
1386.70564,0.10781
1385.21585,0.09555
1383.72606,0.07170
1382.23628,0.05766
1380.74649,0.04797
1379.25670,0.03011
1377.76691,0.03777
1376.27712,0.02133
1374.78733,0.00491
1373.29755,0.01310
1371.80776,0.00926
1370.31797,0.03457
1368.82818,0.03453
1367.33839,0.03452
1365.84860,0.05012
1364.35881,0.05777
1362.86903,0.05089
1361.37924,0.08386
1359.88945,0.08704
1358.39966,0.11846
1356.90987,0.14718
1355.42008,0.18503
1353.93030,0.24748
1352.44051,0.28822
1350.95072,0.32899
1349.46093,0.41382
1347.97114,0.49526
1346.48135,0.56353
1344.99156,0.62590
1343.50178,0.67464
1342.01199,0.74867
1340.52220,0.80087
1339.03241,0.83557
1337.54262,0.84116
1336.05283,0.87431
1334.56305,0.90749
1333.07326,0.95048
1331.58347,0.94251
1330.09368,0.92728
1328.60389,0.91526
1327.11410,0.87891
1325.62432,0.83211
1324.13453,0.83951
1322.64474,0.82372
1321.15495,0.77996
1319.66516,0.74782
1318.17537,0.71572
1316.68558,0.65564
1315.19580,0.61470
1313.70601,0.55854
1312.21622,0.51901
1310.72643,0.49021
1309.23664,0.44778
1307.74685,0.43269
1306.25707,0.40532
1304.76728,0.38242
1303.27749,0.35955
1301.78770,0.30495
1300.29791,0.27199
1298.80812,0.24429
1297.31834,0.20706
1295.82855,0.19535
1294.33876,0.16203
1292.84897,0.12874
1291.35918,0.11391
1289.86939,0.10901
1288.37960,0.10413
1286.88982,0.10440
1285.40003,0.09262
1283.91024,0.07769
1282.42045,0.07029
1280.93066,0.06860
1279.44087,0.05465
1277.95109,0.04390
1276.46130,0.04070
1274.97151,0.04059
1273.48172,0.04050
1271.99193,0.03395
1270.50214,0.02789
1269.01235,0.03504
1267.52257,0.02902
1266.03278,0.03031
1264.54299,0.03777
1263.05320,0.03614
1261.56341,0.02646
1260.07362,0.01681
1258.58384,0.01594
1257.09405,0.02010
1255.60426,0.01655
1254.11447,0.00756
1252.62468,0.00998
1251.13489,0.00491
1249.64511,0.01140
1248.15532,0.01542
1246.66553,0.01434
1245.17574,0.01328
1243.68595,0.02602
1242.19616,0.02308
1240.70637,0.02289
1239.21659,0.02751
1237.72680,0.01804
1236.23701,0.01633
1234.74722,0.02535
1233.25743,0.02323
1231.76764,0.02114
1230.27786,0.03205
1228.78807,0.02295
1227.29828,0.02253
1225.80849,0.01052
1224.31870,0.00491
1222.82891,0.00665
1221.33912,0.02845
1219.84934,0.03889
1218.35955,0.04936
1216.86976,0.05848
1215.37997,0.05420
1213.89018,0.07703
1212.40039,0.06096
1210.91061,0.06836
1209.42082,0.05940
1207.93103,0.06127
1206.44124,0.06317
1204.95145,0.05883
1203.46166,0.06021
1201.97188,0.05751
1200.48209,0.06531
1198.99230,0.05082
1197.50251,0.05685
1196.01272,0.05539
1194.52293,0.05497
1193.03314,0.05458
1191.54336,0.05433
1190.05357,0.04568
1188.56378,0.01953
1187.07399,0.02004
1185.58420,0.01442
1184.09441,0.01565
1182.60463,0.01236
1181.11484,0.00909
1179.62505,0.01928
1178.13526,0.03222
1176.64547,0.01741
1175.15568,0.00491
1173.66589,0.00883
1172.17611,0.00503
1170.68632,0.00748
1169.19653,0.00995
1167.70674,0.02303
1166.21695,0.03364
1164.72716,0.02173
1163.23738,0.03921
1161.74759,0.03986
1160.25780,0.05284
1158.76801,0.05650
1157.27822,0.06020
1155.78843,0.05754
1154.29865,0.07061
1152.80886,0.09121
1151.31907,0.10251
1149.82928,0.12522
1148.33949,0.11380
1146.84970,0.12210
1145.35991,0.13042
1143.87013,0.11407
1142.38034,0.14555
1140.89055,0.14245
1139.40076,0.15280
1137.91097,0.17069
1136.42118,0.19611
1134.93140,0.20039
1133.44161,0.20470
1131.95182,0.22815
1130.46203,0.21862
1128.97224,0.21321
1127.48245,0.21943
1125.99266,0.23455
1124.50288,0.21943
1123.01309,0.22185
1121.52330,0.22430
1120.03351,0.22473
1118.54372,0.22541
1117.05393,0.21496
1115.56415,0.22046
1114.07436,0.22394
1112.58457,0.22142
1111.09478,0.21892
1109.60499,0.21109
1108.11520,0.23629
1106.62542,0.25014
1105.13563,0.23555
1103.64584,0.22373
1102.15605,0.21625
1100.66626,0.20766
1099.17647,0.19909
1097.68668,0.21854
1096.19690,0.20752
1094.70711,0.20198
1093.21732,0.20170
1091.72753,0.17869
1090.23774,0.17641
1088.74795,0.17416
1087.25817,0.19059
1085.76838,0.19772
1084.27859,0.17665
1082.78880,0.18451
1081.29901,0.19672
1079.80922,0.20417
1078.31943,0.20106
1076.82965,0.19798
1075.33986,0.22485
1073.85007,0.23945
1072.36028,0.23769
1070.87049,0.26987
1069.38070,0.31482
1067.89092,0.32304
1066.40113,0.33127
1064.91134,0.38722
1063.42155,0.47028
1061.93176,0.57954
1060.44197,0.66947
1058.95219,0.74577
1057.46240,0.80662
1055.97261,0.86749
1054.48282,0.95525
1052.99303,1.02118
1051.50324,1.00041
1050.01345,0.97785
1048.52367,0.94279
1047.03388,0.93279
1045.54409,0.92282
1044.05430,0.90877
1042.56451,0.81759
1041.07472,0.77764
1039.58494,0.69925
1038.09515,0.62180
1036.60536,0.58693
1035.11557,0.55209
1033.62578,0.48473
1032.13599,0.42376
1030.64620,0.36782
1029.15642,0.31396
1027.66663,0.29540
1026.17684,0.27686
1024.68705,0.23286
1023.19726,0.18660
1021.70747,0.16495
1020.21769,0.14879
1018.72790,0.13515
1017.23811,0.13418
1015.74832,0.13322
1014.25853,0.11693
1012.76874,0.10794
1011.27896,0.10831
1009.78917,0.11212
1008.29938,0.08818
1006.80959,0.07247
1005.31980,0.05677
1003.83001,0.02540
1002.34022,0.03456
1000.85044,0.01963
999.36065,0.03339
997.87086,0.04297
996.38107,0.05257
994.89128,0.09805
993.40149,0.10463
991.91171,0.11009
990.42192,0.14654
988.93213,0.16206
987.44234,0.16214
985.95255,0.16224
984.46276,0.16691
982.97297,0.14179
981.48319,0.12740
979.99340,0.09277
978.50361,0.08104
977.01382,0.06933
975.52403,0.04775
974.03424,0.02596
972.54446,0.01262
971.05467,0.02321
969.56488,0.00491
968.07509,0.01094
966.58530,0.01700
965.09551,0.02900
963.60573,0.00438
962.11594,0.00524
960.62615,0.00635
959.13636,0.00943
957.64657,0.01252
956.15678,0.01781
954.66699,0.01583
953.17721,0.01069
951.68742,0.01537
950.19763,0.01585
948.70784,0.01637
947.21805,0.04137
945.72826,0.06571
944.23848,0.08735
942.74869,0.09240
941.25890,0.12160
939.76911,0.13215
938.27932,0.14273
936.78953,0.15220
935.29974,0.17808
933.80996,0.18896
932.32017,0.20078
930.83038,0.21205
929.34059,0.22335
927.85080,0.25709
926.36101,0.28584
924.87123,0.31895
923.38144,0.36118
921.89165,0.38956
920.40186,0.41795
918.91207,0.51944
917.42228,0.64371
915.93250,0.79486
914.44271,0.97996
912.95292,1.09599
911.46313,1.21205
909.97334,1.44502
908.48355,1.62497
906.99376,1.79493
905.50398,1.92372
904.01419,1.95694
902.52440,1.99018
901.03461,2.00000
899.54482,1.98663
898.05503,1.83853
896.56525,1.61535
895.07546,1.46696
893.58567,1.31860
892.09588,1.04268
890.60609,0.81482
889.11630,0.62499
887.62651,0.46864
886.13673,0.40211
884.64694,0.33561
883.15715,0.23442
881.66736,0.19379
880.17757,0.14910
878.68778,0.12172
877.19800,0.09438
875.70821,0.06432
874.21842,0.04180
872.72863,0.03660
871.23884,0.03985
869.74905,0.03026
868.25927,0.02070
866.76948,0.01719
865.27969,0.03647
863.78990,0.03529
862.30011,0.05780
860.81032,0.05575
859.32053,0.05373
857.83075,0.08246
856.34096,0.10211
854.85117,0.11132
853.36138,0.12146
851.87159,0.13572
850.38180,0.15000
848.89202,0.16568
847.40223,0.19776
845.91244,0.21235
844.42265,0.22241
842.93286,0.23249
841.44307,0.22666
839.95329,0.25295
838.46350,0.24944
836.97371,0.26918
835.48392,0.27426
833.99413,0.27937
832.50434,0.27869
831.01455,0.27781
829.52477,0.25306
828.03498,0.21422
826.54519,0.21307
825.05540,0.21195
823.56561,0.17955
822.07582,0.15583
820.58604,0.14647
819.09625,0.14533
817.60646,0.14421
816.11667,0.13220
814.62688,0.13750
813.13709,0.13441
811.64730,0.14295
810.15752,0.14230
808.66773,0.14167
807.17794,0.11887
805.68815,0.12591
804.19836,0.12524
802.70857,0.12789
801.21879,0.13057
799.72900,0.13749
798.23921,0.13236
796.74942,0.12999
795.25963,0.13811
793.76984,0.14626
792.28006,0.14715
790.79027,0.16172
789.30048,0.19179
787.81069,0.21073
786.32090,0.23334
784.83111,0.25597
783.34132,0.26929
781.85154,0.32225
780.36175,0.36476
778.87196,0.38384
777.38217,0.40295
775.89238,0.40502
774.40259,0.44125
772.91281,0.41446
771.42302,0.39554
769.93323,0.37665
768.44344,0.34788
766.95365,0.28066
765.46386,0.24603
763.97407,0.19002
762.48429,0.17887
760.99450,0.16775
759.50471,0.16006
758.01492,0.12919
756.52513,0.12383
755.03534,0.12225
753.54556,0.12069
752.05577,0.10084
750.56598,0.08283
749.07619,0.06416
747.58640,0.05769
746.09661,0.05125
744.60683,0.04335
743.11704,0.02933
741.62725,0.01921
740.13746,0.02083
738.64767,0.02247
737.15788,0.02540
735.66809,0.01127
734.17831,0.00491
732.68852,0.01565
731.19873,0.02642
729.70894,0.02083
728.21915,0.00866
726.72936,0.00959
725.23958,0.01145
723.74979,0.01187
722.26000,0.01230
720.77021,0.00491
719.28042,0.01573
717.79063,0.00677
716.30084,0.00763
714.81106,0.00850
713.32127,0.02511
711.83148,0.01580
710.34169,0.02494
708.85190,0.01488
707.36211,0.00484
705.87233,0.02976
704.38254,0.02353
702.89275,0.03257
701.40296,0.04049
699.91317,0.04844
698.42338,0.05072
696.93360,0.06532
695.44381,0.08108
693.95402,0.08332
692.46423,0.08559
690.97444,0.12054
689.48465,0.14209
687.99486,0.15433
686.50508,0.17900
685.01529,0.20369
683.52550,0.22670
682.03571,0.23448
680.54592,0.23637
679.05613,0.23601
677.56635,0.23568
676.07656,0.25653
674.58677,0.25010
673.09698,0.21478
671.60719,0.19474
670.11740,0.17472
668.62761,0.16519
667.13783,0.12018
665.64804,0.10707
664.15825,0.09397
662.66846,0.08432
661.17867,0.07924
659.68888,0.05279
658.19910,0.05538
656.70931,0.05800
655.21952,0.03959
653.72973,0.04943
652.23994,0.04085
650.75015,0.03970
649.26037,0.03857
647.77058,0.03689
646.28079,0.04230
644.79100,0.05228
643.30121,0.04931
641.81142,0.04637
640.32163,0.02251
638.83185,0.00732
637.34206,0.00491
635.85227,0.00767
634.36248,0.01046
632.87269,0.01714
631.38290,0.02043
629.89312,0.00896
628.40333,0.00911
626.91354,0.00929
625.42375,0.01700
623.93396,0.00699
622.44417,0.00348
620.95438,0.00000
619.46460,0.01077
617.97481,0.04455
616.48502,0.07403
614.99523,0.07384
613.50544,0.07366
612.01565,0.11642
610.52587,0.14486
609.03608,0.16854
607.54629,0.19555
606.05650,0.22259
604.56671,0.27229
603.07692,0.33978
601.58714,0.36233
600.09735,0.38491
598.60756,0.41445
597.11777,0.44311
595.62798,0.43788
594.13819,0.41879
592.64840,0.39972
591.15862,0.41550
589.66883,0.33503
588.17904,0.28826
586.68925,0.24528
585.19946,0.20232
583.70967,0.16701
582.21989,0.11169
580.73010,0.10476
579.24031,0.09786
577.75052,0.08769
576.26073,0.07275
574.77094,0.08470
573.28115,0.07858
571.79137,0.07249
570.30158,0.07108
568.81179,0.09269
567.32200,0.10408
565.83221,0.11549
564.34242,0.10576
562.85264,0.13816
561.36285,0.16262
559.87306,0.16377
558.38327,0.16495
556.89348,0.21998
555.40369,0.24431
553.91391,0.23497
552.42412,0.22566
550.93433,0.21433
549.44454,0.21007
547.95475,0.21449
546.46496,0.22303
544.97517,0.23159
543.48539,0.24542
541.99560,0.25995
540.50581,0.28258
539.01602,0.30524
537.52623,0.36196
536.03644,0.41641
534.54666,0.44563
533.05687,0.46737
531.56708,0.48912
530.07729,0.54732
528.58750,0.59553
527.09771,0.61337
525.60792,0.63124
524.11814,0.70456
522.62835,0.75377
521.13856,0.77524
519.64877,0.78741
518.15898,0.79959
516.66919,0.82933
515.17941,0.83565
513.68962,0.83789
512.19983,0.84016
510.71004,0.82219
509.22025,0.79128
507.73046,0.70826
506.24068,0.63859
504.75089,0.56894
503.26110,0.46597
501.77131,0.39306
500.28152,0.35376
498.79173,0.31448
497.30194,0.22867
495.81216,0.18819
494.32237,0.16833
492.83258,0.14849
491.34279,0.14017
489.85300,0.08476
488.36321,0.05783
486.87343,0.05960
485.38364,0.06139
483.89385,0.07345
482.40406,0.09851
480.91427,0.10663
479.42448,0.11478
477.93469,0.14469
476.44491,0.15368
474.95512,0.18364
473.46533,0.21363
471.97554,0.23544
470.48575,0.23360
468.99596,0.21267
467.50618,0.18801
466.01639,0.16338
464.52660,0.13114
463.03681,0.11395
461.54702,0.10190
460.05723,0.08988
458.56745,0.07185
457.07766,0.04133
455.58787,0.03450
454.09808,0.02769
452.60829,0.02456
451.11850,0.01075
449.62871,0.02814
448.13893,0.04556
446.64914,0.02363
445.15935,0.00491
443.66956,0.01970
442.17977,0.02416
440.68998,0.02864
439.20020,0.02553
437.71041,0.03268
436.22062,0.03553
434.73083,0.03840
433.24104,0.04267
431.75125,0.05196
430.26146,0.05070
428.77168,0.04946
427.28189,0.07135
425.79210,0.05912
424.30231,0.05101
422.81252,0.04292
421.32273,0.03076
419.83295,0.00953
418.34316,0.01244
416.85337,0.01538
415.36358,0.00491
413.87379,0.04391
412.38400,0.04469
410.89422,0.04550
409.40443,0.03768
407.91464,0.04832
406.42485,0.02098
404.93506,0.02188
403.44527,0.02281
401.95548,0.02763
400.46570,0.02110
398.97591,0.02574
397.48612,0.03041
395.99633,0.02007
394.50654,0.02934
393.01675,0.02042
391.52697,0.01153
390.03718,0.01052
388.54739,0.00726
387.05760,0.00769
385.56781,0.00815
384.07802,0.01603
382.58824,0.02826
381.09845,0.02049
379.60866,0.01273
378.11887,0.00228
376.62908,0.02302
375.13929,0.01614
373.64950,0.00928
372.15972,0.00938
370.66993,0.02044
369.18014,0.01381
367.69035,0.00721
366.20056,0.01242
364.71077,0.05158
363.22099,0.04194
361.73120,0.03232
360.24141,0.06494
358.75162,0.07552
357.26183,0.06563
355.77204,0.05577
354.28225,0.04866
352.79247,0.05751
351.30268,0.06080
349.81289,0.06412
348.32310,0.05711
346.83331,0.09292
345.34352,0.07981
343.85374,0.06672
342.36395,0.04206
340.87416,0.03699
339.38437,0.04184
337.89458,0.04672
336.40479,0.03262
334.91501,0.04426
333.42522,0.02736
331.93543,0.01049
330.44564,0.00491
328.95585,0.02918
327.46606,0.02730
325.97627,0.02544
324.48649,0.01809
322.99670,0.05537
321.50691,0.06126
320.01712,0.06718
318.52733,0.10272
317.03754,0.09617
315.54776,0.09010
314.05797,0.08405
312.56818,0.10079
311.07839,0.07362
309.58860,0.06799
308.09881,0.06238
306.60902,0.07262
305.11924,0.04509
303.62945,0.03204
302.13966,0.01902
300.64987,0.00491
299.16008,0.00491
