1778.52000,0.01199
1777.03021,0.01867
1775.54042,0.01936
1774.05063,0.01846
1772.56085,0.01943
1771.07106,0.01118
1769.58127,0.00781
1768.09148,0.00493
1766.60169,0.00600
1765.11190,0.01147
1763.62212,0.00266
1762.13233,0.01626
1760.64254,0.01419
1759.15275,0.00522
1757.66296,0.01428
1756.17317,0.00928
1754.68339,0.00846
1753.19360,0.00582
1751.70381,0.01220
1750.21402,0.00568
1748.72423,0.00980
1747.23444,0.00679
1745.74465,0.00335
1744.25487,0.00824
1742.76508,0.01130
1741.27529,0.01924
1739.78550,0.01774
1738.29571,0.00425
1736.80592,0.00395
1735.31614,0.01861
1733.82635,0.01274
1732.33656,0.00714
1730.84677,0.00663
1729.35698,0.00961
1727.86719,0.00777
1726.37740,0.00549
1724.88762,0.00000
1723.39783,0.00215
1721.90804,0.00133
1720.41825,0.01716
1718.92846,0.00184
1717.43867,0.01101
1715.94889,0.00313
1714.45910,0.01679
1712.96931,0.00991
1711.47952,0.00561
1709.98973,0.00294
1708.49994,0.00907
1707.01016,0.01176
1705.52037,0.01448
1704.03058,0.00128
1702.54079,0.00382
1701.05100,0.01122
1699.56121,0.01126
1698.07142,0.01387
1696.58164,0.01557
1695.09185,0.01153
1693.60206,0.00266
1692.11227,0.01010
1690.62248,0.01987
1689.13269,0.01235
1687.64291,0.00740
1686.15312,0.01655
1684.66333,0.01603
1683.17354,0.01854
1681.68375,0.01691
1680.19396,0.03286
1678.70417,0.02481
1677.21439,0.02787
1675.72460,0.03119
1674.23481,0.02553
1672.74502,0.03144
1671.25523,0.03298
1669.76544,0.03593
1668.27566,0.05230
1666.78587,0.06292
1665.29608,0.06294
1663.80629,0.05744
1662.31650,0.06952
1660.82671,0.04999
1659.33693,0.05449
1657.84714,0.05325
1656.35735,0.04649
1654.86756,0.06238
1653.37777,0.06629
1651.88798,0.07276
1650.39819,0.07233
1648.90841,0.08208
1647.41862,0.06854
1645.92883,0.06287
1644.43904,0.05722
1642.94925,0.06014
1641.45946,0.04531
1639.96968,0.05821
1638.47989,0.06166
1636.99010,0.05637
1635.50031,0.06264
1634.01052,0.05739
1632.52073,0.06602
1631.03094,0.06798
1629.54116,0.06096
1628.05137,0.07497
1626.56158,0.07724
1625.07179,0.08437
1623.58200,0.07952
1622.09221,0.07008
1620.60243,0.06574
1619.11264,0.06720
1617.62285,0.07630
1616.13306,0.07596
1614.64327,0.05786
1613.15348,0.05664
1611.66370,0.07877
1610.17391,0.06998
1608.68412,0.07807
1607.19433,0.06702
1605.70454,0.08601
1604.21475,0.07594
1602.72496,0.06588
1601.23518,0.06532
1599.74539,0.06432
1598.25560,0.06634
1596.76581,0.07762
1595.27602,0.07000
1593.78623,0.06332
1592.29645,0.06498
1590.80666,0.06273
1589.31687,0.06860
1587.82708,0.06709
1586.33729,0.06331
1584.84750,0.06947
1583.35771,0.06042
1581.86793,0.06456
1580.37814,0.07172
1578.88835,0.08075
1577.39856,0.06002
1575.90877,0.05732
1574.41898,0.05303
1572.92920,0.04253
1571.43941,0.03229
1569.94962,0.03431
1568.45983,0.03635
1566.97004,0.04165
1565.48025,0.03219
1563.99047,0.03177
1562.50068,0.03252
1561.01089,0.03099
1559.52110,0.02509
1558.03131,0.02060
1556.54152,0.01499
1555.05173,0.02671
1553.56195,0.01006
1552.07216,0.01698
1550.58237,0.01007
1549.09258,0.00157
1547.60279,0.00949
1546.11300,0.00266
1544.62322,0.00316
1543.13343,0.00455
1541.64364,0.00828
1540.15385,0.00672
1538.66406,0.00518
1537.17427,0.01476
1535.68448,0.01004
1534.19470,0.00674
1532.70491,0.00647
1531.21512,0.02146
1529.72533,0.01269
1528.23554,0.01110
1526.74575,0.00608
1525.25597,0.00685
1523.76618,0.01457
1522.27639,0.03086
1520.78660,0.03078
1519.29681,0.02726
1517.80702,0.04270
1516.31724,0.04569
1514.82745,0.03832
1513.33766,0.03455
1511.84787,0.03080
1510.35808,0.03481
1508.86829,0.02892
1507.37850,0.04845
1505.88872,0.03799
1504.39893,0.04925
1502.90914,0.04738
1501.41935,0.06124
1499.92956,0.05272
1498.43977,0.04930
1496.94999,0.07062
1495.46020,0.07602
1493.97041,0.07591
1492.48062,0.07005
1490.99083,0.08892
1489.50104,0.10297
1488.01125,0.10792
1486.52147,0.11289
1485.03168,0.12424
1483.54189,0.13468
1482.05210,0.14723
1480.56231,0.17713
1479.07252,0.16894
1477.58274,0.17602
1476.09295,0.18312
1474.60316,0.18240
1473.11337,0.18540
1471.62358,0.20250
1470.13379,0.21732
1468.64401,0.24302
1467.15422,0.25373
1465.66443,0.25950
1464.17464,0.26529
1462.68485,0.29362
1461.19506,0.31551
1459.70527,0.34851
1458.21549,0.39562
1456.72570,0.46492
1455.23591,0.50815
1453.74612,0.57264
1452.25633,0.60160
1450.76654,0.63336
1449.27676,0.62842
1447.78697,0.61474
1446.29718,0.58307
1444.80739,0.57255
1443.31760,0.56206
1441.82781,0.54754
1440.33802,0.50927
1438.84824,0.48326
1437.35845,0.44273
1435.86866,0.43663
1434.37887,0.47604
1432.88908,0.52447
1431.39929,0.57247
1429.90951,0.61403
1428.41972,0.65839
1426.92993,0.71084
1425.44014,0.73978
1423.95035,0.76076
1422.46056,0.78178
1420.97078,0.82002
1419.48099,0.85020
1417.99120,0.86124
1416.50141,0.82889
1415.01162,0.75916
1413.52183,0.71186
1412.03204,0.69667
1410.54226,0.66349
1409.05247,0.62942
1407.56268,0.60138
1406.07289,0.52163
1404.58310,0.49017
1403.09331,0.45873
1401.60353,0.40492
1400.11374,0.35737
1398.62395,0.32346
1397.13416,0.27111
1395.64437,0.22409
1394.15458,0.19487
1392.66479,0.15714
1391.17501,0.13028
1389.68522,0.10645
1388.19543,0.08887
1386.70564,0.07779
1385.21585,0.06672
1383.72606,0.03491
1382.23628,0.02297
1380.74649,0.00621
1379.25670,0.01625
1377.76691,0.01640
1376.27712,0.00109
1374.78733,0.00157
1373.29755,0.00368
1371.80776,0.00858
1370.31797,0.00266
1368.82818,0.00981
1367.33839,0.01699
1365.84860,0.01172
1364.35881,0.03118
1362.86903,0.04351
1361.37924,0.05332
1359.88945,0.05923
1358.39966,0.08618
1356.90987,0.10969
1355.42008,0.13876
1353.93030,0.20065
1352.44051,0.23762
1350.95072,0.27462
1349.46093,0.33681
1347.97114,0.42627
1346.48135,0.50420
1344.99156,0.56900
1343.50178,0.61443
1342.01199,0.67143
1340.52220,0.69982
1339.03241,0.74301
1337.54262,0.76267
1336.05283,0.79044
1334.56305,0.81824
1333.07326,0.84536
1331.58347,0.89260
1330.09368,0.85789
1328.60389,0.83613
1327.11410,0.80793
1325.62432,0.75944
1324.13453,0.73198
1322.64474,0.74150
1321.15495,0.69146
1319.66516,0.66557
1318.17537,0.63972
1316.68558,0.59090
1315.19580,0.54420
1313.70601,0.51021
1312.21622,0.46078
1310.72643,0.44070
1309.23664,0.40748
1307.74685,0.39645
1306.25707,0.34919
1304.76728,0.32077
1303.27749,0.29238
1301.78770,0.24866
1300.29791,0.22297
1298.80812,0.20400
1297.31834,0.15851
1295.82855,0.12389
1294.33876,0.09506
1292.84897,0.07411
1291.35918,0.07766
1289.86939,0.08285
1288.37960,0.08807
1286.88982,0.08569
1285.40003,0.07686
1283.91024,0.06252
1282.42045,0.05721
1280.93066,0.03276
1279.44087,0.03904
1277.95109,0.04188
1276.46130,0.03944
1274.97151,0.04106
1273.48172,0.04270
1271.99193,0.03386
1270.50214,0.01766
1269.01235,0.01049
1267.52257,0.02527
1266.03278,0.02461
1264.54299,0.02190
1263.05320,0.00997
1261.56341,0.00869
1260.07362,0.00743
1258.58384,0.00989
1257.09405,0.00360
1255.60426,0.01627
1254.11447,0.00380
1252.62468,0.00266
1251.13489,0.01850
1249.64511,0.01335
1248.15532,0.02115
1246.66553,0.01767
1245.17574,0.01420
1243.68595,0.01215
1242.19616,0.00666
1240.70637,0.00627
1239.21659,0.00498
1237.72680,0.00441
1236.23701,0.01333
1234.74722,0.01466
1233.25743,0.01935
1231.76764,0.02407
1230.27786,0.02570
1228.78807,0.03635
1227.29828,0.03295
1225.80849,0.01802
1224.31870,0.00266
1222.82891,0.01396
1221.33912,0.02874
1219.84934,0.02843
1218.35955,0.02814
1216.86976,0.02845
1215.37997,0.03456
1213.89018,0.04484
1212.40039,0.06301
1210.91061,0.06665
1209.42082,0.06408
1207.93103,0.05933
1206.44124,0.05462
1204.95145,0.05466
1203.46166,0.05011
1201.97188,0.05874
1200.48209,0.05747
1198.99230,0.03059
1197.50251,0.01597
1196.01272,0.04178
1194.52293,0.03968
1193.03314,0.03761
1191.54336,0.02747
1190.05357,0.01228
1188.56378,0.00266
1187.07399,0.02856
1185.58420,0.00900
1184.09441,0.02087
1182.60463,0.01221
1181.11484,0.00358
1179.62505,0.01206
1178.13526,0.01478
1176.64547,0.00853
1175.15568,0.00715
1173.66589,0.00187
1172.17611,0.01791
1170.68632,0.01181
1169.19653,0.00573
1167.70674,0.02762
1166.21695,0.00266
1164.72716,0.01712
1163.23738,0.03968
1161.74759,0.04750
1160.25780,0.06134
1158.76801,0.06435
1157.27822,0.06738
1155.78843,0.07044
1154.29865,0.06913
1152.80886,0.08471
1151.31907,0.08645
1149.82928,0.08476
1148.33949,0.11542
1146.84970,0.11123
1145.35991,0.10707
1143.87013,0.13964
1142.38034,0.13968
1140.89055,0.15037
1139.40076,0.15693
1137.91097,0.16974
1136.42118,0.18350
1134.93140,0.19290
1133.44161,0.20232
1131.95182,0.21915
1130.46203,0.22424
1128.97224,0.22242
1127.48245,0.22570
1125.99266,0.22624
1124.50288,0.23349
1123.01309,0.23869
1121.52330,0.24392
1120.03351,0.21800
1118.54372,0.21634
1117.05393,0.23988
1115.56415,0.21981
1114.07436,0.23508
1112.58457,0.23710
1111.09478,0.23915
1109.60499,0.25149
1108.11520,0.23592
1106.62542,0.22869
1105.13563,0.22541
1103.64584,0.21152
1102.15605,0.21083
1100.66626,0.20935
1099.17647,0.20789
1097.68668,0.17655
1096.19690,0.19604
1094.70711,0.18461
1093.21732,0.17875
1091.72753,0.17268
1090.23774,0.17691
1088.74795,0.18116
1087.25817,0.18417
1085.76838,0.15926
1084.27859,0.16139
1082.78880,0.16170
1081.29901,0.16711
1079.80922,0.15453
1078.31943,0.16195
1076.82965,0.16940
1075.33986,0.17468
1073.85007,0.18875
1072.36028,0.20539
1070.87049,0.20081
1069.38070,0.21034
1067.89092,0.22324
1066.40113,0.23616
1064.91134,0.31250
1063.42155,0.38216
1061.93176,0.47216
1060.44197,0.52062
1058.95219,0.60513
1057.46240,0.62894
1055.97261,0.65277
1054.48282,0.72118
1052.99303,0.76885
1051.50324,0.78466
1050.01345,0.77673
1048.52367,0.76465
1047.03388,0.77408
1045.54409,0.78353
1044.05430,0.75052
1042.56451,0.72076
1041.07472,0.65501
1039.58494,0.59944
1038.09515,0.52127
1036.60536,0.49496
1035.11557,0.46867
1033.62578,0.41666
1032.13599,0.38915
1030.64620,0.35173
1029.15642,0.28086
1027.66663,0.26047
1026.17684,0.24010
1024.68705,0.19262
1023.19726,0.18234
1021.70747,0.15361
1020.21769,0.14130
1018.72790,0.13548
1017.23811,0.12195
1015.74832,0.10844
1014.25853,0.08007
1012.76874,0.07781
1011.27896,0.07603
1009.78917,0.06320
1008.29938,0.05732
1006.80959,0.03980
1005.31980,0.02230
1003.83001,0.02619
1002.34022,0.02225
1000.85044,0.02687
999.36065,0.03176
997.87086,0.03920
996.38107,0.04667
994.89128,0.04978
993.40149,0.05291
991.91171,0.07546
990.42192,0.08626
988.93213,0.08692
987.44234,0.08969
985.95255,0.09248
984.46276,0.09460
982.97297,0.07065
981.48319,0.06913
979.99340,0.05608
978.50361,0.04779
977.01382,0.03952
975.52403,0.03463
974.03424,0.01590
972.54446,0.01475
971.05467,0.00901
969.56488,0.02107
968.07509,0.01525
966.58530,0.00946
965.09551,0.00266
963.60573,0.02026
962.11594,0.01111
960.62615,0.01237
959.13636,0.00707
957.64657,0.00180
956.15678,0.00662
954.66699,0.02856
953.17721,0.02973
951.68742,0.03278
950.19763,0.03943
948.70784,0.04611
947.21805,0.05847
945.72826,0.07916
944.23848,0.08048
942.74869,0.10468
941.25890,0.11460
939.76911,0.12546
938.27932,0.13634
936.78953,0.14817
935.29974,0.16303
933.80996,0.17329
932.32017,0.20690
930.83038,0.21352
929.34059,0.22016
927.85080,0.24183
926.36101,0.25198
924.87123,0.26631
923.38144,0.31923
921.89165,0.35070
920.40186,0.38219
918.91207,0.48298
917.42228,0.57547
915.93250,0.69963
914.44271,0.88823
912.95292,0.99269
911.46313,1.09718
909.97334,1.28262
908.48355,1.49995
906.99376,1.74155
905.50398,1.88758
904.01419,1.92095
902.52440,1.95434
901.03461,2.00000
899.54482,1.99073
898.05503,1.81869
896.56525,1.58248
895.07546,1.46522
893.58567,1.34797
892.09588,1.07605
890.60609,0.87134
889.11630,0.63687
887.62651,0.45692
886.13673,0.40607
884.64694,0.35524
883.15715,0.24232
881.66736,0.17330
880.17757,0.09599
878.68778,0.08371
877.19800,0.07144
875.70821,0.04731
874.21842,0.02967
872.72863,0.01482
871.23884,0.01247
869.74905,0.01730
868.25927,0.02215
866.76948,0.02426
865.27969,0.01022
863.78990,0.01469
862.30011,0.02494
860.81032,0.02761
859.32053,0.03029
857.83075,0.04478
856.34096,0.06229
854.85117,0.07683
853.36138,0.09531
851.87159,0.09119
850.38180,0.08710
848.89202,0.10358
847.40223,0.10923
845.91244,0.11882
844.42265,0.12729
842.93286,0.13578
841.44307,0.15054
839.95329,0.16854
838.46350,0.16810
836.97371,0.17530
835.48392,0.17433
833.99413,0.17339
832.50434,0.18713
831.01455,0.17572
829.52477,0.17219
828.03498,0.13798
826.54519,0.13230
825.05540,0.12665
823.56561,0.11768
822.07582,0.09418
820.58604,0.08825
819.09625,0.07438
817.60646,0.06054
816.11667,0.06785
814.62688,0.06132
813.13709,0.07445
811.64730,0.08922
810.15752,0.08346
808.66773,0.07773
807.17794,0.06694
805.68815,0.07718
804.19836,0.09738
802.70857,0.11403
801.21879,0.13069
799.72900,0.10779
798.23921,0.06481
796.74942,0.06689
795.25963,0.06784
793.76984,0.06881
792.28006,0.09428
790.79027,0.11677
789.30048,0.12820
787.81069,0.14890
786.32090,0.15518
784.83111,0.16149
783.34132,0.17995
781.85154,0.20374
780.36175,0.23518
778.87196,0.25428
777.38217,0.27341
775.89238,0.30076
774.40259,0.30043
772.91281,0.29550
771.42302,0.28956
769.93323,0.28364
768.44344,0.24461
766.95365,0.20075
765.46386,0.19825
763.97407,0.15375
762.48429,0.15303
760.99450,0.15234
759.50471,0.10445
758.01492,0.08613
756.52513,0.08378
755.03534,0.07290
753.54556,0.06205
752.05577,0.05954
750.56598,0.04966
749.07619,0.04535
747.58640,0.03713
746.09661,0.02894
744.60683,0.02077
743.11704,0.02417
741.62725,0.01790
740.13746,0.01027
738.64767,0.00266
737.15788,0.00405
735.66809,0.00269
734.17831,0.02144
732.68852,0.02129
731.19873,0.02115
729.70894,0.01850
728.21915,0.01196
726.72936,0.00266
725.23958,0.02319
723.74979,0.02331
722.26000,0.02345
720.77021,0.01911
719.28042,0.00649
717.79063,0.00543
716.30084,0.01329
714.81106,0.02117
713.32127,0.00887
711.83148,0.02315
710.34169,0.01391
708.85190,0.02442
707.36211,0.03497
705.87233,0.01771
704.38254,0.02864
702.89275,0.03129
701.40296,0.03304
699.91317,0.03481
698.42338,0.05069
696.93360,0.06175
695.44381,0.08691
693.95402,0.09490
692.46423,0.10291
690.97444,0.11753
689.48465,0.13979
687.99486,0.16969
686.50508,0.17710
685.01529,0.18454
683.52550,0.21059
682.03571,0.23482
680.54592,0.24360
679.05613,0.24386
677.56635,0.24414
676.07656,0.23752
674.58677,0.21800
673.09698,0.20381
671.60719,0.19564
670.11740,0.18750
668.62761,0.16738
667.13783,0.15167
665.64804,0.13910
664.15825,0.12655
662.66846,0.09960
661.17867,0.06921
659.68888,0.05200
658.19910,0.04890
656.70931,0.04582
655.21952,0.03377
653.72973,0.02635
652.23994,0.05106
650.75015,0.04000
649.26037,0.02896
647.77058,0.05282
646.28079,0.03144
644.79100,0.02186
643.30121,0.02142
641.81142,0.02101
640.32163,0.02490
638.83185,0.02488
637.34206,0.01334
635.85227,0.01695
634.36248,0.02059
632.87269,0.00266
631.38290,0.01748
629.89312,0.01824
628.40333,0.01914
626.91354,0.02006
625.42375,0.01881
623.93396,0.00974
622.44417,0.00831
620.95438,0.00690
619.46460,0.01498
617.97481,0.03025
616.48502,0.04462
614.99523,0.05739
613.50544,0.07019
612.01565,0.11118
610.52587,0.15728
609.03608,0.17638
607.54629,0.18454
606.05650,0.19273
604.56671,0.27009
603.07692,0.31631
601.58714,0.33288
600.09735,0.34947
598.60756,0.36320
597.11777,0.39913
595.62798,0.41614
594.13819,0.40650
592.64840,0.39689
591.15862,0.35556
589.66883,0.29970
588.17904,0.24779
586.68925,0.21495
585.19946,0.18214
583.70967,0.13608
582.21989,0.11728
580.73010,0.10867
579.24031,0.10009
577.75052,0.08114
576.26073,0.06613
574.77094,0.04169
573.28115,0.02811
571.79137,0.01457
570.30158,0.03130
568.81179,0.03973
567.32200,0.04773
565.83221,0.05576
564.34242,0.07927
562.85264,0.09335
561.36285,0.10653
559.87306,0.11603
558.38327,0.12556
556.89348,0.14850
555.40369,0.13522
553.91391,0.13917
552.42412,0.14313
550.93433,0.13316
549.44454,0.12690
547.95475,0.14768
546.46496,0.15093
544.97517,0.15421
543.48539,0.18130
541.99560,0.22134
540.50581,0.23831
539.01602,0.25531
537.52623,0.29450
536.03644,0.35288
534.54666,0.36649
533.05687,0.40044
531.56708,0.43441
530.07729,0.46587
528.58750,0.50590
527.09771,0.52713
525.60792,0.54838
524.11814,0.62265
522.62835,0.67663
521.13856,0.77358
519.64877,0.79885
518.15898,0.82415
516.66919,0.84174
515.17941,0.85959
513.68962,0.83901
512.19983,0.81846
510.71004,0.77587
509.22025,0.71831
507.73046,0.65407
506.24068,0.59886
504.75089,0.54368
503.26110,0.46035
501.77131,0.36942
500.28152,0.32654
498.79173,0.28369
497.30194,0.19976
495.81216,0.17867
494.32237,0.15863
492.83258,0.13862
491.34279,0.12290
489.85300,0.05872
488.36321,0.04952
486.87343,0.05339
485.38364,0.05728
483.89385,0.05461
482.40406,0.07114
480.91427,0.08157
479.42448,0.09202
477.93469,0.11323
476.44491,0.12362
474.95512,0.13564
473.46533,0.14769
471.97554,0.14407
470.48575,0.14762
468.99596,0.14658
467.50618,0.13852
466.01639,0.13049
464.52660,0.11266
463.03681,0.09325
461.54702,0.08632
460.05723,0.07942
458.56745,0.02267
457.07766,0.00266
455.58787,0.01743
454.09808,0.03222
452.60829,0.03965
451.11850,0.02125
449.62871,0.02087
448.13893,0.02053
446.64914,0.01928
445.15935,0.01898
443.66956,0.02932
442.17977,0.03080
440.68998,0.03230
439.20020,0.01570
437.71041,0.03515
436.22062,0.02864
434.73083,0.02216
433.24104,0.04814
431.75125,0.04921
430.26146,0.04569
428.77168,0.04219
427.28189,0.03917
425.79210,0.04219
424.30231,0.05192
422.81252,0.06168
421.32273,0.06776
419.83295,0.02330
418.34316,0.02228
416.85337,0.02128
415.36358,0.02030
413.87379,0.02928
412.38400,0.03782
410.89422,0.04638
409.40443,0.04342
407.91464,0.05827
406.42485,0.07591
404.93506,0.06356
403.44527,0.05123
401.95548,0.03892
400.46570,0.03865
398.97591,0.03944
397.48612,0.04025
395.99633,0.04051
394.50654,0.03640
393.01675,0.03382
391.52697,0.03127
390.03718,0.03533
388.54739,0.03850
387.05760,0.03592
385.56781,0.03336
384.07802,0.03105
382.58824,0.02854
381.09845,0.02143
379.60866,0.01435
378.11887,0.02554
376.62908,0.04529
375.13929,0.02396
373.64950,0.00266
372.15972,0.03417
370.66993,0.05254
369.18014,0.04392
367.69035,0.03532
366.20056,0.03413
364.71077,0.04706
363.22099,0.04742
361.73120,0.04781
360.24141,0.06127
358.75162,0.04843
357.26183,0.05097
355.77204,0.05353
354.28225,0.00867
352.79247,0.02086
351.30268,0.02696
349.81289,0.03308
348.32310,0.07444
346.83331,0.08211
345.34352,0.07526
343.85374,0.06843
342.36395,0.02376
340.87416,0.03660
339.38437,0.02788
337.89458,0.01919
336.40479,0.01063
334.91501,0.04643
333.42522,0.02453
331.93543,0.00266
330.44564,0.03091
328.95585,0.02177
327.46606,0.02063
325.97627,0.01951
324.48649,0.03308
322.99670,0.04089
321.50691,0.04758
320.01712,0.05429
318.52733,0.09359
317.03754,0.06640
315.54776,0.04836
314.05797,0.03035
312.56818,0.01340
311.07839,0.03318
309.58860,0.03729
308.09881,0.04142
306.60902,0.01118
305.11924,0.02783
303.62945,0.03261
302.13966,0.03741
300.64987,0.00310
299.16008,0.00266
