1778.52000,0.00853
1777.03021,0.01133
1775.54042,0.00653
1774.05063,0.00863
1772.56085,0.00164
1771.07106,0.00808
1769.58127,0.01305
1768.09148,0.00464
1766.60169,0.00370
1765.11190,0.00000
1763.62212,0.00563
1762.13233,0.00402
1760.64254,0.00653
1759.15275,0.00348
1757.66296,0.01479
1756.17317,0.00788
1754.68339,0.00733
1753.19360,0.00866
1751.70381,0.01094
1750.21402,0.00692
1748.72423,0.00460
1747.23444,0.00175
1745.74465,0.00510
1744.25487,0.01033
1742.76508,0.00424
1741.27529,0.01380
1739.78550,0.01446
1738.29571,0.00527
1736.80592,0.01760
1735.31614,0.01319
1733.82635,0.01756
1732.33656,0.00688
1730.84677,0.01074
1729.35698,0.01090
1727.86719,0.00588
1726.37740,0.00758
1724.88762,0.00819
1723.39783,0.01050
1721.90804,0.00594
1720.41825,0.00178
1718.92846,0.00541
1717.43867,0.00348
1715.94889,0.00871
1714.45910,0.01304
1712.96931,0.00808
1711.47952,0.00222
1709.98973,0.01489
1708.49994,0.00805
1707.01016,0.00969
1705.52037,0.01136
1704.03058,0.00813
1702.54079,0.00734
1701.05100,0.00731
1699.56121,0.01029
1698.07142,0.01218
1696.58164,0.01167
1695.09185,0.01714
1693.60206,0.00905
1692.11227,0.01513
1690.62248,0.01546
1689.13269,0.02494
1687.64291,0.02290
1686.15312,0.02610
1684.66333,0.02486
1683.17354,0.02755
1681.68375,0.03361
1680.19396,0.03840
1678.70417,0.03688
1677.21439,0.04339
1675.72460,0.04806
1674.23481,0.04829
1672.74502,0.06306
1671.25523,0.06073
1669.76544,0.05768
1668.27566,0.06546
1666.78587,0.07642
1665.29608,0.06413
1663.80629,0.07217
1662.31650,0.08692
1660.82671,0.07769
1659.33693,0.06942
1657.84714,0.07680
1656.35735,0.07397
1654.86756,0.07210
1653.37777,0.07714
1651.88798,0.07289
1650.39819,0.09138
1648.90841,0.08514
1647.41862,0.08190
1645.92883,0.08231
1644.43904,0.08275
1642.94925,0.06618
1641.45946,0.06732
1639.96968,0.07481
1638.47989,0.07897
1636.99010,0.07423
1635.50031,0.07416
1634.01052,0.06965
1632.52073,0.07671
1631.03094,0.07187
1629.54116,0.07544
1628.05137,0.08424
1626.56158,0.09642
1625.07179,0.09745
1623.58200,0.09218
1622.09221,0.09047
1620.60243,0.08842
1619.11264,0.07373
1617.62285,0.07991
1616.13306,0.07439
1614.64327,0.07801
1613.15348,0.06677
1611.66370,0.08701
1610.17391,0.08717
1608.68412,0.07172
1607.19433,0.09240
1605.70454,0.07607
1604.21475,0.07931
1602.72496,0.08257
1601.23518,0.08139
1599.74539,0.08898
1598.25560,0.07761
1596.76581,0.08469
1595.27602,0.07839
1593.78623,0.07342
1592.29645,0.07797
1590.80666,0.07547
1589.31687,0.07467
1587.82708,0.08004
1586.33729,0.08431
1584.84750,0.08228
1583.35771,0.08772
1581.86793,0.08592
1580.37814,0.08564
1578.88835,0.07496
1577.39856,0.06747
1575.90877,0.06819
1574.41898,0.06317
1572.92920,0.06412
1571.43941,0.05505
1569.94962,0.04713
1568.45983,0.03922
1566.97004,0.04400
1565.48025,0.03242
1563.99047,0.05660
1562.50068,0.04470
1561.01089,0.03115
1559.52110,0.01948
1558.03131,0.03743
1556.54152,0.03382
1555.05173,0.03432
1553.56195,0.02815
1552.07216,0.02573
1550.58237,0.02817
1549.09258,0.02151
1547.60279,0.01711
1546.11300,0.01218
1544.62322,0.00727
1543.13343,0.00425
1541.64364,0.00348
1540.15385,0.00740
1538.66406,0.01135
1537.17427,0.00945
1535.68448,0.00833
1534.19470,0.01002
1532.70491,0.01825
1531.21512,0.01105
1529.72533,0.02231
1528.23554,0.01312
1526.74575,0.01660
1525.25597,0.00579
1523.76618,0.01491
1522.27639,0.03150
1520.78660,0.03396
1519.29681,0.03795
1517.80702,0.04028
1516.31724,0.04003
1514.82745,0.04911
1513.33766,0.04183
1511.84787,0.03459
1510.35808,0.04262
1508.86829,0.03449
1507.37850,0.05077
1505.88872,0.04157
1504.39893,0.04970
1502.90914,0.04371
1501.41935,0.05841
1499.92956,0.05955
1498.43977,0.06201
1496.94999,0.07120
1495.46020,0.09418
1493.97041,0.08406
1492.48062,0.08085
1490.99083,0.10279
1489.50104,0.11526
1488.01125,0.12506
1486.52147,0.13489
1485.03168,0.13682
1483.54189,0.15237
1482.05210,0.15454
1480.56231,0.18131
1479.07252,0.18576
1477.58274,0.18652
1476.09295,0.19679
1474.60316,0.20486
1473.11337,0.20997
1471.62358,0.22739
1470.13379,0.25227
1468.64401,0.27346
1467.15422,0.28332
1465.66443,0.29777
1464.17464,0.31224
1462.68485,0.33148
1461.19506,0.35763
1459.70527,0.40242
1458.21549,0.44537
1456.72570,0.51589
1455.23591,0.56652
1453.74612,0.60713
1452.25633,0.63473
1450.76654,0.67687
1449.27676,0.68088
1447.78697,0.68045
1446.29718,0.64431
1444.80739,0.62913
1443.31760,0.61397
1441.82781,0.56059
1440.33802,0.51710
1438.84824,0.50993
1437.35845,0.47747
1435.86866,0.45695
1434.37887,0.48633
1432.88908,0.56376
1431.39929,0.62837
1429.90951,0.66582
1428.41972,0.70684
1426.92993,0.74621
1425.44014,0.77220
1423.95035,0.78491
1422.46056,0.79764
1420.97078,0.83767
1419.48099,0.89614
1417.99120,0.90755
1416.50141,0.85868
1415.01162,0.77615
1413.52183,0.73868
1412.03204,0.72357
1410.54226,0.67592
1409.05247,0.66588
1407.56268,0.62162
1406.07289,0.54128
1404.58310,0.50033
1403.09331,0.45941
1401.60353,0.43404
1400.11374,0.38712
1398.62395,0.33258
1397.13416,0.28031
1395.64437,0.23904
1394.15458,0.19723
1392.66479,0.16346
1391.17501,0.14962
1389.68522,0.11999
1388.19543,0.10750
1386.70564,0.09179
1385.21585,0.07609
1383.72606,0.06722
1382.23628,0.02840
1380.74649,0.02218
1379.25670,0.00891
1377.76691,0.00348
1376.27712,0.00533
1374.78733,0.00348
1373.29755,0.00798
1371.80776,0.01715
1370.31797,0.01462
1368.82818,0.00998
1367.33839,0.00536
1365.84860,0.01277
1364.35881,0.03565
1362.86903,0.05409
1361.37924,0.05301
1359.88945,0.09011
1358.39966,0.09689
1356.90987,0.12641
1355.42008,0.15000
1353.93030,0.20804
1352.44051,0.24340
1350.95072,0.27879
1349.46093,0.35012
1347.97114,0.42446
1346.48135,0.52692
1344.99156,0.57059
1343.50178,0.62397
1342.01199,0.66211
1340.52220,0.71237
1339.03241,0.74106
1337.54262,0.77127
1336.05283,0.79387
1334.56305,0.81649
1333.07326,0.85794
1331.58347,0.87410
1330.09368,0.83985
1328.60389,0.79724
1327.11410,0.79337
1325.62432,0.77352
1324.13453,0.75872
1322.64474,0.72626
1321.15495,0.67260
1319.66516,0.65341
1318.17537,0.63424
1316.68558,0.58177
1315.19580,0.53585
1313.70601,0.51135
1312.21622,0.46771
1310.72643,0.44196
1309.23664,0.41828
1307.74685,0.37565
1306.25707,0.34327
1304.76728,0.31054
1303.27749,0.27784
1301.78770,0.25875
1300.29791,0.22703
1298.80812,0.21358
1297.31834,0.17297
1295.82855,0.14411
1294.33876,0.10746
1292.84897,0.08201
1291.35918,0.07947
1289.86939,0.08849
1288.37960,0.09754
1286.88982,0.09452
1285.40003,0.05876
1283.91024,0.05485
1282.42045,0.05506
1280.93066,0.05456
1279.44087,0.03714
1277.95109,0.05771
1276.46130,0.05337
1274.97151,0.04421
1273.48172,0.03508
1271.99193,0.03565
1270.50214,0.00348
1269.01235,0.02940
1267.52257,0.02482
1266.03278,0.02249
1264.54299,0.01759
1263.05320,0.01569
1261.56341,0.00953
1260.07362,0.00339
1258.58384,0.01385
1257.09405,0.02098
1255.60426,0.02087
1254.11447,0.00348
1252.62468,0.01399
1251.13489,0.02210
1249.64511,0.02409
1248.15532,0.00917
1246.66553,0.01093
1245.17574,0.01272
1243.68595,0.01109
1242.19616,0.01767
1240.70637,0.00790
1239.21659,0.01360
1237.72680,0.01709
1236.23701,0.00627
1234.74722,0.00348
1233.25743,0.00662
1231.76764,0.00978
1230.27786,0.01967
1228.78807,0.02865
1227.29828,0.02686
1225.80849,0.02249
1224.31870,0.00605
1222.82891,0.00653
1221.33912,0.02173
1219.84934,0.02087
1218.35955,0.02002
1216.86976,0.03307
1215.37997,0.04539
1213.89018,0.04695
1212.40039,0.05746
1210.91061,0.06111
1209.42082,0.05399
1207.93103,0.05462
1206.44124,0.05528
1204.95145,0.04786
1203.46166,0.04493
1201.97188,0.04426
1200.48209,0.04157
1198.99230,0.02810
1197.50251,0.02137
1196.01272,0.01372
1194.52293,0.01904
1193.03314,0.02438
1191.54336,0.01681
1190.05357,0.00591
1188.56378,0.00304
1187.07399,0.01542
1185.58420,0.00790
1184.09441,0.01140
1182.60463,0.00812
1181.11484,0.00487
1179.62505,0.01663
1178.13526,0.01166
1176.64547,0.00392
1175.15568,0.00537
1173.66589,0.00870
1172.17611,0.00722
1170.68632,0.00623
1169.19653,0.00526
1167.70674,0.00348
1166.21695,0.00519
1164.72716,0.01939
1163.23738,0.02729
1161.74759,0.04024
1160.25780,0.04614
1158.76801,0.05635
1157.27822,0.06658
1155.78843,0.05264
1154.29865,0.04896
1152.80886,0.07043
1151.31907,0.07740
1149.82928,0.08105
1148.33949,0.10223
1146.84970,0.10844
1145.35991,0.11468
1143.87013,0.12233
1142.38034,0.11345
1140.89055,0.13288
1139.40076,0.14564
1137.91097,0.17741
1136.42118,0.17178
1134.93140,0.17977
1133.44161,0.18779
1131.95182,0.21183
1130.46203,0.22083
1128.97224,0.23580
1127.48245,0.23107
1125.99266,0.22320
1124.50288,0.22410
1123.01309,0.22698
1121.52330,0.22989
1120.03351,0.21355
1118.54372,0.20115
1117.05393,0.22358
1115.56415,0.21272
1114.07436,0.21975
1112.58457,0.22001
1111.09478,0.22029
1109.60499,0.23688
1108.11520,0.23414
1106.62542,0.22882
1105.13563,0.21757
1103.64584,0.20635
1102.15605,0.20445
1100.66626,0.20034
1099.17647,0.19626
1097.68668,0.18253
1096.19690,0.17645
1094.70711,0.17411
1093.21732,0.16250
1091.72753,0.17213
1090.23774,0.16131
1088.74795,0.15051
1087.25817,0.17007
1085.76838,0.15020
1084.27859,0.13874
1082.78880,0.13511
1081.29901,0.16613
1079.80922,0.15008
1078.31943,0.15164
1076.82965,0.15323
1075.33986,0.17969
1073.85007,0.17770
1072.36028,0.17555
1070.87049,0.20692
1069.38070,0.22138
1067.89092,0.22609
1066.40113,0.23083
1064.91134,0.30251
1063.42155,0.37755
1061.93176,0.45039
1060.44197,0.51693
1058.95219,0.59094
1057.46240,0.62485
1055.97261,0.65880
1054.48282,0.69937
1052.99303,0.73923
1051.50324,0.75975
1050.01345,0.76020
1048.52367,0.77816
1047.03388,0.77345
1045.54409,0.76875
1044.05430,0.74994
1042.56451,0.69002
1041.07472,0.65338
1039.58494,0.61082
1038.09515,0.53403
1036.60536,0.49449
1035.11557,0.45498
1033.62578,0.42405
1032.13599,0.37156
1030.64620,0.35241
1029.15642,0.26572
1027.66663,0.25322
1026.17684,0.24075
1024.68705,0.21313
1023.19726,0.17865
1021.70747,0.13880
1020.21769,0.13824
1018.72790,0.11724
1017.23811,0.11087
1015.74832,0.10452
1014.25853,0.09904
1012.76874,0.10084
1011.27896,0.09205
1009.78917,0.09204
1008.29938,0.06283
1006.80959,0.05747
1005.31980,0.05213
1003.83001,0.01797
1002.34022,0.02124
1000.85044,0.01914
999.36065,0.02675
997.87086,0.02870
996.38107,0.03067
994.89128,0.04989
993.40149,0.06782
991.91171,0.06792
990.42192,0.08553
988.93213,0.08028
987.44234,0.08556
985.95255,0.09087
984.46276,0.10654
982.97297,0.07402
981.48319,0.06795
979.99340,0.04721
978.50361,0.04529
977.01382,0.04339
975.52403,0.04134
974.03424,0.01901
972.54446,0.01179
971.05467,0.00348
969.56488,0.00620
968.07509,0.00968
966.58530,0.01318
965.09551,0.00760
963.60573,0.02083
962.11594,0.00282
960.62615,0.00982
959.13636,0.01051
957.64657,0.01122
956.15678,0.01252
954.66699,0.01906
953.17721,0.03846
951.68742,0.03331
950.19763,0.04793
948.70784,0.06256
947.21805,0.06568
945.72826,0.07701
944.23848,0.09880
942.74869,0.10292
941.25890,0.11935
939.76911,0.13516
938.27932,0.15099
936.78953,0.14516
935.29974,0.16373
933.80996,0.18531
932.32017,0.20320
930.83038,0.21077
929.34059,0.21837
927.85080,0.25271
926.36101,0.25282
924.87123,0.26952
923.38144,0.33798
921.89165,0.37716
920.40186,0.41636
918.91207,0.48416
917.42228,0.57618
915.93250,0.71661
914.44271,0.93226
912.95292,1.03273
911.46313,1.13322
909.97334,1.30856
908.48355,1.53920
906.99376,1.80969
905.50398,1.91196
904.01419,1.94203
902.52440,1.97212
901.03461,1.99238
899.54482,2.00000
898.05503,1.80812
896.56525,1.59021
895.07546,1.48669
893.58567,1.38320
892.09588,1.11772
890.60609,0.88892
889.11630,0.66462
887.62651,0.50194
886.13673,0.42928
884.64694,0.35665
883.15715,0.24784
881.66736,0.18335
880.17757,0.12485
878.68778,0.09782
877.19800,0.07082
875.70821,0.04253
874.21842,0.04071
872.72863,0.02066
871.23884,0.01330
869.74905,0.01350
868.25927,0.01373
866.76948,0.03770
865.27969,0.02262
863.78990,0.02283
862.30011,0.03218
860.81032,0.03224
859.32053,0.03233
857.83075,0.06726
856.34096,0.08712
854.85117,0.07705
853.36138,0.10888
851.87159,0.10677
850.38180,0.10468
848.89202,0.11220
847.40223,0.10765
845.91244,0.13997
844.42265,0.14021
842.93286,0.14048
841.44307,0.16097
839.95329,0.18203
838.46350,0.19624
836.97371,0.20582
835.48392,0.20127
833.99413,0.19675
832.50434,0.20398
831.01455,0.19951
829.52477,0.19749
828.03498,0.15286
826.54519,0.13953
825.05540,0.12622
823.56561,0.11629
822.07582,0.11159
820.58604,0.09073
819.09625,0.08450
817.60646,0.07829
816.11667,0.07462
814.62688,0.06856
813.13709,0.08430
811.64730,0.10843
810.15752,0.09044
808.66773,0.07247
807.17794,0.06764
805.68815,0.09616
804.19836,0.09659
802.70857,0.10496
801.21879,0.11336
799.72900,0.10419
798.23921,0.08182
796.74942,0.08089
795.25963,0.08119
793.76984,0.08152
792.28006,0.09890
790.79027,0.11966
789.30048,0.13430
787.81069,0.16292
786.32090,0.16644
784.83111,0.16998
783.34132,0.18546
781.85154,0.21902
780.36175,0.26042
778.87196,0.27402
777.38217,0.28764
775.89238,0.32446
774.40259,0.34456
772.91281,0.31163
771.42302,0.31176
769.93323,0.31192
768.44344,0.26585
766.95365,0.22316
765.46386,0.19687
763.97407,0.18046
762.48429,0.17209
760.99450,0.16374
759.50471,0.13140
758.01492,0.08923
756.52513,0.07927
755.03534,0.08107
753.54556,0.08289
752.05577,0.06724
750.56598,0.06037
749.07619,0.04644
747.58640,0.04036
746.09661,0.03430
744.60683,0.02007
743.11704,0.01779
741.62725,0.01776
740.13746,0.01645
738.64767,0.01516
737.15788,0.00348
735.66809,0.01086
734.17831,0.03092
732.68852,0.02950
731.19873,0.02811
729.70894,0.00190
728.21915,0.00701
726.72936,0.01009
725.23958,0.00668
723.74979,0.01027
722.26000,0.01389
720.77021,0.00348
719.28042,0.00811
717.79063,0.00476
716.30084,0.00860
714.81106,0.01246
713.32127,0.01161
711.83148,0.02101
710.34169,0.01276
708.85190,0.01951
707.36211,0.02629
705.87233,0.03058
704.38254,0.02521
702.89275,0.03383
701.40296,0.03875
699.91317,0.04370
698.42338,0.04662
696.93360,0.06409
695.44381,0.09405
693.95402,0.09751
692.46423,0.10099
690.97444,0.10925
689.48465,0.13651
687.99486,0.15357
686.50508,0.17111
685.01529,0.18868
683.52550,0.20543
682.03571,0.23021
680.54592,0.23510
679.05613,0.23155
677.56635,0.22802
676.07656,0.22907
674.58677,0.22754
673.09698,0.19552
671.60719,0.18762
670.11740,0.17974
668.62761,0.15021
667.13783,0.13894
665.64804,0.13551
664.15825,0.13211
662.66846,0.10602
661.17867,0.07829
659.68888,0.06100
658.19910,0.05146
656.70931,0.04194
655.21952,0.04334
653.72973,0.04029
652.23994,0.04918
650.75015,0.04460
649.26037,0.04004
647.77058,0.04100
646.28079,0.04310
644.79100,0.03071
643.30121,0.02262
641.81142,0.01456
640.32163,0.02085
638.83185,0.01805
637.34206,0.00950
635.85227,0.01547
634.36248,0.02146
632.87269,0.00783
631.38290,0.02011
629.89312,0.01826
628.40333,0.02379
626.91354,0.02934
625.42375,0.02384
623.93396,0.00348
622.44417,0.00529
620.95438,0.00712
619.46460,0.02443
617.97481,0.03134
616.48502,0.04497
614.99523,0.04774
613.50544,0.05053
612.01565,0.10370
610.52587,0.13418
609.03608,0.17418
607.54629,0.19242
606.05650,0.21069
604.56671,0.25021
603.07692,0.32548
601.58714,0.33452
600.09735,0.34358
598.60756,0.36253
597.11777,0.40477
595.62798,0.40646
594.13819,0.39375
592.64840,0.38107
591.15862,0.34337
589.66883,0.29286
588.17904,0.23809
586.68925,0.21070
585.19946,0.18334
583.70967,0.14688
582.21989,0.11901
580.73010,0.10820
579.24031,0.09740
577.75052,0.07296
576.26073,0.07515
574.77094,0.04573
573.28115,0.03131
571.79137,0.01692
570.30158,0.02479
568.81179,0.04646
567.32200,0.05187
565.83221,0.05731
564.34242,0.09953
562.85264,0.10752
561.36285,0.11927
559.87306,0.12294
558.38327,0.12663
556.89348,0.15669
555.40369,0.12665
553.91391,0.12344
552.42412,0.12025
550.93433,0.12509
549.44454,0.13405
547.95475,0.14080
546.46496,0.14544
544.97517,0.15010
543.48539,0.18019
541.99560,0.19895
540.50581,0.21997
539.01602,0.24101
537.52623,0.30507
536.03644,0.33119
534.54666,0.35193
533.05687,0.38331
531.56708,0.41471
530.07729,0.44353
528.58750,0.47014
527.09771,0.49398
525.60792,0.51785
524.11814,0.56073
522.62835,0.63248
521.13856,0.70835
519.64877,0.73390
518.15898,0.75947
516.66919,0.79875
515.17941,0.83954
513.68962,0.82209
512.19983,0.80467
510.71004,0.73088
509.22025,0.69769
507.73046,0.63326
506.24068,0.57108
504.75089,0.50893
503.26110,0.39692
501.77131,0.33053
500.28152,0.29777
498.79173,0.26503
497.30194,0.17992
495.81216,0.16053
494.32237,0.14145
492.83258,0.12240
491.34279,0.08931
489.85300,0.05495
488.36321,0.03643
486.87343,0.03069
485.38364,0.02497
483.89385,0.04952
482.40406,0.08787
480.91427,0.08334
479.42448,0.07883
477.93469,0.07593
476.44491,0.08572
474.95512,0.10129
473.46533,0.11689
471.97554,0.13159
470.48575,0.12751
468.99596,0.13481
467.50618,0.13971
466.01639,0.14464
464.52660,0.11144
463.03681,0.10040
461.54702,0.07953
460.05723,0.05869
458.56745,0.01051
457.07766,0.00348
455.58787,0.01004
454.09808,0.01662
452.60829,0.02714
451.11850,0.01534
449.62871,0.01622
448.13893,0.01713
446.64914,0.00374
445.15935,0.00023
443.66956,0.01852
442.17977,0.01348
440.68998,0.00846
439.20020,0.02441
437.71041,0.02009
436.22062,0.02426
434.73083,0.02846
433.24104,0.03129
431.75125,0.02707
430.26146,0.02437
428.77168,0.02168
427.28189,0.03857
425.79210,0.03687
424.30231,0.04515
422.81252,0.05345
421.32273,0.04400
419.83295,0.03309
418.34316,0.02621
416.85337,0.01935
415.36358,0.00348
413.87379,0.02199
412.38400,0.02051
410.89422,0.01906
409.40443,0.04769
407.91464,0.05476
406.42485,0.04640
404.93506,0.04914
403.44527,0.05191
401.95548,0.04381
400.46570,0.04895
398.97591,0.04835
397.48612,0.04777
395.99633,0.03958
394.50654,0.01969
393.01675,0.02346
391.52697,0.02305
390.03718,0.02228
388.54739,0.04556
387.05760,0.04056
385.56781,0.03559
384.07802,0.02878
382.58824,0.03391
381.09845,0.01868
379.60866,0.00348
378.11887,0.03831
376.62908,0.02570
375.13929,0.02308
373.64950,0.02047
372.15972,0.02525
370.66993,0.03154
369.18014,0.02733
367.69035,0.02315
366.20056,0.03751
364.71077,0.03682
363.22099,0.03969
361.73120,0.04258
360.24141,0.02670
358.75162,0.04677
357.26183,0.03894
355.77204,0.03114
354.28225,0.02969
352.79247,0.03459
351.30268,0.03123
349.81289,0.02790
348.32310,0.07122
346.83331,0.07045
345.34352,0.05956
343.85374,0.04869
342.36395,0.03329
340.87416,0.01642
339.38437,0.01860
337.89458,0.02081
336.40479,0.00787
334.91501,0.00799
333.42522,0.01175
331.93543,0.01555
330.44564,0.05166
328.95585,0.03474
327.46606,0.03628
325.97627,0.03785
324.48649,0.02101
322.99670,0.03491
321.50691,0.03170
320.01712,0.02852
318.52733,0.05124
317.03754,0.05053
315.54776,0.04529
314.05797,0.04007
312.56818,0.03236
311.07839,0.02988
309.58860,0.02343
308.09881,0.01701
306.60902,0.02242
305.11924,0.00348
303.62945,0.00772
302.13966,0.00517
300.64987,0.00524
299.16008,0.00348
