1778.52000,0.01104
1777.03021,0.01199
1775.54042,0.00726
1774.05063,0.01260
1772.56085,0.01225
1771.07106,0.01102
1769.58127,0.01163
1768.09148,0.00953
1766.60169,0.00814
1765.11190,0.01682
1763.62212,0.00452
1762.13233,0.00685
1760.64254,0.01103
1759.15275,0.01045
1757.66296,0.01262
1756.17317,0.00957
1754.68339,0.00335
1753.19360,0.00377
1751.70381,0.00627
1750.21402,0.00879
1748.72423,0.00472
1747.23444,0.00592
1745.74465,0.00418
1744.25487,0.00452
1742.76508,0.00776
1741.27529,0.01011
1739.78550,0.01111
1738.29571,0.01009
1736.80592,0.01685
1735.31614,0.01793
1733.82635,0.01720
1732.33656,0.00554
1730.84677,0.01285
1729.35698,0.01288
1727.86719,0.01225
1726.37740,0.00000
1724.88762,0.00945
1723.39783,0.00933
1721.90804,0.00717
1720.41825,0.00984
1718.92846,0.00865
1717.43867,0.00452
1715.94889,0.00751
1714.45910,0.01098
1712.96931,0.01471
1711.47952,0.01549
1709.98973,0.01081
1708.49994,0.00913
1707.01016,0.00633
1705.52037,0.00355
1704.03058,0.01267
1702.54079,0.00332
1701.05100,0.00952
1699.56121,0.01232
1698.07142,0.01354
1696.58164,0.00452
1695.09185,0.01409
1693.60206,0.02301
1692.11227,0.02190
1690.62248,0.02767
1689.13269,0.02273
1687.64291,0.02283
1686.15312,0.01931
1684.66333,0.02677
1683.17354,0.02809
1681.68375,0.02806
1680.19396,0.04427
1678.70417,0.03082
1677.21439,0.04114
1675.72460,0.04006
1674.23481,0.03376
1672.74502,0.03662
1671.25523,0.04818
1669.76544,0.05313
1668.27566,0.06063
1666.78587,0.06541
1665.29608,0.07067
1663.80629,0.06430
1662.31650,0.06527
1660.82671,0.06512
1659.33693,0.06454
1657.84714,0.07494
1656.35735,0.08377
1654.86756,0.08120
1653.37777,0.07341
1651.88798,0.07043
1650.39819,0.07662
1648.90841,0.07666
1647.41862,0.08243
1645.92883,0.07933
1644.43904,0.07624
1642.94925,0.08232
1641.45946,0.07266
1639.96968,0.07741
1638.47989,0.09360
1636.99010,0.09041
1635.50031,0.08747
1634.01052,0.08067
1632.52073,0.08371
1631.03094,0.08747
1629.54116,0.08736
1628.05137,0.08591
1626.56158,0.08494
1625.07179,0.07897
1623.58200,0.08810
1622.09221,0.08994
1620.60243,0.09477
1619.11264,0.09643
1617.62285,0.09812
1616.13306,0.08133
1614.64327,0.08215
1613.15348,0.08847
1611.66370,0.08911
1610.17391,0.08680
1608.68412,0.09708
1607.19433,0.08386
1605.70454,0.08756
1604.21475,0.08432
1602.72496,0.08111
1601.23518,0.07210
1599.74539,0.08297
1598.25560,0.07766
1596.76581,0.08196
1595.27602,0.08675
1593.78623,0.08425
1592.29645,0.08794
1590.80666,0.08434
1589.31687,0.07301
1587.82708,0.08796
1586.33729,0.08169
1584.84750,0.07272
1583.35771,0.06330
1581.86793,0.07652
1580.37814,0.08131
1578.88835,0.06923
1577.39856,0.07156
1575.90877,0.07437
1574.41898,0.05003
1572.92920,0.03828
1571.43941,0.04481
1569.94962,0.04349
1568.45983,0.04220
1566.97004,0.03511
1565.48025,0.03877
1563.99047,0.03012
1562.50068,0.02538
1561.01089,0.01450
1559.52110,0.01552
1558.03131,0.03049
1556.54152,0.02630
1555.05173,0.02283
1553.56195,0.02714
1552.07216,0.02279
1550.58237,0.01025
1549.09258,0.00847
1547.60279,0.01333
1546.11300,0.00452
1544.62322,0.00532
1543.13343,0.00730
1541.64364,0.01569
1540.15385,0.01542
1538.66406,0.01518
1537.17427,0.02296
1535.68448,0.00884
1534.19470,0.00867
1532.70491,0.00947
1531.21512,0.02057
1529.72533,0.01229
1528.23554,0.00791
1526.74575,0.01269
1525.25597,0.02115
1523.76618,0.02963
1522.27639,0.03106
1520.78660,0.04119
1519.29681,0.04609
1517.80702,0.04188
1516.31724,0.03815
1514.82745,0.04152
1513.33766,0.04287
1511.84787,0.04423
1510.35808,0.06047
1508.86829,0.04864
1507.37850,0.05167
1505.88872,0.05291
1504.39893,0.06558
1502.90914,0.05979
1501.41935,0.05698
1499.92956,0.05237
1498.43977,0.05761
1496.94999,0.08684
1495.46020,0.09966
1493.97041,0.11068
1492.48062,0.10094
1490.99083,0.12479
1489.50104,0.13473
1488.01125,0.14219
1486.52147,0.14967
1485.03168,0.17887
1483.54189,0.18937
1482.05210,0.19304
1480.56231,0.21729
1479.07252,0.23562
1477.58274,0.25649
1476.09295,0.25934
1474.60316,0.25286
1473.11337,0.27836
1471.62358,0.27193
1470.13379,0.29771
1468.64401,0.30639
1467.15422,0.32469
1465.66443,0.33776
1464.17464,0.35085
1462.68485,0.37561
1461.19506,0.42620
1459.70527,0.46653
1458.21549,0.50507
1456.72570,0.56006
1455.23591,0.60504
1453.74612,0.68064
1452.25633,0.72931
1450.76654,0.73737
1449.27676,0.72581
1447.78697,0.73186
1446.29718,0.71349
1444.80739,0.68899
1443.31760,0.66451
1441.82781,0.64416
1440.33802,0.58000
1438.84824,0.52682
1437.35845,0.49216
1435.86866,0.49360
1434.37887,0.49530
1432.88908,0.54200
1431.39929,0.63348
1429.90951,0.67567
1428.41972,0.74300
1426.92993,0.81057
1425.44014,0.84004
1423.95035,0.84442
1422.46056,0.84881
1420.97078,0.91763
1419.48099,0.96226
1417.99120,0.94436
1416.50141,0.90638
1415.01162,0.86660
1413.52183,0.84054
1412.03204,0.78162
1410.54226,0.73369
1409.05247,0.68578
1407.56268,0.64224
1406.07289,0.54209
1404.58310,0.52360
1403.09331,0.50513
1401.60353,0.43656
1400.11374,0.38126
1398.62395,0.34768
1397.13416,0.29380
1395.64437,0.25273
1394.15458,0.19867
1392.66479,0.17363
1391.17501,0.14679
1389.68522,0.13321
1388.19543,0.08861
1386.70564,0.07611
1385.21585,0.06364
1383.72606,0.05336
1382.23628,0.03945
1380.74649,0.03333
1379.25670,0.02015
1377.76691,0.01133
1376.27712,0.02150
1374.78733,0.00314
1373.29755,0.01210
1371.80776,0.00624
1370.31797,0.00452
1368.82818,0.00900
1367.33839,0.01352
1365.84860,0.02182
1364.35881,0.03037
1362.86903,0.03895
1361.37924,0.05281
1359.88945,0.06098
1358.39966,0.08424
1356.90987,0.12169
1355.42008,0.15619
1353.93030,0.22314
1352.44051,0.25141
1350.95072,0.27971
1349.46093,0.37139
1347.97114,0.46196
1346.48135,0.52218
1344.99156,0.59909
1343.50178,0.63675
1342.01199,0.74774
1340.52220,0.79618
1339.03241,0.81610
1337.54262,0.85386
1336.05283,0.87349
1334.56305,0.89314
1333.07326,0.91293
1331.58347,0.93685
1330.09368,0.90645
1328.60389,0.89275
1327.11410,0.86810
1325.62432,0.82339
1324.13453,0.79879
1322.64474,0.75892
1321.15495,0.75927
1319.66516,0.73394
1318.17537,0.70865
1316.68558,0.64946
1315.19580,0.59053
1313.70601,0.52431
1312.21622,0.50379
1310.72643,0.49791
1309.23664,0.44935
1307.74685,0.43529
1306.25707,0.39842
1304.76728,0.37596
1303.27749,0.35353
1301.78770,0.31239
1300.29791,0.28270
1298.80812,0.24892
1297.31834,0.21585
1295.82855,0.17641
1294.33876,0.14567
1292.84897,0.11587
1291.35918,0.12080
1289.86939,0.11742
1288.37960,0.11406
1286.88982,0.09075
1285.40003,0.09258
1283.91024,0.09078
1282.42045,0.07713
1280.93066,0.05482
1279.44087,0.06565
1277.95109,0.05344
1276.46130,0.05473
1274.97151,0.04736
1273.48172,0.04002
1271.99193,0.03247
1270.50214,0.03157
1269.01235,0.04531
1267.52257,0.03395
1266.03278,0.03723
1264.54299,0.02227
1263.05320,0.02537
1261.56341,0.02108
1260.07362,0.01680
1258.58384,0.01723
1257.09405,0.02249
1255.60426,0.01132
1254.11447,0.00452
1252.62468,0.01151
1251.13489,0.01190
1249.64511,0.01323
1248.15532,0.01733
1246.66553,0.01905
1245.17574,0.02080
1243.68595,0.02702
1242.19616,0.01819
1240.70637,0.02401
1239.21659,0.02847
1237.72680,0.01972
1236.23701,0.00848
1234.74722,0.01325
1233.25743,0.01918
1231.76764,0.02513
1230.27786,0.00691
1228.78807,0.01314
1227.29828,0.02419
1225.80849,0.00924
1224.31870,0.01349
1222.82891,0.00452
1221.33912,0.02105
1219.84934,0.02847
1218.35955,0.03592
1216.86976,0.04932
1215.37997,0.06367
1213.89018,0.06616
1212.40039,0.05954
1210.91061,0.05798
1209.42082,0.07858
1207.93103,0.06815
1206.44124,0.05775
1204.95145,0.05719
1203.46166,0.06944
1201.97188,0.07099
1200.48209,0.07598
1198.99230,0.05702
1197.50251,0.06754
1196.01272,0.05525
1194.52293,0.04937
1193.03314,0.04352
1191.54336,0.03884
1190.05357,0.02687
1188.56378,0.03343
1187.07399,0.02539
1185.58420,0.02697
1184.09441,0.02195
1182.60463,0.02083
1181.11484,0.01974
1179.62505,0.00452
1178.13526,0.01223
1176.64547,0.01129
1175.15568,0.00421
1173.66589,0.01130
1172.17611,0.00631
1170.68632,0.00843
1169.19653,0.01057
1167.70674,0.00452
1166.21695,0.01430
1164.72716,0.02205
1163.23738,0.03393
1161.74759,0.06205
1160.25780,0.07261
1158.76801,0.07395
1157.27822,0.07531
1155.78843,0.08685
1154.29865,0.08815
1152.80886,0.10271
1151.31907,0.09766
1149.82928,0.11683
1148.33949,0.13192
1146.84970,0.13379
1145.35991,0.13569
1143.87013,0.14035
1142.38034,0.14937
1140.89055,0.15316
1139.40076,0.16086
1137.91097,0.17817
1136.42118,0.19573
1134.93140,0.19722
1133.44161,0.19874
1131.95182,0.23122
1130.46203,0.25093
1128.97224,0.24007
1127.48245,0.23061
1125.99266,0.25519
1124.50288,0.26062
1123.01309,0.25716
1121.52330,0.25373
1120.03351,0.24826
1118.54372,0.24145
1117.05393,0.24586
1115.56415,0.26330
1114.07436,0.25542
1112.58457,0.24414
1111.09478,0.23288
1109.60499,0.23626
1108.11520,0.25154
1106.62542,0.23784
1105.13563,0.24015
1103.64584,0.23701
1102.15605,0.22886
1100.66626,0.22565
1099.17647,0.22246
1097.68668,0.21987
1096.19690,0.23008
1094.70711,0.23119
1093.21732,0.21268
1091.72753,0.18530
1090.23774,0.19675
1088.74795,0.20823
1087.25817,0.19827
1085.76838,0.16983
1084.27859,0.20696
1082.78880,0.20049
1081.29901,0.19953
1079.80922,0.23125
1078.31943,0.23913
1076.82965,0.24703
1075.33986,0.27219
1073.85007,0.25331
1072.36028,0.26414
1070.87049,0.26198
1069.38070,0.28907
1067.89092,0.30910
1066.40113,0.32916
1064.91134,0.41317
1063.42155,0.50498
1061.93176,0.60435
1060.44197,0.69666
1058.95219,0.80749
1057.46240,0.85817
1055.97261,0.90888
1054.48282,0.93415
1052.99303,0.97224
1051.50324,1.03546
1050.01345,1.05624
1048.52367,1.09394
1047.03388,1.04945
1045.54409,1.00500
1044.05430,0.90667
1042.56451,0.83668
1041.07472,0.77974
1039.58494,0.72236
1038.09515,0.61431
1036.60536,0.58849
1035.11557,0.56269
1033.62578,0.49240
1032.13599,0.42098
1030.64620,0.36808
1029.15642,0.28598
1027.66663,0.27241
1026.17684,0.25886
1024.68705,0.23711
1023.19726,0.19301
1021.70747,0.17085
1020.21769,0.15100
1018.72790,0.13712
1017.23811,0.13250
1015.74832,0.12791
1014.25853,0.10245
1012.76874,0.11012
1011.27896,0.10412
1009.78917,0.09129
1008.29938,0.07277
1006.80959,0.06250
1005.31980,0.05225
1003.83001,0.01988
1002.34022,0.03526
1000.85044,0.03695
999.36065,0.04850
997.87086,0.04841
996.38107,0.04836
994.89128,0.10199
993.40149,0.10997
991.91171,0.11615
990.42192,0.13651
988.93213,0.13749
987.44234,0.14408
985.95255,0.15070
984.46276,0.12640
982.97297,0.13524
981.48319,0.10779
979.99340,0.10000
978.50361,0.08596
977.01382,0.07194
975.52403,0.05373
974.03424,0.04718
972.54446,0.02878
971.05467,0.02913
969.56488,0.01580
968.07509,0.02156
966.58530,0.02735
965.09551,0.01181
963.60573,0.00452
962.11594,0.00434
960.62615,0.01192
959.13636,0.01564
957.64657,0.01938
956.15678,0.01721
954.66699,0.01688
953.17721,0.01522
951.68742,0.02796
950.19763,0.02577
948.70784,0.02360
947.21805,0.04852
945.72826,0.08625
944.23848,0.10390
942.74869,0.12250
941.25890,0.12216
939.76911,0.13179
938.27932,0.14143
936.78953,0.14642
935.29974,0.17084
933.80996,0.17999
932.32017,0.19464
930.83038,0.20327
929.34059,0.21191
927.85080,0.22390
926.36101,0.25760
924.87123,0.28881
923.38144,0.35818
921.89165,0.38464
920.40186,0.41113
918.91207,0.48080
917.42228,0.57835
915.93250,0.75471
914.44271,0.92697
912.95292,1.03327
911.46313,1.13960
909.97334,1.33957
908.48355,1.62154
906.99376,1.84302
905.50398,1.97662
904.01419,1.98830
902.52440,2.00000
901.03461,1.98136
899.54482,1.92757
898.05503,1.79024
896.56525,1.60611
895.07546,1.49851
893.58567,1.39093
892.09588,1.11029
890.60609,0.87466
889.11630,0.66074
887.62651,0.48064
886.13673,0.41246
884.64694,0.34430
883.15715,0.27297
881.66736,0.19664
880.17757,0.13517
878.68778,0.12716
877.19800,0.11918
875.70821,0.07993
874.21842,0.06080
872.72863,0.04444
871.23884,0.04158
869.74905,0.04147
868.25927,0.04140
866.76948,0.04111
865.27969,0.03309
863.78990,0.05820
862.30011,0.06941
860.81032,0.07722
859.32053,0.08505
857.83075,0.06139
856.34096,0.10580
854.85117,0.12512
853.36138,0.14925
851.87159,0.15458
850.38180,0.15992
848.89202,0.18938
847.40223,0.23211
845.91244,0.22554
844.42265,0.23966
842.93286,0.25381
841.44307,0.26009
839.95329,0.29175
838.46350,0.30837
836.97371,0.30833
835.48392,0.30239
833.99413,0.29646
832.50434,0.28965
831.01455,0.28035
829.52477,0.25943
828.03498,0.24470
826.54519,0.23067
825.05540,0.21667
823.56561,0.19699
822.07582,0.15883
820.58604,0.14947
819.09625,0.15338
817.60646,0.15731
816.11667,0.16172
814.62688,0.16570
813.13709,0.15189
811.64730,0.14382
810.15752,0.13770
808.66773,0.13162
807.17794,0.14120
805.68815,0.17272
804.19836,0.18098
802.70857,0.17887
801.21879,0.17678
799.72900,0.15930
798.23921,0.12975
796.74942,0.13310
795.25963,0.14618
793.76984,0.15929
792.28006,0.17778
790.79027,0.19036
789.30048,0.19018
787.81069,0.24848
786.32090,0.26079
784.83111,0.27312
783.34132,0.30272
781.85154,0.33280
780.36175,0.39030
778.87196,0.39908
777.38217,0.40788
775.89238,0.43029
774.40259,0.45409
772.91281,0.44687
771.42302,0.42402
769.93323,0.40120
768.44344,0.36939
766.95365,0.32138
765.46386,0.27568
763.97407,0.21562
762.48429,0.19749
760.99450,0.17938
759.50471,0.14656
758.01492,0.11103
756.52513,0.11548
755.03534,0.11733
753.54556,0.11921
752.05577,0.09565
750.56598,0.10020
749.07619,0.07988
747.58640,0.06507
746.09661,0.05028
744.60683,0.04076
743.11704,0.04749
741.62725,0.02775
740.13746,0.02607
738.64767,0.02441
737.15788,0.00452
735.66809,0.01279
734.17831,0.02588
732.68852,0.02461
731.19873,0.02336
729.70894,0.01665
728.21915,0.01751
726.72936,0.02273
725.23958,0.02203
723.74979,0.01599
722.26000,0.00998
720.77021,0.00593
719.28042,0.01492
717.79063,0.00452
716.30084,0.01032
714.81106,0.01616
713.32127,0.00751
711.83148,0.02789
710.34169,0.02021
708.85190,0.02408
707.36211,0.02798
705.87233,0.03315
704.38254,0.04886
702.89275,0.05271
701.40296,0.05499
699.91317,0.05729
698.42338,0.04980
696.93360,0.08846
695.44381,0.08900
693.95402,0.09780
692.46423,0.10661
690.97444,0.12801
689.48465,0.15811
687.99486,0.17453
686.50508,0.18162
685.01529,0.18873
683.52550,0.21367
682.03571,0.21512
680.54592,0.23006
679.05613,0.24126
677.56635,0.25249
676.07656,0.25540
674.58677,0.24646
673.09698,0.21472
671.60719,0.19293
670.11740,0.17116
668.62761,0.15341
667.13783,0.15510
665.64804,0.14162
664.15825,0.12817
662.66846,0.11486
661.17867,0.06481
659.68888,0.07255
658.19910,0.05429
656.70931,0.03604
655.21952,0.03062
653.72973,0.04416
652.23994,0.04426
650.75015,0.04358
649.26037,0.04293
647.77058,0.03945
646.28079,0.02663
644.79100,0.03324
643.30121,0.02503
641.81142,0.01685
640.32163,0.01988
638.83185,0.01060
637.34206,0.02076
635.85227,0.01472
634.36248,0.00871
632.87269,0.00730
631.38290,0.00982
629.89312,0.02036
628.40333,0.01562
626.91354,0.01090
625.42375,0.02106
623.93396,0.00452
622.44417,0.01809
620.95438,0.03170
619.46460,0.01244
617.97481,0.02929
616.48502,0.04524
614.99523,0.06499
613.50544,0.08476
612.01565,0.12637
610.52587,0.14470
609.03608,0.18521
607.54629,0.21353
606.05650,0.24187
604.56671,0.26738
603.07692,0.31963
601.58714,0.32920
600.09735,0.33880
598.60756,0.35847
597.11777,0.42474
595.62798,0.43807
594.13819,0.41590
592.64840,0.39377
591.15862,0.37565
589.66883,0.31782
588.17904,0.25797
586.68925,0.22759
585.19946,0.19724
583.70967,0.15229
582.21989,0.13409
580.73010,0.11443
579.24031,0.09479
577.75052,0.07392
576.26073,0.06197
574.77094,0.06536
573.28115,0.05666
571.79137,0.04798
570.30158,0.06194
568.81179,0.07684
567.32200,0.09015
565.83221,0.10350
564.34242,0.12463
562.85264,0.11838
561.36285,0.14710
559.87306,0.16408
558.38327,0.18108
556.89348,0.20781
555.40369,0.20237
553.91391,0.21133
552.42412,0.22033
550.93433,0.21381
549.44454,0.20687
547.95475,0.19949
546.46496,0.20789
544.97517,0.21632
543.48539,0.23915
541.99560,0.28987
540.50581,0.30613
539.01602,0.32242
537.52623,0.38440
536.03644,0.41215
534.54666,0.42348
533.05687,0.44374
531.56708,0.46403
530.07729,0.51699
528.58750,0.54874
527.09771,0.59719
525.60792,0.64566
524.11814,0.66241
522.62835,0.73627
521.13856,0.79029
519.64877,0.80244
518.15898,0.81460
516.66919,0.87006
515.17941,0.89427
513.68962,0.89201
512.19983,0.88977
510.71004,0.84051
509.22025,0.78238
507.73046,0.69527
506.24068,0.62748
504.75089,0.55971
503.26110,0.49139
501.77131,0.39090
500.28152,0.35392
498.79173,0.31696
497.30194,0.25422
495.81216,0.19653
494.32237,0.16820
492.83258,0.13990
491.34279,0.12567
489.85300,0.09753
488.36321,0.07969
486.87343,0.09350
485.38364,0.10733
483.89385,0.10372
482.40406,0.09305
480.91427,0.10125
479.42448,0.10947
477.93469,0.15710
476.44491,0.16709
474.95512,0.18771
473.46533,0.20836
471.97554,0.24147
470.48575,0.21752
468.99596,0.19817
467.50618,0.19893
466.01639,0.19972
464.52660,0.17426
463.03681,0.12532
461.54702,0.11510
460.05723,0.10491
458.56745,0.07133
457.07766,0.04555
455.58787,0.04353
454.09808,0.04154
452.60829,0.02518
451.11850,0.00452
449.62871,0.01886
448.13893,0.03323
446.64914,0.02615
445.15935,0.03463
443.66956,0.01641
442.17977,0.01946
440.68998,0.02253
439.20020,0.03476
437.71041,0.03216
436.22062,0.03336
434.73083,0.03459
433.24104,0.02590
431.75125,0.06222
430.26146,0.04845
428.77168,0.03470
427.28189,0.03935
425.79210,0.05887
424.30231,0.05649
422.81252,0.05414
421.32273,0.06711
419.83295,0.04311
418.34316,0.02724
416.85337,0.01140
415.36358,0.01921
413.87379,0.02339
412.38400,0.03274
410.89422,0.04211
409.40443,0.04043
407.91464,0.03466
406.42485,0.05723
404.93506,0.05162
403.44527,0.04604
401.95548,0.04676
400.46570,0.03221
398.97591,0.03914
397.48612,0.04610
395.99633,0.02568
394.50654,0.01533
393.01675,0.01825
391.52697,0.01697
390.03718,0.03900
388.54739,0.04873
387.05760,0.04900
385.56781,0.04929
384.07802,0.02141
382.58824,0.00452
381.09845,0.01161
379.60866,0.01872
378.11887,0.02438
376.62908,0.01293
375.13929,0.01509
373.64950,0.01728
372.15972,0.02440
370.66993,0.02538
369.18014,0.02352
367.69035,0.02168
366.20056,0.03517
364.71077,0.04069
363.22099,0.04361
361.73120,0.04655
360.24141,0.04073
358.75162,0.04109
357.26183,0.05016
355.77204,0.05924
354.28225,0.04073
352.79247,0.02886
351.30268,0.04635
349.81289,0.06387
348.32310,0.04248
346.83331,0.05674
345.34352,0.04829
343.85374,0.03988
342.36395,0.02201
340.87416,0.03179
339.38437,0.03235
337.89458,0.03294
336.40479,0.04416
334.91501,0.02436
333.42522,0.02307
331.93543,0.02181
330.44564,0.01327
328.95585,0.00452
327.46606,0.01099
325.97627,0.01749
324.48649,0.05589
322.99670,0.04749
321.50691,0.05933
320.01712,0.07120
318.52733,0.07932
317.03754,0.06143
315.54776,0.05863
314.05797,0.05586
312.56818,0.06271
311.07839,0.10314
309.58860,0.08275
308.09881,0.06238
306.60902,0.06658
305.11924,0.05801
303.62945,0.04479
302.13966,0.03160
300.64987,0.00507
299.16008,0.00452
