1778.52000,0.01871
1777.03021,0.02061
1775.54042,0.02545
1774.05063,0.01449
1772.56085,0.02208
1771.07106,0.01762
1769.58127,0.01465
1768.09148,0.01045
1766.60169,0.01334
1765.11190,0.01314
1763.62212,0.00985
1762.13233,0.01344
1760.64254,0.01123
1759.15275,0.01862
1757.66296,0.00459
1756.17317,0.00328
1754.68339,0.00721
1753.19360,0.01573
1751.70381,0.00846
1750.21402,0.01058
1748.72423,0.00502
1747.23444,0.01218
1745.74465,0.00355
1744.25487,0.01077
1742.76508,0.00845
1741.27529,0.01114
1739.78550,0.01032
1738.29571,0.00744
1736.80592,0.00938
1735.31614,0.01508
1733.82635,0.01665
1732.33656,0.00138
1730.84677,0.00382
1729.35698,0.00712
1727.86719,0.01294
1726.37740,0.00755
1724.88762,0.00926
1723.39783,0.01161
1721.90804,0.00171
1720.41825,0.00757
1718.92846,0.00368
1717.43867,0.00751
1715.94889,0.01240
1714.45910,0.00525
1712.96931,0.01166
1711.47952,0.00643
1709.98973,0.01642
1708.49994,0.01416
1707.01016,0.01233
1705.52037,0.01053
1704.03058,0.00459
1702.54079,0.00889
1701.05100,0.01738
1699.56121,0.01673
1698.07142,0.01590
1696.58164,0.01530
1695.09185,0.01909
1693.60206,0.01771
1692.11227,0.01780
1690.62248,0.02125
1689.13269,0.02785
1687.64291,0.02385
1686.15312,0.02654
1684.66333,0.02842
1683.17354,0.03240
1681.68375,0.03162
1680.19396,0.03004
1678.70417,0.04387
1677.21439,0.04462
1675.72460,0.04456
1674.23481,0.05119
1672.74502,0.05014
1671.25523,0.05410
1669.76544,0.06434
1668.27566,0.06856
1666.78587,0.06926
1665.29608,0.08019
1663.80629,0.07200
1662.31650,0.06986
1660.82671,0.08295
1659.33693,0.07628
1657.84714,0.08275
1656.35735,0.09007
1654.86756,0.07952
1653.37777,0.07774
1651.88798,0.07494
1650.39819,0.08132
1648.90841,0.08272
1647.41862,0.08853
1645.92883,0.07999
1644.43904,0.07148
1642.94925,0.06840
1641.45946,0.06140
1639.96968,0.06773
1638.47989,0.07493
1636.99010,0.08173
1635.50031,0.08002
1634.01052,0.06689
1632.52073,0.07938
1631.03094,0.07941
1629.54116,0.08487
1628.05137,0.08953
1626.56158,0.08380
1625.07179,0.09641
1623.58200,0.08178
1622.09221,0.08028
1620.60243,0.06882
1619.11264,0.08715
1617.62285,0.08905
1616.13306,0.07641
1614.64327,0.08003
1613.15348,0.08097
1611.66370,0.08339
1610.17391,0.08312
1608.68412,0.07539
1607.19433,0.08537
1605.70454,0.08913
1604.21475,0.08126
1602.72496,0.07342
1601.23518,0.06580
1599.74539,0.07653
1598.25560,0.07958
1596.76581,0.07952
1595.27602,0.07908
1593.78623,0.08428
1592.29645,0.07743
1590.80666,0.07602
1589.31687,0.07151
1587.82708,0.06681
1586.33729,0.08462
1584.84750,0.07789
1583.35771,0.07327
1581.86793,0.06305
1580.37814,0.08282
1578.88835,0.07723
1577.39856,0.08019
1575.90877,0.06757
1574.41898,0.06454
1572.92920,0.05530
1571.43941,0.04795
1569.94962,0.04645
1568.45983,0.04498
1566.97004,0.04312
1565.48025,0.04169
1563.99047,0.03758
1562.50068,0.03641
1561.01089,0.03568
1559.52110,0.03810
1558.03131,0.03762
1556.54152,0.03155
1555.05173,0.02717
1553.56195,0.01386
1552.07216,0.01848
1550.58237,0.01230
1549.09258,0.00385
1547.60279,0.00000
1546.11300,0.00295
1544.62322,0.01780
1543.13343,0.00435
1541.64364,0.00717
1540.15385,0.01324
1538.66406,0.01933
1537.17427,0.01576
1535.68448,0.00494
1534.19470,0.01474
1532.70491,0.00459
1531.21512,0.01919
1529.72533,0.02009
1528.23554,0.01975
1526.74575,0.01465
1525.25597,0.02269
1523.76618,0.02597
1522.27639,0.03176
1520.78660,0.03737
1519.29681,0.04301
1517.80702,0.05117
1516.31724,0.04957
1514.82745,0.04278
1513.33766,0.04623
1511.84787,0.04969
1510.35808,0.04402
1508.86829,0.04753
1507.37850,0.05482
1505.88872,0.05047
1504.39893,0.05343
1502.90914,0.06723
1501.41935,0.07024
1499.92956,0.05807
1498.43977,0.07008
1496.94999,0.08065
1495.46020,0.08667
1493.97041,0.08167
1492.48062,0.09918
1490.99083,0.10985
1489.50104,0.11346
1488.01125,0.11835
1486.52147,0.12326
1485.03168,0.15525
1483.54189,0.16104
1482.05210,0.16893
1480.56231,0.18330
1479.07252,0.18333
1477.58274,0.19963
1476.09295,0.20220
1474.60316,0.19835
1473.11337,0.21471
1471.62358,0.22173
1470.13379,0.25063
1468.64401,0.26769
1467.15422,0.26604
1465.66443,0.28023
1464.17464,0.29445
1462.68485,0.33762
1461.19506,0.36978
1459.70527,0.39905
1458.21549,0.45582
1456.72570,0.50866
1455.23591,0.57714
1453.74612,0.62128
1452.25633,0.65359
1450.76654,0.69424
1449.27676,0.70266
1447.78697,0.69237
1446.29718,0.65421
1444.80739,0.63397
1443.31760,0.61376
1441.82781,0.57609
1440.33802,0.54364
1438.84824,0.50581
1437.35845,0.48944
1435.86866,0.48142
1434.37887,0.52046
1432.88908,0.56431
1431.39929,0.62692
1429.90951,0.66291
1428.41972,0.71683
1426.92993,0.77327
1425.44014,0.79372
1423.95035,0.81701
1422.46056,0.84031
1420.97078,0.85917
1419.48099,0.91802
1417.99120,0.91361
1416.50141,0.84471
1415.01162,0.81495
1413.52183,0.78210
1412.03204,0.75198
1410.54226,0.69316
1409.05247,0.65081
1407.56268,0.60952
1406.07289,0.54390
1404.58310,0.50276
1403.09331,0.46165
1401.60353,0.42129
1400.11374,0.37991
1398.62395,0.32627
1397.13416,0.28931
1395.64437,0.24946
1394.15458,0.19777
1392.66479,0.16775
1391.17501,0.14982
1389.68522,0.12214
1388.19543,0.08761
1386.70564,0.08287
1385.21585,0.07815
1383.72606,0.03704
1382.23628,0.02904
1380.74649,0.03480
1379.25670,0.02851
1377.76691,0.02683
1376.27712,0.00560
1374.78733,0.00459
1373.29755,0.00902
1371.80776,0.01869
1370.31797,0.02629
1368.82818,0.02715
1367.33839,0.02804
1365.84860,0.02760
1364.35881,0.02947
1362.86903,0.05384
1361.37924,0.04910
1359.88945,0.07893
1358.39966,0.12044
1356.90987,0.12847
1355.42008,0.17690
1353.93030,0.22036
1352.44051,0.26415
1350.95072,0.30797
1349.46093,0.37481
1347.97114,0.48496
1346.48135,0.54686
1344.99156,0.60627
1343.50178,0.64553
1342.01199,0.68688
1340.52220,0.76864
1339.03241,0.82441
1337.54262,0.84169
1336.05283,0.85765
1334.56305,0.87363
1333.07326,0.90326
1331.58347,0.90441
1330.09368,0.86665
1328.60389,0.83954
1327.11410,0.80266
1325.62432,0.78767
1324.13453,0.78872
1322.64474,0.72798
1321.15495,0.66914
1319.66516,0.64820
1318.17537,0.62729
1316.68558,0.58933
1315.19580,0.57075
1313.70601,0.52327
1312.21622,0.48830
1310.72643,0.45917
1309.23664,0.41988
1307.74685,0.39060
1306.25707,0.33782
1304.76728,0.32326
1303.27749,0.30872
1301.78770,0.27642
1300.29791,0.23997
1298.80812,0.19584
1297.31834,0.18171
1295.82855,0.15845
1294.33876,0.11211
1292.84897,0.09347
1291.35918,0.09463
1289.86939,0.08936
1288.37960,0.08412
1286.88982,0.08306
1285.40003,0.06870
1283.91024,0.06915
1282.42045,0.06317
1280.93066,0.04743
1279.44087,0.04399
1277.95109,0.04703
1276.46130,0.04031
1274.97151,0.04007
1273.48172,0.03985
1271.99193,0.02196
1270.50214,0.02740
1269.01235,0.03579
1267.52257,0.02380
1266.03278,0.03390
1264.54299,0.01405
1263.05320,0.01878
1261.56341,0.01167
1260.07362,0.00459
1258.58384,0.02480
1257.09405,0.01382
1255.60426,0.00869
1254.11447,0.00982
1252.62468,0.00723
1251.13489,0.01633
1249.64511,0.01753
1248.15532,0.01127
1246.66553,0.01544
1245.17574,0.01963
1243.68595,0.02426
1242.19616,0.00977
1240.70637,0.00966
1239.21659,0.01748
1237.72680,0.02429
1236.23701,0.01843
1234.74722,0.02341
1233.25743,0.02841
1231.76764,0.03344
1230.27786,0.03100
1228.78807,0.02734
1227.29828,0.01933
1225.80849,0.02403
1224.31870,0.01045
1222.82891,0.00459
1221.33912,0.01757
1219.84934,0.02766
1218.35955,0.03777
1216.86976,0.04395
1215.37997,0.04974
1213.89018,0.06908
1212.40039,0.06805
1210.91061,0.06850
1209.42082,0.06419
1207.93103,0.05917
1206.44124,0.05417
1204.95145,0.05804
1203.46166,0.04467
1201.97188,0.05691
1200.48209,0.04358
1198.99230,0.03902
1197.50251,0.03926
1196.01272,0.04307
1194.52293,0.03868
1193.03314,0.03432
1191.54336,0.01988
1190.05357,0.01712
1188.56378,0.01127
1187.07399,0.02791
1185.58420,0.01253
1184.09441,0.01507
1182.60463,0.01503
1181.11484,0.01502
1179.62505,0.00598
1178.13526,0.00799
1176.64547,0.00794
1175.15568,0.01083
1173.66589,0.00459
1172.17611,0.01520
1170.68632,0.01272
1169.19653,0.01026
1167.70674,0.00637
1166.21695,0.01853
1164.72716,0.02510
1163.23738,0.02440
1161.74759,0.03871
1160.25780,0.05180
1158.76801,0.05419
1157.27822,0.05661
1155.78843,0.05208
1154.29865,0.05902
1152.80886,0.07826
1151.31907,0.08420
1149.82928,0.08726
1148.33949,0.11053
1146.84970,0.10770
1145.35991,0.10489
1143.87013,0.12095
1142.38034,0.13890
1140.89055,0.13294
1139.40076,0.15906
1137.91097,0.15980
1136.42118,0.16827
1134.93140,0.17979
1133.44161,0.19133
1131.95182,0.20903
1130.46203,0.22113
1128.97224,0.24513
1127.48245,0.22127
1125.99266,0.21659
1124.50288,0.21693
1123.01309,0.22343
1121.52330,0.22995
1120.03351,0.22141
1118.54372,0.21684
1117.05393,0.21584
1115.56415,0.22881
1114.07436,0.23472
1112.58457,0.24035
1111.09478,0.24600
1109.60499,0.25428
1108.11520,0.24592
1106.62542,0.22282
1105.13563,0.22200
1103.64584,0.22538
1102.15605,0.21983
1100.66626,0.20722
1099.17647,0.19464
1097.68668,0.18417
1096.19690,0.18641
1094.70711,0.18139
1093.21732,0.16995
1091.72753,0.16311
1090.23774,0.16544
1088.74795,0.16781
1087.25817,0.16645
1085.76838,0.14534
1084.27859,0.14756
1082.78880,0.15169
1081.29901,0.14876
1079.80922,0.16063
1078.31943,0.15744
1076.82965,0.15426
1075.33986,0.19535
1073.85007,0.20336
1072.36028,0.20161
1070.87049,0.19281
1069.38070,0.22442
1067.89092,0.23689
1066.40113,0.24940
1064.91134,0.31312
1063.42155,0.38770
1061.93176,0.44315
1060.44197,0.52589
1058.95219,0.59866
1057.46240,0.62952
1055.97261,0.66040
1054.48282,0.71410
1052.99303,0.72348
1051.50324,0.74184
1050.01345,0.74940
1048.52367,0.76177
1047.03388,0.75189
1045.54409,0.74204
1044.05430,0.69516
1042.56451,0.65268
1041.07472,0.61542
1039.58494,0.55675
1038.09515,0.51600
1036.60536,0.48724
1035.11557,0.45851
1033.62578,0.41451
1032.13599,0.38176
1030.64620,0.34363
1029.15642,0.29532
1027.66663,0.26786
1026.17684,0.24041
1024.68705,0.22735
1023.19726,0.16145
1021.70747,0.14823
1020.21769,0.12920
1018.72790,0.12331
1017.23811,0.11589
1015.74832,0.10849
1014.25853,0.09226
1012.76874,0.08356
1011.27896,0.09819
1009.78917,0.08599
1008.29938,0.07860
1006.80959,0.06583
1005.31980,0.05308
1003.83001,0.03431
1002.34022,0.01828
1000.85044,0.02475
999.36065,0.04144
997.87086,0.04078
996.38107,0.04014
994.89128,0.05960
993.40149,0.06869
991.91171,0.08404
990.42192,0.09047
988.93213,0.07840
987.44234,0.08487
985.95255,0.09137
984.46276,0.08499
982.97297,0.07946
981.48319,0.08104
979.99340,0.05766
978.50361,0.05075
977.01382,0.04386
975.52403,0.03179
974.03424,0.02703
972.54446,0.02000
971.05467,0.01259
969.56488,0.01643
968.07509,0.01791
966.58530,0.01941
965.09551,0.00459
963.60573,0.00975
962.11594,0.01328
960.62615,0.01349
959.13636,0.01228
957.64657,0.01108
956.15678,0.00887
954.66699,0.01251
953.17721,0.03782
951.68742,0.05046
950.19763,0.04200
948.70784,0.03356
947.21805,0.05751
945.72826,0.06379
944.23848,0.10007
942.74869,0.09828
941.25890,0.12399
939.76911,0.13172
938.27932,0.13947
936.78953,0.15359
935.29974,0.15546
933.80996,0.16755
932.32017,0.20194
930.83038,0.20908
929.34059,0.21625
927.85080,0.24051
926.36101,0.25022
924.87123,0.27473
923.38144,0.32820
921.89165,0.36161
920.40186,0.39504
918.91207,0.50769
917.42228,0.60934
915.93250,0.72287
914.44271,0.92489
912.95292,1.03472
911.46313,1.14458
909.97334,1.31940
908.48355,1.59332
906.99376,1.76798
905.50398,1.87773
904.01419,1.91246
902.52440,1.94722
901.03461,2.00000
899.54482,1.93438
898.05503,1.76179
896.56525,1.55239
895.07546,1.43667
893.58567,1.32098
892.09588,1.07147
890.60609,0.84905
889.11630,0.63644
887.62651,0.44237
886.13673,0.37602
884.64694,0.30970
883.15715,0.24142
881.66736,0.15631
880.17757,0.11306
878.68778,0.09813
877.19800,0.08324
875.70821,0.05920
874.21842,0.03728
872.72863,0.01142
871.23884,0.01701
869.74905,0.01368
868.25927,0.01037
866.76948,0.00459
865.27969,0.02063
863.78990,0.01984
862.30011,0.02698
860.81032,0.03768
859.32053,0.04841
857.83075,0.05333
856.34096,0.07055
854.85117,0.07989
853.36138,0.09945
851.87159,0.09500
850.38180,0.09057
848.89202,0.10437
847.40223,0.11071
845.91244,0.13310
844.42265,0.14468
842.93286,0.15629
841.44307,0.16835
839.95329,0.17459
838.46350,0.19189
836.97371,0.19215
835.48392,0.20638
833.99413,0.22063
832.50434,0.21721
831.01455,0.20674
829.52477,0.19109
828.03498,0.16048
826.54519,0.14238
825.05540,0.12430
823.56561,0.10791
822.07582,0.11444
820.58604,0.10747
819.09625,0.09032
817.60646,0.07320
816.11667,0.07878
814.62688,0.07169
813.13709,0.09356
811.64730,0.09526
810.15752,0.09179
808.66773,0.08833
807.17794,0.08761
805.68815,0.10127
804.19836,0.11183
802.70857,0.10754
801.21879,0.10326
799.72900,0.10183
798.23921,0.08647
796.74942,0.08383
795.25963,0.08985
793.76984,0.09589
792.28006,0.09561
790.79027,0.10826
789.30048,0.12302
787.81069,0.13821
786.32090,0.15302
784.83111,0.16784
783.34132,0.21100
781.85154,0.22858
780.36175,0.26450
778.87196,0.27838
777.38217,0.29228
775.89238,0.33015
774.40259,0.34993
772.91281,0.34059
771.42302,0.32722
769.93323,0.31387
768.44344,0.28316
766.95365,0.23896
765.46386,0.21912
763.97407,0.18495
762.48429,0.17328
760.99450,0.16164
759.50471,0.11859
758.01492,0.09929
756.52513,0.08772
755.03534,0.08335
753.54556,0.07900
752.05577,0.06833
750.56598,0.05165
749.07619,0.03187
747.58640,0.03366
746.09661,0.03547
744.60683,0.01992
743.11704,0.01397
741.62725,0.01845
740.13746,0.01588
738.64767,0.01334
737.15788,0.01081
735.66809,0.02101
734.17831,0.00459
732.68852,0.00471
731.19873,0.00486
729.70894,0.01114
728.21915,0.00746
726.72936,0.01004
725.23958,0.02035
723.74979,0.01570
722.26000,0.01107
720.77021,0.00459
719.28042,0.01854
717.79063,0.01045
716.30084,0.01258
714.81106,0.01474
713.32127,0.02483
711.83148,0.02641
710.34169,0.02656
708.85190,0.02340
707.36211,0.02026
705.87233,0.03109
704.38254,0.03071
702.89275,0.04617
701.40296,0.04313
699.91317,0.04011
698.42338,0.05564
696.93360,0.08805
695.44381,0.11092
693.95402,0.10248
692.46423,0.09406
690.97444,0.13115
689.48465,0.12913
687.99486,0.16294
686.50508,0.17450
685.01529,0.18608
683.52550,0.21829
682.03571,0.23179
680.54592,0.23824
679.05613,0.24086
677.56635,0.24351
676.07656,0.23463
674.58677,0.23722
673.09698,0.23296
671.60719,0.22613
670.11740,0.21932
668.62761,0.15997
667.13783,0.14999
665.64804,0.14356
664.15825,0.13716
662.66846,0.11704
661.17867,0.08363
659.68888,0.07168
658.19910,0.06485
656.70931,0.05804
655.21952,0.05366
653.72973,0.04534
652.23994,0.05328
650.75015,0.04855
649.26037,0.04384
647.77058,0.04852
646.28079,0.03949
644.79100,0.03922
643.30121,0.03305
641.81142,0.02690
640.32163,0.03003
638.83185,0.01966
637.34206,0.01931
635.85227,0.02220
634.36248,0.02512
632.87269,0.02234
631.38290,0.00459
629.89312,0.02176
628.40333,0.02438
626.91354,0.02702
625.42375,0.01054
623.93396,0.02531
622.44417,0.01876
620.95438,0.01224
619.46460,0.02957
617.97481,0.05109
616.48502,0.06743
614.99523,0.07651
613.50544,0.08562
612.01565,0.12617
610.52587,0.14469
609.03608,0.16573
607.54629,0.18231
606.05650,0.19892
604.56671,0.25854
603.07692,0.32442
601.58714,0.34870
600.09735,0.37300
598.60756,0.36819
597.11777,0.41002
595.62798,0.39506
594.13819,0.38792
592.64840,0.38081
591.15862,0.35634
589.66883,0.29568
588.17904,0.25607
586.68925,0.21689
585.19946,0.17774
583.70967,0.16213
582.21989,0.13448
580.73010,0.11517
579.24031,0.09589
577.75052,0.08537
576.26073,0.04740
574.77094,0.04005
573.28115,0.04064
571.79137,0.04125
570.30158,0.04042
568.81179,0.06231
567.32200,0.06361
565.83221,0.06494
564.34242,0.08815
562.85264,0.10680
561.36285,0.09925
559.87306,0.10952
558.38327,0.11981
556.89348,0.13315
555.40369,0.12715
553.91391,0.13044
552.42412,0.13375
550.93433,0.12803
549.44454,0.14190
547.95475,0.14164
546.46496,0.14817
544.97517,0.15472
543.48539,0.16993
541.99560,0.22305
540.50581,0.23405
539.01602,0.24507
537.52623,0.28015
536.03644,0.30859
534.54666,0.35621
533.05687,0.37128
531.56708,0.38637
530.07729,0.42199
528.58750,0.48614
527.09771,0.51744
525.60792,0.54875
524.11814,0.62505
522.62835,0.67286
521.13856,0.75254
519.64877,0.76949
518.15898,0.78646
516.66919,0.80189
515.17941,0.80402
513.68962,0.79692
512.19983,0.78984
510.71004,0.74189
509.22025,0.69395
507.73046,0.63252
506.24068,0.56569
504.75089,0.49889
503.26110,0.42961
501.77131,0.33747
500.28152,0.29582
498.79173,0.25419
497.30194,0.20104
495.81216,0.14541
494.32237,0.12935
492.83258,0.11332
491.34279,0.08607
489.85300,0.05260
488.36321,0.03893
486.87343,0.03954
485.38364,0.04017
483.89385,0.07132
482.40406,0.09021
480.91427,0.09040
479.42448,0.09060
477.93469,0.11040
476.44491,0.10857
474.95512,0.12030
473.46533,0.13205
471.97554,0.14361
470.48575,0.16499
468.99596,0.12706
467.50618,0.11851
466.01639,0.10998
464.52660,0.09773
463.03681,0.06906
461.54702,0.05852
460.05723,0.04800
458.56745,0.02356
457.07766,0.02038
455.58787,0.02690
454.09808,0.03344
452.60829,0.01514
451.11850,0.00976
449.62871,0.01231
448.13893,0.01489
446.64914,0.00459
445.15935,0.01274
443.66956,0.01259
442.17977,0.01735
440.68998,0.02214
439.20020,0.03996
437.71041,0.02929
436.22062,0.03279
434.73083,0.03632
433.24104,0.03717
431.75125,0.02534
430.26146,0.02488
428.77168,0.02445
427.28189,0.02560
425.79210,0.03884
424.30231,0.03837
422.81252,0.03793
421.32273,0.03023
419.83295,0.01963
418.34316,0.01666
416.85337,0.01370
415.36358,0.00547
413.87379,0.02349
412.38400,0.03665
410.89422,0.04983
409.40443,0.04003
407.91464,0.04837
406.42485,0.03987
404.93506,0.03618
403.44527,0.03252
401.95548,0.05260
400.46570,0.02234
398.97591,0.02447
397.48612,0.02663
395.99633,0.03869
394.50654,0.02018
393.01675,0.02189
391.52697,0.01846
390.03718,0.01276
388.54739,0.01416
387.05760,0.02016
385.56781,0.02619
384.07802,0.01809
382.58824,0.01543
381.09845,0.01143
379.60866,0.00746
378.11887,0.01545
376.62908,0.01701
375.13929,0.01079
373.64950,0.00459
372.15972,0.01849
370.66993,0.03220
369.18014,0.03007
367.69035,0.02796
366.20056,0.01985
364.71077,0.02424
363.22099,0.02481
361.73120,0.02540
360.24141,0.03694
358.75162,0.04018
357.26183,0.02835
355.77204,0.01655
354.28225,0.01674
352.79247,0.02903
351.30268,0.04352
349.81289,0.05804
348.32310,0.05853
346.83331,0.06238
345.34352,0.04554
343.85374,0.02872
342.36395,0.02252
340.87416,0.03446
339.38437,0.02009
337.89458,0.00574
336.40479,0.02739
334.91501,0.01909
333.42522,0.02153
331.93543,0.02400
330.44564,0.04283
328.95585,0.03213
327.46606,0.03051
325.97627,0.02891
324.48649,0.03914
322.99670,0.04086
321.50691,0.04854
320.01712,0.05624
318.52733,0.06594
317.03754,0.05506
315.54776,0.04160
314.05797,0.02817
312.56818,0.04921
311.07839,0.04154
309.58860,0.04306
308.09881,0.04461
306.60902,0.02640
305.11924,0.03777
303.62945,0.03252
302.13966,0.02480
300.64987,0.00461
299.16008,0.00459
