1778.52000,0.00816
1777.03021,0.00533
1775.54042,0.00431
1774.05063,0.00000
1772.56085,0.00360
1771.07106,0.01536
1769.58127,0.01646
1768.09148,0.00539
1766.60169,0.00298
1765.11190,0.00874
1763.62212,0.00536
1762.13233,0.00684
1760.64254,0.01267
1759.15275,0.00682
1757.66296,0.00355
1756.17317,0.00283
1754.68339,0.00291
1753.19360,0.00097
1751.70381,0.00593
1750.21402,0.00354
1748.72423,0.00447
1747.23444,0.00238
1745.74465,0.01020
1744.25487,0.00609
1742.76508,0.00480
1741.27529,0.01498
1739.78550,0.01475
1738.29571,0.01201
1736.80592,0.01540
1735.31614,0.00864
1733.82635,0.01004
1732.33656,0.00892
1730.84677,0.00655
1729.35698,0.00751
1727.86719,0.01308
1726.37740,0.00901
1724.88762,0.00165
1723.39783,0.00780
1721.90804,0.00558
1720.41825,0.00287
1718.92846,0.01112
1717.43867,0.01431
1715.94889,0.00355
1714.45910,0.01119
1712.96931,0.02064
1711.47952,0.01155
1709.98973,0.00325
1708.49994,0.01303
1707.01016,0.01889
1705.52037,0.02477
1704.03058,0.01148
1702.54079,0.00330
1701.05100,0.01422
1699.56121,0.00355
1698.07142,0.01656
1696.58164,0.02629
1695.09185,0.02587
1693.60206,0.02141
1692.11227,0.01876
1690.62248,0.01536
1689.13269,0.01326
1687.64291,0.02339
1686.15312,0.02821
1684.66333,0.00940
1683.17354,0.00994
1681.68375,0.02957
1680.19396,0.01974
1678.70417,0.02467
1677.21439,0.03294
1675.72460,0.03513
1674.23481,0.04624
1672.74502,0.05610
1671.25523,0.05734
1669.76544,0.06014
1668.27566,0.05482
1666.78587,0.05994
1665.29608,0.05111
1663.80629,0.07205
1662.31650,0.07293
1660.82671,0.07587
1659.33693,0.08417
1657.84714,0.08436
1656.35735,0.07110
1654.86756,0.08125
1653.37777,0.07795
1651.88798,0.08333
1650.39819,0.08974
1648.90841,0.07965
1647.41862,0.08000
1645.92883,0.08522
1644.43904,0.09046
1642.94925,0.07131
1641.45946,0.08727
1639.96968,0.08292
1638.47989,0.08902
1636.99010,0.09260
1635.50031,0.07942
1634.01052,0.08152
1632.52073,0.06661
1631.03094,0.07436
1629.54116,0.08187
1628.05137,0.08483
1626.56158,0.08883
1625.07179,0.10303
1623.58200,0.09004
1622.09221,0.08420
1620.60243,0.08169
1619.11264,0.08658
1617.62285,0.08844
1616.13306,0.09057
1614.64327,0.07443
1613.15348,0.07026
1611.66370,0.08086
1610.17391,0.10140
1608.68412,0.09985
1607.19433,0.08713
1605.70454,0.09121
1604.21475,0.09215
1602.72496,0.09310
1601.23518,0.08989
1599.74539,0.08772
1598.25560,0.07336
1596.76581,0.08065
1595.27602,0.08897
1593.78623,0.07850
1592.29645,0.07848
1590.80666,0.06807
1589.31687,0.06479
1587.82708,0.06993
1586.33729,0.06645
1584.84750,0.06833
1583.35771,0.08117
1581.86793,0.07853
1580.37814,0.08074
1578.88835,0.07382
1577.39856,0.08065
1575.90877,0.06183
1574.41898,0.04456
1572.92920,0.05960
1571.43941,0.04238
1569.94962,0.04272
1568.45983,0.04309
1566.97004,0.02848
1565.48025,0.03475
1563.99047,0.03367
1562.50068,0.04252
1561.01089,0.04530
1559.52110,0.03031
1558.03131,0.03390
1556.54152,0.02886
1555.05173,0.03860
1553.56195,0.02345
1552.07216,0.01341
1550.58237,0.00847
1549.09258,0.00560
1547.60279,0.01012
1546.11300,0.01034
1544.62322,0.00550
1543.13343,0.00527
1541.64364,0.01090
1540.15385,0.01491
1538.66406,0.01894
1537.17427,0.00355
1535.68448,0.01048
1534.19470,0.01108
1532.70491,0.02035
1531.21512,0.02125
1529.72533,0.03489
1528.23554,0.02135
1526.74575,0.02360
1525.25597,0.02358
1523.76618,0.01774
1522.27639,0.03328
1520.78660,0.02977
1519.29681,0.04358
1517.80702,0.05208
1516.31724,0.04254
1514.82745,0.05694
1513.33766,0.04783
1511.84787,0.03875
1510.35808,0.05372
1508.86829,0.04812
1507.37850,0.05628
1505.88872,0.05378
1504.39893,0.05868
1502.90914,0.05623
1501.41935,0.05965
1499.92956,0.06691
1498.43977,0.07750
1496.94999,0.08480
1495.46020,0.08578
1493.97041,0.10229
1492.48062,0.12060
1490.99083,0.10639
1489.50104,0.12959
1488.01125,0.13208
1486.52147,0.13460
1485.03168,0.16600
1483.54189,0.19946
1482.05210,0.21667
1480.56231,0.21052
1479.07252,0.23922
1477.58274,0.24506
1476.09295,0.24508
1474.60316,0.26216
1473.11337,0.25816
1471.62358,0.25367
1470.13379,0.26268
1468.64401,0.28062
1467.15422,0.30647
1465.66443,0.30882
1464.17464,0.31119
1462.68485,0.35414
1461.19506,0.39178
1459.70527,0.47648
1458.21549,0.49560
1456.72570,0.54069
1455.23591,0.58656
1453.74612,0.65229
1452.25633,0.68931
1450.76654,0.71389
1449.27676,0.71969
1447.78697,0.70770
1446.29718,0.68939
1444.80739,0.67390
1443.31760,0.65843
1441.82781,0.59925
1440.33802,0.54950
1438.84824,0.52979
1437.35845,0.52637
1435.86866,0.51483
1434.37887,0.51019
1432.88908,0.57575
1431.39929,0.65074
1429.90951,0.73389
1428.41972,0.77511
1426.92993,0.81203
1425.44014,0.83881
1423.95035,0.86014
1422.46056,0.88150
1420.97078,0.90250
1419.48099,0.96853
1417.99120,0.98424
1416.50141,0.90920
1415.01162,0.86825
1413.52183,0.84183
1412.03204,0.79915
1410.54226,0.74455
1409.05247,0.66963
1407.56268,0.63491
1406.07289,0.56919
1404.58310,0.55067
1403.09331,0.53216
1401.60353,0.46830
1400.11374,0.41565
1398.62395,0.35590
1397.13416,0.29846
1395.64437,0.24207
1394.15458,0.19867
1392.66479,0.17461
1391.17501,0.14372
1389.68522,0.14132
1388.19543,0.10844
1386.70564,0.10127
1385.21585,0.09412
1383.72606,0.07301
1382.23628,0.04149
1380.74649,0.03975
1379.25670,0.02558
1377.76691,0.02770
1376.27712,0.02146
1374.78733,0.00355
1373.29755,0.00810
1371.80776,0.00988
1370.31797,0.01982
1368.82818,0.02203
1367.33839,0.02426
1365.84860,0.03657
1364.35881,0.03440
1362.86903,0.05946
1361.37924,0.06675
1359.88945,0.08525
1358.39966,0.08445
1356.90987,0.13580
1355.42008,0.15717
1353.93030,0.22637
1352.44051,0.27398
1350.95072,0.32161
1349.46093,0.38148
1347.97114,0.46247
1346.48135,0.53814
1344.99156,0.60418
1343.50178,0.66236
1342.01199,0.76124
1340.52220,0.82761
1339.03241,0.83831
1337.54262,0.83632
1336.05283,0.86042
1334.56305,0.88455
1333.07326,0.95154
1331.58347,0.92041
1330.09368,0.94830
1328.60389,0.89738
1327.11410,0.86302
1325.62432,0.82309
1324.13453,0.83098
1322.64474,0.80203
1321.15495,0.75785
1319.66516,0.72679
1318.17537,0.69575
1316.68558,0.65647
1315.19580,0.59840
1313.70601,0.57747
1312.21622,0.53725
1310.72643,0.50392
1309.23664,0.47213
1307.74685,0.43656
1306.25707,0.38092
1304.76728,0.37413
1303.27749,0.36736
1301.78770,0.29171
1300.29791,0.24913
1298.80812,0.23532
1297.31834,0.19737
1295.82855,0.17521
1294.33876,0.14774
1292.84897,0.11393
1291.35918,0.12795
1289.86939,0.11759
1288.37960,0.10725
1286.88982,0.10049
1285.40003,0.10647
1283.91024,0.09773
1282.42045,0.07680
1280.93066,0.04929
1279.44087,0.07190
1277.95109,0.05638
1276.46130,0.05031
1274.97151,0.04756
1273.48172,0.04483
1271.99193,0.02916
1270.50214,0.04123
1269.01235,0.04595
1267.52257,0.03570
1266.03278,0.02546
1264.54299,0.01983
1263.05320,0.02160
1261.56341,0.01601
1260.07362,0.01046
1258.58384,0.01102
1257.09405,0.01340
1255.60426,0.02494
1254.11447,0.00575
1252.62468,0.01226
1251.13489,0.00355
1249.64511,0.02072
1248.15532,0.02189
1246.66553,0.02742
1245.17574,0.03296
1243.68595,0.04362
1242.19616,0.02710
1240.70637,0.02560
1239.21659,0.02514
1237.72680,0.02928
1236.23701,0.03676
1234.74722,0.02747
1233.25743,0.02495
1231.76764,0.02245
1230.27786,0.02977
1228.78807,0.02871
1227.29828,0.01752
1225.80849,0.00355
1224.31870,0.02407
1222.82891,0.02224
1221.33912,0.04002
1219.84934,0.04867
1218.35955,0.05734
1216.86976,0.08511
1215.37997,0.07882
1213.89018,0.08198
1212.40039,0.07600
1210.91061,0.07436
1209.42082,0.07988
1207.93103,0.08160
1206.44124,0.08334
1204.95145,0.06528
1203.46166,0.07292
1201.97188,0.06076
1200.48209,0.06692
1198.99230,0.06497
1197.50251,0.07093
1196.01272,0.06268
1194.52293,0.05851
1193.03314,0.05437
1191.54336,0.03805
1190.05357,0.02583
1188.56378,0.03117
1187.07399,0.02636
1185.58420,0.01497
1184.09441,0.01479
1182.60463,0.02023
1181.11484,0.02569
1179.62505,0.02660
1178.13526,0.03898
1176.64547,0.02468
1175.15568,0.02999
1173.66589,0.00760
1172.17611,0.00355
1170.68632,0.01142
1169.19653,0.01933
1167.70674,0.02763
1166.21695,0.03444
1164.72716,0.03746
1163.23738,0.04126
1161.74759,0.04254
1160.25780,0.05784
1158.76801,0.06184
1157.27822,0.06587
1155.78843,0.05555
1154.29865,0.08467
1152.80886,0.09373
1151.31907,0.13256
1149.82928,0.12463
1148.33949,0.12309
1146.84970,0.12894
1145.35991,0.13481
1143.87013,0.13562
1142.38034,0.13264
1140.89055,0.14749
1139.40076,0.17660
1137.91097,0.17725
1136.42118,0.19904
1134.93140,0.20953
1133.44161,0.22005
1131.95182,0.23199
1130.46203,0.22539
1128.97224,0.21576
1127.48245,0.22066
1125.99266,0.22786
1124.50288,0.22950
1123.01309,0.22315
1121.52330,0.21682
1120.03351,0.20581
1118.54372,0.20602
1117.05393,0.23346
1115.56415,0.23448
1114.07436,0.22103
1112.58457,0.22934
1111.09478,0.23768
1109.60499,0.23548
1108.11520,0.23357
1106.62542,0.25508
1105.13563,0.24558
1103.64584,0.21323
1102.15605,0.20277
1100.66626,0.20276
1099.17647,0.20277
1097.68668,0.20993
1096.19690,0.22525
1094.70711,0.21007
1093.21732,0.19798
1091.72753,0.19379
1090.23774,0.19776
1088.74795,0.20176
1087.25817,0.19078
1085.76838,0.19533
1084.27859,0.18948
1082.78880,0.16942
1081.29901,0.17074
1079.80922,0.18302
1078.31943,0.17777
1076.82965,0.17255
1075.33986,0.20372
1073.85007,0.21406
1072.36028,0.22646
1070.87049,0.27219
1069.38070,0.28693
1067.89092,0.29800
1066.40113,0.30910
1064.91134,0.35365
1063.42155,0.45926
1061.93176,0.55319
1060.44197,0.63723
1058.95219,0.72715
1057.46240,0.77361
1055.97261,0.82009
1054.48282,0.89558
1052.99303,0.95584
1051.50324,0.95053
1050.01345,0.91956
1048.52367,0.89369
1047.03388,0.88298
1045.54409,0.87230
1044.05430,0.83278
1042.56451,0.77599
1041.07472,0.70016
1039.58494,0.65155
1038.09515,0.57933
1036.60536,0.54095
1035.11557,0.50259
1033.62578,0.44111
1032.13599,0.39924
1030.64620,0.34545
1029.15642,0.31507
1027.66663,0.27886
1026.17684,0.24269
1024.68705,0.23170
1023.19726,0.17472
1021.70747,0.15057
1020.21769,0.12796
1018.72790,0.13335
1017.23811,0.11486
1015.74832,0.09639
1014.25853,0.09702
1012.76874,0.08826
1011.27896,0.06402
1009.78917,0.06930
1008.29938,0.05909
1006.80959,0.05005
1005.31980,0.04104
1003.83001,0.01997
1002.34022,0.01825
1000.85044,0.01121
999.36065,0.03268
997.87086,0.03001
996.38107,0.02737
994.89128,0.06671
993.40149,0.10912
991.91171,0.12130
990.42192,0.13096
988.93213,0.13582
987.44234,0.12608
985.95255,0.11636
984.46276,0.14620
982.97297,0.12268
981.48319,0.10960
979.99340,0.10239
978.50361,0.08504
977.01382,0.06771
975.52403,0.03846
974.03424,0.04940
972.54446,0.02655
971.05467,0.02585
969.56488,0.01601
968.07509,0.01854
966.58530,0.02108
965.09551,0.00726
963.60573,0.00769
962.11594,0.00789
960.62615,0.00355
959.13636,0.00663
957.64657,0.00974
956.15678,0.00817
954.66699,0.02112
953.17721,0.01579
951.68742,0.02192
950.19763,0.02159
948.70784,0.02129
947.21805,0.03207
945.72826,0.06067
944.23848,0.08040
942.74869,0.08363
941.25890,0.10645
939.76911,0.10693
938.27932,0.10743
936.78953,0.15195
935.29974,0.18148
933.80996,0.18256
932.32017,0.19003
930.83038,0.19510
929.34059,0.20020
927.85080,0.27206
926.36101,0.29640
924.87123,0.30246
923.38144,0.34567
921.89165,0.38953
920.40186,0.43342
918.91207,0.54815
917.42228,0.64510
915.93250,0.79599
914.44271,0.98630
912.95292,1.09757
911.46313,1.20886
909.97334,1.41501
908.48355,1.63518
906.99376,1.80248
905.50398,1.88310
904.01419,1.92738
902.52440,1.97169
901.03461,2.00000
899.54482,1.95918
898.05503,1.79684
896.56525,1.57807
895.07546,1.42404
893.58567,1.27004
892.09588,1.00050
890.60609,0.79988
889.11630,0.62853
887.62651,0.46662
886.13673,0.40478
884.64694,0.34297
883.15715,0.25562
881.66736,0.18788
880.17757,0.16034
878.68778,0.12672
877.19800,0.09313
875.70821,0.06591
874.21842,0.05296
872.72863,0.04740
871.23884,0.02179
869.74905,0.02035
868.25927,0.01894
866.76948,0.01602
865.27969,0.01568
863.78990,0.02959
862.30011,0.04404
860.81032,0.05076
859.32053,0.05750
857.83075,0.08575
856.34096,0.09216
854.85117,0.08918
853.36138,0.11064
851.87159,0.12386
850.38180,0.13711
848.89202,0.17466
847.40223,0.19240
845.91244,0.19287
844.42265,0.20380
842.93286,0.21475
841.44307,0.21148
839.95329,0.26214
838.46350,0.26452
836.97371,0.28141
835.48392,0.28740
833.99413,0.29341
832.50434,0.28011
831.01455,0.25744
829.52477,0.21724
828.03498,0.22233
826.54519,0.20367
825.05540,0.18503
823.56561,0.15561
822.07582,0.15190
820.58604,0.14796
819.09625,0.13793
817.60646,0.12793
816.11667,0.11643
814.62688,0.13369
813.13709,0.14131
811.64730,0.13700
810.15752,0.14314
808.66773,0.14931
807.17794,0.11838
805.68815,0.11467
804.19836,0.12600
802.70857,0.13162
801.21879,0.13727
799.72900,0.13799
798.23921,0.13441
796.74942,0.13238
795.25963,0.12719
793.76984,0.12203
792.28006,0.14880
790.79027,0.14916
789.30048,0.17140
787.81069,0.21376
786.32090,0.23135
784.83111,0.24896
783.34132,0.28630
781.85154,0.32265
780.36175,0.33106
778.87196,0.35742
777.38217,0.38379
775.89238,0.41541
774.40259,0.41679
772.91281,0.39557
771.42302,0.36420
769.93323,0.33285
768.44344,0.29696
766.95365,0.26159
765.46386,0.19218
763.97407,0.16678
762.48429,0.16378
760.99450,0.16080
759.50471,0.14463
758.01492,0.12085
756.52513,0.09455
755.03534,0.09320
753.54556,0.09187
752.05577,0.07835
750.56598,0.07148
749.07619,0.05141
747.58640,0.05043
746.09661,0.04947
744.60683,0.04524
743.11704,0.02729
741.62725,0.03658
740.13746,0.03255
738.64767,0.02853
737.15788,0.01348
735.66809,0.00355
734.17831,0.00333
732.68852,0.00832
731.19873,0.01334
729.70894,0.01622
728.21915,0.01022
726.72936,0.00476
725.23958,0.02476
723.74979,0.01822
722.26000,0.01170
720.77021,0.00355
719.28042,0.00841
717.79063,0.01966
716.30084,0.02433
714.81106,0.02902
713.32127,0.03424
711.83148,0.05092
710.34169,0.03814
708.85190,0.03542
707.36211,0.03273
705.87233,0.02765
704.38254,0.04903
702.89275,0.05010
701.40296,0.05119
699.91317,0.05230
698.42338,0.08472
696.93360,0.08436
695.44381,0.10055
693.95402,0.10723
692.46423,0.11393
690.97444,0.13248
689.48465,0.15614
687.99486,0.15974
686.50508,0.16984
685.01529,0.17997
683.52550,0.21848
682.03571,0.23362
680.54592,0.24166
679.05613,0.24362
677.56635,0.24561
676.07656,0.25169
674.58677,0.22829
673.09698,0.21637
671.60719,0.20116
670.11740,0.18598
668.62761,0.16650
667.13783,0.15874
665.64804,0.13994
664.15825,0.12117
662.66846,0.10102
661.17867,0.07734
659.68888,0.07504
658.19910,0.06755
656.70931,0.06009
655.21952,0.06778
653.72973,0.06380
652.23994,0.04891
650.75015,0.05578
649.26037,0.06267
647.77058,0.05955
646.28079,0.05671
644.79100,0.05287
643.30121,0.05694
641.81142,0.06103
640.32163,0.05294
638.83185,0.01920
637.34206,0.01167
635.85227,0.00759
634.36248,0.00355
632.87269,0.02460
631.38290,0.01236
629.89312,0.03550
628.40333,0.03323
626.91354,0.03099
625.42375,0.03741
623.93396,0.02606
622.44417,0.02135
620.95438,0.01666
619.46460,0.02445
617.97481,0.05210
616.48502,0.07266
614.99523,0.07671
613.50544,0.08078
612.01565,0.11921
610.52587,0.14266
609.03608,0.16867
607.54629,0.18607
606.05650,0.20349
604.56671,0.25246
603.07692,0.34748
601.58714,0.36739
600.09735,0.38732
598.60756,0.40155
597.11777,0.41276
595.62798,0.42094
594.13819,0.40626
592.64840,0.39160
591.15862,0.37214
589.66883,0.33033
588.17904,0.26082
586.68925,0.22389
585.19946,0.18698
583.70967,0.15162
582.21989,0.13332
580.73010,0.10487
579.24031,0.07645
577.75052,0.09458
576.26073,0.07180
574.77094,0.06506
573.28115,0.05454
571.79137,0.04403
570.30158,0.07551
568.81179,0.08362
567.32200,0.08272
565.83221,0.08185
564.34242,0.10046
562.85264,0.11553
561.36285,0.14181
559.87306,0.14459
558.38327,0.14740
556.89348,0.19867
555.40369,0.20598
553.91391,0.20708
552.42412,0.20821
550.93433,0.20161
549.44454,0.17621
547.95475,0.19406
546.46496,0.19058
544.97517,0.18713
543.48539,0.22794
541.99560,0.24741
540.50581,0.27149
539.01602,0.29559
537.52623,0.33752
536.03644,0.40413
534.54666,0.40440
533.05687,0.42263
531.56708,0.44087
530.07729,0.47707
528.58750,0.52041
527.09771,0.55704
525.60792,0.59369
524.11814,0.63736
522.62835,0.70775
521.13856,0.71459
519.64877,0.71409
518.15898,0.71361
516.66919,0.77062
515.17941,0.80172
513.68962,0.78517
512.19983,0.76864
510.71004,0.77159
509.22025,0.73922
507.73046,0.64712
506.24068,0.59370
504.75089,0.54029
503.26110,0.43555
501.77131,0.38093
500.28152,0.32556
498.79173,0.27022
497.30194,0.23296
495.81216,0.14538
494.32237,0.13893
492.83258,0.13251
491.34279,0.12967
489.85300,0.07879
488.36321,0.08388
486.87343,0.07171
485.38364,0.05956
483.89385,0.06320
482.40406,0.09585
480.91427,0.10055
479.42448,0.10528
477.93469,0.12732
476.44491,0.15854
474.95512,0.17720
473.46533,0.19588
471.97554,0.21115
470.48575,0.20560
468.99596,0.19270
467.50618,0.17880
466.01639,0.16493
464.52660,0.14804
463.03681,0.11870
461.54702,0.09397
460.05723,0.06926
458.56745,0.04509
457.07766,0.01509
455.58787,0.02478
454.09808,0.03450
452.60829,0.01932
451.11850,0.01841
449.62871,0.01866
448.13893,0.01894
446.64914,0.03157
445.15935,0.00355
443.66956,0.00686
442.17977,0.01807
440.68998,0.02931
439.20020,0.02074
437.71041,0.03178
436.22062,0.03089
434.73083,0.03002
433.24104,0.03604
431.75125,0.04107
430.26146,0.05731
428.77168,0.07358
427.28189,0.05173
425.79210,0.04109
424.30231,0.02984
422.81252,0.01861
421.32273,0.02407
419.83295,0.01454
418.34316,0.01025
416.85337,0.00599
415.36358,0.01688
413.87379,0.05881
412.38400,0.07051
410.89422,0.08224
409.40443,0.04745
407.91464,0.05084
406.42485,0.03568
404.93506,0.03568
403.44527,0.03570
401.95548,0.02138
400.46570,0.01395
398.97591,0.01138
397.48612,0.00882
395.99633,0.02257
394.50654,0.02795
393.01675,0.02458
391.52697,0.02124
390.03718,0.02523
388.54739,0.04145
387.05760,0.03099
385.56781,0.02056
384.07802,0.00355
382.58824,0.03160
381.09845,0.02002
379.60866,0.00846
378.11887,0.00074
376.62908,0.01361
375.13929,0.01200
373.64950,0.01042
372.15972,0.02437
370.66993,0.02410
369.18014,0.01826
367.69035,0.01244
366.20056,0.03537
364.71077,0.04562
363.22099,0.03199
361.73120,0.01838
360.24141,0.06989
358.75162,0.05607
357.26183,0.05602
355.77204,0.05598
354.28225,0.03360
352.79247,0.04149
351.30268,0.04064
349.81289,0.03981
348.32310,0.04676
346.83331,0.04713
345.34352,0.05413
343.85374,0.06115
342.36395,0.03871
340.87416,0.02112
339.38437,0.02414
337.89458,0.02720
336.40479,0.03561
334.91501,0.02499
333.42522,0.01425
331.93543,0.00355
330.44564,0.01286
328.95585,0.00974
327.46606,0.01147
325.97627,0.01323
324.48649,0.01780
322.99670,0.03181
321.50691,0.04507
320.01712,0.05836
318.52733,0.10193
317.03754,0.11527
315.54776,0.10142
314.05797,0.08760
312.56818,0.08143
311.07839,0.06689
309.58860,0.05887
308.09881,0.05086
306.60902,0.05598
305.11924,0.05527
303.62945,0.03361
302.13966,0.01197
300.64987,0.00355
299.16008,0.00355
