1778.52000,0.00564
1777.03021,0.00297
1775.54042,0.00105
1774.05063,0.00992
1772.56085,0.00684
1771.07106,0.00867
1769.58127,0.00661
1768.09148,0.01558
1766.60169,0.01699
1765.11190,0.01671
1763.62212,0.01231
1762.13233,0.01966
1760.64254,0.01628
1759.15275,0.03200
1757.66296,0.01693
1756.17317,0.02218
1754.68339,0.02330
1753.19360,0.01760
1751.70381,0.01485
1750.21402,0.03023
1748.72423,0.03120
1747.23444,0.02144
1745.74465,0.03444
1744.25487,0.01177
1742.76508,0.03005
1741.27529,0.02732
1739.78550,0.03293
1738.29571,0.02658
1736.80592,0.02784
1735.31614,0.02399
1733.82635,0.02285
1732.33656,0.02834
1730.84677,0.01723
1729.35698,0.01934
1727.86719,0.01757
1726.37740,0.00604
1724.88762,0.00162
1723.39783,0.01459
1721.90804,0.00265
1720.41825,0.00442
1718.92846,0.00671
1717.43867,0.01537
1715.94889,0.01013
1714.45910,0.00515
1712.96931,0.00387
1711.47952,0.00278
1709.98973,0.00000
1708.49994,0.00776
1707.01016,0.00650
1705.52037,0.00527
1704.03058,0.00552
1702.54079,0.00189
1701.05100,0.00244
1699.56121,0.00105
1698.07142,0.00179
1696.58164,0.01219
1695.09185,0.00891
1693.60206,0.02082
1692.11227,0.01759
1690.62248,0.00926
1689.13269,0.01243
1687.64291,0.00977
1686.15312,0.01251
1684.66333,0.02750
1683.17354,0.01831
1681.68375,0.02454
1680.19396,0.02151
1678.70417,0.02535
1677.21439,0.03068
1675.72460,0.04631
1674.23481,0.03995
1672.74502,0.04560
1671.25523,0.03782
1669.76544,0.04523
1668.27566,0.04460
1666.78587,0.06086
1665.29608,0.06370
1663.80629,0.06998
1662.31650,0.06700
1660.82671,0.08262
1659.33693,0.08531
1657.84714,0.07702
1656.35735,0.06827
1654.86756,0.07055
1653.37777,0.07089
1651.88798,0.06392
1650.39819,0.06578
1648.90841,0.07573
1647.41862,0.06541
1645.92883,0.07346
1644.43904,0.08153
1642.94925,0.07275
1641.45946,0.06571
1639.96968,0.05869
1638.47989,0.08886
1636.99010,0.08091
1635.50031,0.08277
1634.01052,0.07634
1632.52073,0.07409
1631.03094,0.07162
1629.54116,0.06478
1628.05137,0.07507
1626.56158,0.07585
1625.07179,0.08840
1623.58200,0.07920
1622.09221,0.07957
1620.60243,0.06529
1619.11264,0.07964
1617.62285,0.08399
1616.13306,0.08788
1614.64327,0.08030
1613.15348,0.08130
1611.66370,0.07866
1610.17391,0.08142
1608.68412,0.09913
1607.19433,0.09998
1605.70454,0.07885
1604.21475,0.07267
1602.72496,0.06651
1601.23518,0.04863
1599.74539,0.06770
1598.25560,0.08117
1596.76581,0.09076
1595.27602,0.08619
1593.78623,0.08041
1592.29645,0.07662
1590.80666,0.05672
1589.31687,0.07352
1587.82708,0.06613
1586.33729,0.06855
1584.84750,0.06757
1583.35771,0.06955
1581.86793,0.08182
1580.37814,0.07334
1578.88835,0.07490
1577.39856,0.07918
1575.90877,0.05414
1574.41898,0.04624
1572.92920,0.04350
1571.43941,0.05130
1569.94962,0.05081
1568.45983,0.05035
1566.97004,0.05064
1565.48025,0.03848
1563.99047,0.04616
1562.50068,0.03552
1561.01089,0.04594
1559.52110,0.03975
1558.03131,0.03701
1556.54152,0.03772
1555.05173,0.03258
1553.56195,0.02502
1552.07216,0.01725
1550.58237,0.01463
1549.09258,0.01448
1547.60279,0.00335
1546.11300,0.00105
1544.62322,0.00839
1543.13343,0.00938
1541.64364,0.00332
1540.15385,0.00893
1538.66406,0.01457
1537.17427,0.01657
1535.68448,0.00563
1534.19470,0.01451
1532.70491,0.01754
1531.21512,0.01107
1529.72533,0.01733
1528.23554,0.01310
1526.74575,0.00914
1525.25597,0.02404
1523.76618,0.01621
1522.27639,0.02186
1520.78660,0.03219
1519.29681,0.02517
1517.80702,0.04997
1516.31724,0.04447
1514.82745,0.04339
1513.33766,0.04552
1511.84787,0.04768
1510.35808,0.02858
1508.86829,0.03152
1507.37850,0.02299
1505.88872,0.02402
1504.39893,0.04292
1502.90914,0.03691
1501.41935,0.04315
1499.92956,0.06212
1498.43977,0.05545
1496.94999,0.05956
1495.46020,0.06614
1493.97041,0.08864
1492.48062,0.09795
1490.99083,0.07893
1489.50104,0.09686
1488.01125,0.09818
1486.52147,0.09953
1485.03168,0.14784
1483.54189,0.17711
1482.05210,0.17511
1480.56231,0.17925
1479.07252,0.20590
1477.58274,0.19908
1476.09295,0.20206
1474.60316,0.20287
1473.11337,0.22425
1471.62358,0.23170
1470.13379,0.23161
1468.64401,0.24547
1467.15422,0.27403
1465.66443,0.26949
1464.17464,0.26497
1462.68485,0.32099
1461.19506,0.36945
1459.70527,0.41305
1458.21549,0.44151
1456.72570,0.47831
1455.23591,0.50878
1453.74612,0.57766
1452.25633,0.61845
1450.76654,0.64777
1449.27676,0.65632
1447.78697,0.64266
1446.29718,0.62412
1444.80739,0.60195
1443.31760,0.57980
1441.82781,0.54031
1440.33802,0.50231
1438.84824,0.47339
1437.35845,0.46405
1435.86866,0.43444
1434.37887,0.45058
1432.88908,0.50562
1431.39929,0.58367
1429.90951,0.65612
1428.41972,0.69632
1426.92993,0.72652
1425.44014,0.73693
1423.95035,0.77647
1422.46056,0.81604
1420.97078,0.84315
1419.48099,0.86540
1417.99120,0.84978
1416.50141,0.78943
1415.01162,0.76921
1413.52183,0.72921
1412.03204,0.67994
1410.54226,0.67031
1409.05247,0.60862
1407.56268,0.55233
1406.07289,0.50487
1404.58310,0.47541
1403.09331,0.44597
1401.60353,0.41619
1400.11374,0.37347
1398.62395,0.32589
1397.13416,0.26244
1395.64437,0.22591
1394.15458,0.19136
1392.66479,0.14314
1391.17501,0.13749
1389.68522,0.11304
1388.19543,0.07688
1386.70564,0.07204
1385.21585,0.06722
1383.72606,0.05314
1382.23628,0.02881
1380.74649,0.02113
1379.25670,0.01250
1377.76691,0.00854
1376.27712,0.00338
1374.78733,0.00264
1373.29755,0.00145
1371.80776,0.00003
1370.31797,0.01355
1368.82818,0.00729
1367.33839,0.00105
1365.84860,0.01522
1364.35881,0.03332
1362.86903,0.03849
1361.37924,0.06495
1359.88945,0.07286
1358.39966,0.08348
1356.90987,0.12468
1355.42008,0.16127
1353.93030,0.19568
1352.44051,0.23403
1350.95072,0.27240
1349.46093,0.35554
1347.97114,0.41670
1346.48135,0.47838
1344.99156,0.55964
1343.50178,0.57392
1342.01199,0.64839
1340.52220,0.71138
1339.03241,0.72305
1337.54262,0.74037
1336.05283,0.76175
1334.56305,0.78315
1333.07326,0.83331
1331.58347,0.83238
1330.09368,0.81290
1328.60389,0.78685
1327.11410,0.76692
1325.62432,0.71573
1324.13453,0.73889
1322.64474,0.72516
1321.15495,0.67086
1319.66516,0.64336
1318.17537,0.61588
1316.68558,0.58122
1315.19580,0.52750
1313.70601,0.49460
1312.21622,0.44460
1310.72643,0.42055
1309.23664,0.39750
1307.74685,0.36811
1306.25707,0.34633
1304.76728,0.32397
1303.27749,0.30162
1301.78770,0.27527
1300.29791,0.23061
1298.80812,0.20406
1297.31834,0.18096
1295.82855,0.17500
1294.33876,0.12750
1292.84897,0.09591
1291.35918,0.09002
1289.86939,0.09076
1288.37960,0.09153
1286.88982,0.08914
1285.40003,0.09289
1283.91024,0.06878
1282.42045,0.06842
1280.93066,0.05562
1279.44087,0.04161
1277.95109,0.05355
1276.46130,0.02468
1274.97151,0.02505
1273.48172,0.02545
1271.99193,0.02673
1270.50214,0.02118
1269.01235,0.01371
1267.52257,0.02704
1266.03278,0.03086
1264.54299,0.01441
1263.05320,0.02683
1261.56341,0.01960
1260.07362,0.01240
1258.58384,0.00680
1257.09405,0.00735
1255.60426,0.00253
1254.11447,0.00435
1252.62468,0.00105
1251.13489,0.01037
1249.64511,0.00577
1248.15532,0.00707
1246.66553,0.01035
1245.17574,0.01365
1243.68595,0.01746
1242.19616,0.01886
1240.70637,0.01172
1239.21659,0.02147
1237.72680,0.00949
1236.23701,0.02321
1234.74722,0.01397
1233.25743,0.01685
1231.76764,0.01976
1230.27786,0.02600
1228.78807,0.01636
1227.29828,0.01482
1225.80849,0.02015
1224.31870,0.00105
1222.82891,0.01225
1221.33912,0.01320
1219.84934,0.02335
1218.35955,0.03352
1216.86976,0.05386
1215.37997,0.06592
1213.89018,0.06773
1212.40039,0.06565
1210.91061,0.06482
1209.42082,0.04420
1207.93103,0.05577
1206.44124,0.06735
1204.95145,0.04950
1203.46166,0.05295
1201.97188,0.05862
1200.48209,0.04158
1198.99230,0.03483
1197.50251,0.03544
1196.01272,0.03069
1194.52293,0.03429
1193.03314,0.03790
1191.54336,0.03397
1190.05357,0.02785
1188.56378,0.02298
1187.07399,0.02083
1185.58420,0.01014
1184.09441,0.00535
1182.60463,0.00523
1181.11484,0.00513
1179.62505,0.02266
1178.13526,0.02456
1176.64547,0.02503
1175.15568,0.01989
1173.66589,0.00524
1172.17611,0.00235
1170.68632,0.00169
1169.19653,0.00105
1167.70674,0.00881
1166.21695,0.02392
1164.72716,0.04664
1163.23738,0.05104
1161.74759,0.05620
1160.25780,0.06383
1158.76801,0.05535
1157.27822,0.04689
1155.78843,0.04848
1154.29865,0.05327
1152.80886,0.08377
1151.31907,0.10744
1149.82928,0.11035
1148.33949,0.13456
1146.84970,0.13067
1145.35991,0.12681
1143.87013,0.12273
1142.38034,0.14410
1140.89055,0.13835
1139.40076,0.13703
1137.91097,0.16997
1136.42118,0.20269
1134.93140,0.19545
1133.44161,0.18824
1131.95182,0.20758
1130.46203,0.22475
1128.97224,0.21015
1127.48245,0.20658
1125.99266,0.20108
1124.50288,0.20612
1123.01309,0.20874
1121.52330,0.21138
1120.03351,0.21698
1118.54372,0.22309
1117.05393,0.22458
1115.56415,0.22806
1114.07436,0.22984
1112.58457,0.22542
1111.09478,0.22102
1109.60499,0.21603
1108.11520,0.23454
1106.62542,0.24696
1105.13563,0.22371
1103.64584,0.21100
1102.15605,0.20662
1100.66626,0.20887
1099.17647,0.21114
1097.68668,0.20635
1096.19690,0.19767
1094.70711,0.19855
1093.21732,0.17696
1091.72753,0.17667
1090.23774,0.17518
1088.74795,0.17371
1087.25817,0.17618
1085.76838,0.17819
1084.27859,0.17508
1082.78880,0.17518
1081.29901,0.17872
1079.80922,0.18303
1078.31943,0.17953
1076.82965,0.17606
1075.33986,0.18851
1073.85007,0.21394
1072.36028,0.22447
1070.87049,0.22990
1069.38070,0.27228
1067.89092,0.28154
1066.40113,0.29083
1064.91134,0.32937
1063.42155,0.41365
1061.93176,0.48720
1060.44197,0.57227
1058.95219,0.63902
1057.46240,0.68379
1055.97261,0.72859
1054.48282,0.86290
1052.99303,0.90725
1051.50324,0.88806
1050.01345,0.85446
1048.52367,0.84803
1047.03388,0.83771
1045.54409,0.82742
1044.05430,0.79123
1042.56451,0.73037
1041.07472,0.68127
1039.58494,0.62461
1038.09515,0.58217
1036.60536,0.54683
1035.11557,0.51152
1033.62578,0.45375
1032.13599,0.41482
1030.64620,0.36882
1029.15642,0.30036
1027.66663,0.28449
1026.17684,0.26864
1024.68705,0.19390
1023.19726,0.16172
1021.70747,0.15548
1020.21769,0.13166
1018.72790,0.09760
1017.23811,0.10611
1015.74832,0.11464
1014.25853,0.09117
1012.76874,0.10171
1011.27896,0.08219
1009.78917,0.07884
1008.29938,0.05718
1006.80959,0.04715
1005.31980,0.03715
1003.83001,0.02754
1002.34022,0.02284
1000.85044,0.00105
999.36065,0.01620
997.87086,0.02209
996.38107,0.02800
994.89128,0.04126
993.40149,0.07118
991.91171,0.09306
990.42192,0.11740
988.93213,0.10240
987.44234,0.10601
985.95255,0.10965
984.46276,0.13507
982.97297,0.09718
981.48319,0.08475
979.99340,0.05963
978.50361,0.05238
977.01382,0.04516
975.52403,0.03038
974.03424,0.01856
972.54446,0.00505
971.05467,0.00111
969.56488,0.00448
968.07509,0.00336
966.58530,0.00226
965.09551,0.01499
963.60573,0.00159
962.11594,0.00142
960.62615,0.01155
959.13636,0.00629
957.64657,0.00105
956.15678,0.01192
954.66699,0.00350
953.17721,0.02102
951.68742,0.02291
950.19763,0.02251
948.70784,0.02213
947.21805,0.07128
945.72826,0.07401
944.23848,0.08189
942.74869,0.10080
941.25890,0.12316
939.76911,0.13393
938.27932,0.14473
936.78953,0.15714
935.29974,0.16835
933.80996,0.19547
932.32017,0.21480
930.83038,0.21227
929.34059,0.20976
927.85080,0.26168
926.36101,0.27304
924.87123,0.30031
923.38144,0.34106
921.89165,0.36911
920.40186,0.39720
918.91207,0.49523
917.42228,0.62043
915.93250,0.71827
914.44271,0.93424
912.95292,1.03421
911.46313,1.13420
909.97334,1.38961
908.48355,1.59564
906.99376,1.77408
905.50398,1.87771
904.01419,1.91804
902.52440,1.95840
901.03461,2.00000
899.54482,1.97121
898.05503,1.84561
896.56525,1.66111
895.07546,1.49216
893.58567,1.32323
892.09588,1.05616
890.60609,0.85489
889.11630,0.65902
887.62651,0.48640
886.13673,0.40905
884.64694,0.33172
883.15715,0.25209
881.66736,0.16344
880.17757,0.12811
878.68778,0.11494
877.19800,0.10180
875.70821,0.06606
874.21842,0.04257
872.72863,0.02645
871.23884,0.01156
869.74905,0.01749
868.25927,0.02344
866.76948,0.00105
865.27969,0.02255
863.78990,0.04701
862.30011,0.05388
860.81032,0.06115
859.32053,0.06844
857.83075,0.06732
856.34096,0.07796
854.85117,0.09253
853.36138,0.11863
851.87159,0.12433
850.38180,0.13005
848.89202,0.14913
847.40223,0.16701
845.91244,0.18393
844.42265,0.18609
842.93286,0.18827
841.44307,0.20355
839.95329,0.23060
838.46350,0.22539
836.97371,0.23513
835.48392,0.22985
833.99413,0.22460
832.50434,0.23978
831.01455,0.24130
829.52477,0.22255
828.03498,0.18060
826.54519,0.17412
825.05540,0.16767
823.56561,0.16760
822.07582,0.14139
820.58604,0.13183
819.09625,0.12316
817.60646,0.11450
816.11667,0.12067
814.62688,0.12686
813.13709,0.12916
811.64730,0.15031
810.15752,0.13603
808.66773,0.12178
807.17794,0.11636
805.68815,0.09188
804.19836,0.10998
802.70857,0.11184
801.21879,0.11373
799.72900,0.10231
798.23921,0.10486
796.74942,0.10669
795.25963,0.11552
793.76984,0.12438
792.28006,0.12384
790.79027,0.13433
789.30048,0.15292
787.81069,0.18645
786.32090,0.20471
784.83111,0.22301
783.34132,0.23924
781.85154,0.26480
780.36175,0.31141
778.87196,0.31317
777.38217,0.31496
775.89238,0.37533
774.40259,0.38976
772.91281,0.36460
771.42302,0.34423
769.93323,0.32389
768.44344,0.30639
766.95365,0.24416
765.46386,0.18147
763.97407,0.15377
762.48429,0.14626
760.99450,0.13878
759.50471,0.12607
758.01492,0.10385
756.52513,0.10096
755.03534,0.09126
753.54556,0.08158
752.05577,0.09662
750.56598,0.07011
749.07619,0.04583
747.58640,0.03686
746.09661,0.02791
744.60683,0.02278
743.11704,0.01449
741.62725,0.02066
740.13746,0.02061
738.64767,0.02059
737.15788,0.00726
735.66809,0.00105
734.17831,0.00537
732.68852,0.00591
731.19873,0.00648
729.70894,0.01722
728.21915,0.01136
726.72936,0.00357
725.23958,0.01757
723.74979,0.00996
722.26000,0.00238
720.77021,0.00105
719.28042,0.00597
717.79063,0.00552
716.30084,0.00315
714.81106,0.00080
713.32127,0.02195
711.83148,0.03163
710.34169,0.02226
708.85190,0.02136
707.36211,0.02048
705.87233,0.02047
704.38254,0.05033
702.89275,0.03717
701.40296,0.04971
699.91317,0.06228
698.42338,0.06631
696.93360,0.08675
695.44381,0.10134
693.95402,0.10765
692.46423,0.11398
690.97444,0.13672
689.48465,0.15263
687.99486,0.17786
686.50508,0.20336
685.01529,0.22889
683.52550,0.23170
682.03571,0.23258
680.54592,0.25059
679.05613,0.25213
677.56635,0.25369
676.07656,0.26054
674.58677,0.25860
673.09698,0.23029
671.60719,0.21703
670.11740,0.20380
668.62761,0.18167
667.13783,0.12068
665.64804,0.11474
664.15825,0.10882
662.66846,0.10537
661.17867,0.07920
659.68888,0.06529
658.19910,0.06594
656.70931,0.06663
655.21952,0.05596
653.72973,0.05486
652.23994,0.06845
650.75015,0.06263
649.26037,0.05683
647.77058,0.07270
646.28079,0.05484
644.79100,0.04606
643.30121,0.04941
641.81142,0.05278
640.32163,0.03967
638.83185,0.00800
637.34206,0.00105
635.85227,0.01056
634.36248,0.02008
632.87269,0.02805
631.38290,0.03286
629.89312,0.03916
628.40333,0.03093
626.91354,0.02273
625.42375,0.03424
623.93396,0.03403
622.44417,0.02835
620.95438,0.02270
619.46460,0.01914
617.97481,0.05547
616.48502,0.05269
614.99523,0.06645
613.50544,0.08023
612.01565,0.10565
610.52587,0.12058
609.03608,0.15046
607.54629,0.17265
606.05650,0.19487
604.56671,0.21356
603.07692,0.30075
601.58714,0.32438
600.09735,0.34804
598.60756,0.39471
597.11777,0.41157
595.62798,0.40181
594.13819,0.39842
592.64840,0.39506
591.15862,0.36288
589.66883,0.31311
588.17904,0.26972
586.68925,0.24030
585.19946,0.21090
583.70967,0.14973
582.21989,0.11916
580.73010,0.09582
579.24031,0.07251
577.75052,0.06866
576.26073,0.05335
574.77094,0.06324
573.28115,0.05188
571.79137,0.04055
570.30158,0.04954
568.81179,0.06809
567.32200,0.07432
565.83221,0.08057
564.34242,0.10603
562.85264,0.09974
561.36285,0.11034
559.87306,0.10997
558.38327,0.10961
556.89348,0.13863
555.40369,0.18258
553.91391,0.18340
552.42412,0.18425
550.93433,0.16666
549.44454,0.16523
547.95475,0.17165
546.46496,0.17161
544.97517,0.17160
543.48539,0.19277
541.99560,0.19855
540.50581,0.21744
539.01602,0.23636
537.52623,0.28403
536.03644,0.35251
534.54666,0.37406
533.05687,0.38941
531.56708,0.40478
530.07729,0.49952
528.58750,0.50992
527.09771,0.54921
525.60792,0.58851
524.11814,0.62124
522.62835,0.68578
521.13856,0.69093
519.64877,0.71249
518.15898,0.73407
516.66919,0.74516
515.17941,0.75383
513.68962,0.75983
512.19983,0.76586
510.71004,0.75529
509.22025,0.74009
507.73046,0.64423
506.24068,0.59008
504.75089,0.53596
503.26110,0.44384
501.77131,0.35150
500.28152,0.30809
498.79173,0.26470
497.30194,0.20838
495.81216,0.13717
494.32237,0.12564
492.83258,0.11413
491.34279,0.10339
489.85300,0.07971
488.36321,0.06486
486.87343,0.05785
485.38364,0.05087
483.89385,0.06519
482.40406,0.07391
480.91427,0.08460
479.42448,0.09533
477.93469,0.12368
476.44491,0.13298
474.95512,0.14329
473.46533,0.15362
471.97554,0.16080
470.48575,0.16874
468.99596,0.17694
467.50618,0.15974
466.01639,0.14256
464.52660,0.11441
463.03681,0.08554
461.54702,0.07712
460.05723,0.06872
458.56745,0.04164
457.07766,0.00994
455.58787,0.01873
454.09808,0.02755
452.60829,0.02502
451.11850,0.02862
449.62871,0.03103
448.13893,0.03346
446.64914,0.03079
445.15935,0.02691
443.66956,0.00105
442.17977,0.00303
440.68998,0.00502
439.20020,0.01805
437.71041,0.01422
436.22062,0.02277
434.73083,0.03134
433.24104,0.04520
431.75125,0.04441
430.26146,0.04804
428.77168,0.05170
427.28189,0.05196
425.79210,0.05298
424.30231,0.05781
422.81252,0.06267
421.32273,0.06498
419.83295,0.00105
418.34316,0.00840
416.85337,0.01577
415.36358,0.01888
413.87379,0.02593
412.38400,0.03997
410.89422,0.05404
409.40443,0.04062
407.91464,0.03995
406.42485,0.05054
404.93506,0.05261
403.44527,0.05469
401.95548,0.03504
400.46570,0.03815
398.97591,0.04239
397.48612,0.04665
395.99633,0.03077
394.50654,0.05868
393.01675,0.04956
391.52697,0.04047
390.03718,0.02615
388.54739,0.01455
387.05760,0.00779
385.56781,0.00105
384.07802,0.02278
382.58824,0.04527
381.09845,0.02842
379.60866,0.01159
378.11887,0.03048
376.62908,0.01175
375.13929,0.01577
373.64950,0.01982
372.15972,0.03490
370.66993,0.01284
369.18014,0.01403
367.69035,0.01525
366.20056,0.00182
364.71077,0.02485
363.22099,0.02137
361.73120,0.01792
360.24141,0.05374
358.75162,0.07270
357.26183,0.05527
355.77204,0.03785
354.28225,0.07083
352.79247,0.02681
351.30268,0.03294
349.81289,0.03910
348.32310,0.03966
346.83331,0.04757
345.34352,0.05258
343.85374,0.05761
342.36395,0.02452
340.87416,0.04012
339.38437,0.04033
337.89458,0.04057
336.40479,0.02837
334.91501,0.03134
333.42522,0.02359
331.93543,0.01585
330.44564,0.00105
328.95585,0.01425
327.46606,0.01709
325.97627,0.01994
324.48649,0.04055
322.99670,0.05091
321.50691,0.05739
320.01712,0.06389
318.52733,0.06161
317.03754,0.07109
315.54776,0.07632
314.05797,0.08157
312.56818,0.06667
311.07839,0.05620
309.58860,0.06776
308.09881,0.07935
306.60902,0.05428
305.11924,0.05027
303.62945,0.03637
302.13966,0.02250
300.64987,0.00145
299.16008,0.00105
