1778.52000,0.02312
1777.03021,0.01569
1775.54042,0.02374
1774.05063,0.01309
1772.56085,0.01884
1771.07106,0.02509
1769.58127,0.01662
1768.09148,0.00910
1766.60169,0.01613
1765.11190,0.01568
1763.62212,0.01292
1762.13233,0.01674
1760.64254,0.00584
1759.15275,0.01883
1757.66296,0.00938
1756.17317,0.01845
1754.68339,0.02004
1753.19360,0.01066
1751.70381,0.00716
1750.21402,0.00672
1748.72423,0.00631
1747.23444,0.01271
1745.74465,0.01000
1744.25487,0.00896
1742.76508,0.00584
1741.27529,0.01281
1739.78550,0.02097
1738.29571,0.01090
1736.80592,0.01537
1735.31614,0.02033
1733.82635,0.01220
1732.33656,0.01393
1730.84677,0.00772
1729.35698,0.00880
1727.86719,0.00592
1726.37740,0.00868
1724.88762,0.00281
1723.39783,0.00000
1721.90804,0.00682
1720.41825,0.00967
1718.92846,0.00390
1717.43867,0.00423
1715.94889,0.00692
1714.45910,0.00824
1712.96931,0.00584
1711.47952,0.00235
1709.98973,0.00685
1708.49994,0.00903
1707.01016,0.01253
1705.52037,0.01604
1704.03058,0.00636
1702.54079,0.00255
1701.05100,0.01557
1699.56121,0.01667
1698.07142,0.00867
1696.58164,0.00584
1695.09185,0.01604
1693.60206,0.01668
1692.11227,0.01827
1690.62248,0.01918
1689.13269,0.01755
1687.64291,0.02577
1686.15312,0.02371
1684.66333,0.02472
1683.17354,0.02365
1681.68375,0.02588
1680.19396,0.02181
1678.70417,0.02409
1677.21439,0.03037
1675.72460,0.04487
1674.23481,0.04582
1672.74502,0.03204
1671.25523,0.04942
1669.76544,0.04646
1668.27566,0.05172
1666.78587,0.05138
1665.29608,0.06792
1663.80629,0.06739
1662.31650,0.06596
1660.82671,0.05705
1659.33693,0.07533
1657.84714,0.07326
1656.35735,0.07192
1654.86756,0.07365
1653.37777,0.07540
1651.88798,0.07249
1650.39819,0.07195
1648.90841,0.06792
1647.41862,0.07983
1645.92883,0.08135
1644.43904,0.08290
1642.94925,0.07686
1641.45946,0.08231
1639.96968,0.08732
1638.47989,0.09049
1636.99010,0.10444
1635.50031,0.08939
1634.01052,0.07577
1632.52073,0.08886
1631.03094,0.07646
1629.54116,0.08492
1628.05137,0.09012
1626.56158,0.07077
1625.07179,0.08819
1623.58200,0.08574
1622.09221,0.07887
1620.60243,0.08302
1619.11264,0.07877
1617.62285,0.07431
1616.13306,0.09563
1614.64327,0.08162
1613.15348,0.08495
1611.66370,0.09323
1610.17391,0.09872
1608.68412,0.08621
1607.19433,0.09854
1605.70454,0.09779
1604.21475,0.09390
1602.72496,0.09003
1601.23518,0.08396
1599.74539,0.07323
1598.25560,0.08056
1596.76581,0.08884
1595.27602,0.07842
1593.78623,0.08441
1592.29645,0.09347
1590.80666,0.07376
1589.31687,0.08029
1587.82708,0.05875
1586.33729,0.07166
1584.84750,0.07311
1583.35771,0.07201
1581.86793,0.07234
1580.37814,0.08604
1578.88835,0.08876
1577.39856,0.06412
1575.90877,0.06665
1574.41898,0.05914
1572.92920,0.05798
1571.43941,0.05567
1569.94962,0.05210
1568.45983,0.04855
1566.97004,0.03976
1565.48025,0.03403
1563.99047,0.03887
1562.50068,0.02687
1561.01089,0.02941
1559.52110,0.02168
1558.03131,0.02193
1556.54152,0.02946
1555.05173,0.03444
1553.56195,0.02469
1552.07216,0.00935
1550.58237,0.01370
1549.09258,0.00847
1547.60279,0.00819
1546.11300,0.00441
1544.62322,0.02759
1543.13343,0.00584
1541.64364,0.00696
1540.15385,0.00799
1538.66406,0.00904
1537.17427,0.01726
1535.68448,0.00842
1534.19470,0.02643
1532.70491,0.01847
1531.21512,0.02202
1529.72533,0.01271
1528.23554,0.01302
1526.74575,0.04192
1525.25597,0.01114
1523.76618,0.02043
1522.27639,0.02669
1520.78660,0.03391
1519.29681,0.04046
1517.80702,0.05733
1516.31724,0.06275
1514.82745,0.05602
1513.33766,0.05810
1511.84787,0.06020
1510.35808,0.04652
1508.86829,0.05487
1507.37850,0.05506
1505.88872,0.05386
1504.39893,0.06228
1502.90914,0.05364
1501.41935,0.07546
1499.92956,0.06078
1498.43977,0.05455
1496.94999,0.08253
1495.46020,0.08595
1493.97041,0.09337
1492.48062,0.12259
1490.99083,0.12748
1489.50104,0.12515
1488.01125,0.13723
1486.52147,0.14934
1485.03168,0.17259
1483.54189,0.18768
1482.05210,0.21730
1480.56231,0.22517
1479.07252,0.23728
1477.58274,0.25738
1476.09295,0.25666
1474.60316,0.26861
1473.11337,0.26443
1471.62358,0.27807
1470.13379,0.29103
1468.64401,0.31337
1467.15422,0.32708
1465.66443,0.32291
1464.17464,0.31875
1462.68485,0.36157
1461.19506,0.39035
1459.70527,0.44843
1458.21549,0.51285
1456.72570,0.54991
1455.23591,0.60525
1453.74612,0.64399
1452.25633,0.71530
1450.76654,0.73349
1449.27676,0.74210
1447.78697,0.71000
1446.29718,0.70836
1444.80739,0.67760
1443.31760,0.64686
1441.82781,0.60479
1440.33802,0.56837
1438.84824,0.51370
1437.35845,0.49441
1435.86866,0.51308
1434.37887,0.52989
1432.88908,0.57646
1431.39929,0.64108
1429.90951,0.71041
1428.41972,0.77064
1426.92993,0.81847
1425.44014,0.83286
1423.95035,0.85815
1422.46056,0.88347
1420.97078,0.90097
1419.48099,0.93394
1417.99120,0.94095
1416.50141,0.93371
1415.01162,0.88903
1413.52183,0.82354
1412.03204,0.77891
1410.54226,0.74624
1409.05247,0.67848
1407.56268,0.62596
1406.07289,0.59641
1404.58310,0.55681
1403.09331,0.51724
1401.60353,0.45616
1400.11374,0.40517
1398.62395,0.35303
1397.13416,0.30138
1395.64437,0.26684
1394.15458,0.20986
1392.66479,0.19410
1391.17501,0.14091
1389.68522,0.13457
1388.19543,0.11795
1386.70564,0.10053
1385.21585,0.08314
1383.72606,0.06402
1382.23628,0.04609
1380.74649,0.04083
1379.25670,0.02927
1377.76691,0.02054
1376.27712,0.02589
1374.78733,0.00925
1373.29755,0.02518
1371.80776,0.01655
1370.31797,0.00584
1368.82818,0.01089
1367.33839,0.01597
1365.84860,0.03805
1364.35881,0.04750
1362.86903,0.05160
1361.37924,0.06626
1359.88945,0.09546
1358.39966,0.11297
1356.90987,0.14362
1355.42008,0.17617
1353.93030,0.23472
1352.44051,0.27036
1350.95072,0.30602
1349.46093,0.38689
1347.97114,0.43852
1346.48135,0.51850
1344.99156,0.59008
1343.50178,0.69142
1342.01199,0.73354
1340.52220,0.82322
1339.03241,0.84175
1337.54262,0.83549
1336.05283,0.85980
1334.56305,0.88414
1333.07326,0.93554
1331.58347,0.93195
1330.09368,0.91621
1328.60389,0.91126
1327.11410,0.89838
1325.62432,0.84315
1324.13453,0.84366
1322.64474,0.78941
1321.15495,0.77685
1319.66516,0.74290
1318.17537,0.70898
1316.68558,0.65904
1315.19580,0.60257
1313.70601,0.57984
1312.21622,0.52997
1310.72643,0.50330
1309.23664,0.45840
1307.74685,0.42874
1306.25707,0.40145
1304.76728,0.38167
1303.27749,0.36191
1301.78770,0.31549
1300.29791,0.26488
1298.80812,0.23349
1297.31834,0.21641
1295.82855,0.18319
1294.33876,0.15305
1292.84897,0.12550
1291.35918,0.11952
1289.86939,0.12105
1288.37960,0.12260
1286.88982,0.11014
1285.40003,0.09769
1283.91024,0.10400
1282.42045,0.07920
1280.93066,0.08088
1279.44087,0.07040
1277.95109,0.06159
1276.46130,0.06639
1274.97151,0.06078
1273.48172,0.05521
1271.99193,0.04977
1270.50214,0.05887
1269.01235,0.04552
1267.52257,0.04390
1266.03278,0.03763
1264.54299,0.03863
1263.05320,0.04270
1261.56341,0.03650
1260.07362,0.03032
1258.58384,0.02065
1257.09405,0.02810
1255.60426,0.02409
1254.11447,0.00584
1252.62468,0.01171
1251.13489,0.01690
1249.64511,0.00760
1248.15532,0.02899
1246.66553,0.02688
1245.17574,0.02480
1243.68595,0.03292
1242.19616,0.04130
1240.70637,0.03870
1239.21659,0.01786
1237.72680,0.02842
1236.23701,0.02262
1234.74722,0.03463
1233.25743,0.03203
1231.76764,0.02946
1230.27786,0.03171
1228.78807,0.03586
1227.29828,0.01803
1225.80849,0.00584
1224.31870,0.00632
1222.82891,0.01268
1221.33912,0.02352
1219.84934,0.03262
1218.35955,0.04174
1216.86976,0.06857
1215.37997,0.08301
1213.89018,0.08320
1212.40039,0.07568
1210.91061,0.08809
1209.42082,0.08811
1207.93103,0.08231
1206.44124,0.07652
1204.95145,0.07451
1203.46166,0.06995
1201.97188,0.06845
1200.48209,0.06347
1198.99230,0.05547
1197.50251,0.04281
1196.01272,0.05171
1194.52293,0.04483
1193.03314,0.03798
1191.54336,0.04204
1190.05357,0.04261
1188.56378,0.02962
1187.07399,0.01971
1185.58420,0.03206
1184.09441,0.00837
1182.60463,0.01223
1181.11484,0.01610
1179.62505,0.00584
1178.13526,0.03015
1176.64547,0.02734
1175.15568,0.03274
1173.66589,0.01662
1172.17611,0.00967
1170.68632,0.01081
1169.19653,0.01197
1167.70674,0.01890
1166.21695,0.02210
1164.72716,0.03282
1163.23738,0.03608
1161.74759,0.05691
1160.25780,0.06045
1158.76801,0.06705
1157.27822,0.07368
1155.78843,0.07307
1154.29865,0.07928
1152.80886,0.08902
1151.31907,0.10745
1149.82928,0.11256
1148.33949,0.14227
1146.84970,0.13572
1145.35991,0.12920
1143.87013,0.12621
1142.38034,0.15016
1140.89055,0.15308
1139.40076,0.15227
1137.91097,0.16810
1136.42118,0.19777
1134.93140,0.19774
1133.44161,0.19773
1131.95182,0.22373
1130.46203,0.22915
1128.97224,0.22897
1127.48245,0.23538
1125.99266,0.23526
1124.50288,0.22415
1123.01309,0.22208
1121.52330,0.22004
1120.03351,0.20924
1118.54372,0.22586
1117.05393,0.21932
1115.56415,0.24372
1114.07436,0.24027
1112.58457,0.22620
1111.09478,0.21215
1109.60499,0.24647
1108.11520,0.23235
1106.62542,0.24237
1105.13563,0.24703
1103.64584,0.22292
1102.15605,0.20445
1100.66626,0.20041
1099.17647,0.19638
1097.68668,0.19999
1096.19690,0.20925
1094.70711,0.21384
1093.21732,0.21237
1091.72753,0.19594
1090.23774,0.19944
1088.74795,0.20296
1087.25817,0.17958
1085.76838,0.18245
1084.27859,0.19353
1082.78880,0.20066
1081.29901,0.20266
1079.80922,0.21241
1078.31943,0.20931
1076.82965,0.20624
1075.33986,0.21747
1073.85007,0.22567
1072.36028,0.23765
1070.87049,0.27283
1069.38070,0.30640
1067.89092,0.32583
1066.40113,0.34528
1064.91134,0.40701
1063.42155,0.46338
1061.93176,0.57573
1060.44197,0.64854
1058.95219,0.72558
1057.46240,0.77597
1055.97261,0.82637
1054.48282,0.94376
1052.99303,1.04361
1051.50324,1.04352
1050.01345,1.03385
1048.52367,0.99307
1047.03388,0.98111
1045.54409,0.96918
1044.05430,0.91114
1042.56451,0.81825
1041.07472,0.78649
1039.58494,0.71331
1038.09515,0.62517
1036.60536,0.57276
1035.11557,0.52038
1033.62578,0.46767
1032.13599,0.42200
1030.64620,0.36653
1029.15642,0.32419
1027.66663,0.28971
1026.17684,0.25527
1024.68705,0.22728
1023.19726,0.18527
1021.70747,0.15827
1020.21769,0.13972
1018.72790,0.12400
1017.23811,0.11943
1015.74832,0.11488
1014.25853,0.11258
1012.76874,0.09205
1011.27896,0.07692
1009.78917,0.09155
1008.29938,0.06594
1006.80959,0.05346
1005.31980,0.04100
1003.83001,0.02904
1002.34022,0.03817
1000.85044,0.03094
999.36065,0.02560
997.87086,0.02836
996.38107,0.03115
994.89128,0.06686
993.40149,0.08082
991.91171,0.10299
990.42192,0.13924
988.93213,0.15866
987.44234,0.15480
985.95255,0.15097
984.46276,0.17935
982.97297,0.14268
981.48319,0.13014
979.99340,0.09772
978.50361,0.09354
977.01382,0.08939
975.52403,0.04581
974.03424,0.04275
972.54446,0.03106
971.05467,0.02501
969.56488,0.01922
968.07509,0.01861
966.58530,0.01801
965.09551,0.02845
963.60573,0.01245
962.11594,0.02153
960.62615,0.00676
959.13636,0.00628
957.64657,0.00584
956.15678,0.01293
954.66699,0.03269
953.17721,0.03468
951.68742,0.04162
950.19763,0.03921
948.70784,0.03683
947.21805,0.06022
945.72826,0.07989
944.23848,0.08086
942.74869,0.11392
941.25890,0.11962
939.76911,0.12382
938.27932,0.12804
936.78953,0.16846
935.29974,0.18151
933.80996,0.20020
932.32017,0.20651
930.83038,0.20851
929.34059,0.21054
927.85080,0.23331
926.36101,0.27132
924.87123,0.28009
923.38144,0.34367
921.89165,0.37789
920.40186,0.41213
918.91207,0.51605
917.42228,0.62421
915.93250,0.75744
914.44271,0.93166
912.95292,1.05125
911.46313,1.17085
909.97334,1.38074
908.48355,1.59439
906.99376,1.78840
905.50398,1.88926
904.01419,1.91031
902.52440,1.93138
901.03461,2.00000
899.54482,1.94480
898.05503,1.80979
896.56525,1.62493
895.07546,1.49056
893.58567,1.35620
892.09588,1.07099
890.60609,0.81904
889.11630,0.63290
887.62651,0.48073
886.13673,0.41545
884.64694,0.35018
883.15715,0.25709
881.66736,0.18298
880.17757,0.14916
878.68778,0.13269
877.19800,0.11624
875.70821,0.08858
874.21842,0.04245
872.72863,0.06775
871.23884,0.04625
869.74905,0.03508
868.25927,0.02393
866.76948,0.01842
865.27969,0.02909
863.78990,0.04166
862.30011,0.05004
860.81032,0.06113
859.32053,0.07225
857.83075,0.09334
856.34096,0.09549
854.85117,0.11078
853.36138,0.13873
851.87159,0.14517
850.38180,0.15164
848.89202,0.16889
847.40223,0.19577
845.91244,0.21097
844.42265,0.22959
842.93286,0.24823
841.44307,0.24805
839.95329,0.26685
838.46350,0.29669
836.97371,0.28159
835.48392,0.28912
833.99413,0.29666
832.50434,0.27860
831.01455,0.27180
829.52477,0.26502
828.03498,0.21636
826.54519,0.20682
825.05540,0.19730
823.56561,0.18547
822.07582,0.18958
820.58604,0.16515
819.09625,0.16463
817.60646,0.16413
816.11667,0.14657
814.62688,0.14073
813.13709,0.14382
811.64730,0.16706
810.15752,0.16727
808.66773,0.16750
807.17794,0.16904
805.68815,0.15609
804.19836,0.16915
802.70857,0.15860
801.21879,0.14806
799.72900,0.15534
798.23921,0.16358
796.74942,0.16296
795.25963,0.15673
793.76984,0.15053
792.28006,0.16683
790.79027,0.17941
789.30048,0.18147
787.81069,0.21915
786.32090,0.24315
784.83111,0.26718
783.34132,0.29837
781.85154,0.33263
780.36175,0.36738
778.87196,0.38203
777.38217,0.39669
775.89238,0.43831
774.40259,0.44623
772.91281,0.43826
771.42302,0.42505
769.93323,0.41186
768.44344,0.34965
766.95365,0.29542
765.46386,0.22623
763.97407,0.19382
762.48429,0.18532
760.99450,0.17684
759.50471,0.15457
758.01492,0.14496
756.52513,0.12438
755.03534,0.11682
753.54556,0.10928
752.05577,0.09743
750.56598,0.09661
749.07619,0.06889
747.58640,0.06683
746.09661,0.06480
744.60683,0.04043
743.11704,0.03317
741.62725,0.03180
740.13746,0.02681
738.64767,0.02185
737.15788,0.02781
735.66809,0.01739
734.17831,0.00584
732.68852,0.00753
731.19873,0.00925
729.70894,0.02048
728.21915,0.02189
726.72936,0.01186
725.23958,0.01801
723.74979,0.01270
722.26000,0.00743
720.77021,0.00750
719.28042,0.02187
717.79063,0.00584
716.30084,0.00950
714.81106,0.01318
713.32127,0.02649
711.83148,0.04123
710.34169,0.03211
708.85190,0.02992
707.36211,0.02775
705.87233,0.02690
704.38254,0.04105
702.89275,0.04704
701.40296,0.04321
699.91317,0.03941
698.42338,0.07099
696.93360,0.09299
695.44381,0.07849
693.95402,0.08485
692.46423,0.09124
690.97444,0.12856
689.48465,0.14623
687.99486,0.16369
686.50508,0.17930
685.01529,0.19494
683.52550,0.22137
682.03571,0.24642
680.54592,0.23943
679.05613,0.24100
677.56635,0.24259
676.07656,0.25767
674.58677,0.26200
673.09698,0.21228
671.60719,0.20754
670.11740,0.20281
668.62761,0.17845
667.13783,0.14521
665.64804,0.12792
664.15825,0.11065
662.66846,0.10581
661.17867,0.07197
659.68888,0.04025
658.19910,0.04544
656.70931,0.05065
655.21952,0.04593
653.72973,0.05318
652.23994,0.05179
650.75015,0.05159
649.26037,0.05142
647.77058,0.04542
646.28079,0.04155
644.79100,0.05058
643.30121,0.04442
641.81142,0.03828
640.32163,0.05511
638.83185,0.02443
637.34206,0.01556
635.85227,0.01068
634.36248,0.00584
632.87269,0.02240
631.38290,0.02682
629.89312,0.02143
628.40333,0.01981
626.91354,0.01822
625.42375,0.02765
623.93396,0.02797
622.44417,0.02504
620.95438,0.02214
619.46460,0.01387
617.97481,0.04169
616.48502,0.06414
614.99523,0.07526
613.50544,0.08641
612.01565,0.12204
610.52587,0.15817
609.03608,0.17348
607.54629,0.19304
606.05650,0.21261
604.56671,0.27717
603.07692,0.30780
601.58714,0.33728
600.09735,0.36678
598.60756,0.42722
597.11777,0.43453
595.62798,0.45123
594.13819,0.42886
592.64840,0.40652
591.15862,0.37647
589.66883,0.33965
588.17904,0.28671
586.68925,0.24912
585.19946,0.21156
583.70967,0.15401
582.21989,0.11310
580.73010,0.10324
579.24031,0.09340
577.75052,0.08440
576.26073,0.07941
574.77094,0.04916
573.28115,0.04550
571.79137,0.04187
570.30158,0.06554
568.81179,0.09766
567.32200,0.10218
565.83221,0.10672
564.34242,0.11737
562.85264,0.13694
561.36285,0.13711
559.87306,0.14830
558.38327,0.15952
556.89348,0.18083
555.40369,0.19420
553.91391,0.20151
552.42412,0.20884
550.93433,0.20918
549.44454,0.19526
547.95475,0.20594
546.46496,0.20377
544.97517,0.20163
543.48539,0.22268
541.99560,0.25570
540.50581,0.27388
539.01602,0.29209
537.52623,0.34578
536.03644,0.39505
534.54666,0.42257
533.05687,0.43221
531.56708,0.44187
530.07729,0.48820
528.58750,0.54485
527.09771,0.58150
525.60792,0.61818
524.11814,0.68216
522.62835,0.73165
521.13856,0.75494
519.64877,0.76280
518.15898,0.77069
516.66919,0.81255
515.17941,0.83664
513.68962,0.82283
512.19983,0.80904
510.71004,0.79527
509.22025,0.76983
507.73046,0.68868
506.24068,0.61927
504.75089,0.54988
503.26110,0.48848
501.77131,0.39011
500.28152,0.34210
498.79173,0.29411
497.30194,0.23491
495.81216,0.19142
494.32237,0.16750
492.83258,0.14361
491.34279,0.11634
489.85300,0.10479
488.36321,0.06189
486.87343,0.05530
485.38364,0.04873
483.89385,0.06139
482.40406,0.09233
480.91427,0.09461
479.42448,0.09692
477.93469,0.11599
476.44491,0.13673
474.95512,0.16194
473.46533,0.18717
471.97554,0.20306
470.48575,0.20891
468.99596,0.21666
467.50618,0.19797
466.01639,0.17931
464.52660,0.12649
463.03681,0.10179
461.54702,0.09186
460.05723,0.08196
458.56745,0.06436
457.07766,0.02922
455.58787,0.01752
454.09808,0.00584
452.60829,0.02621
451.11850,0.01384
449.62871,0.01214
448.13893,0.01046
446.64914,0.01782
445.15935,0.01257
443.66956,0.02536
442.17977,0.01805
440.68998,0.01076
439.20020,0.01918
437.71041,0.03862
436.22062,0.03714
434.73083,0.03568
433.24104,0.03998
431.75125,0.03518
430.26146,0.03309
428.77168,0.03102
427.28189,0.05087
425.79210,0.05600
424.30231,0.05517
422.81252,0.05438
421.32273,0.04412
419.83295,0.03810
418.34316,0.02942
416.85337,0.02076
415.36358,0.02160
413.87379,0.00983
412.38400,0.03226
410.89422,0.05471
409.40443,0.05987
407.91464,0.04421
406.42485,0.04309
404.93506,0.04586
403.44527,0.04865
401.95548,0.04456
400.46570,0.02387
398.97591,0.02896
397.48612,0.03408
395.99633,0.02259
394.50654,0.03010
393.01675,0.03914
391.52697,0.04822
390.03718,0.04900
388.54739,0.01235
387.05760,0.01219
385.56781,0.01204
384.07802,0.00584
382.58824,0.02691
381.09845,0.03643
379.60866,0.04596
378.11887,0.03270
376.62908,0.00494
375.13929,0.00858
373.64950,0.01225
372.15972,0.03232
370.66993,0.01426
369.18014,0.01573
367.69035,0.01722
366.20056,0.02799
364.71077,0.02520
363.22099,0.02056
361.73120,0.01594
360.24141,0.04553
358.75162,0.07164
357.26183,0.07061
355.77204,0.06960
354.28225,0.05621
352.79247,0.06438
351.30268,0.04940
349.81289,0.03444
348.32310,0.06235
346.83331,0.09122
345.34352,0.08442
343.85374,0.07763
342.36395,0.06443
340.87416,0.03089
339.38437,0.03869
337.89458,0.04652
336.40479,0.05309
334.91501,0.06857
333.42522,0.05271
331.93543,0.03687
330.44564,0.00584
328.95585,0.02911
327.46606,0.02220
325.97627,0.01532
324.48649,0.02551
322.99670,0.03502
321.50691,0.04233
320.01712,0.04966
318.52733,0.08101
317.03754,0.08617
315.54776,0.07438
314.05797,0.06261
312.56818,0.08586
311.07839,0.09954
309.58860,0.07755
308.09881,0.05557
306.60902,0.06347
305.11924,0.05642
303.62945,0.03627
302.13966,0.01615
300.64987,0.00584
299.16008,0.00584
