1778.52000,0.01739
1777.03021,0.02576
1775.54042,0.02297
1774.05063,0.02109
1772.56085,0.00761
1771.07106,0.01496
1769.58127,0.01361
1768.09148,0.00915
1766.60169,0.01590
1765.11190,0.01887
1763.62212,0.01246
1762.13233,0.01280
1760.64254,0.01360
1759.15275,0.00593
1757.66296,0.01797
1756.17317,0.00900
1754.68339,0.01572
1753.19360,0.01106
1751.70381,0.01872
1750.21402,0.01208
1748.72423,0.01107
1747.23444,0.01567
1745.74465,0.01851
1744.25487,0.00593
1742.76508,0.01217
1741.27529,0.02046
1739.78550,0.02138
1738.29571,0.01628
1736.80592,0.01905
1735.31614,0.01803
1733.82635,0.01860
1732.33656,0.00734
1730.84677,0.00662
1729.35698,0.00994
1727.86719,0.01173
1726.37740,0.00079
1724.88762,0.00844
1723.39783,0.00762
1721.90804,0.00614
1720.41825,0.00268
1718.92846,0.01425
1717.43867,0.00795
1715.94889,0.01062
1714.45910,0.00593
1712.96931,0.00930
1711.47952,0.00642
1709.98973,0.00693
1708.49994,0.01238
1707.01016,0.00846
1705.52037,0.00456
1704.03058,0.00673
1702.54079,0.01049
1701.05100,0.01360
1699.56121,0.01965
1698.07142,0.01453
1696.58164,0.00720
1695.09185,0.00593
1693.60206,0.01045
1692.11227,0.01454
1690.62248,0.01956
1689.13269,0.02750
1687.64291,0.02250
1686.15312,0.03139
1684.66333,0.02084
1683.17354,0.02195
1681.68375,0.02509
1680.19396,0.03833
1678.70417,0.04242
1677.21439,0.04027
1675.72460,0.04485
1674.23481,0.05371
1672.74502,0.05454
1671.25523,0.06904
1669.76544,0.06701
1668.27566,0.07753
1666.78587,0.06928
1665.29608,0.07627
1663.80629,0.06763
1662.31650,0.07533
1660.82671,0.08150
1659.33693,0.08322
1657.84714,0.08765
1656.35735,0.07711
1654.86756,0.08427
1653.37777,0.08116
1651.88798,0.08121
1650.39819,0.08933
1648.90841,0.08697
1647.41862,0.07724
1645.92883,0.07470
1644.43904,0.07219
1642.94925,0.07350
1641.45946,0.07126
1639.96968,0.09118
1638.47989,0.08228
1636.99010,0.08324
1635.50031,0.07863
1634.01052,0.08657
1632.52073,0.08738
1631.03094,0.08285
1629.54116,0.07677
1628.05137,0.10025
1626.56158,0.10406
1625.07179,0.09313
1623.58200,0.09476
1622.09221,0.09686
1620.60243,0.08801
1619.11264,0.07249
1617.62285,0.09099
1616.13306,0.08535
1614.64327,0.07862
1613.15348,0.08533
1611.66370,0.09364
1610.17391,0.08698
1608.68412,0.09153
1607.19433,0.08514
1605.70454,0.08370
1604.21475,0.08240
1602.72496,0.08112
1601.23518,0.08064
1599.74539,0.08288
1598.25560,0.08849
1596.76581,0.08966
1595.27602,0.07563
1593.78623,0.08803
1592.29645,0.07741
1590.80666,0.08180
1589.31687,0.08532
1587.82708,0.08775
1586.33729,0.07387
1584.84750,0.08105
1583.35771,0.07952
1581.86793,0.08003
1580.37814,0.09981
1578.88835,0.08291
1577.39856,0.07142
1575.90877,0.07091
1574.41898,0.05834
1572.92920,0.05586
1571.43941,0.05207
1569.94962,0.05422
1568.45983,0.05641
1566.97004,0.05157
1565.48025,0.04272
1563.99047,0.03815
1562.50068,0.03719
1561.01089,0.03759
1559.52110,0.03936
1558.03131,0.03757
1556.54152,0.04274
1555.05173,0.02377
1553.56195,0.02497
1552.07216,0.02104
1550.58237,0.00886
1549.09258,0.01750
1547.60279,0.00000
1546.11300,0.01297
1544.62322,0.01298
1543.13343,0.01861
1541.64364,0.00302
1540.15385,0.00892
1538.66406,0.01485
1537.17427,0.02550
1535.68448,0.01537
1534.19470,0.00593
1532.70491,0.02065
1531.21512,0.01504
1529.72533,0.03049
1528.23554,0.01240
1526.74575,0.02118
1525.25597,0.02170
1523.76618,0.02382
1522.27639,0.02439
1520.78660,0.03908
1519.29681,0.03702
1517.80702,0.04259
1516.31724,0.04595
1514.82745,0.03971
1513.33766,0.04221
1511.84787,0.04475
1510.35808,0.03567
1508.86829,0.04407
1507.37850,0.05003
1505.88872,0.05400
1504.39893,0.04413
1502.90914,0.05419
1501.41935,0.06181
1499.92956,0.06431
1498.43977,0.06818
1496.94999,0.06715
1495.46020,0.08427
1493.97041,0.09045
1492.48062,0.09710
1490.99083,0.08990
1489.50104,0.11852
1488.01125,0.11999
1486.52147,0.12148
1485.03168,0.13608
1483.54189,0.15629
1482.05210,0.16714
1480.56231,0.18785
1479.07252,0.18353
1477.58274,0.20228
1476.09295,0.20785
1474.60316,0.21636
1473.11337,0.21549
1471.62358,0.25156
1470.13379,0.24000
1468.64401,0.27523
1467.15422,0.28050
1465.66443,0.29440
1464.17464,0.30834
1462.68485,0.36603
1461.19506,0.37386
1459.70527,0.39826
1458.21549,0.46072
1456.72570,0.52813
1455.23591,0.56514
1453.74612,0.62230
1452.25633,0.64169
1450.76654,0.66378
1449.27676,0.67381
1447.78697,0.69326
1446.29718,0.64339
1444.80739,0.62620
1443.31760,0.60904
1441.82781,0.56819
1440.33802,0.52982
1438.84824,0.48857
1437.35845,0.46098
1435.86866,0.48153
1434.37887,0.50545
1432.88908,0.53901
1431.39929,0.58849
1429.90951,0.66259
1428.41972,0.68930
1426.92993,0.74600
1425.44014,0.75530
1423.95035,0.76955
1422.46056,0.78382
1420.97078,0.85807
1419.48099,0.87194
1417.99120,0.89837
1416.50141,0.85770
1415.01162,0.79334
1413.52183,0.77622
1412.03204,0.72444
1410.54226,0.69595
1409.05247,0.65719
1407.56268,0.60123
1406.07289,0.53187
1404.58310,0.51433
1403.09331,0.49681
1401.60353,0.42842
1400.11374,0.36722
1398.62395,0.33310
1397.13416,0.27463
1395.64437,0.23520
1394.15458,0.19847
1392.66479,0.17228
1391.17501,0.13829
1389.68522,0.12155
1388.19543,0.10304
1386.70564,0.08288
1385.21585,0.06274
1383.72606,0.03760
1382.23628,0.03619
1380.74649,0.02608
1379.25670,0.00950
1377.76691,0.00593
1376.27712,0.00543
1374.78733,0.00557
1373.29755,0.01347
1371.80776,0.00887
1370.31797,0.01682
1368.82818,0.01170
1367.33839,0.00661
1365.84860,0.01239
1364.35881,0.02402
1362.86903,0.02470
1361.37924,0.03571
1359.88945,0.05300
1358.39966,0.10006
1356.90987,0.13328
1355.42008,0.15423
1353.93030,0.21412
1352.44051,0.24092
1350.95072,0.26775
1349.46093,0.35456
1347.97114,0.45773
1346.48135,0.50700
1344.99156,0.56189
1343.50178,0.62173
1342.01199,0.66615
1340.52220,0.74774
1339.03241,0.80004
1337.54262,0.83850
1336.05283,0.86020
1334.56305,0.88193
1333.07326,0.89607
1331.58347,0.92075
1330.09368,0.93114
1328.60389,0.87466
1327.11410,0.84327
1325.62432,0.81682
1324.13453,0.84005
1322.64474,0.74385
1321.15495,0.70606
1319.66516,0.68899
1318.17537,0.67194
1316.68558,0.62707
1315.19580,0.57349
1313.70601,0.55864
1312.21622,0.51474
1310.72643,0.46929
1309.23664,0.46905
1307.74685,0.41291
1306.25707,0.36149
1304.76728,0.34522
1303.27749,0.32898
1301.78770,0.29687
1300.29791,0.24443
1298.80812,0.23474
1297.31834,0.19667
1295.82855,0.15795
1294.33876,0.13200
1292.84897,0.10944
1291.35918,0.11464
1289.86939,0.11169
1288.37960,0.10878
1286.88982,0.09503
1285.40003,0.08333
1283.91024,0.06829
1282.42045,0.06379
1280.93066,0.06893
1279.44087,0.06247
1277.95109,0.05983
1276.46130,0.05655
1274.97151,0.05586
1273.48172,0.05520
1271.99193,0.03140
1270.50214,0.04186
1269.01235,0.04653
1267.52257,0.04854
1266.03278,0.02394
1264.54299,0.02801
1263.05320,0.02696
1261.56341,0.02257
1260.07362,0.01821
1258.58384,0.02461
1257.09405,0.02813
1255.60426,0.02250
1254.11447,0.00593
1252.62468,0.03213
1251.13489,0.02436
1249.64511,0.02063
1248.15532,0.01156
1246.66553,0.01459
1245.17574,0.01765
1243.68595,0.01670
1242.19616,0.02160
1240.70637,0.01757
1239.21659,0.02430
1237.72680,0.02032
1236.23701,0.01815
1234.74722,0.04531
1233.25743,0.03648
1231.76764,0.02768
1230.27786,0.03813
1228.78807,0.03251
1227.29828,0.02892
1225.80849,0.01753
1224.31870,0.00593
1222.82891,0.01724
1221.33912,0.03103
1219.84934,0.02953
1218.35955,0.02804
1216.86976,0.05265
1215.37997,0.05848
1213.89018,0.06703
1212.40039,0.07023
1210.91061,0.07435
1209.42082,0.07715
1207.93103,0.07259
1206.44124,0.06805
1204.95145,0.07809
1203.46166,0.06465
1201.97188,0.07182
1200.48209,0.06269
1198.99230,0.04798
1197.50251,0.03666
1196.01272,0.04437
1194.52293,0.04529
1193.03314,0.04623
1191.54336,0.02784
1190.05357,0.02000
1188.56378,0.02940
1187.07399,0.02563
1185.58420,0.02456
1184.09441,0.02442
1182.60463,0.02765
1181.11484,0.03091
1179.62505,0.01652
1178.13526,0.00775
1176.64547,0.02607
1175.15568,0.00593
1173.66589,0.00757
1172.17611,0.02198
1170.68632,0.02121
1169.19653,0.02046
1167.70674,0.02018
1166.21695,0.01970
1164.72716,0.03133
1163.23738,0.02642
1161.74759,0.04100
1160.25780,0.04196
1158.76801,0.04966
1157.27822,0.05738
1155.78843,0.05864
1154.29865,0.07356
1152.80886,0.07442
1151.31907,0.09387
1149.82928,0.10171
1148.33949,0.12837
1146.84970,0.12708
1145.35991,0.12583
1143.87013,0.11587
1142.38034,0.15090
1140.89055,0.14881
1139.40076,0.16376
1137.91097,0.17560
1136.42118,0.17627
1134.93140,0.18435
1133.44161,0.19246
1131.95182,0.21446
1130.46203,0.22865
1128.97224,0.23101
1127.48245,0.22244
1125.99266,0.22753
1124.50288,0.21632
1123.01309,0.22180
1121.52330,0.22730
1120.03351,0.23473
1118.54372,0.23278
1117.05393,0.21498
1115.56415,0.22047
1114.07436,0.23515
1112.58457,0.23454
1111.09478,0.23394
1109.60499,0.23483
1108.11520,0.24737
1106.62542,0.23466
1105.13563,0.23405
1103.64584,0.22452
1102.15605,0.19666
1100.66626,0.19400
1099.17647,0.19137
1097.68668,0.18998
1096.19690,0.18773
1094.70711,0.20362
1093.21732,0.17457
1091.72753,0.19745
1090.23774,0.18343
1088.74795,0.16944
1087.25817,0.16644
1085.76838,0.16525
1084.27859,0.16655
1082.78880,0.17838
1081.29901,0.16295
1079.80922,0.16946
1078.31943,0.17958
1076.82965,0.18972
1075.33986,0.19832
1073.85007,0.22752
1072.36028,0.22140
1070.87049,0.21106
1069.38070,0.25107
1067.89092,0.26673
1066.40113,0.28241
1064.91134,0.34285
1063.42155,0.42435
1061.93176,0.50677
1060.44197,0.57714
1058.95219,0.66587
1057.46240,0.70026
1055.97261,0.73467
1054.48282,0.80334
1052.99303,0.81208
1051.50324,0.88192
1050.01345,0.86497
1048.52367,0.87602
1047.03388,0.86931
1045.54409,0.86262
1044.05430,0.81714
1042.56451,0.75020
1041.07472,0.69739
1039.58494,0.62804
1038.09515,0.53657
1036.60536,0.50933
1035.11557,0.48212
1033.62578,0.42114
1032.13599,0.41210
1030.64620,0.34804
1029.15642,0.29989
1027.66663,0.27067
1026.17684,0.24148
1024.68705,0.23680
1023.19726,0.16660
1021.70747,0.15303
1020.21769,0.15894
1018.72790,0.12349
1017.23811,0.11983
1015.74832,0.11620
1014.25853,0.09804
1012.76874,0.08707
1011.27896,0.10365
1009.78917,0.08758
1008.29938,0.07601
1006.80959,0.05731
1005.31980,0.03863
1003.83001,0.02310
1002.34022,0.01499
1000.85044,0.02323
999.36065,0.03306
997.87086,0.03765
996.38107,0.04227
994.89128,0.04121
993.40149,0.06031
991.91171,0.07048
990.42192,0.08941
988.93213,0.07994
987.44234,0.08650
985.95255,0.09308
984.46276,0.09397
982.97297,0.07610
981.48319,0.07459
979.99340,0.06907
978.50361,0.06347
977.01382,0.05789
975.52403,0.04193
974.03424,0.03405
972.54446,0.00650
971.05467,0.00950
969.56488,0.02326
968.07509,0.01937
966.58530,0.01551
965.09551,0.00608
963.60573,0.00654
962.11594,0.00769
960.62615,0.00619
959.13636,0.00605
957.64657,0.00593
956.15678,0.01093
954.66699,0.02490
953.17721,0.03151
951.68742,0.02986
950.19763,0.04032
948.70784,0.05081
947.21805,0.06199
945.72826,0.07253
944.23848,0.07973
942.74869,0.10731
941.25890,0.11658
939.76911,0.12609
938.27932,0.13563
936.78953,0.14966
935.29974,0.16417
933.80996,0.16796
932.32017,0.20712
930.83038,0.21488
929.34059,0.22265
927.85080,0.23303
926.36101,0.23806
924.87123,0.26549
923.38144,0.32202
921.89165,0.36493
920.40186,0.40787
918.91207,0.47387
917.42228,0.57457
915.93250,0.72743
914.44271,0.90603
912.95292,0.99528
911.46313,1.08456
909.97334,1.29948
908.48355,1.52896
906.99376,1.74348
905.50398,1.88241
904.01419,1.93769
902.52440,1.99299
901.03461,2.00000
899.54482,1.96050
898.05503,1.75995
896.56525,1.55875
895.07546,1.45243
893.58567,1.34613
892.09588,1.08214
890.60609,0.85576
889.11630,0.66922
887.62651,0.47197
886.13673,0.40606
884.64694,0.34018
883.15715,0.24009
881.66736,0.17112
880.17757,0.12209
878.68778,0.10273
877.19800,0.08339
875.70821,0.05389
874.21842,0.02017
872.72863,0.02003
871.23884,0.02237
869.74905,0.02150
868.25927,0.02064
866.76948,0.02284
865.27969,0.01096
863.78990,0.04967
862.30011,0.05484
860.81032,0.04907
859.32053,0.04333
857.83075,0.05999
856.34096,0.09322
854.85117,0.10590
853.36138,0.12218
851.87159,0.11813
850.38180,0.11410
848.89202,0.13336
847.40223,0.14369
845.91244,0.17285
844.42265,0.18424
842.93286,0.19565
841.44307,0.20161
839.95329,0.22527
838.46350,0.23441
836.97371,0.25050
835.48392,0.25097
833.99413,0.25145
832.50434,0.26695
831.01455,0.24288
829.52477,0.22845
828.03498,0.19189
826.54519,0.17706
825.05540,0.16226
823.56561,0.15754
822.07582,0.16180
820.58604,0.12604
819.09625,0.11972
817.60646,0.11343
816.11667,0.10861
814.62688,0.11724
813.13709,0.12321
811.64730,0.13233
810.15752,0.12247
808.66773,0.11262
807.17794,0.11958
805.68815,0.12411
804.19836,0.14566
802.70857,0.14084
801.21879,0.13604
799.72900,0.13462
798.23921,0.10615
796.74942,0.10881
795.25963,0.11014
793.76984,0.11150
792.28006,0.14466
790.79027,0.14562
789.30048,0.16607
787.81069,0.17893
786.32090,0.19910
784.83111,0.21928
783.34132,0.23849
781.85154,0.27181
780.36175,0.30448
778.87196,0.32398
777.38217,0.34351
775.89238,0.38431
774.40259,0.39605
772.91281,0.38432
771.42302,0.37520
769.93323,0.36609
768.44344,0.32133
766.95365,0.29203
765.46386,0.23792
763.97407,0.20822
762.48429,0.20360
760.99450,0.19901
759.50471,0.15506
758.01492,0.11628
756.52513,0.09006
755.03534,0.09507
753.54556,0.10010
752.05577,0.08200
750.56598,0.06907
749.07619,0.04812
747.58640,0.04049
746.09661,0.03290
744.60683,0.03326
743.11704,0.02694
741.62725,0.02311
740.13746,0.02344
738.64767,0.02379
737.15788,0.00593
735.66809,0.01966
734.17831,0.02962
732.68852,0.01745
731.19873,0.00530
729.70894,0.00803
728.21915,0.01370
726.72936,0.00686
725.23958,0.02256
723.74979,0.01949
722.26000,0.01644
720.77021,0.00648
719.28042,0.00527
717.79063,0.00453
716.30084,0.00808
714.81106,0.01166
713.32127,0.00766
711.83148,0.02649
710.34169,0.01672
708.85190,0.01995
707.36211,0.02320
705.87233,0.03676
704.38254,0.03514
702.89275,0.03846
701.40296,0.04427
699.91317,0.05010
698.42338,0.05797
696.93360,0.08242
695.44381,0.10197
693.95402,0.10376
692.46423,0.10557
690.97444,0.12654
689.48465,0.11844
687.99486,0.15624
686.50508,0.17616
685.01529,0.19610
683.52550,0.22300
682.03571,0.23337
680.54592,0.25384
679.05613,0.25251
677.56635,0.25121
676.07656,0.24087
674.58677,0.23906
673.09698,0.24085
671.60719,0.22276
670.11740,0.20469
668.62761,0.18149
667.13783,0.15766
665.64804,0.14324
664.15825,0.12884
662.66846,0.11179
661.17867,0.07507
659.68888,0.05001
658.19910,0.05036
656.70931,0.05074
655.21952,0.04029
653.72973,0.04285
652.23994,0.05594
650.75015,0.05093
649.26037,0.04595
647.77058,0.05285
646.28079,0.06022
644.79100,0.03249
643.30121,0.03589
641.81142,0.03930
640.32163,0.02261
638.83185,0.01019
637.34206,0.02987
635.85227,0.02374
634.36248,0.01763
632.87269,0.00852
631.38290,0.00593
629.89312,0.01538
628.40333,0.01277
626.91354,0.01018
625.42375,0.00493
623.93396,0.00284
622.44417,0.01040
620.95438,0.01797
619.46460,0.01886
617.97481,0.04439
616.48502,0.06009
614.99523,0.08052
613.50544,0.10097
612.01565,0.10712
610.52587,0.13791
609.03608,0.16447
607.54629,0.18715
606.05650,0.20984
604.56671,0.27294
603.07692,0.34569
601.58714,0.35906
600.09735,0.37245
598.60756,0.38979
597.11777,0.42080
595.62798,0.44534
594.13819,0.41330
592.64840,0.38130
591.15862,0.34260
589.66883,0.30773
588.17904,0.26550
586.68925,0.22721
585.19946,0.18895
583.70967,0.15104
582.21989,0.13665
580.73010,0.11636
579.24031,0.09609
577.75052,0.08289
576.26073,0.05584
574.77094,0.03106
573.28115,0.02207
571.79137,0.01310
570.30158,0.04745
568.81179,0.06348
567.32200,0.06667
565.83221,0.06988
564.34242,0.10589
562.85264,0.10680
561.36285,0.11646
559.87306,0.12391
558.38327,0.13138
556.89348,0.15141
555.40369,0.16430
553.91391,0.15808
552.42412,0.15189
550.93433,0.15166
549.44454,0.16308
547.95475,0.15752
546.46496,0.16429
544.97517,0.17108
543.48539,0.19557
541.99560,0.22479
540.50581,0.25235
539.01602,0.27993
537.52623,0.31660
536.03644,0.35352
534.54666,0.34751
533.05687,0.37149
531.56708,0.39551
530.07729,0.45489
528.58750,0.50401
527.09771,0.53660
525.60792,0.56921
524.11814,0.63003
522.62835,0.70274
521.13856,0.74034
519.64877,0.76287
518.15898,0.78542
516.66919,0.78261
515.17941,0.79347
513.68962,0.78578
512.19983,0.77811
510.71004,0.77741
509.22025,0.73154
507.73046,0.66667
506.24068,0.59826
504.75089,0.52986
503.26110,0.43621
501.77131,0.35713
500.28152,0.30626
498.79173,0.25541
497.30194,0.20816
495.81216,0.17280
494.32237,0.15200
492.83258,0.13123
491.34279,0.10086
489.85300,0.05418
488.36321,0.06682
486.87343,0.06605
485.38364,0.06531
483.89385,0.05877
482.40406,0.10126
480.91427,0.10506
479.42448,0.10889
477.93469,0.10983
476.44491,0.13161
474.95512,0.14412
473.46533,0.15666
471.97554,0.17828
470.48575,0.18942
468.99596,0.18871
467.50618,0.16902
466.01639,0.14935
464.52660,0.11204
463.03681,0.08884
461.54702,0.08423
460.05723,0.07965
458.56745,0.02431
457.07766,0.02671
455.58787,0.03640
454.09808,0.04612
452.60829,0.02533
451.11850,0.01261
449.62871,0.01480
448.13893,0.01701
446.64914,0.00593
445.15935,0.01604
443.66956,0.03936
442.17977,0.02726
440.68998,0.01517
439.20020,0.01240
437.71041,0.02620
436.22062,0.04059
434.73083,0.05500
433.24104,0.04606
431.75125,0.03222
430.26146,0.03776
428.77168,0.04332
427.28189,0.03045
425.79210,0.02923
424.30231,0.03196
422.81252,0.03470
421.32273,0.04654
419.83295,0.02417
418.34316,0.01882
416.85337,0.01350
415.36358,0.01738
413.87379,0.02239
412.38400,0.03012
410.89422,0.03787
409.40443,0.05571
407.91464,0.05456
406.42485,0.07648
404.93506,0.06196
403.44527,0.04746
401.95548,0.02650
400.46570,0.04672
398.97591,0.03755
397.48612,0.02840
395.99633,0.02678
394.50654,0.03323
393.01675,0.01957
391.52697,0.00593
390.03718,0.01255
388.54739,0.02032
387.05760,0.01927
385.56781,0.01824
384.07802,0.01982
382.58824,0.01761
381.09845,0.01498
379.60866,0.01237
378.11887,0.00286
376.62908,0.01417
375.13929,0.01186
373.64950,0.00958
372.15972,0.02051
370.66993,0.02275
369.18014,0.02099
367.69035,0.01924
366.20056,0.02513
364.71077,0.01762
363.22099,0.02501
361.73120,0.03243
360.24141,0.03461
358.75162,0.01735
357.26183,0.01578
355.77204,0.01423
354.28225,0.02591
352.79247,0.02441
351.30268,0.03546
349.81289,0.04654
348.32310,0.08336
346.83331,0.08352
345.34352,0.06179
343.85374,0.04007
342.36395,0.01436
340.87416,0.00872
339.38437,0.01041
337.89458,0.01213
336.40479,0.00593
334.91501,0.01521
333.42522,0.01668
331.93543,0.01817
330.44564,0.03692
328.95585,0.02392
327.46606,0.01956
325.97627,0.01522
324.48649,0.03765
322.99670,0.03414
321.50691,0.03055
320.01712,0.02698
318.52733,0.06471
317.03754,0.02752
315.54776,0.03375
314.05797,0.04001
312.56818,0.02415
311.07839,0.03336
309.58860,0.02750
308.09881,0.02167
306.60902,0.01171
305.11924,0.02282
303.62945,0.01974
302.13966,0.01668
300.64987,0.00593
299.16008,0.00593
