1778.52000,0.01155
1777.03021,0.01653
1775.54042,0.01910
1774.05063,0.01851
1772.56085,0.01941
1771.07106,0.01180
1769.58127,0.01934
1768.09148,0.01006
1766.60169,0.01595
1765.11190,0.01184
1763.62212,0.01387
1762.13233,0.01714
1760.64254,0.00896
1759.15275,0.01447
1757.66296,0.00414
1756.17317,0.00971
1754.68339,0.01090
1753.19360,0.00772
1751.70381,0.00628
1750.21402,0.00339
1748.72423,0.00444
1747.23444,0.01503
1745.74465,0.00464
1744.25487,0.00967
1742.76508,0.02571
1741.27529,0.01515
1739.78550,0.01732
1738.29571,0.01609
1736.80592,0.00414
1735.31614,0.01190
1733.82635,0.01626
1732.33656,0.01210
1730.84677,0.00967
1729.35698,0.01093
1727.86719,0.00000
1726.37740,0.00546
1724.88762,0.00191
1723.39783,0.00985
1721.90804,0.00855
1720.41825,0.01166
1718.92846,0.00967
1717.43867,0.00672
1715.94889,0.01235
1714.45910,0.00823
1712.96931,0.00414
1711.47952,0.00772
1709.98973,0.00717
1708.49994,0.00323
1707.01016,0.00407
1705.52037,0.00494
1704.03058,0.00448
1702.54079,0.00918
1701.05100,0.00414
1699.56121,0.00511
1698.07142,0.00658
1696.58164,0.01516
1695.09185,0.01938
1693.60206,0.01921
1692.11227,0.00907
1690.62248,0.01628
1689.13269,0.01424
1687.64291,0.01540
1686.15312,0.01999
1684.66333,0.01461
1683.17354,0.01608
1681.68375,0.01758
1680.19396,0.01299
1678.70417,0.02992
1677.21439,0.02905
1675.72460,0.04115
1674.23481,0.04325
1672.74502,0.04367
1671.25523,0.04485
1669.76544,0.04605
1668.27566,0.04337
1666.78587,0.05536
1665.29608,0.05737
1663.80629,0.06551
1662.31650,0.06194
1660.82671,0.06427
1659.33693,0.07247
1657.84714,0.07069
1656.35735,0.06601
1654.86756,0.06892
1653.37777,0.05890
1651.88798,0.07700
1650.39819,0.06118
1648.90841,0.07712
1647.41862,0.06257
1645.92883,0.06416
1644.43904,0.06577
1642.94925,0.05934
1641.45946,0.06467
1639.96968,0.07001
1638.47989,0.07099
1636.99010,0.07223
1635.50031,0.06080
1634.01052,0.07235
1632.52073,0.07122
1631.03094,0.06743
1629.54116,0.05512
1628.05137,0.06896
1626.56158,0.07330
1625.07179,0.07474
1623.58200,0.08694
1622.09221,0.07036
1620.60243,0.07113
1619.11264,0.08414
1617.62285,0.07007
1616.13306,0.08166
1614.64327,0.07545
1613.15348,0.07341
1611.66370,0.07556
1610.17391,0.08358
1608.68412,0.08333
1607.19433,0.07797
1605.70454,0.08241
1604.21475,0.07246
1602.72496,0.06253
1601.23518,0.06802
1599.74539,0.06058
1598.25560,0.06904
1596.76581,0.06898
1595.27602,0.07725
1593.78623,0.08530
1592.29645,0.06553
1590.80666,0.07435
1589.31687,0.06416
1587.82708,0.06522
1586.33729,0.07021
1584.84750,0.06473
1583.35771,0.07148
1581.86793,0.08118
1580.37814,0.07333
1578.88835,0.06745
1577.39856,0.07210
1575.90877,0.05528
1574.41898,0.05363
1572.92920,0.04223
1571.43941,0.03916
1569.94962,0.03685
1568.45983,0.03456
1566.97004,0.03523
1565.48025,0.05276
1563.99047,0.05934
1562.50068,0.05055
1561.01089,0.04350
1559.52110,0.02744
1558.03131,0.04900
1556.54152,0.03592
1555.05173,0.03262
1553.56195,0.02838
1552.07216,0.00511
1550.58237,0.00970
1549.09258,0.00822
1547.60279,0.01530
1546.11300,0.00824
1544.62322,0.00414
1543.13343,0.00738
1541.64364,0.01210
1540.15385,0.00916
1538.66406,0.00623
1537.17427,0.00898
1535.68448,0.01639
1534.19470,0.02554
1532.70491,0.01591
1531.21512,0.01167
1529.72533,0.01405
1528.23554,0.02524
1526.74575,0.02767
1525.25597,0.00521
1523.76618,0.01731
1522.27639,0.02161
1520.78660,0.02936
1519.29681,0.03518
1517.80702,0.03735
1516.31724,0.05103
1514.82745,0.03177
1513.33766,0.03988
1511.84787,0.04802
1510.35808,0.02932
1508.86829,0.03970
1507.37850,0.02837
1505.88872,0.03587
1504.39893,0.03216
1502.90914,0.03604
1501.41935,0.03556
1499.92956,0.05365
1498.43977,0.06225
1496.94999,0.06452
1495.46020,0.05973
1493.97041,0.09014
1492.48062,0.07343
1490.99083,0.07678
1489.50104,0.09455
1488.01125,0.09770
1486.52147,0.10087
1485.03168,0.12776
1483.54189,0.14929
1482.05210,0.16841
1480.56231,0.17363
1479.07252,0.17326
1477.58274,0.18000
1476.09295,0.17943
1474.60316,0.19452
1473.11337,0.19424
1471.62358,0.19546
1470.13379,0.22063
1468.64401,0.23044
1467.15422,0.21952
1465.66443,0.23694
1464.17464,0.25440
1462.68485,0.26992
1461.19506,0.30842
1459.70527,0.36233
1458.21549,0.39844
1456.72570,0.42187
1455.23591,0.45656
1453.74612,0.52205
1452.25633,0.55410
1450.76654,0.58886
1449.27676,0.59044
1447.78697,0.57470
1446.29718,0.56045
1444.80739,0.54843
1443.31760,0.53642
1441.82781,0.49588
1440.33802,0.43972
1438.84824,0.41510
1437.35845,0.40344
1435.86866,0.40010
1434.37887,0.40705
1432.88908,0.45992
1431.39929,0.53065
1429.90951,0.60897
1428.41972,0.63433
1426.92993,0.65238
1425.44014,0.68927
1423.95035,0.70224
1422.46056,0.71524
1420.97078,0.75463
1419.48099,0.77721
1417.99120,0.77147
1416.50141,0.74818
1415.01162,0.70587
1413.52183,0.66773
1412.03204,0.63670
1410.54226,0.60496
1409.05247,0.54907
1407.56268,0.52519
1406.07289,0.46496
1404.58310,0.44467
1403.09331,0.42440
1401.60353,0.38743
1400.11374,0.33657
1398.62395,0.29599
1397.13416,0.24371
1395.64437,0.21050
1394.15458,0.17268
1392.66479,0.14904
1391.17501,0.13397
1389.68522,0.11234
1388.19543,0.07778
1386.70564,0.07170
1385.21585,0.06565
1383.72606,0.04875
1382.23628,0.04066
1380.74649,0.03749
1379.25670,0.02603
1377.76691,0.02095
1376.27712,0.01980
1374.78733,0.00671
1373.29755,0.00414
1371.80776,0.01327
1370.31797,0.00729
1368.82818,0.01720
1367.33839,0.02713
1365.84860,0.03343
1364.35881,0.04268
1362.86903,0.05074
1361.37924,0.05442
1359.88945,0.07302
1358.39966,0.07871
1356.90987,0.11079
1355.42008,0.16268
1353.93030,0.19969
1352.44051,0.23160
1350.95072,0.26353
1349.46093,0.32772
1347.97114,0.39902
1346.48135,0.44836
1344.99156,0.51092
1343.50178,0.54786
1342.01199,0.62535
1340.52220,0.64451
1339.03241,0.67298
1337.54262,0.69438
1336.05283,0.71044
1334.56305,0.72652
1333.07326,0.77047
1331.58347,0.80125
1330.09368,0.76612
1328.60389,0.73053
1327.11410,0.71182
1325.62432,0.64477
1324.13453,0.68471
1322.64474,0.64726
1321.15495,0.61936
1319.66516,0.60382
1318.17537,0.58830
1316.68558,0.50553
1315.19580,0.48261
1313.70601,0.45678
1312.21622,0.43611
1310.72643,0.40154
1309.23664,0.35674
1307.74685,0.33516
1306.25707,0.31629
1304.76728,0.30391
1303.27749,0.29157
1301.78770,0.24322
1300.29791,0.21297
1298.80812,0.17786
1297.31834,0.15548
1295.82855,0.16022
1294.33876,0.13788
1292.84897,0.10507
1291.35918,0.08888
1289.86939,0.08236
1288.37960,0.07587
1286.88982,0.07759
1285.40003,0.06491
1283.91024,0.06643
1282.42045,0.05845
1280.93066,0.04536
1279.44087,0.04036
1277.95109,0.02854
1276.46130,0.03384
1274.97151,0.03171
1273.48172,0.02961
1271.99193,0.03206
1270.50214,0.01767
1269.01235,0.01601
1267.52257,0.02561
1266.03278,0.02424
1264.54299,0.03681
1263.05320,0.03891
1261.56341,0.02577
1260.07362,0.01265
1258.58384,0.01482
1257.09405,0.01140
1255.60426,0.01386
1254.11447,0.00414
1252.62468,0.00854
1251.13489,0.01101
1249.64511,0.02327
1248.15532,0.01211
1246.66553,0.01661
1245.17574,0.02113
1243.68595,0.02762
1242.19616,0.02389
1240.70637,0.01529
1239.21659,0.02504
1237.72680,0.01649
1236.23701,0.01432
1234.74722,0.00460
1233.25743,0.01273
1231.76764,0.02088
1230.27786,0.02516
1228.78807,0.01944
1227.29828,0.02400
1225.80849,0.01199
1224.31870,0.01342
1222.82891,0.00414
1221.33912,0.01998
1219.84934,0.02474
1218.35955,0.02952
1216.86976,0.05399
1215.37997,0.04722
1213.89018,0.06245
1212.40039,0.06330
1210.91061,0.05904
1209.42082,0.05872
1207.93103,0.06013
1206.44124,0.06156
1204.95145,0.05398
1203.46166,0.04496
1201.97188,0.04525
1200.48209,0.04360
1198.99230,0.04418
1197.50251,0.03403
1196.01272,0.04223
1194.52293,0.04654
1193.03314,0.05088
1191.54336,0.04693
1190.05357,0.02592
1188.56378,0.02007
1187.07399,0.02939
1185.58420,0.02188
1184.09441,0.00414
1182.60463,0.00452
1181.11484,0.00493
1179.62505,0.01390
1178.13526,0.01094
1176.64547,0.02240
1175.15568,0.02828
1173.66589,0.00414
1172.17611,0.00873
1170.68632,0.01126
1169.19653,0.01382
1167.70674,0.01750
1166.21695,0.03146
1164.72716,0.02665
1163.23738,0.03382
1161.74759,0.03809
1160.25780,0.03749
1158.76801,0.04034
1157.27822,0.04321
1155.78843,0.05222
1154.29865,0.05538
1152.80886,0.07420
1151.31907,0.09841
1149.82928,0.12265
1148.33949,0.12421
1146.84970,0.11858
1145.35991,0.11298
1143.87013,0.11924
1142.38034,0.12919
1140.89055,0.14185
1139.40076,0.15771
1137.91097,0.15162
1136.42118,0.19122
1134.93140,0.19677
1133.44161,0.20235
1131.95182,0.20759
1130.46203,0.21968
1128.97224,0.22204
1127.48245,0.20976
1125.99266,0.21436
1124.50288,0.19896
1123.01309,0.20618
1121.52330,0.21341
1120.03351,0.22348
1118.54372,0.24163
1117.05393,0.21781
1115.56415,0.21500
1114.07436,0.23982
1112.58457,0.23804
1111.09478,0.23629
1109.60499,0.21552
1108.11520,0.23188
1106.62542,0.24485
1105.13563,0.23196
1103.64584,0.21641
1102.15605,0.20089
1100.66626,0.20626
1099.17647,0.21166
1097.68668,0.19499
1096.19690,0.19933
1094.70711,0.19370
1093.21732,0.19760
1091.72753,0.16125
1090.23774,0.16276
1088.74795,0.16430
1087.25817,0.17075
1085.76838,0.15597
1084.27859,0.15734
1082.78880,0.16459
1081.29901,0.17309
1079.80922,0.14986
1078.31943,0.15328
1076.82965,0.15672
1075.33986,0.19291
1073.85007,0.20592
1072.36028,0.20528
1070.87049,0.22396
1069.38070,0.22728
1067.89092,0.24881
1066.40113,0.27037
1064.91134,0.30599
1063.42155,0.37509
1061.93176,0.44642
1060.44197,0.54902
1058.95219,0.60086
1057.46240,0.64258
1055.97261,0.68433
1054.48282,0.77824
1052.99303,0.83433
1051.50324,0.80765
1050.01345,0.80225
1048.52367,0.78246
1047.03388,0.77088
1045.54409,0.75932
1044.05430,0.72202
1042.56451,0.69305
1041.07472,0.66630
1039.58494,0.59855
1038.09515,0.55500
1036.60536,0.52014
1035.11557,0.48531
1033.62578,0.43792
1032.13599,0.39544
1030.64620,0.33468
1029.15642,0.29396
1027.66663,0.26730
1026.17684,0.24067
1024.68705,0.19270
1023.19726,0.17112
1021.70747,0.13711
1020.21769,0.13683
1018.72790,0.12168
1017.23811,0.11595
1015.74832,0.11024
1014.25853,0.09442
1012.76874,0.10256
1011.27896,0.09559
1009.78917,0.07154
1008.29938,0.04801
1006.80959,0.04294
1005.31980,0.03789
1003.83001,0.03152
1002.34022,0.00808
1000.85044,0.01666
999.36065,0.02501
997.87086,0.03681
996.38107,0.04864
994.89128,0.04534
993.40149,0.06527
991.91171,0.08889
990.42192,0.10423
988.93213,0.10225
987.44234,0.10665
985.95255,0.11107
984.46276,0.11454
982.97297,0.08287
981.48319,0.08248
979.99340,0.06135
978.50361,0.05173
977.01382,0.04214
975.52403,0.03159
974.03424,0.02668
972.54446,0.02326
971.05467,0.00448
969.56488,0.01600
968.07509,0.01595
966.58530,0.01592
965.09551,0.01335
963.60573,0.01130
962.11594,0.00414
960.62615,0.01451
959.13636,0.01342
957.64657,0.01236
956.15678,0.01107
954.66699,0.01226
953.17721,0.01322
951.68742,0.01738
950.19763,0.02865
948.70784,0.03994
947.21805,0.04637
945.72826,0.07749
944.23848,0.09007
942.74869,0.10366
941.25890,0.12362
939.76911,0.12394
938.27932,0.12429
936.78953,0.15067
935.29974,0.18000
933.80996,0.18641
932.32017,0.19650
930.83038,0.21040
929.34059,0.22432
927.85080,0.24938
926.36101,0.27178
924.87123,0.28516
923.38144,0.33545
921.89165,0.36414
920.40186,0.39286
918.91207,0.48229
917.42228,0.60397
915.93250,0.73032
914.44271,0.92995
912.95292,1.03437
911.46313,1.13881
909.97334,1.39858
908.48355,1.59513
906.99376,1.76802
905.50398,1.85815
904.01419,1.90264
902.52440,1.94716
901.03461,2.00000
899.54482,1.97008
898.05503,1.82054
896.56525,1.59507
895.07546,1.45009
893.58567,1.30514
892.09588,1.03530
890.60609,0.81628
889.11630,0.64930
887.62651,0.47160
886.13673,0.40637
884.64694,0.34116
883.15715,0.23581
881.66736,0.18983
880.17757,0.13654
878.68778,0.11587
877.19800,0.09523
875.70821,0.06082
874.21842,0.04547
872.72863,0.03333
871.23884,0.04123
869.74905,0.03170
868.25927,0.02219
866.76948,0.01405
865.27969,0.02547
863.78990,0.02080
862.30011,0.05278
860.81032,0.05047
859.32053,0.04819
857.83075,0.05728
856.34096,0.07691
854.85117,0.08727
853.36138,0.07837
851.87159,0.09636
850.38180,0.11436
848.89202,0.12068
847.40223,0.15802
845.91244,0.16609
844.42265,0.16417
842.93286,0.16228
841.44307,0.19264
839.95329,0.20667
838.46350,0.19410
836.97371,0.22722
835.48392,0.21836
833.99413,0.20953
832.50434,0.21879
831.01455,0.22784
829.52477,0.17585
828.03498,0.17200
826.54519,0.16781
825.05540,0.16364
823.56561,0.12958
822.07582,0.12265
820.58604,0.12771
819.09625,0.11411
817.60646,0.10054
816.11667,0.09419
814.62688,0.09178
813.13709,0.10673
811.64730,0.10778
810.15752,0.11008
808.66773,0.11240
807.17794,0.07445
805.68815,0.09221
804.19836,0.09704
802.70857,0.09799
801.21879,0.09897
799.72900,0.11243
798.23921,0.10344
796.74942,0.09741
795.25963,0.10239
793.76984,0.10739
792.28006,0.10583
790.79027,0.11332
789.30048,0.13500
787.81069,0.17795
786.32090,0.18552
784.83111,0.19311
783.34132,0.20512
781.85154,0.24817
780.36175,0.28782
778.87196,0.30271
777.38217,0.31763
775.89238,0.34099
774.40259,0.34460
772.91281,0.33651
771.42302,0.32246
769.93323,0.30844
768.44344,0.28894
766.95365,0.24432
765.46386,0.19582
763.97407,0.14123
762.48429,0.14638
760.99450,0.15154
759.50471,0.13342
758.01492,0.12386
756.52513,0.09821
755.03534,0.10298
753.54556,0.10778
752.05577,0.08001
750.56598,0.07741
749.07619,0.05188
747.58640,0.04896
746.09661,0.04607
744.60683,0.02330
743.11704,0.03644
741.62725,0.02935
740.13746,0.02899
738.64767,0.02866
737.15788,0.02408
735.66809,0.00414
734.17831,0.02231
732.68852,0.02464
731.19873,0.02699
729.70894,0.03522
728.21915,0.01710
726.72936,0.00414
725.23958,0.02347
723.74979,0.01694
722.26000,0.01043
720.77021,0.02056
719.28042,0.01947
717.79063,0.01572
716.30084,0.02042
714.81106,0.02515
713.32127,0.02904
711.83148,0.02295
710.34169,0.02591
708.85190,0.02560
707.36211,0.02532
705.87233,0.02885
704.38254,0.04070
702.89275,0.05331
701.40296,0.05263
699.91317,0.05198
698.42338,0.06784
696.93360,0.07981
695.44381,0.09547
693.95402,0.09773
692.46423,0.10000
690.97444,0.12965
689.48465,0.14370
687.99486,0.16632
686.50508,0.17773
685.01529,0.18916
683.52550,0.21869
682.03571,0.22773
680.54592,0.24827
679.05613,0.24380
677.56635,0.23936
676.07656,0.23116
674.58677,0.26645
673.09698,0.24657
671.60719,0.22257
670.11740,0.19859
668.62761,0.16194
667.13783,0.14460
665.64804,0.12705
664.15825,0.10951
662.66846,0.09640
661.17867,0.08990
659.68888,0.06048
658.19910,0.06490
656.70931,0.06934
655.21952,0.05976
653.72973,0.05778
652.23994,0.05461
650.75015,0.05634
649.26037,0.05809
647.77058,0.06671
646.28079,0.07046
644.79100,0.06057
643.30121,0.05534
641.81142,0.05013
640.32163,0.04227
638.83185,0.00414
637.34206,0.01350
635.85227,0.01201
634.36248,0.01055
632.87269,0.03755
631.38290,0.03553
629.89312,0.03231
628.40333,0.02813
626.91354,0.02398
625.42375,0.02303
623.93396,0.02845
622.44417,0.02522
620.95438,0.02202
619.46460,0.03289
617.97481,0.02791
616.48502,0.06128
614.99523,0.07515
613.50544,0.08904
612.01565,0.10027
610.52587,0.13375
609.03608,0.16163
607.54629,0.17647
606.05650,0.19134
604.56671,0.22198
603.07692,0.31492
601.58714,0.31667
600.09735,0.31844
598.60756,0.35236
597.11777,0.37970
595.62798,0.40389
594.13819,0.38647
592.64840,0.36908
591.15862,0.34768
589.66883,0.31532
588.17904,0.27052
586.68925,0.23442
585.19946,0.19835
583.70967,0.14679
582.21989,0.13115
580.73010,0.10223
579.24031,0.07333
577.75052,0.06167
576.26073,0.05956
574.77094,0.05967
573.28115,0.04649
571.79137,0.03334
570.30158,0.04232
568.81179,0.08526
567.32200,0.08695
565.83221,0.08867
564.34242,0.07723
562.85264,0.09121
561.36285,0.09788
559.87306,0.10764
558.38327,0.11741
556.89348,0.14126
555.40369,0.14998
553.91391,0.14945
552.42412,0.14895
550.93433,0.16092
549.44454,0.13433
547.95475,0.13781
546.46496,0.15339
544.97517,0.16900
543.48539,0.19013
541.99560,0.19883
540.50581,0.20719
539.01602,0.21557
537.52623,0.26268
536.03644,0.31884
534.54666,0.36307
533.05687,0.37179
531.56708,0.38054
530.07729,0.45023
528.58750,0.50286
527.09771,0.53048
525.60792,0.55812
524.11814,0.63548
522.62835,0.63350
521.13856,0.68405
519.64877,0.69934
518.15898,0.71465
516.66919,0.73865
515.17941,0.73045
513.68962,0.72495
512.19983,0.71948
510.71004,0.72771
509.22025,0.69835
507.73046,0.62263
506.24068,0.54656
504.75089,0.47051
503.26110,0.41684
501.77131,0.33876
500.28152,0.29734
498.79173,0.25595
497.30194,0.18527
495.81216,0.13636
494.32237,0.11970
492.83258,0.10306
491.34279,0.10061
489.85300,0.07939
488.36321,0.06356
486.87343,0.05752
485.38364,0.05150
483.89385,0.04722
482.40406,0.06030
480.91427,0.06828
479.42448,0.07628
477.93469,0.10066
476.44491,0.11286
474.95512,0.12057
473.46533,0.12830
471.97554,0.15620
470.48575,0.15458
468.99596,0.15591
467.50618,0.14322
466.01639,0.13056
464.52660,0.09998
463.03681,0.08040
461.54702,0.06940
460.05723,0.05842
458.56745,0.04625
457.07766,0.02531
455.58787,0.02722
454.09808,0.02916
452.60829,0.00414
451.11850,0.02121
449.62871,0.01596
448.13893,0.01073
446.64914,0.02592
445.15935,0.02037
443.66956,0.01973
442.17977,0.02327
440.68998,0.02683
439.20020,0.02480
437.71041,0.01840
436.22062,0.02814
434.73083,0.03791
433.24104,0.03670
431.75125,0.03748
430.26146,0.03706
428.77168,0.03666
427.28189,0.05021
425.79210,0.07037
424.30231,0.06211
422.81252,0.05388
421.32273,0.03675
419.83295,0.02502
418.34316,0.02516
416.85337,0.02532
415.36358,0.00414
413.87379,0.04002
412.38400,0.04381
410.89422,0.04763
409.40443,0.04475
407.91464,0.04434
406.42485,0.04273
404.93506,0.03492
403.44527,0.02714
401.95548,0.03268
400.46570,0.02336
398.97591,0.02859
397.48612,0.03384
395.99633,0.03509
394.50654,0.02952
393.01675,0.02703
391.52697,0.02457
390.03718,0.01541
388.54739,0.02219
387.05760,0.01752
385.56781,0.01287
384.07802,0.00922
382.58824,0.04442
381.09845,0.03068
379.60866,0.01697
378.11887,0.00414
376.62908,0.01025
375.13929,0.00820
373.64950,0.00617
372.15972,0.02456
370.66993,0.02001
369.18014,0.01828
367.69035,0.01657
366.20056,0.00414
364.71077,0.02753
363.22099,0.01860
361.73120,0.00968
360.24141,0.03315
358.75162,0.04858
357.26183,0.04645
355.77204,0.04435
354.28225,0.04007
352.79247,0.03631
351.30268,0.02976
349.81289,0.02324
348.32310,0.01076
346.83331,0.03577
345.34352,0.04091
343.85374,0.04607
342.36395,0.01889
340.87416,0.00469
339.38437,0.01603
337.89458,0.02739
336.40479,0.04695
334.91501,0.02210
333.42522,0.01327
331.93543,0.00445
330.44564,0.00947
328.95585,0.01206
327.46606,0.01968
325.97627,0.02733
324.48649,0.00484
322.99670,0.03700
321.50691,0.04220
320.01712,0.04743
318.52733,0.07283
317.03754,0.07017
315.54776,0.07363
314.05797,0.07713
312.56818,0.07576
311.07839,0.05463
309.58860,0.05173
308.09881,0.04884
306.60902,0.05905
305.11924,0.06684
303.62945,0.04070
302.13966,0.01460
300.64987,0.00414
299.16008,0.00414
