1778.52000,0.01404
1777.03021,0.02363
1775.54042,0.02007
1774.05063,0.01413
1772.56085,0.00403
1771.07106,0.01072
1769.58127,0.01624
1768.09148,0.00831
1766.60169,0.00788
1765.11190,0.01198
1763.62212,0.00981
1762.13233,0.02533
1760.64254,0.02441
1759.15275,0.01302
1757.66296,0.01904
1756.17317,0.01519
1754.68339,0.00927
1753.19360,0.00727
1751.70381,0.00230
1750.21402,0.02822
1748.72423,0.01852
1747.23444,0.01813
1745.74465,0.01177
1744.25487,0.02431
1742.76508,0.01500
1741.27529,0.01741
1739.78550,0.00875
1738.29571,0.01777
1736.80592,0.01663
1735.31614,0.02061
1733.82635,0.02521
1732.33656,0.02384
1730.84677,0.01202
1729.35698,0.01190
1727.86719,0.00881
1726.37740,0.00964
1724.88762,0.01169
1723.39783,0.01586
1721.90804,0.00538
1720.41825,0.01738
1718.92846,0.00665
1717.43867,0.01032
1715.94889,0.01581
1714.45910,0.01085
1712.96931,0.01219
1711.47952,0.01326
1709.98973,0.00508
1708.49994,0.02057
1707.01016,0.01992
1705.52037,0.01929
1704.03058,0.01988
1702.54079,0.00403
1701.05100,0.01916
1699.56121,0.02712
1698.07142,0.02972
1696.58164,0.02336
1695.09185,0.03709
1693.60206,0.02778
1692.11227,0.03078
1690.62248,0.02331
1689.13269,0.03235
1687.64291,0.02913
1686.15312,0.03222
1684.66333,0.04941
1683.17354,0.04327
1681.68375,0.03925
1680.19396,0.05142
1678.70417,0.06662
1677.21439,0.07045
1675.72460,0.06473
1674.23481,0.05934
1672.74502,0.05426
1671.25523,0.05730
1669.76544,0.05557
1668.27566,0.06944
1666.78587,0.08662
1665.29608,0.08766
1663.80629,0.08093
1662.31650,0.08711
1660.82671,0.10230
1659.33693,0.08936
1657.84714,0.07884
1656.35735,0.08242
1654.86756,0.08003
1653.37777,0.07408
1651.88798,0.08342
1650.39819,0.08410
1648.90841,0.09170
1647.41862,0.08853
1645.92883,0.09453
1644.43904,0.10055
1642.94925,0.09986
1641.45946,0.08571
1639.96968,0.08207
1638.47989,0.09193
1636.99010,0.09493
1635.50031,0.08388
1634.01052,0.09022
1632.52073,0.07951
1631.03094,0.08171
1629.54116,0.09292
1628.05137,0.08258
1626.56158,0.10222
1625.07179,0.10931
1623.58200,0.11103
1622.09221,0.10528
1620.60243,0.10885
1619.11264,0.09327
1617.62285,0.10138
1616.13306,0.09783
1614.64327,0.09460
1613.15348,0.08511
1611.66370,0.10769
1610.17391,0.08268
1608.68412,0.10441
1607.19433,0.09561
1605.70454,0.09193
1604.21475,0.08558
1602.72496,0.07926
1601.23518,0.08374
1599.74539,0.08585
1598.25560,0.08978
1596.76581,0.10002
1595.27602,0.08603
1593.78623,0.09213
1592.29645,0.07160
1590.80666,0.07416
1589.31687,0.07644
1587.82708,0.07934
1586.33729,0.07598
1584.84750,0.07803
1583.35771,0.08789
1581.86793,0.09598
1580.37814,0.08793
1578.88835,0.08678
1577.39856,0.08267
1575.90877,0.06391
1574.41898,0.04247
1572.92920,0.05220
1571.43941,0.04669
1569.94962,0.05063
1568.45983,0.05460
1566.97004,0.07372
1565.48025,0.04284
1563.99047,0.07009
1562.50068,0.05424
1561.01089,0.04082
1559.52110,0.04867
1558.03131,0.04697
1556.54152,0.04380
1555.05173,0.04065
1553.56195,0.03782
1552.07216,0.03921
1550.58237,0.01427
1549.09258,0.00403
1547.60279,0.01036
1546.11300,0.02271
1544.62322,0.02489
1543.13343,0.01992
1541.64364,0.01317
1540.15385,0.01872
1538.66406,0.02430
1537.17427,0.03380
1535.68448,0.03493
1534.19470,0.02860
1532.70491,0.00403
1531.21512,0.02871
1529.72533,0.00998
1528.23554,0.01943
1526.74575,0.03160
1525.25597,0.02583
1523.76618,0.03086
1522.27639,0.03322
1520.78660,0.04638
1519.29681,0.03651
1517.80702,0.05901
1516.31724,0.04829
1514.82745,0.05826
1513.33766,0.05942
1511.84787,0.06060
1510.35808,0.04339
1508.86829,0.04387
1507.37850,0.04318
1505.88872,0.03653
1504.39893,0.04517
1502.90914,0.05653
1501.41935,0.06073
1499.92956,0.07034
1498.43977,0.06201
1496.94999,0.07287
1495.46020,0.07088
1493.97041,0.08718
1492.48062,0.09242
1490.99083,0.08721
1489.50104,0.07423
1488.01125,0.09287
1486.52147,0.11154
1485.03168,0.14176
1483.54189,0.15104
1482.05210,0.16394
1480.56231,0.16728
1479.07252,0.18862
1477.58274,0.19381
1476.09295,0.18434
1474.60316,0.20485
1473.11337,0.21490
1471.62358,0.21390
1470.13379,0.23119
1468.64401,0.24041
1467.15422,0.25176
1465.66443,0.26627
1464.17464,0.28081
1462.68485,0.31859
1461.19506,0.36687
1459.70527,0.40888
1458.21549,0.41469
1456.72570,0.45016
1455.23591,0.53687
1453.74612,0.58497
1452.25633,0.62861
1450.76654,0.62615
1449.27676,0.64647
1447.78697,0.62010
1446.29718,0.61112
1444.80739,0.60637
1443.31760,0.60163
1441.82781,0.57236
1440.33802,0.52515
1438.84824,0.46898
1437.35845,0.44937
1435.86866,0.44535
1434.37887,0.46233
1432.88908,0.54940
1431.39929,0.56313
1429.90951,0.65804
1428.41972,0.69727
1426.92993,0.68801
1425.44014,0.74077
1423.95035,0.76945
1422.46056,0.79814
1420.97078,0.86116
1419.48099,0.86550
1417.99120,0.86477
1416.50141,0.81525
1415.01162,0.80828
1413.52183,0.79236
1412.03204,0.73692
1410.54226,0.72404
1409.05247,0.67314
1407.56268,0.63126
1406.07289,0.54178
1404.58310,0.52690
1403.09331,0.51204
1401.60353,0.47235
1400.11374,0.43388
1398.62395,0.37327
1397.13416,0.32587
1395.64437,0.25633
1394.15458,0.21227
1392.66479,0.18739
1391.17501,0.16105
1389.68522,0.13114
1388.19543,0.09526
1386.70564,0.08441
1385.21585,0.07359
1383.72606,0.06683
1382.23628,0.04752
1380.74649,0.03393
1379.25670,0.02754
1377.76691,0.01609
1376.27712,0.00257
1374.78733,0.00553
1373.29755,0.00492
1371.80776,0.00403
1370.31797,0.02795
1368.82818,0.02973
1367.33839,0.03154
1365.84860,0.04415
1364.35881,0.06098
1362.86903,0.05298
1361.37924,0.05489
1359.88945,0.07149
1358.39966,0.07883
1356.90987,0.12603
1355.42008,0.16068
1353.93030,0.21422
1352.44051,0.25131
1350.95072,0.28842
1349.46093,0.35491
1347.97114,0.46035
1346.48135,0.51401
1344.99156,0.57608
1343.50178,0.60642
1342.01199,0.66345
1340.52220,0.70642
1339.03241,0.73834
1337.54262,0.80712
1336.05283,0.84687
1334.56305,0.88665
1333.07326,0.93005
1331.58347,0.90369
1330.09368,0.93126
1328.60389,0.90166
1327.11410,0.83884
1325.62432,0.82366
1324.13453,0.85821
1322.64474,0.83440
1321.15495,0.79413
1319.66516,0.74866
1318.17537,0.70320
1316.68558,0.61899
1315.19580,0.57313
1313.70601,0.53509
1312.21622,0.48329
1310.72643,0.45547
1309.23664,0.41541
1307.74685,0.42238
1306.25707,0.38625
1304.76728,0.36932
1303.27749,0.35241
1301.78770,0.28281
1300.29791,0.25068
1298.80812,0.20359
1297.31834,0.20175
1295.82855,0.18286
1294.33876,0.13525
1292.84897,0.11761
1291.35918,0.10599
1289.86939,0.09319
1288.37960,0.08041
1286.88982,0.09492
1285.40003,0.08249
1283.91024,0.08656
1282.42045,0.07418
1280.93066,0.05224
1279.44087,0.03962
1277.95109,0.04827
1276.46130,0.04228
1274.97151,0.03497
1273.48172,0.02768
1271.99193,0.03224
1270.50214,0.03443
1269.01235,0.05312
1267.52257,0.02392
1266.03278,0.03966
1264.54299,0.03895
1263.05320,0.04366
1261.56341,0.02758
1260.07362,0.01153
1258.58384,0.00403
1257.09405,0.01652
1255.60426,0.01676
1254.11447,0.02121
1252.62468,0.01222
1251.13489,0.01223
1249.64511,0.02634
1248.15532,0.02520
1246.66553,0.02573
1245.17574,0.02629
1243.68595,0.03271
1242.19616,0.02119
1240.70637,0.00460
1239.21659,0.01918
1237.72680,0.02839
1236.23701,0.01427
1234.74722,0.03012
1233.25743,0.02818
1231.76764,0.02626
1230.27786,0.03829
1228.78807,0.02459
1227.29828,0.00403
1225.80849,0.01488
1224.31870,0.00478
1222.82891,0.00849
1221.33912,0.01492
1219.84934,0.02616
1218.35955,0.03743
1216.86976,0.05471
1215.37997,0.05345
1213.89018,0.04263
1212.40039,0.05998
1210.91061,0.06299
1209.42082,0.05793
1207.93103,0.06353
1206.44124,0.06915
1204.95145,0.04380
1203.46166,0.04453
1201.97188,0.04289
1200.48209,0.06014
1198.99230,0.02261
1197.50251,0.03632
1196.01272,0.05783
1194.52293,0.04598
1193.03314,0.03415
1191.54336,0.03029
1190.05357,0.01986
1188.56378,0.00526
1187.07399,0.01554
1185.58420,0.02345
1184.09441,0.01192
1182.60463,0.01987
1181.11484,0.02786
1179.62505,0.03886
1178.13526,0.03252
1176.64547,0.01332
1175.15568,0.00403
1173.66589,0.02165
1172.17611,0.01953
1170.68632,0.01698
1169.19653,0.01446
1167.70674,0.03008
1166.21695,0.03614
1164.72716,0.05301
1163.23738,0.02917
1161.74759,0.03770
1160.25780,0.04506
1158.76801,0.05154
1157.27822,0.05805
1155.78843,0.06578
1154.29865,0.09480
1152.80886,0.10946
1151.31907,0.12206
1149.82928,0.10712
1148.33949,0.12456
1146.84970,0.12644
1145.35991,0.12835
1143.87013,0.12610
1142.38034,0.14782
1140.89055,0.16927
1139.40076,0.17038
1137.91097,0.18978
1136.42118,0.20412
1134.93140,0.20665
1133.44161,0.20920
1131.95182,0.21013
1130.46203,0.21348
1128.97224,0.19080
1127.48245,0.21337
1125.99266,0.21470
1124.50288,0.22983
1123.01309,0.22147
1121.52330,0.21314
1120.03351,0.22505
1118.54372,0.22800
1117.05393,0.23157
1115.56415,0.22618
1114.07436,0.24807
1112.58457,0.23209
1111.09478,0.21615
1109.60499,0.21864
1108.11520,0.23284
1106.62542,0.24766
1105.13563,0.23196
1103.64584,0.21808
1102.15605,0.20992
1100.66626,0.19803
1099.17647,0.18617
1097.68668,0.23049
1096.19690,0.17810
1094.70711,0.17185
1093.21732,0.15395
1091.72753,0.15764
1090.23774,0.14023
1088.74795,0.12285
1087.25817,0.14817
1085.76838,0.17681
1084.27859,0.17822
1082.78880,0.14612
1081.29901,0.16165
1079.80922,0.15415
1078.31943,0.15611
1076.82965,0.15809
1075.33986,0.17223
1073.85007,0.17111
1072.36028,0.17572
1070.87049,0.17525
1069.38070,0.20625
1067.89092,0.21617
1066.40113,0.22611
1064.91134,0.26617
1063.42155,0.32512
1061.93176,0.40835
1060.44197,0.46676
1058.95219,0.53626
1057.46240,0.60280
1055.97261,0.66936
1054.48282,0.77458
1052.99303,0.83699
1051.50324,0.88057
1050.01345,0.87355
1048.52367,0.84650
1047.03388,0.82756
1045.54409,0.80864
1044.05430,0.80472
1042.56451,0.73523
1041.07472,0.73466
1039.58494,0.66372
1038.09515,0.60390
1036.60536,0.55218
1035.11557,0.50049
1033.62578,0.46559
1032.13599,0.39898
1030.64620,0.35215
1029.15642,0.28678
1027.66663,0.26291
1026.17684,0.23907
1024.68705,0.20642
1023.19726,0.16750
1021.70747,0.14867
1020.21769,0.14124
1018.72790,0.14163
1017.23811,0.13231
1015.74832,0.12301
1014.25853,0.09382
1012.76874,0.10179
1011.27896,0.09691
1009.78917,0.08576
1008.29938,0.07404
1006.80959,0.05994
1005.31980,0.04587
1003.83001,0.02644
1002.34022,0.00403
1000.85044,0.01749
999.36065,0.01989
997.87086,0.03280
996.38107,0.04574
994.89128,0.05570
993.40149,0.05550
991.91171,0.07210
990.42192,0.09023
988.93213,0.07663
987.44234,0.07518
985.95255,0.07376
984.46276,0.08899
982.97297,0.08447
981.48319,0.07968
979.99340,0.05844
978.50361,0.05130
977.01382,0.04419
975.52403,0.03261
974.03424,0.01715
972.54446,0.01940
971.05467,0.00939
969.56488,0.01228
968.07509,0.01309
966.58530,0.01394
965.09551,0.01630
963.60573,0.01659
962.11594,0.00403
960.62615,0.01765
959.13636,0.01482
957.64657,0.01201
956.15678,0.01342
954.66699,0.02953
953.17721,0.01811
951.68742,0.02918
950.19763,0.03264
948.70784,0.03612
947.21805,0.07091
945.72826,0.08328
944.23848,0.10165
942.74869,0.11137
941.25890,0.14028
939.76911,0.13926
938.27932,0.13827
936.78953,0.16126
935.29974,0.16930
933.80996,0.21001
932.32017,0.22918
930.83038,0.22816
929.34059,0.22716
927.85080,0.23862
926.36101,0.26448
924.87123,0.29635
923.38144,0.32644
921.89165,0.34773
920.40186,0.36904
918.91207,0.47049
917.42228,0.57795
915.93250,0.71568
914.44271,0.88308
912.95292,1.00275
911.46313,1.12243
909.97334,1.32495
908.48355,1.54426
906.99376,1.72107
905.50398,1.83232
904.01419,1.90137
902.52440,1.97044
901.03461,2.00000
899.54482,1.96520
898.05503,1.91635
896.56525,1.70850
895.07546,1.55563
893.58567,1.40279
892.09588,1.15159
890.60609,0.89322
889.11630,0.68011
887.62651,0.51104
886.13673,0.43618
884.64694,0.36134
883.15715,0.25583
881.66736,0.20396
880.17757,0.16708
878.68778,0.12678
877.19800,0.08651
875.70821,0.06977
874.21842,0.04586
872.72863,0.04115
871.23884,0.03287
869.74905,0.02296
868.25927,0.01308
866.76948,0.01835
865.27969,0.01825
863.78990,0.04633
862.30011,0.04628
860.81032,0.04116
859.32053,0.03607
857.83075,0.05915
856.34096,0.06938
854.85117,0.06886
853.36138,0.09590
851.87159,0.09333
850.38180,0.09078
848.89202,0.10622
847.40223,0.13666
845.91244,0.14257
844.42265,0.15105
842.93286,0.15955
841.44307,0.16284
839.95329,0.16615
838.46350,0.19224
836.97371,0.19620
835.48392,0.20273
833.99413,0.20928
832.50434,0.21600
831.01455,0.20898
829.52477,0.18251
828.03498,0.15517
826.54519,0.15391
825.05540,0.15267
823.56561,0.15115
822.07582,0.12960
820.58604,0.14311
819.09625,0.12520
817.60646,0.10731
816.11667,0.08555
814.62688,0.09976
813.13709,0.09812
811.64730,0.08781
810.15752,0.09505
808.66773,0.10232
807.17794,0.07262
805.68815,0.10554
804.19836,0.10854
802.70857,0.11156
801.21879,0.11460
799.72900,0.11049
798.23921,0.11298
796.74942,0.10202
795.25963,0.11025
793.76984,0.11851
792.28006,0.12050
790.79027,0.11893
789.30048,0.12726
787.81069,0.17664
786.32090,0.18158
784.83111,0.18654
783.34132,0.21443
781.85154,0.23965
780.36175,0.29545
778.87196,0.30005
777.38217,0.30469
775.89238,0.33001
774.40259,0.36074
772.91281,0.35107
771.42302,0.33843
769.93323,0.32581
768.44344,0.28896
766.95365,0.22609
765.46386,0.17641
763.97407,0.16000
762.48429,0.16023
760.99450,0.16049
759.50471,0.13007
758.01492,0.13472
756.52513,0.10346
755.03534,0.10905
753.54556,0.11467
752.05577,0.09337
750.56598,0.07118
749.07619,0.06160
747.58640,0.05849
746.09661,0.05539
744.60683,0.05427
743.11704,0.03012
741.62725,0.04132
740.13746,0.03518
738.64767,0.02907
737.15788,0.01788
735.66809,0.00403
734.17831,0.02239
732.68852,0.03703
731.19873,0.05169
729.70894,0.03538
728.21915,0.02149
726.72936,0.00403
725.23958,0.01836
723.74979,0.02074
722.26000,0.02314
720.77021,0.04683
719.28042,0.00646
717.79063,0.00953
716.30084,0.00949
714.81106,0.00946
713.32127,0.03118
711.83148,0.02207
710.34169,0.03126
708.85190,0.02894
707.36211,0.02664
705.87233,0.03829
704.38254,0.04009
702.89275,0.05299
701.40296,0.05933
699.91317,0.06569
698.42338,0.08525
696.93360,0.09376
695.44381,0.09031
693.95402,0.11443
692.46423,0.13859
690.97444,0.13791
689.48465,0.16300
687.99486,0.18723
686.50508,0.20908
685.01529,0.23096
683.52550,0.21812
682.03571,0.24364
680.54592,0.26619
679.05613,0.26451
677.56635,0.26285
676.07656,0.26601
674.58677,0.27578
673.09698,0.24873
671.60719,0.23968
670.11740,0.23066
668.62761,0.16626
667.13783,0.12314
665.64804,0.12018
664.15825,0.11724
662.66846,0.10325
661.17867,0.09467
659.68888,0.06455
658.19910,0.07069
656.70931,0.07686
655.21952,0.05940
653.72973,0.05124
652.23994,0.06317
650.75015,0.05521
649.26037,0.04728
647.77058,0.05479
646.28079,0.04615
644.79100,0.05851
643.30121,0.04303
641.81142,0.02758
640.32163,0.03761
638.83185,0.02041
637.34206,0.00564
635.85227,0.00482
634.36248,0.00403
632.87269,0.02095
631.38290,0.01154
629.89312,0.01383
628.40333,0.01660
626.91354,0.01939
625.42375,0.00109
623.93396,0.00977
622.44417,0.00859
620.95438,0.00743
619.46460,0.02607
617.97481,0.04712
616.48502,0.06431
614.99523,0.07104
613.50544,0.07779
612.01565,0.12709
610.52587,0.13450
609.03608,0.18804
607.54629,0.19863
606.05650,0.20925
604.56671,0.26527
603.07692,0.31591
601.58714,0.35131
600.09735,0.38673
598.60756,0.40840
597.11777,0.42561
595.62798,0.42487
594.13819,0.41367
592.64840,0.40249
591.15862,0.37128
589.66883,0.36105
588.17904,0.30593
586.68925,0.26370
585.19946,0.22151
583.70967,0.15987
582.21989,0.14287
580.73010,0.12740
579.24031,0.11195
577.75052,0.09114
576.26073,0.08413
574.77094,0.05108
573.28115,0.03858
571.79137,0.02610
570.30158,0.04164
568.81179,0.08836
567.32200,0.07386
565.83221,0.05938
564.34242,0.10047
562.85264,0.10746
561.36285,0.11057
559.87306,0.11505
558.38327,0.11956
556.89348,0.13024
555.40369,0.16669
553.91391,0.16259
552.42412,0.15851
550.93433,0.10759
549.44454,0.14354
547.95475,0.16454
546.46496,0.17643
544.97517,0.18835
543.48539,0.19624
541.99560,0.21674
540.50581,0.23397
539.01602,0.25123
537.52623,0.31762
536.03644,0.39542
534.54666,0.41664
533.05687,0.44687
531.56708,0.47712
530.07729,0.53345
528.58750,0.56735
527.09771,0.59378
525.60792,0.62024
524.11814,0.65900
522.62835,0.74031
521.13856,0.78571
519.64877,0.81601
518.15898,0.84633
516.66919,0.88072
515.17941,0.88668
513.68962,0.87710
512.19983,0.86754
510.71004,0.85291
509.22025,0.77841
507.73046,0.70334
506.24068,0.64416
504.75089,0.58501
503.26110,0.50133
501.77131,0.41707
500.28152,0.36488
498.79173,0.31271
497.30194,0.22254
495.81216,0.15784
494.32237,0.16654
492.83258,0.17527
491.34279,0.13550
489.85300,0.08827
488.36321,0.05874
486.87343,0.05843
485.38364,0.05814
483.89385,0.03556
482.40406,0.08489
480.91427,0.08962
479.42448,0.09437
477.93469,0.13538
476.44491,0.12700
474.95512,0.14111
473.46533,0.15524
471.97554,0.15832
470.48575,0.19377
468.99596,0.18551
467.50618,0.15811
466.01639,0.13074
464.52660,0.09650
463.03681,0.07008
461.54702,0.05431
460.05723,0.03856
458.56745,0.04515
457.07766,0.03140
455.58787,0.03924
454.09808,0.04710
452.60829,0.03462
451.11850,0.01767
449.62871,0.02725
448.13893,0.03686
446.64914,0.03675
445.15935,0.00403
443.66956,0.01935
442.17977,0.02257
440.68998,0.02581
439.20020,0.02803
437.71041,0.02069
436.22062,0.02565
434.73083,0.03064
433.24104,0.02787
431.75125,0.02931
430.26146,0.04680
428.77168,0.06431
427.28189,0.05624
425.79210,0.05508
424.30231,0.03703
422.81252,0.01900
421.32273,0.03020
419.83295,0.00698
418.34316,0.01553
416.85337,0.02410
415.36358,0.00545
413.87379,0.02006
412.38400,0.02960
410.89422,0.03917
409.40443,0.02780
407.91464,0.04191
406.42485,0.04017
404.93506,0.04280
403.44527,0.04546
401.95548,0.03451
400.46570,0.03346
398.97591,0.03859
397.48612,0.04373
395.99633,0.03737
394.50654,0.04422
393.01675,0.02413
391.52697,0.00407
390.03718,0.00979
388.54739,0.01195
387.05760,0.01353
385.56781,0.01514
384.07802,0.00000
382.58824,0.03676
381.09845,0.02907
379.60866,0.02141
378.11887,0.03428
376.62908,0.03221
375.13929,0.03375
373.64950,0.03532
372.15972,0.02853
370.66993,0.00708
369.18014,0.01791
367.69035,0.02877
366.20056,0.03755
364.71077,0.03498
363.22099,0.03828
361.73120,0.04159
360.24141,0.06096
358.75162,0.06986
357.26183,0.06277
355.77204,0.05570
354.28225,0.05600
352.79247,0.08057
351.30268,0.06265
349.81289,0.04475
348.32310,0.08137
346.83331,0.08958
345.34352,0.09106
343.85374,0.09258
342.36395,0.06671
340.87416,0.07801
339.38437,0.06567
337.89458,0.05335
336.40479,0.03537
334.91501,0.04886
333.42522,0.02643
331.93543,0.00403
330.44564,0.05612
328.95585,0.02796
327.46606,0.03877
325.97627,0.04960
324.48649,0.06884
322.99670,0.06534
321.50691,0.08583
320.01712,0.10634
318.52733,0.10322
317.03754,0.09473
315.54776,0.11217
314.05797,0.12963
312.56818,0.08617
311.07839,0.08018
309.58860,0.08349
308.09881,0.08682
306.60902,0.10306
305.11924,0.06572
303.62945,0.04217
302.13966,0.01865
300.64987,0.00403
299.16008,0.00403
