1778.52000,0.01624
1777.03021,0.01331
1775.54042,0.01336
1774.05063,0.02193
1772.56085,0.01670
1771.07106,0.01702
1769.58127,0.01796
1768.09148,0.01103
1766.60169,0.01201
1765.11190,0.01559
1763.62212,0.00694
1762.13233,0.01313
1760.64254,0.01184
1759.15275,0.01097
1757.66296,0.00677
1756.17317,0.01048
1754.68339,0.00731
1753.19360,0.01542
1751.70381,0.01368
1750.21402,0.01157
1748.72423,0.01540
1747.23444,0.00702
1745.74465,0.01189
1744.25487,0.01243
1742.76508,0.01360
1741.27529,0.01242
1739.78550,0.01679
1738.29571,0.00677
1736.80592,0.01648
1735.31614,0.01811
1733.82635,0.00970
1732.33656,0.01810
1730.84677,0.01626
1729.35698,0.01305
1727.86719,0.00315
1726.37740,0.00442
1724.88762,0.00946
1723.39783,0.00762
1721.90804,0.00955
1720.41825,0.00854
1718.92846,0.00677
1717.43867,0.00842
1715.94889,0.01030
1714.45910,0.00963
1712.96931,0.01234
1711.47952,0.01291
1709.98973,0.00343
1708.49994,0.01301
1707.01016,0.01087
1705.52037,0.00876
1704.03058,0.01723
1702.54079,0.00677
1701.05100,0.01591
1699.56121,0.01856
1698.07142,0.01709
1696.58164,0.01978
1695.09185,0.02527
1693.60206,0.02564
1692.11227,0.02051
1690.62248,0.01935
1689.13269,0.02414
1687.64291,0.02026
1686.15312,0.02392
1684.66333,0.02917
1683.17354,0.04235
1681.68375,0.03402
1680.19396,0.02928
1678.70417,0.03305
1677.21439,0.04968
1675.72460,0.04184
1674.23481,0.06029
1672.74502,0.05073
1671.25523,0.05106
1669.76544,0.05359
1668.27566,0.05871
1666.78587,0.07708
1665.29608,0.07474
1663.80629,0.07677
1662.31650,0.07527
1660.82671,0.08129
1659.33693,0.08655
1657.84714,0.08729
1656.35735,0.08845
1654.86756,0.08036
1653.37777,0.07860
1651.88798,0.07845
1650.39819,0.06687
1648.90841,0.07288
1647.41862,0.06727
1645.92883,0.07640
1644.43904,0.08555
1642.94925,0.08139
1641.45946,0.08180
1639.96968,0.08203
1638.47989,0.08288
1636.99010,0.08375
1635.50031,0.09571
1634.01052,0.08833
1632.52073,0.09323
1631.03094,0.08037
1629.54116,0.08077
1628.05137,0.08869
1626.56158,0.09921
1625.07179,0.10422
1623.58200,0.09543
1622.09221,0.09279
1620.60243,0.09214
1619.11264,0.09824
1617.62285,0.09744
1616.13306,0.09252
1614.64327,0.09039
1613.15348,0.08216
1611.66370,0.09252
1610.17391,0.08670
1608.68412,0.09730
1607.19433,0.08265
1605.70454,0.07592
1604.21475,0.08284
1602.72496,0.08979
1601.23518,0.07049
1599.74539,0.08696
1598.25560,0.08311
1596.76581,0.09370
1595.27602,0.09247
1593.78623,0.08771
1592.29645,0.08751
1590.80666,0.07114
1589.31687,0.07316
1587.82708,0.06987
1586.33729,0.07135
1584.84750,0.07798
1583.35771,0.08247
1581.86793,0.07651
1580.37814,0.08222
1578.88835,0.08026
1577.39856,0.06529
1575.90877,0.05982
1574.41898,0.06089
1572.92920,0.05053
1571.43941,0.04790
1569.94962,0.05112
1568.45983,0.05435
1566.97004,0.04547
1565.48025,0.04589
1563.99047,0.04279
1562.50068,0.04641
1561.01089,0.03980
1559.52110,0.03281
1558.03131,0.03414
1556.54152,0.02661
1555.05173,0.02028
1553.56195,0.01517
1552.07216,0.01975
1550.58237,0.01053
1549.09258,0.01990
1547.60279,0.01449
1546.11300,0.01344
1544.62322,0.02446
1543.13343,0.01299
1541.64364,0.01241
1540.15385,0.00957
1538.66406,0.00677
1537.17427,0.02524
1535.68448,0.02163
1534.19470,0.01369
1532.70491,0.01229
1531.21512,0.00677
1529.72533,0.02178
1528.23554,0.01746
1526.74575,0.02106
1525.25597,0.03121
1523.76618,0.01728
1522.27639,0.03182
1520.78660,0.03828
1519.29681,0.02995
1517.80702,0.04081
1516.31724,0.03826
1514.82745,0.04916
1513.33766,0.04833
1511.84787,0.04753
1510.35808,0.05139
1508.86829,0.04995
1507.37850,0.04754
1505.88872,0.04574
1504.39893,0.05247
1502.90914,0.05605
1501.41935,0.05828
1499.92956,0.06388
1498.43977,0.05727
1496.94999,0.07813
1495.46020,0.07887
1493.97041,0.07746
1492.48062,0.08674
1490.99083,0.09111
1489.50104,0.09115
1488.01125,0.10820
1486.52147,0.12528
1485.03168,0.14712
1483.54189,0.16108
1482.05210,0.16084
1480.56231,0.18256
1479.07252,0.18237
1477.58274,0.19623
1476.09295,0.19846
1474.60316,0.20644
1473.11337,0.22175
1471.62358,0.19720
1470.13379,0.21572
1468.64401,0.23702
1467.15422,0.26803
1465.66443,0.28089
1464.17464,0.29378
1462.68485,0.32367
1461.19506,0.34470
1459.70527,0.37088
1458.21549,0.41585
1456.72570,0.44288
1455.23591,0.50922
1453.74612,0.57046
1452.25633,0.60802
1450.76654,0.61321
1449.27676,0.63700
1447.78697,0.62566
1446.29718,0.61513
1444.80739,0.59425
1443.31760,0.57340
1441.82781,0.53688
1440.33802,0.49682
1438.84824,0.44632
1437.35845,0.45193
1435.86866,0.44196
1434.37887,0.46460
1432.88908,0.49516
1431.39929,0.56484
1429.90951,0.64600
1428.41972,0.66281
1426.92993,0.70413
1425.44014,0.72157
1423.95035,0.74990
1422.46056,0.77826
1420.97078,0.80920
1419.48099,0.84096
1417.99120,0.83463
1416.50141,0.83544
1415.01162,0.80032
1413.52183,0.75101
1412.03204,0.69955
1410.54226,0.66886
1409.05247,0.62416
1407.56268,0.59548
1406.07289,0.53385
1404.58310,0.50285
1403.09331,0.47187
1401.60353,0.45435
1400.11374,0.36970
1398.62395,0.32873
1397.13416,0.28580
1395.64437,0.23816
1394.15458,0.20298
1392.66479,0.17315
1391.17501,0.15224
1389.68522,0.12285
1388.19543,0.10317
1386.70564,0.08786
1385.21585,0.07256
1383.72606,0.05809
1382.23628,0.03494
1380.74649,0.02742
1379.25670,0.02506
1377.76691,0.01838
1376.27712,0.00580
1374.78733,0.00785
1373.29755,0.00677
1371.80776,0.01304
1370.31797,0.02369
1368.82818,0.02665
1367.33839,0.02964
1365.84860,0.02475
1364.35881,0.02917
1362.86903,0.04132
1361.37924,0.05960
1359.88945,0.06982
1358.39966,0.08657
1356.90987,0.10316
1355.42008,0.16084
1353.93030,0.19307
1352.44051,0.23302
1350.95072,0.27300
1349.46093,0.33689
1347.97114,0.40713
1346.48135,0.46910
1344.99156,0.52240
1343.50178,0.58047
1342.01199,0.63362
1340.52220,0.66823
1339.03241,0.68233
1337.54262,0.73615
1336.05283,0.75217
1334.56305,0.76822
1333.07326,0.82803
1331.58347,0.84600
1330.09368,0.81778
1328.60389,0.80183
1327.11410,0.77267
1325.62432,0.72695
1324.13453,0.75709
1322.64474,0.70410
1321.15495,0.67603
1319.66516,0.63643
1318.17537,0.59685
1316.68558,0.57714
1315.19580,0.51203
1313.70601,0.48328
1312.21622,0.45377
1310.72643,0.42053
1309.23664,0.39264
1307.74685,0.37050
1306.25707,0.33555
1304.76728,0.30616
1303.27749,0.27678
1301.78770,0.25277
1300.29791,0.20251
1298.80812,0.20401
1297.31834,0.15973
1295.82855,0.15061
1294.33876,0.11941
1292.84897,0.10462
1291.35918,0.08906
1289.86939,0.08428
1288.37960,0.07953
1286.88982,0.07550
1285.40003,0.07425
1283.91024,0.05980
1282.42045,0.04971
1280.93066,0.04241
1279.44087,0.03810
1277.95109,0.02611
1276.46130,0.03607
1274.97151,0.03252
1273.48172,0.02899
1271.99193,0.02558
1270.50214,0.03622
1269.01235,0.02674
1267.52257,0.02400
1266.03278,0.02326
1264.54299,0.03459
1263.05320,0.01039
1261.56341,0.00922
1260.07362,0.00808
1258.58384,0.01871
1257.09405,0.00902
1255.60426,0.01753
1254.11447,0.02152
1252.62468,0.00677
1251.13489,0.01455
1249.64511,0.01978
1248.15532,0.02110
1246.66553,0.02589
1245.17574,0.03070
1243.68595,0.02181
1242.19616,0.01631
1240.70637,0.01240
1239.21659,0.01366
1237.72680,0.01948
1236.23701,0.02137
1234.74722,0.01559
1233.25743,0.01832
1231.76764,0.02108
1230.27786,0.01201
1228.78807,0.01718
1227.29828,0.01724
1225.80849,0.00804
1224.31870,0.00677
1222.82891,0.01284
1221.33912,0.02723
1219.84934,0.02832
1218.35955,0.02943
1216.86976,0.04073
1215.37997,0.04080
1213.89018,0.05116
1212.40039,0.04457
1210.91061,0.05221
1209.42082,0.05356
1207.93103,0.05543
1206.44124,0.05732
1204.95145,0.04649
1203.46166,0.04340
1201.97188,0.04664
1200.48209,0.03687
1198.99230,0.03641
1197.50251,0.03361
1196.01272,0.02687
1194.52293,0.02688
1193.03314,0.02691
1191.54336,0.02005
1190.05357,0.01143
1188.56378,0.00739
1187.07399,0.01383
1185.58420,0.01812
1184.09441,0.01671
1182.60463,0.01690
1181.11484,0.01712
1179.62505,0.01795
1178.13526,0.01032
1176.64547,0.01534
1175.15568,0.00677
1173.66589,0.01321
1172.17611,0.01159
1170.68632,0.01236
1169.19653,0.01315
1167.70674,0.02008
1166.21695,0.01638
1164.72716,0.01902
1163.23738,0.01161
1161.74759,0.03167
1160.25780,0.03675
1158.76801,0.04403
1157.27822,0.05132
1155.78843,0.06595
1154.29865,0.07290
1152.80886,0.08027
1151.31907,0.09359
1149.82928,0.07296
1148.33949,0.08889
1146.84970,0.09369
1145.35991,0.09851
1143.87013,0.11333
1142.38034,0.11987
1140.89055,0.13237
1139.40076,0.13797
1137.91097,0.14972
1136.42118,0.14294
1134.93140,0.14921
1133.44161,0.15550
1131.95182,0.18275
1130.46203,0.17822
1128.97224,0.18202
1127.48245,0.19591
1125.99266,0.18988
1124.50288,0.18980
1123.01309,0.19033
1121.52330,0.19088
1120.03351,0.20884
1118.54372,0.18753
1117.05393,0.19467
1115.56415,0.17222
1114.07436,0.18967
1112.58457,0.18613
1111.09478,0.18260
1109.60499,0.20388
1108.11520,0.20327
1106.62542,0.19715
1105.13563,0.19105
1103.64584,0.17550
1102.15605,0.16886
1100.66626,0.17014
1099.17647,0.17144
1097.68668,0.16764
1096.19690,0.16346
1094.70711,0.16088
1093.21732,0.13839
1091.72753,0.11967
1090.23774,0.12496
1088.74795,0.13028
1087.25817,0.13592
1085.76838,0.12776
1084.27859,0.13048
1082.78880,0.13027
1081.29901,0.13936
1079.80922,0.12991
1078.31943,0.14013
1076.82965,0.15038
1075.33986,0.16213
1073.85007,0.15021
1072.36028,0.15984
1070.87049,0.16574
1069.38070,0.16672
1067.89092,0.18481
1066.40113,0.20292
1064.91134,0.23360
1063.42155,0.30557
1061.93176,0.38862
1060.44197,0.44326
1058.95219,0.50662
1057.46240,0.56220
1055.97261,0.61780
1054.48282,0.67786
1052.99303,0.73065
1051.50324,0.76371
1050.01345,0.78158
1048.52367,0.74953
1047.03388,0.74553
1045.54409,0.74156
1044.05430,0.72675
1042.56451,0.68906
1041.07472,0.65633
1039.58494,0.58393
1038.09515,0.53288
1036.60536,0.49104
1035.11557,0.44922
1033.62578,0.40278
1032.13599,0.37058
1030.64620,0.30958
1029.15642,0.26341
1027.66663,0.24541
1026.17684,0.22742
1024.68705,0.19594
1023.19726,0.14394
1021.70747,0.13146
1020.21769,0.13085
1018.72790,0.11605
1017.23811,0.10581
1015.74832,0.09559
1014.25853,0.09113
1012.76874,0.07642
1011.27896,0.08642
1009.78917,0.07255
1008.29938,0.05731
1006.80959,0.04852
1005.31980,0.03976
1003.83001,0.02065
1002.34022,0.00689
1000.85044,0.00758
999.36065,0.03751
997.87086,0.04032
996.38107,0.04314
994.89128,0.03444
993.40149,0.05440
991.91171,0.05740
990.42192,0.06931
988.93213,0.08519
987.44234,0.07838
985.95255,0.07160
984.46276,0.07116
982.97297,0.07805
981.48319,0.06857
979.99340,0.05892
978.50361,0.05729
977.01382,0.05569
975.52403,0.03703
974.03424,0.02569
972.54446,0.01537
971.05467,0.01692
969.56488,0.01711
968.07509,0.01614
966.58530,0.01519
965.09551,0.00696
963.60573,0.01396
962.11594,0.00677
960.62615,0.02013
959.13636,0.02166
957.64657,0.02322
956.15678,0.02263
954.66699,0.03490
953.17721,0.04068
951.68742,0.04451
950.19763,0.04529
948.70784,0.04611
947.21805,0.06580
945.72826,0.08019
944.23848,0.10348
942.74869,0.11140
941.25890,0.12803
939.76911,0.13451
938.27932,0.14101
936.78953,0.17134
935.29974,0.17246
933.80996,0.19316
932.32017,0.20519
930.83038,0.20964
929.34059,0.21411
927.85080,0.25663
926.36101,0.26658
924.87123,0.28110
923.38144,0.32032
921.89165,0.36135
920.40186,0.40240
918.91207,0.49896
917.42228,0.59278
915.93250,0.70025
914.44271,0.89306
912.95292,1.00265
911.46313,1.11226
909.97334,1.32844
908.48355,1.49191
906.99376,1.71367
905.50398,1.84125
904.01419,1.90013
902.52440,1.95904
901.03461,2.00000
899.54482,1.97503
898.05503,1.89479
896.56525,1.67693
895.07546,1.53947
893.58567,1.40203
892.09588,1.14811
890.60609,0.88473
889.11630,0.65573
887.62651,0.50180
886.13673,0.42609
884.64694,0.35041
883.15715,0.28640
881.66736,0.20918
880.17757,0.15351
878.68778,0.11820
877.19800,0.08292
875.70821,0.06227
874.21842,0.05152
872.72863,0.03231
871.23884,0.02575
869.74905,0.02169
868.25927,0.01765
866.76948,0.03407
865.27969,0.03314
863.78990,0.03105
862.30011,0.04359
860.81032,0.04273
859.32053,0.04189
857.83075,0.06675
856.34096,0.07899
854.85117,0.08316
853.36138,0.09170
851.87159,0.09898
850.38180,0.10628
848.89202,0.11390
847.40223,0.13418
845.91244,0.15409
844.42265,0.16030
842.93286,0.16654
841.44307,0.17862
839.95329,0.17769
838.46350,0.20266
836.97371,0.20178
835.48392,0.21405
833.99413,0.22635
832.50434,0.23245
831.01455,0.20244
829.52477,0.18450
828.03498,0.16382
826.54519,0.15066
825.05540,0.13753
823.56561,0.12778
822.07582,0.12595
820.58604,0.11052
819.09625,0.10291
817.60646,0.09532
816.11667,0.08431
814.62688,0.09346
813.13709,0.08703
811.64730,0.10235
810.15752,0.09991
808.66773,0.09751
807.17794,0.07952
805.68815,0.10422
804.19836,0.10682
802.70857,0.11092
801.21879,0.11505
799.72900,0.09777
798.23921,0.09790
796.74942,0.10555
795.25963,0.10237
793.76984,0.09921
792.28006,0.09844
790.79027,0.11370
789.30048,0.12423
787.81069,0.15276
786.32090,0.17322
784.83111,0.19370
783.34132,0.21184
781.85154,0.24441
780.36175,0.25844
778.87196,0.27912
777.38217,0.29981
775.89238,0.32557
774.40259,0.33259
772.91281,0.32482
771.42302,0.30553
769.93323,0.28625
768.44344,0.26394
766.95365,0.20513
765.46386,0.18247
763.97407,0.16122
762.48429,0.15440
760.99450,0.14761
759.50471,0.12545
758.01492,0.11041
756.52513,0.10409
755.03534,0.09127
753.54556,0.07848
752.05577,0.07558
750.56598,0.06303
749.07619,0.04952
747.58640,0.04166
746.09661,0.03382
744.60683,0.03716
743.11704,0.02276
741.62725,0.01627
740.13746,0.01672
738.64767,0.01720
737.15788,0.00763
735.66809,0.00677
734.17831,0.00908
732.68852,0.01585
731.19873,0.02266
729.70894,0.01694
728.21915,0.01263
726.72936,0.00677
725.23958,0.01274
723.74979,0.01588
722.26000,0.01904
720.77021,0.01127
719.28042,0.02662
717.79063,0.01297
716.30084,0.01514
714.81106,0.01733
713.32127,0.01244
711.83148,0.00697
710.34169,0.02010
708.85190,0.02199
707.36211,0.02391
705.87233,0.03987
704.38254,0.04301
702.89275,0.04836
701.40296,0.04444
699.91317,0.04055
698.42338,0.06038
696.93360,0.06503
695.44381,0.09004
693.95402,0.10056
692.46423,0.11110
690.97444,0.11939
689.48465,0.13936
687.99486,0.14238
686.50508,0.15825
685.01529,0.17414
683.52550,0.20645
682.03571,0.22930
680.54592,0.25237
679.05613,0.25424
677.56635,0.25613
676.07656,0.26387
674.58677,0.24399
673.09698,0.22789
671.60719,0.20558
670.11740,0.18330
668.62761,0.14969
667.13783,0.11848
665.64804,0.11769
664.15825,0.11693
662.66846,0.09329
661.17867,0.07856
659.68888,0.06108
658.19910,0.05864
656.70931,0.05622
655.21952,0.03309
653.72973,0.03131
652.23994,0.05384
650.75015,0.04510
649.26037,0.03638
647.77058,0.03864
646.28079,0.02414
644.79100,0.03751
643.30121,0.02918
641.81142,0.02088
640.32163,0.01181
638.83185,0.02112
637.34206,0.00677
635.85227,0.01067
634.36248,0.01460
632.87269,0.00620
631.38290,0.00633
629.89312,0.00864
628.40333,0.00891
626.91354,0.00920
625.42375,0.00982
623.93396,0.00848
622.44417,0.00726
620.95438,0.00606
619.46460,0.01408
617.97481,0.01678
616.48502,0.04873
614.99523,0.05139
613.50544,0.05406
612.01565,0.08747
610.52587,0.11952
609.03608,0.16107
607.54629,0.17420
606.05650,0.18736
604.56671,0.22819
603.07692,0.29255
601.58714,0.31249
600.09735,0.33246
598.60756,0.35344
597.11777,0.35786
595.62798,0.37316
594.13819,0.36913
592.64840,0.36512
591.15862,0.33152
589.66883,0.30367
588.17904,0.23753
586.68925,0.19896
585.19946,0.16042
583.70967,0.13365
582.21989,0.10453
580.73010,0.09143
579.24031,0.07835
577.75052,0.06392
576.26073,0.05326
574.77094,0.02762
573.28115,0.03083
571.79137,0.03407
570.30158,0.03377
568.81179,0.02560
567.32200,0.03128
565.83221,0.03698
564.34242,0.06205
562.85264,0.07353
561.36285,0.10043
559.87306,0.10276
558.38327,0.10512
556.89348,0.12775
555.40369,0.13342
553.91391,0.12923
552.42412,0.12507
550.93433,0.13219
549.44454,0.13479
547.95475,0.13426
546.46496,0.13928
544.97517,0.14432
543.48539,0.15570
541.99560,0.17619
540.50581,0.20944
539.01602,0.24272
537.52623,0.30574
536.03644,0.32711
534.54666,0.35246
533.05687,0.37339
531.56708,0.39434
530.07729,0.43931
528.58750,0.47779
527.09771,0.50167
525.60792,0.52558
524.11814,0.58210
522.62835,0.62008
521.13856,0.67842
519.64877,0.69205
518.15898,0.70571
516.66919,0.73115
515.17941,0.74258
513.68962,0.75157
512.19983,0.76059
510.71004,0.73260
509.22025,0.67758
507.73046,0.61271
506.24068,0.56100
504.75089,0.50931
503.26110,0.41469
501.77131,0.33076
500.28152,0.29494
498.79173,0.25914
497.30194,0.17805
495.81216,0.13785
494.32237,0.12415
492.83258,0.11046
491.34279,0.09068
489.85300,0.06223
488.36321,0.06046
486.87343,0.04361
485.38364,0.02679
483.89385,0.05985
482.40406,0.07259
480.91427,0.08960
479.42448,0.10664
477.93469,0.10306
476.44491,0.12617
474.95512,0.12906
473.46533,0.13197
471.97554,0.14902
470.48575,0.14063
468.99596,0.12811
467.50618,0.11482
466.01639,0.10156
464.52660,0.08931
463.03681,0.07787
461.54702,0.07337
460.05723,0.06889
458.56745,0.04883
457.07766,0.01912
455.58787,0.02301
454.09808,0.02692
452.60829,0.01604
451.11850,0.00677
449.62871,0.00774
448.13893,0.00874
446.64914,0.02230
445.15935,0.01080
443.66956,0.01355
442.17977,0.02254
440.68998,0.03155
439.20020,0.01027
437.71041,0.01963
436.22062,0.02733
434.73083,0.03506
433.24104,0.03362
431.75125,0.04268
430.26146,0.04218
428.77168,0.04171
427.28189,0.05854
425.79210,0.01121
424.30231,0.01258
422.81252,0.01398
421.32273,0.02122
419.83295,0.02336
418.34316,0.01505
416.85337,0.00677
415.36358,0.00837
413.87379,0.03132
412.38400,0.03890
410.89422,0.04650
409.40443,0.03220
407.91464,0.03530
406.42485,0.03567
404.93506,0.03023
403.44527,0.02481
401.95548,0.02485
400.46570,0.03182
398.97591,0.03339
397.48612,0.03498
395.99633,0.03570
394.50654,0.02579
393.01675,0.01688
391.52697,0.00800
390.03718,0.02076
388.54739,0.03947
387.05760,0.02364
385.56781,0.00784
384.07802,0.03669
382.58824,0.03475
381.09845,0.02889
379.60866,0.02306
378.11887,0.02494
376.62908,0.00000
375.13929,0.00518
373.64950,0.01039
372.15972,0.02372
370.66993,0.03253
369.18014,0.02586
367.69035,0.01921
366.20056,0.02510
364.71077,0.03555
363.22099,0.02973
361.73120,0.02393
360.24141,0.03327
358.75162,0.04776
357.26183,0.04283
355.77204,0.03791
354.28225,0.02997
352.79247,0.01572
351.30268,0.02085
349.81289,0.02601
348.32310,0.04481
346.83331,0.08082
345.34352,0.06363
343.85374,0.04647
342.36395,0.04700
340.87416,0.03867
339.38437,0.03550
337.89458,0.03235
336.40479,0.05214
334.91501,0.02534
333.42522,0.01604
331.93543,0.00677
330.44564,0.02984
328.95585,0.01442
327.46606,0.02352
325.97627,0.03264
324.48649,0.05106
322.99670,0.05055
321.50691,0.06260
320.01712,0.07468
318.52733,0.06634
317.03754,0.07421
315.54776,0.06809
314.05797,0.06199
312.56818,0.06046
311.07839,0.06231
309.58860,0.05628
308.09881,0.05028
306.60902,0.03403
305.11924,0.03301
303.62945,0.02639
302.13966,0.01731
300.64987,0.00677
299.16008,0.00677
