1778.52000,0.01413
1777.03021,0.01460
1775.54042,0.00815
1774.05063,0.01580
1772.56085,0.01949
1771.07106,0.00681
1769.58127,0.01286
1768.09148,0.00464
1766.60169,0.00548
1765.11190,0.00697
1763.62212,0.00450
1762.13233,0.01192
1760.64254,0.00445
1759.15275,0.01549
1757.66296,0.00996
1756.17317,0.01076
1754.68339,0.00507
1753.19360,0.00864
1751.70381,0.00426
1750.21402,0.01775
1748.72423,0.00564
1747.23444,0.00301
1745.74465,0.00880
1744.25487,0.00244
1742.76508,0.00731
1741.27529,0.00800
1739.78550,0.00451
1738.29571,0.01532
1736.80592,0.01249
1735.31614,0.00801
1733.82635,0.01091
1732.33656,0.01467
1730.84677,0.01383
1729.35698,0.00986
1727.86719,0.00340
1726.37740,0.00074
1724.88762,0.00000
1723.39783,0.00531
1721.90804,0.00959
1720.41825,0.00759
1718.92846,0.00813
1717.43867,0.00513
1715.94889,0.00572
1714.45910,0.00676
1712.96931,0.00593
1711.47952,0.00450
1709.98973,0.01065
1708.49994,0.00716
1707.01016,0.00579
1705.52037,0.00445
1704.03058,0.00751
1702.54079,0.01249
1701.05100,0.01434
1699.56121,0.01642
1698.07142,0.00949
1696.58164,0.01246
1695.09185,0.01944
1693.60206,0.02267
1692.11227,0.01521
1690.62248,0.01890
1689.13269,0.02178
1687.64291,0.01964
1686.15312,0.02656
1684.66333,0.02152
1683.17354,0.02471
1681.68375,0.02329
1680.19396,0.02820
1678.70417,0.02159
1677.21439,0.02696
1675.72460,0.03678
1674.23481,0.04683
1672.74502,0.04429
1671.25523,0.04179
1669.76544,0.05127
1668.27566,0.05617
1666.78587,0.06003
1665.29608,0.05951
1663.80629,0.06594
1662.31650,0.07891
1660.82671,0.07405
1659.33693,0.08244
1657.84714,0.08099
1656.35735,0.07935
1654.86756,0.08445
1653.37777,0.07782
1651.88798,0.07898
1650.39819,0.08773
1648.90841,0.08642
1647.41862,0.08492
1645.92883,0.08880
1644.43904,0.09271
1642.94925,0.09002
1641.45946,0.08042
1639.96968,0.08556
1638.47989,0.08231
1636.99010,0.09316
1635.50031,0.08955
1634.01052,0.09309
1632.52073,0.10444
1631.03094,0.08660
1629.54116,0.08728
1628.05137,0.08987
1626.56158,0.10299
1625.07179,0.11320
1623.58200,0.10998
1622.09221,0.10174
1620.60243,0.09269
1619.11264,0.09774
1617.62285,0.10070
1616.13306,0.09088
1614.64327,0.10167
1613.15348,0.09379
1611.66370,0.09475
1610.17391,0.09028
1608.68412,0.09570
1607.19433,0.09778
1605.70454,0.10283
1604.21475,0.09730
1602.72496,0.09179
1601.23518,0.09313
1599.74539,0.08399
1598.25560,0.09966
1596.76581,0.10233
1595.27602,0.07604
1593.78623,0.07413
1592.29645,0.07625
1590.80666,0.06809
1589.31687,0.07844
1587.82708,0.07558
1586.33729,0.08262
1584.84750,0.08149
1583.35771,0.08837
1581.86793,0.07363
1580.37814,0.08224
1578.88835,0.08078
1577.39856,0.06255
1575.90877,0.06114
1574.41898,0.05660
1572.92920,0.05167
1571.43941,0.05328
1569.94962,0.04892
1568.45983,0.04459
1566.97004,0.04101
1565.48025,0.04103
1563.99047,0.04822
1562.50068,0.04009
1561.01089,0.03346
1559.52110,0.03000
1558.03131,0.02867
1556.54152,0.01644
1555.05173,0.02020
1553.56195,0.01284
1552.07216,0.01875
1550.58237,0.01270
1549.09258,0.01782
1547.60279,0.01896
1546.11300,0.01740
1544.62322,0.00473
1543.13343,0.01624
1541.64364,0.00445
1540.15385,0.00649
1538.66406,0.00856
1537.17427,0.02840
1535.68448,0.01633
1534.19470,0.01899
1532.70491,0.00445
1531.21512,0.01640
1529.72533,0.02018
1528.23554,0.01537
1526.74575,0.01899
1525.25597,0.02137
1523.76618,0.01978
1522.27639,0.02263
1520.78660,0.04231
1519.29681,0.02777
1517.80702,0.03447
1516.31724,0.04203
1514.82745,0.03261
1513.33766,0.03392
1511.84787,0.03525
1510.35808,0.04165
1508.86829,0.04954
1507.37850,0.04780
1505.88872,0.05322
1504.39893,0.05026
1502.90914,0.05237
1501.41935,0.06248
1499.92956,0.06485
1498.43977,0.05799
1496.94999,0.06671
1495.46020,0.07376
1493.97041,0.09135
1492.48062,0.09803
1490.99083,0.10852
1489.50104,0.12723
1488.01125,0.13776
1486.52147,0.14832
1485.03168,0.17865
1483.54189,0.19073
1482.05210,0.20368
1480.56231,0.21244
1479.07252,0.23993
1477.58274,0.24664
1476.09295,0.24665
1474.60316,0.24669
1473.11337,0.25473
1471.62358,0.25020
1470.13379,0.27551
1468.64401,0.30400
1467.15422,0.31908
1465.66443,0.34247
1464.17464,0.36588
1462.68485,0.37893
1461.19506,0.41615
1459.70527,0.43953
1458.21549,0.48646
1456.72570,0.53867
1455.23591,0.61590
1453.74612,0.66584
1452.25633,0.71560
1450.76654,0.74921
1449.27676,0.77486
1447.78697,0.73037
1446.29718,0.70397
1444.80739,0.70134
1443.31760,0.69872
1441.82781,0.61505
1440.33802,0.55913
1438.84824,0.54881
1437.35845,0.51625
1435.86866,0.50515
1434.37887,0.54448
1432.88908,0.58971
1431.39929,0.68224
1429.90951,0.73277
1428.41972,0.79594
1426.92993,0.83181
1425.44014,0.86583
1423.95035,0.89072
1422.46056,0.91565
1420.97078,0.96191
1419.48099,0.98972
1417.99120,0.96020
1416.50141,0.96747
1415.01162,0.90481
1413.52183,0.86150
1412.03204,0.81212
1410.54226,0.79364
1409.05247,0.74725
1407.56268,0.69773
1406.07289,0.62030
1404.58310,0.59562
1403.09331,0.57096
1401.60353,0.48982
1400.11374,0.44315
1398.62395,0.37613
1397.13416,0.33792
1395.64437,0.27557
1394.15458,0.21534
1392.66479,0.18938
1391.17501,0.16869
1389.68522,0.13458
1388.19543,0.10239
1386.70564,0.09711
1385.21585,0.09185
1383.72606,0.06624
1382.23628,0.04086
1380.74649,0.03610
1379.25670,0.03093
1377.76691,0.01403
1376.27712,0.01228
1374.78733,0.00445
1373.29755,0.01103
1371.80776,0.00838
1370.31797,0.01648
1368.82818,0.01903
1367.33839,0.02160
1365.84860,0.02283
1364.35881,0.03081
1362.86903,0.02915
1361.37924,0.06028
1359.88945,0.07274
1358.39966,0.09531
1356.90987,0.12988
1355.42008,0.17791
1353.93030,0.22470
1352.44051,0.26984
1350.95072,0.31501
1349.46093,0.39317
1347.97114,0.45456
1346.48135,0.54936
1344.99156,0.60260
1343.50178,0.67876
1342.01199,0.76419
1340.52220,0.80805
1339.03241,0.83681
1337.54262,0.86916
1336.05283,0.90196
1334.56305,0.93478
1333.07326,0.96279
1331.58347,0.99104
1330.09368,0.98234
1328.60389,0.96253
1327.11410,0.93833
1325.62432,0.91542
1324.13453,0.91374
1322.64474,0.86945
1321.15495,0.80166
1319.66516,0.77149
1318.17537,0.74134
1316.68558,0.68685
1315.19580,0.64877
1313.70601,0.61218
1312.21622,0.57751
1310.72643,0.53572
1309.23664,0.50509
1307.74685,0.47700
1306.25707,0.41469
1304.76728,0.39316
1303.27749,0.37166
1301.78770,0.32959
1300.29791,0.29427
1298.80812,0.26611
1297.31834,0.21991
1295.82855,0.18319
1294.33876,0.15720
1292.84897,0.12452
1291.35918,0.11140
1289.86939,0.10554
1288.37960,0.09972
1286.88982,0.10599
1285.40003,0.08876
1283.91024,0.08647
1282.42045,0.06950
1280.93066,0.06179
1279.44087,0.04928
1277.95109,0.05254
1276.46130,0.04008
1274.97151,0.04958
1273.48172,0.05912
1271.99193,0.03874
1270.50214,0.04023
1269.01235,0.04490
1267.52257,0.02691
1266.03278,0.02658
1264.54299,0.02859
1263.05320,0.01571
1261.56341,0.01115
1260.07362,0.00661
1258.58384,0.00577
1257.09405,0.01693
1255.60426,0.00816
1254.11447,0.00445
1252.62468,0.01420
1251.13489,0.01242
1249.64511,0.02011
1248.15532,0.02510
1246.66553,0.02486
1245.17574,0.02464
1243.68595,0.02571
1242.19616,0.00495
1240.70637,0.01132
1239.21659,0.01498
1237.72680,0.02539
1236.23701,0.01061
1234.74722,0.00783
1233.25743,0.00822
1231.76764,0.00864
1230.27786,0.00950
1228.78807,0.01837
1227.29828,0.02390
1225.80849,0.00445
1224.31870,0.02006
1222.82891,0.01637
1221.33912,0.03097
1219.84934,0.03352
1218.35955,0.03609
1216.86976,0.04720
1215.37997,0.04971
1213.89018,0.06381
1212.40039,0.07624
1210.91061,0.06980
1209.42082,0.06590
1207.93103,0.07536
1206.44124,0.08485
1204.95145,0.07871
1203.46166,0.07700
1201.97188,0.06902
1200.48209,0.07807
1198.99230,0.05627
1197.50251,0.05739
1196.01272,0.05413
1194.52293,0.04941
1193.03314,0.04473
1191.54336,0.03145
1190.05357,0.01903
1188.56378,0.01273
1187.07399,0.02999
1185.58420,0.02289
1184.09441,0.02486
1182.60463,0.02401
1181.11484,0.02319
1179.62505,0.03363
1178.13526,0.02287
1176.64547,0.00689
1175.15568,0.00438
1173.66589,0.00445
1172.17611,0.00449
1170.68632,0.01107
1169.19653,0.01767
1167.70674,0.02807
1166.21695,0.02569
1164.72716,0.02627
1163.23738,0.02351
1161.74759,0.04661
1160.25780,0.06029
1158.76801,0.07042
1157.27822,0.08057
1155.78843,0.09494
1154.29865,0.09338
1152.80886,0.12209
1151.31907,0.11406
1149.82928,0.10899
1148.33949,0.13231
1146.84970,0.13769
1145.35991,0.14310
1143.87013,0.16081
1142.38034,0.15503
1140.89055,0.18245
1139.40076,0.18176
1137.91097,0.17835
1136.42118,0.20606
1134.93140,0.20523
1133.44161,0.20441
1131.95182,0.25089
1130.46203,0.24172
1128.97224,0.24392
1127.48245,0.25602
1125.99266,0.25134
1124.50288,0.25823
1123.01309,0.26063
1121.52330,0.26305
1120.03351,0.26035
1118.54372,0.25936
1117.05393,0.24200
1115.56415,0.24820
1114.07436,0.25547
1112.58457,0.25520
1111.09478,0.25495
1109.60499,0.25809
1108.11520,0.27323
1106.62542,0.25352
1105.13563,0.24581
1103.64584,0.23518
1102.15605,0.22919
1100.66626,0.22754
1099.17647,0.22591
1097.68668,0.23596
1096.19690,0.24394
1094.70711,0.22799
1093.21732,0.21794
1091.72753,0.20939
1090.23774,0.21137
1088.74795,0.21337
1087.25817,0.22485
1085.76838,0.18594
1084.27859,0.21070
1082.78880,0.20439
1081.29901,0.21366
1079.80922,0.23513
1078.31943,0.24643
1076.82965,0.25776
1075.33986,0.25998
1073.85007,0.26327
1072.36028,0.26952
1070.87049,0.29176
1069.38070,0.33252
1067.89092,0.33832
1066.40113,0.34414
1064.91134,0.41458
1063.42155,0.50563
1061.93176,0.62003
1060.44197,0.71596
1058.95219,0.81107
1057.46240,0.87186
1055.97261,0.93268
1054.48282,1.05706
1052.99303,1.08568
1051.50324,1.11475
1050.01345,1.14047
1048.52367,1.10257
1047.03388,1.08476
1045.54409,1.06697
1044.05430,1.03629
1042.56451,0.98063
1041.07472,0.86849
1039.58494,0.77338
1038.09515,0.65100
1036.60536,0.62064
1035.11557,0.59031
1033.62578,0.52198
1032.13599,0.45221
1030.64620,0.40787
1029.15642,0.33478
1027.66663,0.30520
1026.17684,0.27564
1024.68705,0.24568
1023.19726,0.20189
1021.70747,0.17450
1020.21769,0.16436
1018.72790,0.15950
1017.23811,0.15802
1015.74832,0.15656
1014.25853,0.13287
1012.76874,0.11928
1011.27896,0.11600
1009.78917,0.09153
1008.29938,0.07444
1006.80959,0.05937
1005.31980,0.04433
1003.83001,0.04369
1002.34022,0.04245
1000.85044,0.03766
999.36065,0.05033
997.87086,0.05483
996.38107,0.05936
994.89128,0.07462
993.40149,0.09306
991.91171,0.10963
990.42192,0.12517
988.93213,0.13780
987.44234,0.14163
985.95255,0.14548
984.46276,0.17898
982.97297,0.13267
981.48319,0.12840
979.99340,0.09160
978.50361,0.08548
977.01382,0.07940
975.52403,0.05821
974.03424,0.03977
972.54446,0.02262
971.05467,0.02188
969.56488,0.01822
968.07509,0.01658
966.58530,0.01497
965.09551,0.00697
963.60573,0.00445
962.11594,0.00423
960.62615,0.01495
959.13636,0.01456
957.64657,0.01419
956.15678,0.01070
954.66699,0.02256
953.17721,0.02437
951.68742,0.02284
950.19763,0.03288
948.70784,0.04295
947.21805,0.04737
945.72826,0.07030
944.23848,0.08275
942.74869,0.09039
941.25890,0.11550
939.76911,0.12802
938.27932,0.14056
936.78953,0.15692
935.29974,0.15691
933.80996,0.17246
932.32017,0.19771
930.83038,0.21111
929.34059,0.22453
927.85080,0.23640
926.36101,0.25922
924.87123,0.27261
923.38144,0.32090
921.89165,0.36217
920.40186,0.40346
918.91207,0.49383
917.42228,0.59661
915.93250,0.72610
914.44271,0.93039
912.95292,1.03514
911.46313,1.13991
909.97334,1.33020
908.48355,1.56210
906.99376,1.77806
905.50398,1.93586
904.01419,1.95809
902.52440,1.98035
901.03461,2.00000
899.54482,1.96926
898.05503,1.86881
896.56525,1.67007
895.07546,1.53090
893.58567,1.39176
892.09588,1.11663
890.60609,0.85161
889.11630,0.66181
887.62651,0.49388
886.13673,0.43290
884.64694,0.37194
883.15715,0.26815
881.66736,0.19190
880.17757,0.13627
878.68778,0.11815
877.19800,0.10005
875.70821,0.06381
874.21842,0.04881
872.72863,0.05274
871.23884,0.01426
869.74905,0.01414
868.25927,0.01405
866.76948,0.01870
865.27969,0.03745
863.78990,0.04237
862.30011,0.04520
860.81032,0.05205
859.32053,0.05892
857.83075,0.09439
856.34096,0.11244
854.85117,0.11477
853.36138,0.13035
851.87159,0.14616
850.38180,0.16200
848.89202,0.18879
847.40223,0.19627
845.91244,0.23067
844.42265,0.23473
842.93286,0.23882
841.44307,0.24997
839.95329,0.27753
838.46350,0.29650
836.97371,0.29575
835.48392,0.29471
833.99413,0.29369
832.50434,0.30225
831.01455,0.30642
829.52477,0.27365
828.03498,0.25708
826.54519,0.24389
825.05540,0.23072
823.56561,0.20897
822.07582,0.18366
820.58604,0.16826
819.09625,0.16380
817.60646,0.15937
816.11667,0.14613
814.62688,0.13986
813.13709,0.15230
811.64730,0.16750
810.15752,0.16286
808.66773,0.15826
807.17794,0.16008
805.68815,0.18294
804.19836,0.17850
802.70857,0.18723
801.21879,0.19597
799.72900,0.19119
798.23921,0.17825
796.74942,0.17751
795.25963,0.16744
793.76984,0.15740
792.28006,0.16849
790.79027,0.18801
789.30048,0.21050
787.81069,0.26830
786.32090,0.28442
784.83111,0.30057
783.34132,0.32714
781.85154,0.36571
780.36175,0.39632
778.87196,0.41929
777.38217,0.44228
775.89238,0.46120
774.40259,0.46901
772.91281,0.44722
771.42302,0.42567
769.93323,0.40414
768.44344,0.37339
766.95365,0.30906
765.46386,0.25462
763.97407,0.22205
762.48429,0.21188
760.99450,0.20173
759.50471,0.16588
758.01492,0.14685
756.52513,0.11545
755.03534,0.11075
753.54556,0.10608
752.05577,0.10164
750.56598,0.09114
749.07619,0.05986
747.58640,0.05728
746.09661,0.05472
744.60683,0.04115
743.11704,0.03035
741.62725,0.01494
740.13746,0.02288
738.64767,0.03083
737.15788,0.01067
735.66809,0.01174
734.17831,0.00654
732.68852,0.01207
731.19873,0.01763
729.70894,0.01229
728.21915,0.00865
726.72936,0.00650
725.23958,0.01856
723.74979,0.01551
722.26000,0.01249
720.77021,0.00571
719.28042,0.00735
717.79063,0.00690
716.30084,0.00963
714.81106,0.01239
713.32127,0.00445
711.83148,0.03301
710.34169,0.01223
708.85190,0.01553
707.36211,0.01885
705.87233,0.02734
704.38254,0.04320
702.89275,0.04333
701.40296,0.04318
699.91317,0.04304
698.42338,0.05648
696.93360,0.06343
695.44381,0.08364
693.95402,0.10115
692.46423,0.11867
690.97444,0.12467
689.48465,0.13468
687.99486,0.15732
686.50508,0.16569
685.01529,0.17410
683.52550,0.21319
682.03571,0.23193
680.54592,0.27612
679.05613,0.26382
677.56635,0.25154
676.07656,0.25547
674.58677,0.23504
673.09698,0.19784
671.60719,0.18650
670.11740,0.17519
668.62761,0.15255
667.13783,0.12217
665.64804,0.12552
664.15825,0.12890
662.66846,0.09270
661.17867,0.06536
659.68888,0.07374
658.19910,0.06209
656.70931,0.05046
655.21952,0.04022
653.72973,0.03694
652.23994,0.03452
650.75015,0.03139
649.26037,0.02829
647.77058,0.03518
646.28079,0.03832
644.79100,0.03833
643.30121,0.03049
641.81142,0.02267
640.32163,0.00679
638.83185,0.01694
637.34206,0.00905
635.85227,0.01673
634.36248,0.02443
632.87269,0.00716
631.38290,0.00960
629.89312,0.01038
628.40333,0.01170
626.91354,0.01306
625.42375,0.00445
623.93396,0.01193
622.44417,0.01208
620.95438,0.01225
619.46460,0.01224
617.97481,0.02317
616.48502,0.04589
614.99523,0.05687
613.50544,0.06788
612.01565,0.10327
610.52587,0.12819
609.03608,0.17350
607.54629,0.19479
606.05650,0.21610
604.56671,0.26800
603.07692,0.33358
601.58714,0.35559
600.09735,0.37763
598.60756,0.40588
597.11777,0.44425
595.62798,0.41899
594.13819,0.40509
592.64840,0.39122
591.15862,0.39334
589.66883,0.32658
588.17904,0.23191
586.68925,0.21036
585.19946,0.18884
583.70967,0.15894
582.21989,0.11919
580.73010,0.10698
579.24031,0.09479
577.75052,0.07024
576.26073,0.05243
574.77094,0.03317
573.28115,0.03358
571.79137,0.03401
570.30158,0.03163
568.81179,0.05091
567.32200,0.05215
565.83221,0.05341
564.34242,0.08242
562.85264,0.11881
561.36285,0.15019
559.87306,0.16614
558.38327,0.18212
556.89348,0.20243
555.40369,0.20806
553.91391,0.19870
552.42412,0.18935
550.93433,0.20094
549.44454,0.21548
547.95475,0.18132
546.46496,0.19486
544.97517,0.20843
543.48539,0.21446
541.99560,0.26925
540.50581,0.28877
539.01602,0.30832
537.52623,0.37872
536.03644,0.40419
534.54666,0.44272
533.05687,0.46131
531.56708,0.47992
530.07729,0.50402
528.58750,0.55986
527.09771,0.57876
525.60792,0.59767
524.11814,0.66514
522.62835,0.70721
521.13856,0.73818
519.64877,0.76381
518.15898,0.78946
516.66919,0.83331
515.17941,0.87865
513.68962,0.89766
512.19983,0.91668
510.71004,0.87597
509.22025,0.82310
507.73046,0.70703
506.24068,0.66156
504.75089,0.61611
503.26110,0.48540
501.77131,0.40177
500.28152,0.33760
498.79173,0.27344
497.30194,0.21803
495.81216,0.16916
494.32237,0.16074
492.83258,0.15235
491.34279,0.12497
489.85300,0.10014
488.36321,0.07722
486.87343,0.07964
485.38364,0.08208
483.89385,0.08359
482.40406,0.12211
480.91427,0.14237
479.42448,0.16266
477.93469,0.17519
476.44491,0.17431
474.95512,0.19194
473.46533,0.20959
471.97554,0.22348
470.48575,0.19916
468.99596,0.17929
467.50618,0.17728
466.01639,0.17531
464.52660,0.14038
463.03681,0.11723
461.54702,0.10923
460.05723,0.10126
458.56745,0.05949
457.07766,0.01900
455.58787,0.01982
454.09808,0.02066
452.60829,0.03213
451.11850,0.00623
449.62871,0.00893
448.13893,0.01165
446.64914,0.03540
445.15935,0.02115
443.66956,0.01218
442.17977,0.01615
440.68998,0.02014
439.20020,0.02595
437.71041,0.02358
436.22062,0.02638
434.73083,0.02921
433.24104,0.03280
431.75125,0.04713
430.26146,0.04540
428.77168,0.04371
427.28189,0.04193
425.79210,0.03240
424.30231,0.02594
422.81252,0.01951
421.32273,0.03379
419.83295,0.04977
418.34316,0.03490
416.85337,0.02006
415.36358,0.01007
413.87379,0.03812
412.38400,0.03878
410.89422,0.03947
409.40443,0.02453
407.91464,0.01844
406.42485,0.03464
404.93506,0.02702
403.44527,0.01943
401.95548,0.03990
400.46570,0.02132
398.97591,0.01979
397.48612,0.01827
395.99633,0.01804
394.50654,0.02330
393.01675,0.02784
391.52697,0.02991
390.03718,0.02812
388.54739,0.02403
387.05760,0.02365
385.56781,0.02329
384.07802,0.03987
382.58824,0.01194
381.09845,0.00818
379.60866,0.00445
378.11887,0.02400
376.62908,0.03327
375.13929,0.03154
373.64950,0.02983
372.15972,0.04464
370.66993,0.04015
369.18014,0.03735
367.69035,0.03458
366.20056,0.04528
364.71077,0.04634
363.22099,0.04890
361.73120,0.05147
360.24141,0.05870
358.75162,0.04788
357.26183,0.04254
355.77204,0.03723
354.28225,0.06241
352.79247,0.05966
351.30268,0.05695
349.81289,0.05425
348.32310,0.06566
346.83331,0.08885
345.34352,0.08181
343.85374,0.07480
342.36395,0.06109
340.87416,0.04594
339.38437,0.02934
337.89458,0.01276
336.40479,0.02372
334.91501,0.01707
333.42522,0.01075
331.93543,0.00445
330.44564,0.00746
328.95585,0.03487
327.46606,0.03824
325.97627,0.04164
324.48649,0.05168
322.99670,0.07455
321.50691,0.07760
320.01712,0.08067
318.52733,0.09081
317.03754,0.07660
315.54776,0.07837
314.05797,0.08018
312.56818,0.07948
311.07839,0.07272
309.58860,0.06945
308.09881,0.06620
306.60902,0.05341
305.11924,0.02847
303.62945,0.02907
302.13966,0.00777
300.64987,0.00445
299.16008,0.00445
