1778.52000,0.02590
1777.03021,0.01299
1775.54042,0.02114
1774.05063,0.02362
1772.56085,0.01933
1771.07106,0.01025
1769.58127,0.01411
1768.09148,0.01099
1766.60169,0.01337
1765.11190,0.00636
1763.62212,0.00506
1762.13233,0.00927
1760.64254,0.01459
1759.15275,0.01687
1757.66296,0.00581
1756.17317,0.00880
1754.68339,0.01138
1753.19360,0.01989
1751.70381,0.01177
1750.21402,0.01047
1748.72423,0.00832
1747.23444,0.00926
1745.74465,0.00760
1744.25487,0.00661
1742.76508,0.01157
1741.27529,0.00581
1739.78550,0.01890
1738.29571,0.01055
1736.80592,0.00966
1735.31614,0.01515
1733.82635,0.01388
1732.33656,0.00693
1730.84677,0.00592
1729.35698,0.00647
1727.86719,0.00682
1726.37740,0.01027
1724.88762,0.00958
1723.39783,0.00584
1721.90804,0.00520
1720.41825,0.00764
1718.92846,0.00573
1717.43867,0.00581
1715.94889,0.00749
1714.45910,0.00810
1712.96931,0.01654
1711.47952,0.00529
1709.98973,0.00961
1708.49994,0.00849
1707.01016,0.00958
1705.52037,0.01069
1704.03058,0.01314
1702.54079,0.00597
1701.05100,0.01110
1699.56121,0.01341
1698.07142,0.00872
1696.58164,0.00581
1695.09185,0.02133
1693.60206,0.01648
1692.11227,0.01736
1690.62248,0.02286
1689.13269,0.02094
1687.64291,0.02299
1686.15312,0.02549
1684.66333,0.02342
1683.17354,0.02576
1681.68375,0.02571
1680.19396,0.03861
1678.70417,0.03510
1677.21439,0.04564
1675.72460,0.04963
1674.23481,0.03831
1672.74502,0.04410
1671.25523,0.06328
1669.76544,0.06102
1668.27566,0.06841
1666.78587,0.07825
1665.29608,0.07320
1663.80629,0.06577
1662.31650,0.05880
1660.82671,0.07465
1659.33693,0.08657
1657.84714,0.09326
1656.35735,0.08967
1654.86756,0.08984
1653.37777,0.08126
1651.88798,0.08388
1650.39819,0.07426
1648.90841,0.09621
1647.41862,0.08620
1645.92883,0.08924
1644.43904,0.09231
1642.94925,0.08215
1641.45946,0.09239
1639.96968,0.09126
1638.47989,0.08709
1636.99010,0.09499
1635.50031,0.09612
1634.01052,0.08260
1632.52073,0.08751
1631.03094,0.08389
1629.54116,0.09389
1628.05137,0.09865
1626.56158,0.10584
1625.07179,0.09881
1623.58200,0.10934
1622.09221,0.09842
1620.60243,0.10199
1619.11264,0.09440
1617.62285,0.11028
1616.13306,0.10274
1614.64327,0.09808
1613.15348,0.09585
1611.66370,0.09364
1610.17391,0.10132
1608.68412,0.08689
1607.19433,0.09527
1605.70454,0.10806
1604.21475,0.10269
1602.72496,0.09734
1601.23518,0.08303
1599.74539,0.09876
1598.25560,0.09743
1596.76581,0.09984
1595.27602,0.09505
1593.78623,0.09927
1592.29645,0.10373
1590.80666,0.08936
1589.31687,0.08818
1587.82708,0.09380
1586.33729,0.09726
1584.84750,0.07905
1583.35771,0.07380
1581.86793,0.08281
1580.37814,0.08965
1578.88835,0.08468
1577.39856,0.07646
1575.90877,0.07285
1574.41898,0.06774
1572.92920,0.05739
1571.43941,0.05080
1569.94962,0.04806
1568.45983,0.04534
1566.97004,0.03794
1565.48025,0.04896
1563.99047,0.04972
1562.50068,0.03735
1561.01089,0.03902
1559.52110,0.03262
1558.03131,0.03697
1556.54152,0.01791
1555.05173,0.03787
1553.56195,0.03419
1552.07216,0.02330
1550.58237,0.02799
1549.09258,0.02701
1547.60279,0.00809
1546.11300,0.01286
1544.62322,0.00581
1543.13343,0.00938
1541.64364,0.02437
1540.15385,0.02426
1538.66406,0.02418
1537.17427,0.02259
1535.68448,0.01795
1534.19470,0.02385
1532.70491,0.01247
1531.21512,0.02390
1529.72533,0.02594
1528.23554,0.01222
1526.74575,0.01320
1525.25597,0.02451
1523.76618,0.02160
1522.27639,0.03054
1520.78660,0.03798
1519.29681,0.04566
1517.80702,0.03561
1516.31724,0.03413
1514.82745,0.03772
1513.33766,0.03761
1511.84787,0.03752
1510.35808,0.04490
1508.86829,0.06042
1507.37850,0.04747
1505.88872,0.04551
1504.39893,0.06154
1502.90914,0.04669
1501.41935,0.06189
1499.92956,0.05301
1498.43977,0.06299
1496.94999,0.08637
1495.46020,0.09290
1493.97041,0.11107
1492.48062,0.10537
1490.99083,0.11373
1489.50104,0.13438
1488.01125,0.13993
1486.52147,0.14551
1485.03168,0.16798
1483.54189,0.17273
1482.05210,0.20709
1480.56231,0.21627
1479.07252,0.21517
1477.58274,0.24697
1476.09295,0.24746
1474.60316,0.25892
1473.11337,0.26033
1471.62358,0.27733
1470.13379,0.28952
1468.64401,0.31270
1467.15422,0.31903
1465.66443,0.34006
1464.17464,0.36112
1462.68485,0.36489
1461.19506,0.39914
1459.70527,0.45248
1458.21549,0.49927
1456.72570,0.56186
1455.23591,0.60498
1453.74612,0.66389
1452.25633,0.72480
1450.76654,0.74892
1449.27676,0.76036
1447.78697,0.74487
1446.29718,0.69960
1444.80739,0.69205
1443.31760,0.68452
1441.82781,0.62925
1440.33802,0.57772
1438.84824,0.53915
1437.35845,0.51857
1435.86866,0.50371
1434.37887,0.51276
1432.88908,0.56193
1431.39929,0.63501
1429.90951,0.68488
1428.41972,0.73785
1426.92993,0.81210
1425.44014,0.87059
1423.95035,0.88014
1422.46056,0.88970
1420.97078,0.95791
1419.48099,0.98320
1417.99120,0.97147
1416.50141,0.92121
1415.01162,0.88324
1413.52183,0.84508
1412.03204,0.80190
1410.54226,0.75041
1409.05247,0.71145
1407.56268,0.65344
1406.07289,0.58428
1404.58310,0.54122
1403.09331,0.49818
1401.60353,0.45298
1400.11374,0.39137
1398.62395,0.34994
1397.13416,0.30196
1395.64437,0.25291
1394.15458,0.20761
1392.66479,0.18490
1391.17501,0.15454
1389.68522,0.11611
1388.19543,0.08931
1386.70564,0.08444
1385.21585,0.07960
1383.72606,0.05419
1382.23628,0.02595
1380.74649,0.02316
1379.25670,0.02477
1377.76691,0.02246
1376.27712,0.01535
1374.78733,0.00915
1373.29755,0.00581
1371.80776,0.01420
1370.31797,0.01166
1368.82818,0.01286
1367.33839,0.01409
1365.84860,0.01316
1364.35881,0.03240
1362.86903,0.04181
1361.37924,0.05409
1359.88945,0.07582
1358.39966,0.09231
1356.90987,0.12482
1355.42008,0.15933
1353.93030,0.20526
1352.44051,0.25252
1350.95072,0.29981
1349.46093,0.36970
1347.97114,0.45757
1346.48135,0.49551
1344.99156,0.57993
1343.50178,0.65341
1342.01199,0.74554
1340.52220,0.78139
1339.03241,0.82492
1337.54262,0.85534
1336.05283,0.86967
1334.56305,0.88403
1333.07326,0.89567
1331.58347,0.92793
1330.09368,0.91180
1328.60389,0.87618
1327.11410,0.88178
1325.62432,0.85345
1324.13453,0.80673
1322.64474,0.75916
1321.15495,0.73155
1319.66516,0.71263
1318.17537,0.69372
1316.68558,0.65611
1315.19580,0.60734
1313.70601,0.52026
1312.21622,0.48775
1310.72643,0.48135
1309.23664,0.45240
1307.74685,0.39236
1306.25707,0.38472
1304.76728,0.36406
1303.27749,0.34342
1301.78770,0.31174
1300.29791,0.28228
1298.80812,0.23597
1297.31834,0.19955
1295.82855,0.18090
1294.33876,0.14846
1292.84897,0.11737
1291.35918,0.11610
1289.86939,0.11814
1288.37960,0.12020
1286.88982,0.10169
1285.40003,0.09307
1283.91024,0.08732
1282.42045,0.07414
1280.93066,0.06405
1279.44087,0.07043
1277.95109,0.06039
1276.46130,0.05432
1274.97151,0.04367
1273.48172,0.03305
1271.99193,0.03757
1270.50214,0.04627
1269.01235,0.04778
1267.52257,0.04689
1266.03278,0.03704
1264.54299,0.03642
1263.05320,0.03649
1261.56341,0.03679
1260.07362,0.03712
1258.58384,0.04186
1257.09405,0.00805
1255.60426,0.01393
1254.11447,0.00581
1252.62468,0.02214
1251.13489,0.03761
1249.64511,0.02396
1248.15532,0.02633
1246.66553,0.02423
1245.17574,0.02216
1243.68595,0.02022
1242.19616,0.02071
1240.70637,0.01663
1239.21659,0.02440
1237.72680,0.02847
1236.23701,0.01373
1234.74722,0.03428
1233.25743,0.02517
1231.76764,0.01608
1230.27786,0.02882
1228.78807,0.02515
1227.29828,0.02895
1225.80849,0.01108
1224.31870,0.01778
1222.82891,0.02319
1221.33912,0.01372
1219.84934,0.02093
1218.35955,0.02816
1216.86976,0.06719
1215.37997,0.05935
1213.89018,0.06359
1212.40039,0.06742
1210.91061,0.07170
1209.42082,0.06834
1207.93103,0.06698
1206.44124,0.06564
1204.95145,0.06783
1203.46166,0.05909
1201.97188,0.06659
1200.48209,0.06271
1198.99230,0.05974
1197.50251,0.06490
1196.01272,0.07403
1194.52293,0.06620
1193.03314,0.05839
1191.54336,0.03713
1190.05357,0.04460
1188.56378,0.03830
1187.07399,0.02083
1185.58420,0.04328
1184.09441,0.03353
1182.60463,0.02666
1181.11484,0.01982
1179.62505,0.02285
1178.13526,0.02285
1176.64547,0.01563
1175.15568,0.00581
1173.66589,0.01056
1172.17611,0.00853
1170.68632,0.01486
1169.19653,0.02121
1167.70674,0.02145
1166.21695,0.03048
1164.72716,0.02616
1163.23738,0.04028
1161.74759,0.06011
1160.25780,0.07143
1158.76801,0.07422
1157.27822,0.07704
1155.78843,0.08492
1154.29865,0.08077
1152.80886,0.10535
1151.31907,0.11221
1149.82928,0.10309
1148.33949,0.15185
1146.84970,0.14859
1145.35991,0.14536
1143.87013,0.13743
1142.38034,0.14597
1140.89055,0.15015
1139.40076,0.14712
1137.91097,0.17457
1136.42118,0.20577
1134.93140,0.20741
1133.44161,0.20908
1131.95182,0.22918
1130.46203,0.23111
1128.97224,0.25498
1127.48245,0.23922
1125.99266,0.24823
1124.50288,0.24062
1123.01309,0.24312
1121.52330,0.24563
1120.03351,0.23810
1118.54372,0.22554
1117.05393,0.25925
1115.56415,0.24324
1114.07436,0.24763
1112.58457,0.24032
1111.09478,0.23303
1109.60499,0.24845
1108.11520,0.25118
1106.62542,0.23904
1105.13563,0.23021
1103.64584,0.21351
1102.15605,0.22598
1100.66626,0.21920
1099.17647,0.21243
1097.68668,0.21665
1096.19690,0.20073
1094.70711,0.21201
1093.21732,0.21454
1091.72753,0.18686
1090.23774,0.19273
1088.74795,0.19863
1087.25817,0.18154
1085.76838,0.18156
1084.27859,0.17263
1082.78880,0.18410
1081.29901,0.20107
1079.80922,0.21193
1078.31943,0.21953
1076.82965,0.22715
1075.33986,0.25670
1073.85007,0.25539
1072.36028,0.22342
1070.87049,0.27342
1069.38070,0.26648
1067.89092,0.28805
1066.40113,0.30965
1064.91134,0.41234
1063.42155,0.49862
1061.93176,0.58426
1060.44197,0.66840
1058.95219,0.77207
1057.46240,0.81791
1055.97261,0.86377
1054.48282,0.92149
1052.99303,0.94615
1051.50324,0.99581
1050.01345,1.04111
1048.52367,1.04831
1047.03388,1.00810
1045.54409,0.96791
1044.05430,0.87176
1042.56451,0.80433
1041.07472,0.76761
1039.58494,0.70966
1038.09515,0.61207
1036.60536,0.57925
1035.11557,0.54646
1033.62578,0.49847
1032.13599,0.42332
1030.64620,0.35500
1029.15642,0.29524
1027.66663,0.27922
1026.17684,0.26323
1024.68705,0.22721
1023.19726,0.20239
1021.70747,0.16773
1020.21769,0.15654
1018.72790,0.14604
1017.23811,0.14114
1015.74832,0.13627
1014.25853,0.12934
1012.76874,0.11017
1011.27896,0.10745
1009.78917,0.10388
1008.29938,0.07974
1006.80959,0.07008
1005.31980,0.06045
1003.83001,0.04339
1002.34022,0.02351
1000.85044,0.04813
999.36065,0.05832
997.87086,0.06075
996.38107,0.06320
994.89128,0.07477
993.40149,0.08505
991.91171,0.11946
990.42192,0.12256
988.93213,0.15285
987.44234,0.14920
985.95255,0.14558
984.46276,0.13453
982.97297,0.13337
981.48319,0.12521
979.99340,0.10503
978.50361,0.09200
977.01382,0.07899
975.52403,0.05560
974.03424,0.04208
972.54446,0.02487
971.05467,0.01645
969.56488,0.02843
968.07509,0.01798
966.58530,0.00754
965.09551,0.01631
963.60573,0.00581
962.11594,0.00565
960.62615,0.01978
959.13636,0.01662
957.64657,0.01349
956.15678,0.01564
954.66699,0.02066
953.17721,0.01256
951.68742,0.04283
950.19763,0.04409
948.70784,0.04537
947.21805,0.07046
945.72826,0.07891
944.23848,0.09177
942.74869,0.11057
941.25890,0.13049
939.76911,0.12885
938.27932,0.12724
936.78953,0.15139
935.29974,0.15344
933.80996,0.18969
932.32017,0.18960
930.83038,0.20947
929.34059,0.22936
927.85080,0.24424
926.36101,0.26462
924.87123,0.30211
923.38144,0.34927
921.89165,0.37958
920.40186,0.40992
918.91207,0.50251
917.42228,0.58416
915.93250,0.73596
914.44271,0.94410
912.95292,1.05212
911.46313,1.16017
909.97334,1.35019
908.48355,1.62065
906.99376,1.82124
905.50398,1.92982
904.01419,1.95144
902.52440,1.97308
901.03461,2.00000
899.54482,1.93579
898.05503,1.73269
896.56525,1.56993
895.07546,1.46471
893.58567,1.35952
892.09588,1.09340
890.60609,0.85361
889.11630,0.66774
887.62651,0.45560
886.13673,0.38975
884.64694,0.32392
883.15715,0.25801
881.66736,0.19913
880.17757,0.14203
878.68778,0.11530
877.19800,0.08859
875.70821,0.06399
874.21842,0.04753
872.72863,0.04269
871.23884,0.02058
869.74905,0.02094
868.25927,0.02133
866.76948,0.02536
865.27969,0.02043
863.78990,0.04226
862.30011,0.05031
860.81032,0.05279
859.32053,0.05529
857.83075,0.07985
856.34096,0.06520
854.85117,0.10908
853.36138,0.11793
851.87159,0.13787
850.38180,0.15783
848.89202,0.17748
847.40223,0.19848
845.91244,0.19890
844.42265,0.20855
842.93286,0.21822
841.44307,0.24918
839.95329,0.25188
838.46350,0.27587
836.97371,0.28214
835.48392,0.28908
833.99413,0.29605
832.50434,0.28223
831.01455,0.27434
829.52477,0.25859
828.03498,0.21417
826.54519,0.21194
825.05540,0.20974
823.56561,0.17656
822.07582,0.16817
820.58604,0.12890
819.09625,0.13063
817.60646,0.13238
816.11667,0.13701
814.62688,0.14122
813.13709,0.13626
811.64730,0.14008
810.15752,0.13462
808.66773,0.12918
807.17794,0.14227
805.68815,0.16022
804.19836,0.16635
802.70857,0.16177
801.21879,0.15722
799.72900,0.13910
798.23921,0.13723
796.74942,0.13493
795.25963,0.14209
793.76984,0.14927
792.28006,0.14245
790.79027,0.18254
789.30048,0.19023
787.81069,0.23081
786.32090,0.23855
784.83111,0.24631
783.34132,0.29135
781.85154,0.34736
780.36175,0.37426
778.87196,0.38442
777.38217,0.39460
775.89238,0.42398
774.40259,0.45032
772.91281,0.41357
771.42302,0.39492
769.93323,0.37630
768.44344,0.35102
766.95365,0.31678
765.46386,0.27402
763.97407,0.20433
762.48429,0.18375
760.99450,0.16319
759.50471,0.13674
758.01492,0.10769
756.52513,0.09202
755.03534,0.09281
753.54556,0.09363
752.05577,0.09622
750.56598,0.09270
749.07619,0.07540
747.58640,0.05331
746.09661,0.03124
744.60683,0.04425
743.11704,0.02946
741.62725,0.02608
740.13746,0.01912
738.64767,0.01218
737.15788,0.00800
735.66809,0.00581
734.17831,0.00717
732.68852,0.00692
731.19873,0.00668
729.70894,0.01271
728.21915,0.01198
726.72936,0.01609
725.23958,0.01036
723.74979,0.01419
722.26000,0.01804
720.77021,0.00581
719.28042,0.00559
717.79063,0.00998
716.30084,0.01167
714.81106,0.01337
713.32127,0.00755
711.83148,0.01007
710.34169,0.02269
708.85190,0.02614
707.36211,0.02961
705.87233,0.01667
704.38254,0.04254
702.89275,0.04455
701.40296,0.04001
699.91317,0.03549
698.42338,0.04327
696.93360,0.06071
695.44381,0.09155
693.95402,0.09918
692.46423,0.10683
690.97444,0.12218
689.48465,0.16143
687.99486,0.17836
686.50508,0.18195
685.01529,0.18556
683.52550,0.20673
682.03571,0.22419
680.54592,0.24804
679.05613,0.24517
677.56635,0.24233
676.07656,0.24346
674.58677,0.24789
673.09698,0.21247
671.60719,0.18727
670.11740,0.16209
668.62761,0.16027
667.13783,0.13612
665.64804,0.12799
664.15825,0.11989
662.66846,0.11378
661.17867,0.07834
659.68888,0.06702
658.19910,0.04795
656.70931,0.02890
655.21952,0.04614
653.72973,0.03557
652.23994,0.04651
650.75015,0.05001
649.26037,0.05354
647.77058,0.04307
646.28079,0.03460
644.79100,0.02725
643.30121,0.02113
641.81142,0.01503
640.32163,0.02221
638.83185,0.03292
637.34206,0.02196
635.85227,0.01388
634.36248,0.00581
632.87269,0.01067
631.38290,0.00985
629.89312,0.00598
628.40333,0.00740
626.91354,0.00885
625.42375,0.00220
623.93396,0.02802
622.44417,0.02351
620.95438,0.01902
619.46460,0.00897
617.97481,0.03904
616.48502,0.05621
614.99523,0.06979
613.50544,0.08339
612.01565,0.13832
610.52587,0.15164
609.03608,0.18909
607.54629,0.21122
606.05650,0.23338
604.56671,0.28361
603.07692,0.31852
601.58714,0.32979
600.09735,0.34109
598.60756,0.38462
597.11777,0.41963
595.62798,0.45467
594.13819,0.43385
592.64840,0.41306
591.15862,0.37695
589.66883,0.32969
588.17904,0.26712
586.68925,0.23525
585.19946,0.20340
583.70967,0.15383
582.21989,0.13080
580.73010,0.11195
579.24031,0.09313
577.75052,0.07893
576.26073,0.06278
574.77094,0.05871
573.28115,0.06595
571.79137,0.07321
570.30158,0.06658
568.81179,0.09000
567.32200,0.09919
565.83221,0.10842
564.34242,0.11284
562.85264,0.14424
561.36285,0.14827
559.87306,0.16175
558.38327,0.17526
556.89348,0.18440
555.40369,0.19423
553.91391,0.20321
552.42412,0.21220
550.93433,0.22736
549.44454,0.19675
547.95475,0.20472
546.46496,0.19925
544.97517,0.19380
543.48539,0.24194
541.99560,0.26929
540.50581,0.30314
539.01602,0.33700
537.52623,0.38108
536.03644,0.40722
534.54666,0.40686
533.05687,0.42527
531.56708,0.44369
530.07729,0.49863
528.58750,0.55688
527.09771,0.58502
525.60792,0.61318
524.11814,0.65222
522.62835,0.71933
521.13856,0.78054
519.64877,0.79412
518.15898,0.80773
516.66919,0.86704
515.17941,0.89198
513.68962,0.88397
512.19983,0.87597
510.71004,0.84840
509.22025,0.75248
507.73046,0.66622
506.24068,0.61680
504.75089,0.56741
503.26110,0.46348
501.77131,0.38959
500.28152,0.34673
498.79173,0.30390
497.30194,0.24433
495.81216,0.18872
494.32237,0.16174
492.83258,0.13477
491.34279,0.10576
489.85300,0.08509
488.36321,0.08088
486.87343,0.08874
485.38364,0.09663
483.89385,0.08745
482.40406,0.10130
480.91427,0.09338
479.42448,0.08548
477.93469,0.14213
476.44491,0.15476
474.95512,0.17027
473.46533,0.18580
471.97554,0.21582
470.48575,0.20313
468.99596,0.19135
467.50618,0.17827
466.01639,0.16521
464.52660,0.15175
463.03681,0.11836
461.54702,0.11239
460.05723,0.10645
458.56745,0.05539
457.07766,0.04971
455.58787,0.04570
454.09808,0.04171
452.60829,0.03304
451.11850,0.01979
449.62871,0.01905
448.13893,0.01834
446.64914,0.00581
445.15935,0.01407
443.66956,0.03177
442.17977,0.03569
440.68998,0.03963
439.20020,0.01840
437.71041,0.03466
436.22062,0.03637
434.73083,0.03811
433.24104,0.03801
431.75125,0.04122
430.26146,0.04424
428.77168,0.04728
427.28189,0.02821
425.79210,0.02889
424.30231,0.03780
422.81252,0.04675
421.32273,0.06459
419.83295,0.02964
418.34316,0.02683
416.85337,0.02403
415.36358,0.00581
413.87379,0.02871
412.38400,0.03158
410.89422,0.03448
409.40443,0.03969
407.91464,0.03267
406.42485,0.04604
404.93506,0.03961
403.44527,0.03320
401.95548,0.04380
400.46570,0.02747
398.97591,0.02168
397.48612,0.01592
395.99633,0.02201
394.50654,0.01805
393.01675,0.01192
391.52697,0.00581
390.03718,0.03176
388.54739,0.03648
387.05760,0.03005
385.56781,0.02364
384.07802,0.02602
382.58824,0.00827
381.09845,0.00412
379.60866,0.00000
378.11887,0.01044
376.62908,0.01914
375.13929,0.02053
373.64950,0.02195
372.15972,0.02175
370.66993,0.01171
369.18014,0.01559
367.69035,0.01951
366.20056,0.02728
364.71077,0.02894
363.22099,0.02920
361.73120,0.02948
360.24141,0.03166
358.75162,0.04305
357.26183,0.03914
355.77204,0.03524
354.28225,0.05657
352.79247,0.04287
351.30268,0.04902
349.81289,0.05519
348.32310,0.06238
346.83331,0.05271
345.34352,0.04789
343.85374,0.04310
342.36395,0.06725
340.87416,0.04168
339.38437,0.03148
337.89458,0.02131
336.40479,0.04731
334.91501,0.03520
333.42522,0.02050
331.93543,0.00581
330.44564,0.01009
328.95585,0.03914
327.46606,0.03108
325.97627,0.02305
324.48649,0.03559
322.99670,0.08299
321.50691,0.07662
320.01712,0.07027
318.52733,0.05442
317.03754,0.06795
315.54776,0.06749
314.05797,0.06705
312.56818,0.07605
311.07839,0.07500
309.58860,0.06981
308.09881,0.06464
306.60902,0.04548
305.11924,0.04430
303.62945,0.02584
302.13966,0.00740
300.64987,0.01153
299.16008,0.00581
