1778.52000,0.00485
1777.03021,0.00533
1775.54042,0.01471
1774.05063,0.01297
1772.56085,0.01146
1771.07106,0.00977
1769.58127,0.00418
1768.09148,0.00377
1766.60169,0.00710
1765.11190,0.01273
1763.62212,0.01569
1762.13233,0.00920
1760.64254,0.01303
1759.15275,0.01360
1757.66296,0.00676
1756.17317,0.00819
1754.68339,0.00924
1753.19360,0.00598
1751.70381,0.01553
1750.21402,0.01562
1748.72423,0.01202
1747.23444,0.01669
1745.74465,0.01149
1744.25487,0.00837
1742.76508,0.01600
1741.27529,0.01479
1739.78550,0.02103
1738.29571,0.02131
1736.80592,0.00676
1735.31614,0.01220
1733.82635,0.02055
1732.33656,0.01944
1730.84677,0.01691
1729.35698,0.01028
1727.86719,0.01666
1726.37740,0.00616
1724.88762,0.00640
1723.39783,0.00543
1721.90804,0.01006
1720.41825,0.01079
1718.92846,0.00928
1717.43867,0.00634
1715.94889,0.01354
1714.45910,0.01251
1712.96931,0.00676
1711.47952,0.00524
1709.98973,0.01117
1708.49994,0.00557
1707.01016,0.00732
1705.52037,0.00909
1704.03058,0.00480
1702.54079,0.01064
1701.05100,0.01012
1699.56121,0.00755
1698.07142,0.00542
1696.58164,0.00599
1695.09185,0.00676
1693.60206,0.01340
1692.11227,0.02336
1690.62248,0.01994
1689.13269,0.01201
1687.64291,0.01462
1686.15312,0.01519
1684.66333,0.02548
1683.17354,0.01909
1681.68375,0.02633
1680.19396,0.02494
1678.70417,0.02976
1677.21439,0.04533
1675.72460,0.03554
1674.23481,0.04250
1672.74502,0.04989
1671.25523,0.04760
1669.76544,0.05360
1668.27566,0.04806
1666.78587,0.06132
1665.29608,0.06862
1663.80629,0.06584
1662.31650,0.07216
1660.82671,0.07768
1659.33693,0.07889
1657.84714,0.07909
1656.35735,0.07416
1654.86756,0.07441
1653.37777,0.06911
1651.88798,0.06611
1650.39819,0.07860
1648.90841,0.07007
1647.41862,0.07127
1645.92883,0.07600
1644.43904,0.08075
1642.94925,0.08428
1641.45946,0.07216
1639.96968,0.07678
1638.47989,0.08616
1636.99010,0.08587
1635.50031,0.07633
1634.01052,0.06866
1632.52073,0.08619
1631.03094,0.07506
1629.54116,0.07015
1628.05137,0.08898
1626.56158,0.08680
1625.07179,0.09991
1623.58200,0.08725
1622.09221,0.07420
1620.60243,0.07851
1619.11264,0.09089
1617.62285,0.09050
1616.13306,0.08993
1614.64327,0.07886
1613.15348,0.08556
1611.66370,0.08774
1610.17391,0.08664
1608.68412,0.09135
1607.19433,0.10310
1605.70454,0.08062
1604.21475,0.09014
1602.72496,0.09969
1601.23518,0.07480
1599.74539,0.08357
1598.25560,0.07401
1596.76581,0.08654
1595.27602,0.08032
1593.78623,0.08011
1592.29645,0.07538
1590.80666,0.06882
1589.31687,0.07652
1587.82708,0.06155
1586.33729,0.07012
1584.84750,0.06820
1583.35771,0.06526
1581.86793,0.07185
1580.37814,0.07721
1578.88835,0.07600
1577.39856,0.07358
1575.90877,0.06870
1574.41898,0.05519
1572.92920,0.06274
1571.43941,0.05546
1569.94962,0.04531
1568.45983,0.03519
1566.97004,0.03851
1565.48025,0.03648
1563.99047,0.05428
1562.50068,0.03683
1561.01089,0.03673
1559.52110,0.03068
1558.03131,0.03991
1556.54152,0.03019
1555.05173,0.03927
1553.56195,0.02815
1552.07216,0.01870
1550.58237,0.00000
1549.09258,0.00368
1547.60279,0.00430
1546.11300,0.00431
1544.62322,0.00642
1543.13343,0.01123
1541.64364,0.00967
1540.15385,0.00772
1538.66406,0.00579
1537.17427,0.01400
1535.68448,0.00676
1534.19470,0.02569
1532.70491,0.02257
1531.21512,0.03062
1529.72533,0.01909
1528.23554,0.02389
1526.74575,0.02974
1525.25597,0.03066
1523.76618,0.02088
1522.27639,0.02701
1520.78660,0.02656
1519.29681,0.03459
1517.80702,0.04451
1516.31724,0.06311
1514.82745,0.05925
1513.33766,0.05933
1511.84787,0.05944
1510.35808,0.05256
1508.86829,0.05230
1507.37850,0.04464
1505.88872,0.05144
1504.39893,0.05848
1502.90914,0.05337
1501.41935,0.06334
1499.92956,0.07540
1498.43977,0.07778
1496.94999,0.08308
1495.46020,0.08778
1493.97041,0.10736
1492.48062,0.10923
1490.99083,0.09461
1489.50104,0.11963
1488.01125,0.12146
1486.52147,0.12331
1485.03168,0.15954
1483.54189,0.17702
1482.05210,0.18483
1480.56231,0.19122
1479.07252,0.20918
1477.58274,0.22366
1476.09295,0.21981
1474.60316,0.24733
1473.11337,0.23630
1471.62358,0.25955
1470.13379,0.25331
1468.64401,0.27268
1467.15422,0.28093
1465.66443,0.29623
1464.17464,0.31154
1462.68485,0.33369
1461.19506,0.36886
1459.70527,0.41643
1458.21549,0.44959
1456.72570,0.51474
1455.23591,0.54382
1453.74612,0.59788
1452.25633,0.63526
1450.76654,0.66503
1449.27676,0.69874
1447.78697,0.65841
1446.29718,0.66844
1444.80739,0.64095
1443.31760,0.61348
1441.82781,0.56974
1440.33802,0.53819
1438.84824,0.48562
1437.35845,0.47269
1435.86866,0.46474
1434.37887,0.47125
1432.88908,0.52854
1431.39929,0.58915
1429.90951,0.67805
1428.41972,0.72262
1426.92993,0.74926
1425.44014,0.78398
1423.95035,0.80169
1422.46056,0.81943
1420.97078,0.84225
1419.48099,0.90553
1417.99120,0.87703
1416.50141,0.84628
1415.01162,0.81328
1413.52183,0.77144
1412.03204,0.72797
1410.54226,0.68865
1409.05247,0.64729
1407.56268,0.58863
1406.07289,0.54917
1404.58310,0.51737
1403.09331,0.48560
1401.60353,0.43941
1400.11374,0.40109
1398.62395,0.35164
1397.13416,0.28303
1395.64437,0.23611
1394.15458,0.22429
1392.66479,0.16875
1391.17501,0.15450
1389.68522,0.13821
1388.19543,0.09451
1386.70564,0.09312
1385.21585,0.09176
1383.72606,0.06484
1382.23628,0.05341
1380.74649,0.04552
1379.25670,0.03352
1377.76691,0.02588
1376.27712,0.01641
1374.78733,0.00676
1373.29755,0.00733
1371.80776,0.01370
1370.31797,0.01742
1368.82818,0.02002
1367.33839,0.02265
1365.84860,0.03964
1364.35881,0.05212
1362.86903,0.06193
1361.37924,0.07549
1359.88945,0.08061
1358.39966,0.10082
1356.90987,0.12785
1355.42008,0.18029
1353.93030,0.22491
1352.44051,0.25337
1350.95072,0.28184
1349.46093,0.35500
1347.97114,0.41932
1346.48135,0.48965
1344.99156,0.56557
1343.50178,0.59674
1342.01199,0.68385
1340.52220,0.72332
1339.03241,0.74405
1337.54262,0.75489
1336.05283,0.78144
1334.56305,0.80801
1333.07326,0.86865
1331.58347,0.86205
1330.09368,0.86456
1328.60389,0.83882
1327.11410,0.79330
1325.62432,0.78288
1324.13453,0.76196
1322.64474,0.73447
1321.15495,0.68389
1319.66516,0.65809
1318.17537,0.63231
1316.68558,0.58985
1315.19580,0.53586
1313.70601,0.50645
1312.21622,0.48345
1310.72643,0.44480
1309.23664,0.41256
1307.74685,0.38263
1306.25707,0.34074
1304.76728,0.31818
1303.27749,0.29563
1301.78770,0.26889
1300.29791,0.24649
1298.80812,0.19070
1297.31834,0.18858
1295.82855,0.16378
1294.33876,0.13055
1292.84897,0.12107
1291.35918,0.09614
1289.86939,0.09455
1288.37960,0.09298
1286.88982,0.08772
1285.40003,0.09899
1283.91024,0.07315
1282.42045,0.06095
1280.93066,0.06342
1279.44087,0.05291
1277.95109,0.03377
1276.46130,0.04395
1274.97151,0.03187
1273.48172,0.01981
1271.99193,0.03233
1270.50214,0.02362
1269.01235,0.03598
1267.52257,0.02009
1266.03278,0.03023
1264.54299,0.03957
1263.05320,0.02830
1261.56341,0.02221
1260.07362,0.01614
1258.58384,0.01443
1257.09405,0.01481
1255.60426,0.00676
1254.11447,0.00751
1252.62468,0.00726
1251.13489,0.01320
1249.64511,0.01173
1248.15532,0.02060
1246.66553,0.01918
1245.17574,0.01779
1243.68595,0.03643
1242.19616,0.02044
1240.70637,0.00859
1239.21659,0.03164
1237.72680,0.00994
1236.23701,0.00683
1234.74722,0.00993
1233.25743,0.02142
1231.76764,0.03293
1230.27786,0.02661
1228.78807,0.01640
1227.29828,0.03180
1225.80849,0.01442
1224.31870,0.00676
1222.82891,0.01780
1221.33912,0.02969
1219.84934,0.03831
1218.35955,0.04695
1216.86976,0.05932
1215.37997,0.07791
1213.89018,0.07156
1212.40039,0.05760
1210.91061,0.06327
1209.42082,0.06730
1207.93103,0.06095
1206.44124,0.05461
1204.95145,0.06636
1203.46166,0.04841
1201.97188,0.05938
1200.48209,0.04664
1198.99230,0.04198
1197.50251,0.05116
1196.01272,0.05067
1194.52293,0.05030
1193.03314,0.04996
1191.54336,0.04789
1190.05357,0.03367
1188.56378,0.02917
1187.07399,0.03605
1185.58420,0.02293
1184.09441,0.02387
1182.60463,0.02926
1181.11484,0.03469
1179.62505,0.02806
1178.13526,0.03260
1176.64547,0.03614
1175.15568,0.02484
1173.66589,0.00676
1172.17611,0.01693
1170.68632,0.01804
1169.19653,0.01918
1167.70674,0.02530
1166.21695,0.03124
1164.72716,0.03740
1163.23738,0.04503
1161.74759,0.05269
1160.25780,0.05645
1158.76801,0.06209
1157.27822,0.06775
1155.78843,0.07014
1154.29865,0.06100
1152.80886,0.07953
1151.31907,0.09705
1149.82928,0.11191
1148.33949,0.12804
1146.84970,0.12551
1145.35991,0.12302
1143.87013,0.13075
1142.38034,0.13583
1140.89055,0.14713
1139.40076,0.14978
1137.91097,0.18196
1136.42118,0.20157
1134.93140,0.20141
1133.44161,0.20127
1131.95182,0.21869
1130.46203,0.22148
1128.97224,0.21522
1127.48245,0.23375
1125.99266,0.21784
1124.50288,0.19948
1123.01309,0.20240
1121.52330,0.20533
1120.03351,0.22088
1118.54372,0.22243
1117.05393,0.20254
1115.56415,0.22703
1114.07436,0.23669
1112.58457,0.22595
1111.09478,0.21523
1109.60499,0.22724
1108.11520,0.22771
1106.62542,0.23233
1105.13563,0.24234
1103.64584,0.22700
1102.15605,0.19580
1100.66626,0.20248
1099.17647,0.20918
1097.68668,0.20858
1096.19690,0.22410
1094.70711,0.19735
1093.21732,0.18465
1091.72753,0.16682
1090.23774,0.16841
1088.74795,0.17002
1087.25817,0.16567
1085.76838,0.17516
1084.27859,0.16508
1082.78880,0.17071
1081.29901,0.15181
1079.80922,0.16532
1078.31943,0.16658
1076.82965,0.16787
1075.33986,0.19693
1073.85007,0.19362
1072.36028,0.19755
1070.87049,0.21699
1069.38070,0.24944
1067.89092,0.27099
1066.40113,0.29256
1064.91134,0.32323
1063.42155,0.39993
1061.93176,0.48408
1060.44197,0.56042
1058.95219,0.63823
1057.46240,0.68346
1055.97261,0.72872
1054.48282,0.83465
1052.99303,0.89089
1051.50324,0.87804
1050.01345,0.88048
1048.52367,0.83363
1047.03388,0.82756
1045.54409,0.82150
1044.05430,0.77122
1042.56451,0.71787
1041.07472,0.69673
1039.58494,0.65580
1038.09515,0.57178
1036.60536,0.53328
1035.11557,0.49480
1033.62578,0.43787
1032.13599,0.39439
1030.64620,0.33793
1029.15642,0.29572
1027.66663,0.26768
1026.17684,0.23966
1024.68705,0.21610
1023.19726,0.15831
1021.70747,0.14883
1020.21769,0.13875
1018.72790,0.12477
1017.23811,0.11866
1015.74832,0.11257
1014.25853,0.10176
1012.76874,0.09614
1011.27896,0.10229
1009.78917,0.10600
1008.29938,0.05815
1006.80959,0.04952
1005.31980,0.04092
1003.83001,0.01646
1002.34022,0.00790
1000.85044,0.01258
999.36065,0.01954
997.87086,0.02478
996.38107,0.03004
994.89128,0.04513
993.40149,0.07798
991.91171,0.09930
990.42192,0.12230
988.93213,0.10819
987.44234,0.10534
985.95255,0.10252
984.46276,0.12313
982.97297,0.09488
981.48319,0.09429
979.99340,0.07104
978.50361,0.06483
977.01382,0.05864
975.52403,0.03669
974.03424,0.01106
972.54446,0.01763
971.05467,0.01103
969.56488,0.01682
968.07509,0.01687
966.58530,0.01693
965.09551,0.00898
963.60573,0.01363
962.11594,0.00676
960.62615,0.01422
959.13636,0.01273
957.64657,0.01127
956.15678,0.01261
954.66699,0.02657
953.17721,0.03332
951.68742,0.02773
950.19763,0.03247
948.70784,0.03723
947.21805,0.04883
945.72826,0.08480
944.23848,0.08283
942.74869,0.09739
941.25890,0.12868
939.76911,0.13163
938.27932,0.13460
936.78953,0.15153
935.29974,0.17838
933.80996,0.19411
932.32017,0.19130
930.83038,0.20430
929.34059,0.21732
927.85080,0.24181
926.36101,0.26675
924.87123,0.29892
923.38144,0.34061
921.89165,0.36716
920.40186,0.39374
918.91207,0.46872
917.42228,0.59076
915.93250,0.71778
914.44271,0.91744
912.95292,1.03171
911.46313,1.14601
909.97334,1.36102
908.48355,1.57047
906.99376,1.75685
905.50398,1.89063
904.01419,1.94161
902.52440,1.99261
901.03461,2.00000
899.54482,1.99297
898.05503,1.88879
896.56525,1.68190
895.07546,1.51649
893.58567,1.35111
892.09588,1.06279
890.60609,0.84196
889.11630,0.64921
887.62651,0.46433
886.13673,0.39810
884.64694,0.33189
883.15715,0.23373
881.66736,0.17830
880.17757,0.12805
878.68778,0.11671
877.19800,0.10540
875.70821,0.05584
874.21842,0.04427
872.72863,0.03685
871.23884,0.02079
869.74905,0.02053
868.25927,0.02030
866.76948,0.01442
865.27969,0.01929
863.78990,0.03326
862.30011,0.03797
860.81032,0.04425
859.32053,0.05056
857.83075,0.07535
856.34096,0.08841
854.85117,0.09077
853.36138,0.10697
851.87159,0.11784
850.38180,0.12872
848.89202,0.14128
847.40223,0.16460
845.91244,0.17865
844.42265,0.18705
842.93286,0.19548
841.44307,0.20837
839.95329,0.21798
838.46350,0.23194
836.97371,0.24201
835.48392,0.24220
833.99413,0.24242
832.50434,0.24947
831.01455,0.24024
829.52477,0.22010
828.03498,0.18183
826.54519,0.17835
825.05540,0.17490
823.56561,0.13897
822.07582,0.14783
820.58604,0.14393
819.09625,0.14109
817.60646,0.13826
816.11667,0.10865
814.62688,0.10958
813.13709,0.12705
811.64730,0.13217
810.15752,0.13493
808.66773,0.13772
807.17794,0.11010
805.68815,0.10685
804.19836,0.10487
802.70857,0.10847
801.21879,0.11211
799.72900,0.11287
798.23921,0.11449
796.74942,0.11943
795.25963,0.12212
793.76984,0.12484
792.28006,0.13501
790.79027,0.13386
789.30048,0.15419
787.81069,0.18506
786.32090,0.20090
784.83111,0.21676
783.34132,0.24275
781.85154,0.28074
780.36175,0.32452
778.87196,0.33181
777.38217,0.33913
775.89238,0.36050
774.40259,0.39510
772.91281,0.37071
771.42302,0.35233
769.93323,0.33398
768.44344,0.30987
766.95365,0.25216
765.46386,0.20066
763.97407,0.16714
762.48429,0.16159
760.99450,0.15607
759.50471,0.14118
758.01492,0.11869
756.52513,0.10076
755.03534,0.09306
753.54556,0.08539
752.05577,0.07310
750.56598,0.06868
749.07619,0.05623
747.58640,0.04855
746.09661,0.04089
744.60683,0.03842
743.11704,0.02958
741.62725,0.01869
740.13746,0.01701
738.64767,0.01536
737.15788,0.01693
735.66809,0.00676
734.17831,0.00645
732.68852,0.01177
731.19873,0.01711
729.70894,0.01453
728.21915,0.02229
726.72936,0.01191
725.23958,0.01106
723.74979,0.01124
722.26000,0.01144
720.77021,0.01074
719.28042,0.00676
717.79063,0.01748
716.30084,0.01357
714.81106,0.00969
713.32127,0.02461
711.83148,0.03481
710.34169,0.01635
708.85190,0.01700
707.36211,0.01767
705.87233,0.03787
704.38254,0.02549
702.89275,0.05523
701.40296,0.05270
699.91317,0.05019
698.42338,0.05132
696.93360,0.08115
695.44381,0.08789
693.95402,0.09064
692.46423,0.09341
690.97444,0.11962
689.48465,0.14318
687.99486,0.16841
686.50508,0.18345
685.01529,0.19851
683.52550,0.23990
682.03571,0.23985
680.54592,0.26190
679.05613,0.26096
677.56635,0.26005
676.07656,0.25473
674.58677,0.24139
673.09698,0.22003
671.60719,0.21385
670.11740,0.20770
668.62761,0.18063
667.13783,0.13687
665.64804,0.12264
664.15825,0.10843
662.66846,0.08249
661.17867,0.06936
659.68888,0.05192
658.19910,0.05102
656.70931,0.05013
655.21952,0.04267
653.72973,0.03998
652.23994,0.05980
650.75015,0.06242
649.26037,0.06506
647.77058,0.03585
646.28079,0.04669
644.79100,0.05239
643.30121,0.04595
641.81142,0.03953
640.32163,0.03416
638.83185,0.01562
637.34206,0.01422
635.85227,0.01048
634.36248,0.00676
632.87269,0.01753
631.38290,0.02358
629.89312,0.02677
628.40333,0.02586
626.91354,0.02497
625.42375,0.02988
623.93396,0.02718
622.44417,0.02182
620.95438,0.01649
619.46460,0.02005
617.97481,0.02756
616.48502,0.06913
614.99523,0.07700
613.50544,0.08488
612.01565,0.11374
610.52587,0.12466
609.03608,0.16264
607.54629,0.17805
606.05650,0.19349
604.56671,0.24412
603.07692,0.31480
601.58714,0.33680
600.09735,0.35883
598.60756,0.37304
597.11777,0.42112
595.62798,0.38937
594.13819,0.38303
592.64840,0.37670
591.15862,0.37618
589.66883,0.29791
588.17904,0.27804
586.68925,0.24045
585.19946,0.20289
583.70967,0.14019
582.21989,0.10412
580.73010,0.09984
579.24031,0.09559
577.75052,0.07404
576.26073,0.05725
574.77094,0.06937
573.28115,0.05862
571.79137,0.04789
570.30158,0.04997
568.81179,0.08199
567.32200,0.07453
565.83221,0.06709
564.34242,0.09176
562.85264,0.09933
561.36285,0.11291
559.87306,0.11402
558.38327,0.11516
556.89348,0.16368
555.40369,0.17260
553.91391,0.17186
552.42412,0.17113
550.93433,0.14836
549.44454,0.15841
547.95475,0.16601
546.46496,0.16518
544.97517,0.16437
543.48539,0.18628
541.99560,0.20800
540.50581,0.22511
539.01602,0.24224
537.52623,0.30902
536.03644,0.35168
534.54666,0.37683
533.05687,0.40406
531.56708,0.43132
530.07729,0.44395
528.58750,0.52325
527.09771,0.54718
525.60792,0.57113
524.11814,0.64183
522.62835,0.67460
521.13856,0.71688
519.64877,0.72751
518.15898,0.73817
516.66919,0.78878
515.17941,0.76678
513.68962,0.77648
512.19983,0.78621
510.71004,0.75562
509.22025,0.72815
507.73046,0.65553
506.24068,0.59241
504.75089,0.52933
503.26110,0.44027
501.77131,0.35866
500.28152,0.31741
498.79173,0.27618
497.30194,0.19918
495.81216,0.14490
494.32237,0.13955
492.83258,0.13421
491.34279,0.10559
489.85300,0.07451
488.36321,0.05439
486.87343,0.05029
485.38364,0.04621
483.89385,0.05339
482.40406,0.08330
480.91427,0.08672
479.42448,0.09016
477.93469,0.11251
476.44491,0.12105
474.95512,0.13447
473.46533,0.14791
471.97554,0.15364
470.48575,0.18497
468.99596,0.17528
467.50618,0.16158
466.01639,0.14791
464.52660,0.10280
463.03681,0.06906
461.54702,0.06464
460.05723,0.06024
458.56745,0.03421
457.07766,0.00676
455.58787,0.01691
454.09808,0.02708
452.60829,0.01252
451.11850,0.01139
449.62871,0.01803
448.13893,0.02469
446.64914,0.02528
445.15935,0.01270
443.66956,0.01437
442.17977,0.01855
440.68998,0.02275
439.20020,0.03688
437.71041,0.03122
436.22062,0.02611
434.73083,0.02101
433.24104,0.04039
431.75125,0.02679
430.26146,0.03136
428.77168,0.03596
427.28189,0.04615
425.79210,0.06070
424.30231,0.05877
422.81252,0.05686
421.32273,0.03249
419.83295,0.03351
418.34316,0.02012
416.85337,0.00676
415.36358,0.01306
413.87379,0.02826
412.38400,0.03523
410.89422,0.04223
409.40443,0.04306
407.91464,0.03133
406.42485,0.03180
404.93506,0.02785
403.44527,0.02393
401.95548,0.03870
400.46570,0.03410
398.97591,0.03624
397.48612,0.03839
395.99633,0.02355
394.50654,0.03597
393.01675,0.02861
391.52697,0.02127
390.03718,0.01415
388.54739,0.02336
387.05760,0.01504
385.56781,0.00676
384.07802,0.01001
382.58824,0.03350
381.09845,0.02297
379.60866,0.01247
378.11887,0.00591
376.62908,0.00536
375.13929,0.00947
373.64950,0.01361
372.15972,0.02798
370.66993,0.01886
369.18014,0.01280
367.69035,0.00676
366.20056,0.02224
364.71077,0.02660
363.22099,0.02810
361.73120,0.02963
360.24141,0.04355
358.75162,0.04286
357.26183,0.04301
355.77204,0.04318
354.28225,0.02770
352.79247,0.04712
351.30268,0.03756
349.81289,0.02804
348.32310,0.04711
346.83331,0.04969
345.34352,0.04663
343.85374,0.04360
342.36395,0.03347
340.87416,0.02769
339.38437,0.03081
337.89458,0.03396
336.40479,0.03713
334.91501,0.03702
333.42522,0.02188
331.93543,0.00676
330.44564,0.01136
328.95585,0.00752
327.46606,0.01237
325.97627,0.01725
324.48649,0.01679
322.99670,0.04730
321.50691,0.05730
320.01712,0.06733
318.52733,0.09357
317.03754,0.09302
315.54776,0.09611
314.05797,0.09922
312.56818,0.08822
311.07839,0.06342
309.58860,0.06763
308.09881,0.07187
306.60902,0.05766
305.11924,0.07195
303.62945,0.04418
302.13966,0.01643
300.64987,0.00707
299.16008,0.00676
