1778.52000,0.01162
1777.03021,0.01124
1775.54042,0.01973
1774.05063,0.01527
1772.56085,0.01654
1771.07106,0.01586
1769.58127,0.01147
1768.09148,0.00613
1766.60169,0.00808
1765.11190,0.01064
1763.62212,0.01048
1762.13233,0.01270
1760.64254,0.01396
1759.15275,0.01170
1757.66296,0.02048
1756.17317,0.01061
1754.68339,0.01059
1753.19360,0.01374
1751.70381,0.01338
1750.21402,0.00576
1748.72423,0.00977
1747.23444,0.00653
1745.74465,0.00646
1744.25487,0.00739
1742.76508,0.00678
1741.27529,0.01252
1739.78550,0.01003
1738.29571,0.01562
1736.80592,0.01298
1735.31614,0.01154
1733.82635,0.01032
1732.33656,0.00579
1730.84677,0.00816
1729.35698,0.00544
1727.86719,0.00000
1726.37740,0.00460
1724.88762,0.00628
1723.39783,0.01133
1721.90804,0.00716
1720.41825,0.00930
1718.92846,0.00675
1717.43867,0.00698
1715.94889,0.01077
1714.45910,0.00613
1712.96931,0.00784
1711.47952,0.00270
1709.98973,0.00741
1708.49994,0.01174
1707.01016,0.00726
1705.52037,0.00280
1704.03058,0.01095
1702.54079,0.00536
1701.05100,0.01335
1699.56121,0.00388
1698.07142,0.00840
1696.58164,0.01197
1695.09185,0.00613
1693.60206,0.00992
1692.11227,0.01197
1690.62248,0.01366
1689.13269,0.01556
1687.64291,0.01473
1686.15312,0.02120
1684.66333,0.01374
1683.17354,0.02321
1681.68375,0.01246
1680.19396,0.01352
1678.70417,0.02050
1677.21439,0.02712
1675.72460,0.02766
1674.23481,0.03629
1672.74502,0.04965
1671.25523,0.03907
1669.76544,0.05229
1668.27566,0.05138
1666.78587,0.05502
1665.29608,0.06674
1663.80629,0.06571
1662.31650,0.05998
1660.82671,0.07354
1659.33693,0.07494
1657.84714,0.07735
1656.35735,0.06740
1654.86756,0.06769
1653.37777,0.07017
1651.88798,0.07817
1650.39819,0.06969
1648.90841,0.07715
1647.41862,0.07088
1645.92883,0.08114
1644.43904,0.09143
1642.94925,0.08386
1641.45946,0.09340
1639.96968,0.08175
1638.47989,0.09213
1636.99010,0.09547
1635.50031,0.08192
1634.01052,0.08668
1632.52073,0.08025
1631.03094,0.07602
1629.54116,0.09499
1628.05137,0.09670
1626.56158,0.07446
1625.07179,0.09979
1623.58200,0.09057
1622.09221,0.09237
1620.60243,0.08751
1619.11264,0.09605
1617.62285,0.10028
1616.13306,0.08626
1614.64327,0.08406
1613.15348,0.08777
1611.66370,0.09564
1610.17391,0.09704
1608.68412,0.10004
1607.19433,0.10641
1605.70454,0.09708
1604.21475,0.09622
1602.72496,0.09539
1601.23518,0.09399
1599.74539,0.09183
1598.25560,0.08517
1596.76581,0.08856
1595.27602,0.09139
1593.78623,0.08775
1592.29645,0.08728
1590.80666,0.08723
1589.31687,0.07974
1587.82708,0.07875
1586.33729,0.07484
1584.84750,0.07528
1583.35771,0.08714
1581.86793,0.07072
1580.37814,0.07929
1578.88835,0.06587
1577.39856,0.07252
1575.90877,0.08037
1574.41898,0.05563
1572.92920,0.04918
1571.43941,0.04925
1569.94962,0.04855
1568.45983,0.04788
1566.97004,0.04467
1565.48025,0.03717
1563.99047,0.04089
1562.50068,0.04051
1561.01089,0.03858
1559.52110,0.03333
1558.03131,0.03754
1556.54152,0.03136
1555.05173,0.02835
1553.56195,0.01671
1552.07216,0.02416
1550.58237,0.00000
1549.09258,0.01154
1547.60279,0.01269
1546.11300,0.00482
1544.62322,0.01289
1543.13343,0.02021
1541.64364,0.00377
1540.15385,0.00668
1538.66406,0.00962
1537.17427,0.01022
1535.68448,0.00613
1534.19470,0.00865
1532.70491,0.01237
1531.21512,0.02358
1529.72533,0.01477
1528.23554,0.01168
1526.74575,0.02120
1525.25597,0.02484
1523.76618,0.01397
1522.27639,0.02591
1520.78660,0.04004
1519.29681,0.03592
1517.80702,0.03477
1516.31724,0.05074
1514.82745,0.06065
1513.33766,0.05387
1511.84787,0.04712
1510.35808,0.04648
1508.86829,0.05707
1507.37850,0.03703
1505.88872,0.04688
1504.39893,0.04968
1502.90914,0.05133
1501.41935,0.05634
1499.92956,0.07218
1498.43977,0.06996
1496.94999,0.07701
1495.46020,0.08212
1493.97041,0.08685
1492.48062,0.10242
1490.99083,0.10406
1489.50104,0.11595
1488.01125,0.12029
1486.52147,0.12465
1485.03168,0.17218
1483.54189,0.18160
1482.05210,0.19753
1480.56231,0.20229
1479.07252,0.21788
1477.58274,0.22760
1476.09295,0.23439
1474.60316,0.25201
1473.11337,0.25650
1471.62358,0.25609
1470.13379,0.28283
1468.64401,0.28876
1467.15422,0.30631
1465.66443,0.31347
1464.17464,0.32065
1462.68485,0.36028
1461.19506,0.38244
1459.70527,0.44531
1458.21549,0.49857
1456.72570,0.54812
1455.23591,0.59317
1453.74612,0.61742
1452.25633,0.69023
1450.76654,0.71865
1449.27676,0.74553
1447.78697,0.71603
1446.29718,0.68558
1444.80739,0.67155
1443.31760,0.65756
1441.82781,0.61185
1440.33802,0.56871
1438.84824,0.52796
1437.35845,0.50610
1435.86866,0.51276
1434.37887,0.54144
1432.88908,0.58293
1431.39929,0.65804
1429.90951,0.74418
1428.41972,0.80853
1426.92993,0.84068
1425.44014,0.85811
1423.95035,0.89100
1422.46056,0.92391
1420.97078,0.93827
1419.48099,0.97309
1417.99120,0.96982
1416.50141,0.94809
1415.01162,0.90164
1413.52183,0.84204
1412.03204,0.80958
1410.54226,0.76162
1409.05247,0.70190
1407.56268,0.64436
1406.07289,0.59765
1404.58310,0.57426
1403.09331,0.55088
1401.60353,0.48086
1400.11374,0.41991
1398.62395,0.37666
1397.13416,0.31359
1395.64437,0.27158
1394.15458,0.22251
1392.66479,0.18132
1391.17501,0.15077
1389.68522,0.13911
1388.19543,0.12256
1386.70564,0.10692
1385.21585,0.09130
1383.72606,0.07011
1382.23628,0.04717
1380.74649,0.04155
1379.25670,0.03182
1377.76691,0.02684
1376.27712,0.02325
1374.78733,0.00613
1373.29755,0.01912
1371.80776,0.01032
1370.31797,0.00921
1368.82818,0.01146
1367.33839,0.01374
1365.84860,0.02508
1364.35881,0.02977
1362.86903,0.05294
1361.37924,0.07182
1359.88945,0.10016
1358.39966,0.11143
1356.90987,0.13883
1355.42008,0.18296
1353.93030,0.24872
1352.44051,0.27374
1350.95072,0.29878
1349.46093,0.37916
1347.97114,0.43402
1346.48135,0.53332
1344.99156,0.59019
1343.50178,0.66143
1342.01199,0.74488
1340.52220,0.81990
1339.03241,0.81517
1337.54262,0.82618
1336.05283,0.86129
1334.56305,0.89642
1333.07326,0.92518
1331.58347,0.93944
1330.09368,0.91441
1328.60389,0.91515
1327.11410,0.84380
1325.62432,0.81609
1324.13453,0.83144
1322.64474,0.77981
1321.15495,0.74786
1319.66516,0.72241
1318.17537,0.69699
1316.68558,0.62541
1315.19580,0.57095
1313.70601,0.54481
1312.21622,0.50141
1310.72643,0.48829
1309.23664,0.46694
1307.74685,0.41201
1306.25707,0.38855
1304.76728,0.36364
1303.27749,0.33875
1301.78770,0.29944
1300.29791,0.24797
1298.80812,0.23583
1297.31834,0.20210
1295.82855,0.16878
1294.33876,0.15455
1292.84897,0.11421
1291.35918,0.11004
1289.86939,0.10502
1288.37960,0.10002
1286.88982,0.08670
1285.40003,0.08853
1283.91024,0.08056
1282.42045,0.06416
1280.93066,0.06783
1279.44087,0.05816
1277.95109,0.06030
1276.46130,0.04774
1274.97151,0.04197
1273.48172,0.03623
1271.99193,0.03454
1270.50214,0.02541
1269.01235,0.03890
1267.52257,0.03709
1266.03278,0.03058
1264.54299,0.02567
1263.05320,0.02256
1261.56341,0.01760
1260.07362,0.01266
1258.58384,0.01532
1257.09405,0.02585
1255.60426,0.01362
1254.11447,0.00613
1252.62468,0.01195
1251.13489,0.02329
1249.64511,0.01619
1248.15532,0.00695
1246.66553,0.00925
1245.17574,0.01158
1243.68595,0.01796
1242.19616,0.02770
1240.70637,0.02410
1239.21659,0.02348
1237.72680,0.01777
1236.23701,0.01916
1234.74722,0.02431
1233.25743,0.02015
1231.76764,0.01601
1230.27786,0.03086
1228.78807,0.01606
1227.29828,0.02250
1225.80849,0.01266
1224.31870,0.00619
1222.82891,0.00942
1221.33912,0.03213
1219.84934,0.03914
1218.35955,0.04618
1216.86976,0.06346
1215.37997,0.06563
1213.89018,0.07883
1212.40039,0.07771
1210.91061,0.08251
1209.42082,0.05845
1207.93103,0.06241
1206.44124,0.06640
1204.95145,0.07149
1203.46166,0.05637
1201.97188,0.06701
1200.48209,0.04682
1198.99230,0.05280
1197.50251,0.05545
1196.01272,0.06187
1194.52293,0.05937
1193.03314,0.05689
1191.54336,0.04471
1190.05357,0.03884
1188.56378,0.02533
1187.07399,0.04604
1185.58420,0.02255
1184.09441,0.00597
1182.60463,0.00613
1181.11484,0.00613
1179.62505,0.01036
1178.13526,0.02169
1176.64547,0.01300
1175.15568,0.01711
1173.66589,0.00827
1172.17611,0.00731
1170.68632,0.01139
1169.19653,0.01550
1167.70674,0.01265
1166.21695,0.02829
1164.72716,0.02903
1163.23738,0.02822
1161.74759,0.03294
1160.25780,0.06145
1158.76801,0.06848
1157.27822,0.07552
1155.78843,0.06324
1154.29865,0.07161
1152.80886,0.08649
1151.31907,0.09825
1149.82928,0.11927
1148.33949,0.12695
1146.84970,0.12916
1145.35991,0.13139
1143.87013,0.13148
1142.38034,0.13729
1140.89055,0.15158
1139.40076,0.15331
1137.91097,0.17885
1136.42118,0.18947
1134.93140,0.19894
1133.44161,0.20844
1131.95182,0.22601
1130.46203,0.24066
1128.97224,0.23176
1127.48245,0.22386
1125.99266,0.22876
1124.50288,0.21305
1123.01309,0.20660
1121.52330,0.20017
1120.03351,0.21558
1118.54372,0.22453
1117.05393,0.21365
1115.56415,0.21538
1114.07436,0.23265
1112.58457,0.22264
1111.09478,0.21264
1109.60499,0.22331
1108.11520,0.22044
1106.62542,0.23331
1105.13563,0.22597
1103.64584,0.21669
1102.15605,0.20605
1100.66626,0.19967
1099.17647,0.19330
1097.68668,0.18412
1096.19690,0.18930
1094.70711,0.21199
1093.21732,0.19698
1091.72753,0.18219
1090.23774,0.17440
1088.74795,0.16664
1087.25817,0.17177
1085.76838,0.18065
1084.27859,0.17384
1082.78880,0.17551
1081.29901,0.17268
1079.80922,0.18186
1078.31943,0.18153
1076.82965,0.18122
1075.33986,0.20443
1073.85007,0.21979
1072.36028,0.22300
1070.87049,0.24549
1069.38070,0.26722
1067.89092,0.29447
1066.40113,0.32175
1064.91134,0.37420
1063.42155,0.44869
1061.93176,0.55955
1060.44197,0.63841
1058.95219,0.69056
1057.46240,0.73626
1055.97261,0.78198
1054.48282,0.91026
1052.99303,0.99218
1051.50324,1.00673
1050.01345,0.97807
1048.52367,0.93784
1047.03388,0.92898
1045.54409,0.92014
1044.05430,0.84638
1042.56451,0.78090
1041.07472,0.74295
1039.58494,0.68479
1038.09515,0.59423
1036.60536,0.55065
1035.11557,0.50710
1033.62578,0.46672
1032.13599,0.41359
1030.64620,0.35636
1029.15642,0.31173
1027.66663,0.28195
1026.17684,0.25220
1024.68705,0.22140
1023.19726,0.16900
1021.70747,0.15003
1020.21769,0.14033
1018.72790,0.10981
1017.23811,0.10281
1015.74832,0.09582
1014.25853,0.09073
1012.76874,0.08409
1011.27896,0.07885
1009.78917,0.07246
1008.29938,0.04938
1006.80959,0.04431
1005.31980,0.03927
1003.83001,0.02491
1002.34022,0.02944
1000.85044,0.01651
999.36065,0.02973
997.87086,0.03984
996.38107,0.04997
994.89128,0.08371
993.40149,0.08681
991.91171,0.11823
990.42192,0.14320
988.93213,0.15875
987.44234,0.15793
985.95255,0.15712
984.46276,0.16626
982.97297,0.16364
981.48319,0.13216
979.99340,0.10757
978.50361,0.09284
977.01382,0.07813
975.52403,0.06266
974.03424,0.04544
972.54446,0.04593
971.05467,0.02896
969.56488,0.01260
968.07509,0.01179
966.58530,0.01100
965.09551,0.02714
963.60573,0.00636
962.11594,0.01747
960.62615,0.01818
959.13636,0.01214
957.64657,0.00613
956.15678,0.00950
954.66699,0.02469
953.17721,0.03577
951.68742,0.02074
950.19763,0.02833
948.70784,0.03595
947.21805,0.05971
945.72826,0.06757
944.23848,0.08626
942.74869,0.09083
941.25890,0.11134
939.76911,0.12146
938.27932,0.13160
936.78953,0.15828
935.29974,0.16808
933.80996,0.19441
932.32017,0.20858
930.83038,0.21481
929.34059,0.22107
927.85080,0.24789
926.36101,0.27237
924.87123,0.28411
923.38144,0.32907
921.89165,0.35972
920.40186,0.39039
918.91207,0.49438
917.42228,0.62336
915.93250,0.76296
914.44271,0.96430
912.95292,1.06691
911.46313,1.16955
909.97334,1.42086
908.48355,1.63742
906.99376,1.83573
905.50398,1.92815
904.01419,1.96046
902.52440,1.99279
901.03461,2.00000
899.54482,1.99760
898.05503,1.84765
896.56525,1.61697
895.07546,1.47876
893.58567,1.34057
892.09588,1.04983
890.60609,0.82690
889.11630,0.62011
887.62651,0.43122
886.13673,0.37648
884.64694,0.32175
883.15715,0.22982
881.66736,0.18507
880.17757,0.11243
878.68778,0.10094
877.19800,0.08947
875.70821,0.06034
874.21842,0.03379
872.72863,0.02848
871.23884,0.03204
869.74905,0.02570
868.25927,0.01938
866.76948,0.02046
865.27969,0.01272
863.78990,0.03232
862.30011,0.03209
860.81032,0.04466
859.32053,0.05725
857.83075,0.06457
856.34096,0.08350
854.85117,0.09715
853.36138,0.11318
851.87159,0.11901
850.38180,0.12488
848.89202,0.13783
847.40223,0.16477
845.91244,0.18701
844.42265,0.19916
842.93286,0.21133
841.44307,0.20751
839.95329,0.23653
838.46350,0.24455
836.97371,0.26536
835.48392,0.26478
833.99413,0.26423
832.50434,0.27784
831.01455,0.23607
829.52477,0.22045
828.03498,0.19150
826.54519,0.18920
825.05540,0.18692
823.56561,0.16432
822.07582,0.15119
820.58604,0.14377
819.09625,0.13904
817.60646,0.13432
816.11667,0.12482
814.62688,0.12182
813.13709,0.12612
811.64730,0.13595
810.15752,0.13745
808.66773,0.13897
807.17794,0.14651
805.68815,0.13344
804.19836,0.14181
802.70857,0.14294
801.21879,0.14409
799.72900,0.13053
798.23921,0.12996
796.74942,0.14140
795.25963,0.14078
793.76984,0.14018
792.28006,0.15975
790.79027,0.14594
789.30048,0.18855
787.81069,0.21742
786.32090,0.23355
784.83111,0.24970
783.34132,0.28534
781.85154,0.32138
780.36175,0.37101
778.87196,0.38205
777.38217,0.39312
775.89238,0.41236
774.40259,0.45325
772.91281,0.42282
771.42302,0.41217
769.93323,0.40155
768.44344,0.33877
766.95365,0.28919
765.46386,0.23255
763.97407,0.18478
762.48429,0.17791
760.99450,0.17106
759.50471,0.14538
758.01492,0.11952
756.52513,0.10960
755.03534,0.10678
753.54556,0.10398
752.05577,0.08372
750.56598,0.07664
749.07619,0.05800
747.58640,0.04980
746.09661,0.04162
744.60683,0.03680
743.11704,0.02887
741.62725,0.01978
740.13746,0.01779
738.64767,0.01582
737.15788,0.02252
735.66809,0.01038
734.17831,0.00613
732.68852,0.01046
731.19873,0.01482
729.70894,0.01331
728.21915,0.02046
726.72936,0.01290
725.23958,0.01028
723.74979,0.01564
722.26000,0.02103
720.77021,0.01691
719.28042,0.00613
717.79063,0.01750
716.30084,0.02005
714.81106,0.02263
713.32127,0.02759
711.83148,0.03454
710.34169,0.03050
708.85190,0.02836
707.36211,0.02624
705.87233,0.03879
704.38254,0.04566
702.89275,0.04391
701.40296,0.04365
699.91317,0.04342
698.42338,0.06336
696.93360,0.09432
695.44381,0.08640
693.95402,0.10445
692.46423,0.12251
690.97444,0.13294
689.48465,0.15774
687.99486,0.16920
686.50508,0.19149
685.01529,0.21380
683.52550,0.23574
682.03571,0.24769
680.54592,0.24984
679.05613,0.25289
677.56635,0.25597
676.07656,0.25150
674.58677,0.24353
673.09698,0.21809
671.60719,0.21301
670.11740,0.20795
668.62761,0.18199
667.13783,0.15626
665.64804,0.13575
664.15825,0.11527
662.66846,0.09648
661.17867,0.07516
659.68888,0.06624
658.19910,0.05774
656.70931,0.04927
655.21952,0.05005
653.72973,0.04182
652.23994,0.05425
650.75015,0.04882
649.26037,0.04341
647.77058,0.04589
646.28079,0.04643
644.79100,0.04600
643.30121,0.04954
641.81142,0.05309
640.32163,0.04547
638.83185,0.02785
637.34206,0.00613
635.85227,0.00748
634.36248,0.00885
632.87269,0.01506
631.38290,0.02090
629.89312,0.02087
628.40333,0.01762
626.91354,0.01439
625.42375,0.02131
623.93396,0.01882
622.44417,0.01803
620.95438,0.01726
619.46460,0.02781
617.97481,0.03898
616.48502,0.06490
614.99523,0.09007
613.50544,0.11526
612.01565,0.12102
610.52587,0.15412
609.03608,0.16955
607.54629,0.18550
606.05650,0.20148
604.56671,0.26100
603.07692,0.32723
601.58714,0.34800
600.09735,0.36878
598.60756,0.40797
597.11777,0.43303
595.62798,0.41685
594.13819,0.41395
592.64840,0.41109
591.15862,0.37493
589.66883,0.32407
588.17904,0.28423
586.68925,0.25247
585.19946,0.22074
583.70967,0.16623
582.21989,0.14123
580.73010,0.12145
579.24031,0.10170
577.75052,0.08817
576.26073,0.07171
574.77094,0.05842
573.28115,0.05468
571.79137,0.05097
570.30158,0.07509
568.81179,0.10355
567.32200,0.10797
565.83221,0.11241
564.34242,0.11717
562.85264,0.12313
561.36285,0.15093
559.87306,0.15389
558.38327,0.15688
556.89348,0.18416
555.40369,0.21677
553.91391,0.20873
552.42412,0.20071
550.93433,0.21374
549.44454,0.20852
547.95475,0.19448
546.46496,0.21093
544.97517,0.22740
543.48539,0.23308
541.99560,0.25706
540.50581,0.28824
539.01602,0.31945
537.52623,0.36944
536.03644,0.40099
534.54666,0.43885
533.05687,0.46268
531.56708,0.48653
530.07729,0.52800
528.58750,0.58698
527.09771,0.61877
525.60792,0.65058
524.11814,0.69686
522.62835,0.73865
521.13856,0.76788
519.64877,0.79753
518.15898,0.82720
516.66919,0.86653
515.17941,0.85498
513.68962,0.85810
512.19983,0.86124
510.71004,0.84250
509.22025,0.79529
507.73046,0.71096
506.24068,0.65800
504.75089,0.60506
503.26110,0.50803
501.77131,0.39098
500.28152,0.34264
498.79173,0.29432
497.30194,0.22136
495.81216,0.17200
494.32237,0.15903
492.83258,0.14607
491.34279,0.13196
489.85300,0.09469
488.36321,0.08142
486.87343,0.07367
485.38364,0.06594
483.89385,0.07377
482.40406,0.10579
480.91427,0.11032
479.42448,0.11487
477.93469,0.12299
476.44491,0.15038
474.95512,0.16611
473.46533,0.18187
471.97554,0.18635
470.48575,0.19065
468.99596,0.21345
467.50618,0.19000
466.01639,0.16657
464.52660,0.12794
463.03681,0.09660
461.54702,0.08995
460.05723,0.08332
458.56745,0.06444
457.07766,0.02455
455.58787,0.02625
454.09808,0.02797
452.60829,0.01645
451.11850,0.00613
449.62871,0.01690
448.13893,0.02770
446.64914,0.01995
445.15935,0.00378
443.66956,0.01425
442.17977,0.00942
440.68998,0.00461
439.20020,0.01732
437.71041,0.05481
436.22062,0.04771
434.73083,0.04064
433.24104,0.03104
431.75125,0.03994
430.26146,0.03235
428.77168,0.02479
427.28189,0.05419
425.79210,0.04393
424.30231,0.04606
422.81252,0.04823
421.32273,0.04570
419.83295,0.03513
418.34316,0.02970
416.85337,0.02430
415.36358,0.00673
413.87379,0.02914
412.38400,0.03153
410.89422,0.03395
409.40443,0.02951
407.91464,0.04749
406.42485,0.04192
404.93506,0.03893
403.44527,0.03596
401.95548,0.05169
400.46570,0.01850
398.97591,0.02072
397.48612,0.02296
395.99633,0.01402
394.50654,0.02416
393.01675,0.02107
391.52697,0.01800
390.03718,0.01690
388.54739,0.01896
387.05760,0.01477
385.56781,0.01060
384.07802,0.01054
382.58824,0.03822
381.09845,0.02830
379.60866,0.01840
378.11887,0.01608
376.62908,0.00613
375.13929,0.01697
373.64950,0.02784
372.15972,0.03843
370.66993,0.02566
369.18014,0.02061
367.69035,0.01558
366.20056,0.02973
364.71077,0.03447
363.22099,0.03669
361.73120,0.03892
360.24141,0.07223
358.75162,0.07864
357.26183,0.06956
355.77204,0.06049
354.28225,0.03848
352.79247,0.03949
351.30268,0.03895
349.81289,0.03843
348.32310,0.07272
346.83331,0.07932
345.34352,0.07435
343.85374,0.06941
342.36395,0.04779
340.87416,0.02895
339.38437,0.03921
337.89458,0.04949
336.40479,0.04703
334.91501,0.04223
333.42522,0.02960
331.93543,0.01699
330.44564,0.00853
328.95585,0.01208
327.46606,0.01005
325.97627,0.00805
324.48649,0.02120
322.99670,0.04145
321.50691,0.04865
320.01712,0.05588
318.52733,0.06303
317.03754,0.07060
315.54776,0.06581
314.05797,0.06105
312.56818,0.08598
311.07839,0.06791
309.58860,0.06538
308.09881,0.06287
306.60902,0.06825
305.11924,0.03121
303.62945,0.01866
302.13966,0.00613
300.64987,0.00887
299.16008,0.00613
