1778.52000,0.01021
1777.03021,0.00988
1775.54042,0.00958
1774.05063,0.00593
1772.56085,0.00848
1771.07106,0.00843
1769.58127,0.00953
1768.09148,0.01290
1766.60169,0.01105
1765.11190,0.01279
1763.62212,0.01454
1762.13233,0.01445
1760.64254,0.01644
1759.15275,0.01733
1757.66296,0.02292
1756.17317,0.01433
1754.68339,0.02016
1753.19360,0.01890
1751.70381,0.01917
1750.21402,0.02263
1748.72423,0.01341
1747.23444,0.02888
1745.74465,0.02175
1744.25487,0.02288
1742.76508,0.01636
1741.27529,0.02295
1739.78550,0.02209
1738.29571,0.01864
1736.80592,0.01689
1735.31614,0.01685
1733.82635,0.02003
1732.33656,0.02007
1730.84677,0.01807
1729.35698,0.01703
1727.86719,0.01788
1726.37740,0.00792
1724.88762,0.01106
1723.39783,0.01255
1721.90804,0.01985
1720.41825,0.00961
1718.92846,0.01647
1717.43867,0.01476
1715.94889,0.01288
1714.45910,0.00991
1712.96931,0.01292
1711.47952,0.01278
1709.98973,0.00893
1708.49994,0.01613
1707.01016,0.01456
1705.52037,0.01302
1704.03058,0.00926
1702.54079,0.00254
1701.05100,0.00517
1699.56121,0.01344
1698.07142,0.00902
1696.58164,0.00593
1695.09185,0.01190
1693.60206,0.01117
1692.11227,0.01626
1690.62248,0.01408
1689.13269,0.01771
1687.64291,0.01539
1686.15312,0.01796
1684.66333,0.01569
1683.17354,0.01699
1681.68375,0.02037
1680.19396,0.02004
1678.70417,0.02273
1677.21439,0.03104
1675.72460,0.03415
1674.23481,0.03672
1672.74502,0.03482
1671.25523,0.04566
1669.76544,0.04625
1668.27566,0.04461
1666.78587,0.05478
1665.29608,0.05749
1663.80629,0.05798
1662.31650,0.06149
1660.82671,0.07661
1659.33693,0.08615
1657.84714,0.06599
1656.35735,0.06623
1654.86756,0.06948
1653.37777,0.07239
1651.88798,0.07120
1650.39819,0.07696
1648.90841,0.07582
1647.41862,0.07414
1645.92883,0.07745
1644.43904,0.08078
1642.94925,0.08646
1641.45946,0.08563
1639.96968,0.08015
1638.47989,0.08703
1636.99010,0.08721
1635.50031,0.08685
1634.01052,0.08632
1632.52073,0.08956
1631.03094,0.08273
1629.54116,0.08191
1628.05137,0.09737
1626.56158,0.08724
1625.07179,0.08480
1623.58200,0.08800
1622.09221,0.07832
1620.60243,0.08642
1619.11264,0.09193
1617.62285,0.09111
1616.13306,0.09910
1614.64327,0.08225
1613.15348,0.08673
1611.66370,0.09236
1610.17391,0.09970
1608.68412,0.09266
1607.19433,0.10603
1605.70454,0.10428
1604.21475,0.09993
1602.72496,0.09561
1601.23518,0.08627
1599.74539,0.08218
1598.25560,0.08728
1596.76581,0.08436
1595.27602,0.08352
1593.78623,0.08888
1592.29645,0.09202
1590.80666,0.07779
1589.31687,0.08060
1587.82708,0.08531
1586.33729,0.07826
1584.84750,0.07927
1583.35771,0.08087
1581.86793,0.08436
1580.37814,0.08189
1578.88835,0.07459
1577.39856,0.07983
1575.90877,0.06921
1574.41898,0.05058
1572.92920,0.06150
1571.43941,0.05582
1569.94962,0.05202
1568.45983,0.04825
1566.97004,0.04805
1565.48025,0.04769
1563.99047,0.04549
1562.50068,0.04368
1561.01089,0.03386
1559.52110,0.02743
1558.03131,0.03785
1556.54152,0.03726
1555.05173,0.03464
1553.56195,0.02961
1552.07216,0.02311
1550.58237,0.01178
1549.09258,0.00458
1547.60279,0.00787
1546.11300,0.01399
1544.62322,0.00593
1543.13343,0.00646
1541.64364,0.00846
1540.15385,0.01199
1538.66406,0.01553
1537.17427,0.01518
1535.68448,0.01335
1534.19470,0.02052
1532.70491,0.02509
1531.21512,0.01904
1529.72533,0.01282
1528.23554,0.01541
1526.74575,0.03130
1525.25597,0.02964
1523.76618,0.02239
1522.27639,0.02377
1520.78660,0.03172
1519.29681,0.03445
1517.80702,0.04020
1516.31724,0.04972
1514.82745,0.05533
1513.33766,0.05872
1511.84787,0.06213
1510.35808,0.05398
1508.86829,0.04399
1507.37850,0.04598
1505.88872,0.04613
1504.39893,0.04630
1502.90914,0.04462
1501.41935,0.06091
1499.92956,0.05443
1498.43977,0.07769
1496.94999,0.07199
1495.46020,0.08838
1493.97041,0.10555
1492.48062,0.10254
1490.99083,0.10218
1489.50104,0.11755
1488.01125,0.11985
1486.52147,0.12217
1485.03168,0.17089
1483.54189,0.18635
1482.05210,0.19510
1480.56231,0.21098
1479.07252,0.22128
1477.58274,0.22842
1476.09295,0.24942
1474.60316,0.25288
1473.11337,0.25729
1471.62358,0.25275
1470.13379,0.26226
1468.64401,0.27721
1467.15422,0.29087
1465.66443,0.30989
1464.17464,0.32893
1462.68485,0.34379
1461.19506,0.37139
1459.70527,0.43658
1458.21549,0.47227
1456.72570,0.53863
1455.23591,0.57828
1453.74612,0.63927
1452.25633,0.66851
1450.76654,0.69384
1449.27676,0.70368
1447.78697,0.69317
1446.29718,0.66867
1444.80739,0.64988
1443.31760,0.63113
1441.82781,0.57865
1440.33802,0.51760
1438.84824,0.49714
1437.35845,0.49334
1435.86866,0.48377
1434.37887,0.51104
1432.88908,0.54601
1431.39929,0.64830
1429.90951,0.70163
1428.41972,0.76621
1426.92993,0.80239
1425.44014,0.82514
1423.95035,0.84567
1422.46056,0.86622
1420.97078,0.90587
1419.48099,0.91899
1417.99120,0.93606
1416.50141,0.92045
1415.01162,0.85756
1413.52183,0.82049
1412.03204,0.76850
1410.54226,0.73241
1409.05247,0.66102
1407.56268,0.60256
1406.07289,0.56523
1404.58310,0.53663
1403.09331,0.50805
1401.60353,0.43996
1400.11374,0.40853
1398.62395,0.34086
1397.13416,0.31415
1395.64437,0.24297
1394.15458,0.21444
1392.66479,0.18108
1391.17501,0.16157
1389.68522,0.13666
1388.19543,0.10505
1386.70564,0.09795
1385.21585,0.09087
1383.72606,0.07391
1382.23628,0.05268
1380.74649,0.03128
1379.25670,0.03215
1377.76691,0.02295
1376.27712,0.02424
1374.78733,0.00593
1373.29755,0.00634
1371.80776,0.00676
1370.31797,0.02194
1368.82818,0.02648
1367.33839,0.03105
1365.84860,0.03208
1364.35881,0.04044
1362.86903,0.06134
1361.37924,0.07946
1359.88945,0.09629
1358.39966,0.09857
1356.90987,0.13714
1355.42008,0.17387
1353.93030,0.23230
1352.44051,0.26496
1350.95072,0.29764
1349.46093,0.37409
1347.97114,0.45467
1346.48135,0.52089
1344.99156,0.60134
1343.50178,0.66610
1342.01199,0.74436
1340.52220,0.83067
1339.03241,0.80260
1337.54262,0.85476
1336.05283,0.86197
1334.56305,0.86922
1333.07326,0.95060
1331.58347,0.93742
1330.09368,0.91342
1328.60389,0.92684
1327.11410,0.87447
1325.62432,0.82419
1324.13453,0.79954
1322.64474,0.77641
1321.15495,0.75106
1319.66516,0.71414
1318.17537,0.67725
1316.68558,0.65665
1315.19580,0.60092
1313.70601,0.54204
1312.21622,0.50749
1310.72643,0.47614
1309.23664,0.45154
1307.74685,0.41762
1306.25707,0.38484
1304.76728,0.36322
1303.27749,0.34161
1301.78770,0.29526
1300.29791,0.25492
1298.80812,0.23011
1297.31834,0.19599
1295.82855,0.16787
1294.33876,0.14257
1292.84897,0.12609
1291.35918,0.10963
1289.86939,0.10946
1288.37960,0.10931
1286.88982,0.09386
1285.40003,0.09170
1283.91024,0.08527
1282.42045,0.05344
1280.93066,0.06668
1279.44087,0.06462
1277.95109,0.05959
1276.46130,0.03776
1274.97151,0.04297
1273.48172,0.04820
1271.99193,0.02290
1270.50214,0.03070
1269.01235,0.02525
1267.52257,0.02152
1266.03278,0.02715
1264.54299,0.02850
1263.05320,0.02689
1261.56341,0.02914
1260.07362,0.03141
1258.58384,0.01716
1257.09405,0.00686
1255.60426,0.01938
1254.11447,0.00820
1252.62468,0.01610
1251.13489,0.01524
1249.64511,0.00562
1248.15532,0.00593
1246.66553,0.00975
1245.17574,0.01359
1243.68595,0.02315
1242.19616,0.02807
1240.70637,0.01675
1239.21659,0.02508
1237.72680,0.02670
1236.23701,0.03582
1234.74722,0.02385
1233.25743,0.02358
1231.76764,0.02334
1230.27786,0.02265
1228.78807,0.00759
1227.29828,0.01705
1225.80849,0.01176
1224.31870,0.00593
1222.82891,0.01111
1221.33912,0.01482
1219.84934,0.02359
1218.35955,0.03239
1216.86976,0.05262
1215.37997,0.05455
1213.89018,0.06361
1212.40039,0.08074
1210.91061,0.07545
1209.42082,0.05710
1207.93103,0.05588
1206.44124,0.05469
1204.95145,0.04968
1203.46166,0.06695
1201.97188,0.05694
1200.48209,0.05052
1198.99230,0.05421
1197.50251,0.03100
1196.01272,0.03717
1194.52293,0.04103
1193.03314,0.04491
1191.54336,0.04218
1190.05357,0.03367
1188.56378,0.01510
1187.07399,0.02833
1185.58420,0.02083
1184.09441,0.00625
1182.60463,0.00862
1181.11484,0.01101
1179.62505,0.01837
1178.13526,0.01361
1176.64547,0.02159
1175.15568,0.01800
1173.66589,0.01182
1172.17611,0.02080
1170.68632,0.01335
1169.19653,0.00593
1167.70674,0.02444
1166.21695,0.02129
1164.72716,0.04302
1163.23738,0.05318
1161.74759,0.04917
1160.25780,0.06873
1158.76801,0.07280
1157.27822,0.07689
1155.78843,0.06736
1154.29865,0.06627
1152.80886,0.07791
1151.31907,0.10061
1149.82928,0.12464
1148.33949,0.12925
1146.84970,0.12977
1145.35991,0.13032
1143.87013,0.13294
1142.38034,0.15728
1140.89055,0.16126
1139.40076,0.15742
1137.91097,0.18668
1136.42118,0.21990
1134.93140,0.22379
1133.44161,0.22771
1131.95182,0.23314
1130.46203,0.22850
1128.97224,0.22707
1127.48245,0.24136
1125.99266,0.23586
1124.50288,0.23282
1123.01309,0.22970
1121.52330,0.22661
1120.03351,0.21691
1118.54372,0.22144
1117.05393,0.20655
1115.56415,0.24422
1114.07436,0.23180
1112.58457,0.22792
1111.09478,0.22407
1109.60499,0.23341
1108.11520,0.23979
1106.62542,0.24750
1105.13563,0.25224
1103.64584,0.23290
1102.15605,0.21320
1100.66626,0.20072
1099.17647,0.18827
1097.68668,0.20136
1096.19690,0.20830
1094.70711,0.21490
1093.21732,0.19721
1091.72753,0.20068
1090.23774,0.18940
1088.74795,0.17814
1087.25817,0.17513
1085.76838,0.18729
1084.27859,0.18489
1082.78880,0.18869
1081.29901,0.19587
1079.80922,0.19803
1078.31943,0.19479
1076.82965,0.19158
1075.33986,0.21661
1073.85007,0.22635
1072.36028,0.23592
1070.87049,0.24981
1069.38070,0.29588
1067.89092,0.31543
1066.40113,0.33500
1064.91134,0.38301
1063.42155,0.47255
1061.93176,0.55164
1060.44197,0.64514
1058.95219,0.70989
1057.46240,0.76157
1055.97261,0.81328
1054.48282,0.92987
1052.99303,0.99303
1051.50324,0.99751
1050.01345,0.99361
1048.52367,0.94225
1047.03388,0.93213
1045.54409,0.92203
1044.05430,0.85541
1042.56451,0.77797
1041.07472,0.74449
1039.58494,0.67233
1038.09515,0.58992
1036.60536,0.55230
1035.11557,0.51471
1033.62578,0.46919
1032.13599,0.39230
1030.64620,0.33954
1029.15642,0.28830
1027.66663,0.26793
1026.17684,0.24758
1024.68705,0.20670
1023.19726,0.17443
1021.70747,0.14930
1020.21769,0.12082
1018.72790,0.11854
1017.23811,0.10797
1015.74832,0.09742
1014.25853,0.08287
1012.76874,0.09059
1011.27896,0.08544
1009.78917,0.07003
1008.29938,0.04679
1006.80959,0.04265
1005.31980,0.03852
1003.83001,0.01555
1002.34022,0.01951
1000.85044,0.02537
999.36065,0.03181
997.87086,0.03201
996.38107,0.03224
994.89128,0.05203
993.40149,0.08324
991.91171,0.11840
990.42192,0.14200
988.93213,0.14767
987.44234,0.14833
985.95255,0.14900
984.46276,0.15176
982.97297,0.14033
981.48319,0.12724
979.99340,0.10259
978.50361,0.08927
977.01382,0.07598
975.52403,0.04056
974.03424,0.03451
972.54446,0.03428
971.05467,0.00808
969.56488,0.00622
968.07509,0.00707
966.58530,0.00794
965.09551,0.01538
963.60573,0.01088
962.11594,0.00603
960.62615,0.00678
959.13636,0.00634
957.64657,0.00593
956.15678,0.01582
954.66699,0.02236
953.17721,0.02612
951.68742,0.02542
950.19763,0.02531
948.70784,0.02522
947.21805,0.04702
945.72826,0.05745
944.23848,0.07874
942.74869,0.10155
941.25890,0.11485
939.76911,0.13126
938.27932,0.14769
936.78953,0.14480
935.29974,0.17502
933.80996,0.18358
932.32017,0.20189
930.83038,0.20582
929.34059,0.20978
927.85080,0.23713
926.36101,0.25217
924.87123,0.28517
923.38144,0.32979
921.89165,0.36920
920.40186,0.40863
918.91207,0.50660
917.42228,0.61450
915.93250,0.75233
914.44271,0.94122
912.95292,1.04929
911.46313,1.15738
909.97334,1.38503
908.48355,1.60748
906.99376,1.79462
905.50398,1.88177
904.01419,1.92026
902.52440,1.95876
901.03461,2.00000
899.54482,1.94892
898.05503,1.79149
896.56525,1.61596
895.07546,1.46755
893.58567,1.31917
892.09588,1.02332
890.60609,0.79947
889.11630,0.63247
887.62651,0.46119
886.13673,0.39640
884.64694,0.33163
883.15715,0.23501
881.66736,0.16552
880.17757,0.13512
878.68778,0.11653
877.19800,0.09796
875.70821,0.06632
874.21842,0.04630
872.72863,0.03603
871.23884,0.02522
869.74905,0.02714
868.25927,0.02909
866.76948,0.01686
865.27969,0.01325
863.78990,0.02779
862.30011,0.05451
860.81032,0.05592
859.32053,0.05736
857.83075,0.07761
856.34096,0.09452
854.85117,0.08977
853.36138,0.12317
851.87159,0.12594
850.38180,0.12874
848.89202,0.15867
847.40223,0.17217
845.91244,0.19859
844.42265,0.20484
842.93286,0.21113
841.44307,0.22005
839.95329,0.24731
838.46350,0.26058
836.97371,0.26565
835.48392,0.27392
833.99413,0.28221
832.50434,0.27408
831.01455,0.24223
829.52477,0.22517
828.03498,0.19842
826.54519,0.19281
825.05540,0.18723
823.56561,0.16597
822.07582,0.14660
820.58604,0.14763
819.09625,0.14654
817.60646,0.14547
816.11667,0.12582
814.62688,0.12489
813.13709,0.12660
811.64730,0.14292
810.15752,0.14131
808.66773,0.13973
807.17794,0.13070
805.68815,0.15010
804.19836,0.13812
802.70857,0.13991
801.21879,0.14172
799.72900,0.12682
798.23921,0.12690
796.74942,0.14327
795.25963,0.13826
793.76984,0.13327
792.28006,0.14504
790.79027,0.14225
789.30048,0.16379
787.81069,0.20442
786.32090,0.21647
784.83111,0.22854
783.34132,0.27242
781.85154,0.31501
780.36175,0.36510
778.87196,0.37204
777.38217,0.37900
775.89238,0.42131
774.40259,0.43617
772.91281,0.42021
771.42302,0.40025
769.93323,0.38032
768.44344,0.33863
766.95365,0.27435
765.46386,0.22318
763.97407,0.17988
762.48429,0.17156
760.99450,0.16327
759.50471,0.13687
758.01492,0.11666
756.52513,0.11722
755.03534,0.10641
753.54556,0.09562
752.05577,0.08765
750.56598,0.07990
749.07619,0.06451
747.58640,0.05653
746.09661,0.04856
744.60683,0.03399
743.11704,0.01907
741.62725,0.02343
740.13746,0.02182
738.64767,0.02024
737.15788,0.02131
735.66809,0.00893
734.17831,0.00593
732.68852,0.00801
731.19873,0.01011
729.70894,0.01270
728.21915,0.00764
726.72936,0.01668
725.23958,0.01265
723.74979,0.01051
722.26000,0.00840
720.77021,0.01248
719.28042,0.00593
717.79063,0.00763
716.30084,0.01178
714.81106,0.01595
713.32127,0.01922
711.83148,0.03466
710.34169,0.03703
708.85190,0.03177
707.36211,0.02653
705.87233,0.02861
704.38254,0.03613
702.89275,0.03096
701.40296,0.03666
699.91317,0.04238
698.42338,0.05635
696.93360,0.08886
695.44381,0.08848
693.95402,0.09579
692.46423,0.10313
690.97444,0.13666
689.48465,0.15302
687.99486,0.17539
686.50508,0.18273
685.01529,0.19009
683.52550,0.23683
682.03571,0.25032
680.54592,0.25971
679.05613,0.25512
677.56635,0.25054
676.07656,0.25216
674.58677,0.24371
673.09698,0.22388
671.60719,0.20856
670.11740,0.19326
668.62761,0.18042
667.13783,0.15115
665.64804,0.12976
664.15825,0.10839
662.66846,0.09414
661.17867,0.06366
659.68888,0.06181
658.19910,0.05212
656.70931,0.04246
655.21952,0.05208
653.72973,0.04826
652.23994,0.05830
650.75015,0.05070
649.26037,0.04312
647.77058,0.04370
646.28079,0.04617
644.79100,0.04960
643.30121,0.04894
641.81142,0.04831
640.32163,0.03966
638.83185,0.02075
637.34206,0.01383
635.85227,0.01255
634.36248,0.01128
632.87269,0.00593
631.38290,0.01891
629.89312,0.02069
628.40333,0.02475
626.91354,0.02882
625.42375,0.03423
623.93396,0.02714
622.44417,0.02633
620.95438,0.02555
619.46460,0.02133
617.97481,0.03939
616.48502,0.06363
614.99523,0.07594
613.50544,0.08827
612.01565,0.12922
610.52587,0.15394
609.03608,0.17924
607.54629,0.18989
606.05650,0.20056
604.56671,0.26594
603.07692,0.31040
601.58714,0.34731
600.09735,0.38425
598.60756,0.40897
597.11777,0.42306
595.62798,0.42428
594.13819,0.40859
592.64840,0.39294
591.15862,0.36731
589.66883,0.32263
588.17904,0.27050
586.68925,0.23989
585.19946,0.20930
583.70967,0.14379
582.21989,0.11942
580.73010,0.10162
579.24031,0.08384
577.75052,0.07543
576.26073,0.06387
574.77094,0.05663
573.28115,0.04951
571.79137,0.04242
570.30158,0.06348
568.81179,0.09335
567.32200,0.09791
565.83221,0.10250
564.34242,0.11226
562.85264,0.12671
561.36285,0.12530
559.87306,0.13708
558.38327,0.14890
556.89348,0.17204
555.40369,0.20194
553.91391,0.20149
552.42412,0.20106
550.93433,0.19364
549.44454,0.19055
547.95475,0.19272
546.46496,0.20033
544.97517,0.20796
543.48539,0.22740
541.99560,0.24443
540.50581,0.26148
539.01602,0.27856
537.52623,0.32370
536.03644,0.38345
534.54666,0.39705
533.05687,0.42758
531.56708,0.45815
530.07729,0.49799
528.58750,0.54290
527.09771,0.56708
525.60792,0.59129
524.11814,0.67684
522.62835,0.72727
521.13856,0.75585
519.64877,0.76913
518.15898,0.78242
516.66919,0.82491
515.17941,0.83097
513.68962,0.82331
512.19983,0.81567
510.71004,0.79601
509.22025,0.77711
507.73046,0.68571
506.24068,0.62050
504.75089,0.55531
503.26110,0.46361
501.77131,0.38856
500.28152,0.33878
498.79173,0.28902
497.30194,0.23311
495.81216,0.16134
494.32237,0.15465
492.83258,0.14798
491.34279,0.13049
489.85300,0.11359
488.36321,0.07951
486.87343,0.08443
485.38364,0.08938
483.89385,0.08285
482.40406,0.09785
480.91427,0.10716
479.42448,0.11651
477.93469,0.13400
476.44491,0.14367
474.95512,0.17169
473.46533,0.19972
471.97554,0.22274
470.48575,0.20802
468.99596,0.23033
467.50618,0.20547
466.01639,0.18063
464.52660,0.15030
463.03681,0.11102
461.54702,0.09775
460.05723,0.08450
458.56745,0.06530
457.07766,0.03434
455.58787,0.02995
454.09808,0.02558
452.60829,0.01451
451.11850,0.00833
449.62871,0.00712
448.13893,0.00593
446.64914,0.03490
445.15935,0.02127
443.66956,0.01534
442.17977,0.01961
440.68998,0.02391
439.20020,0.03430
437.71041,0.02846
436.22062,0.02853
434.73083,0.02862
433.24104,0.03911
431.75125,0.03486
430.26146,0.03633
428.77168,0.03783
427.28189,0.04412
425.79210,0.05230
424.30231,0.05565
422.81252,0.05902
421.32273,0.04596
419.83295,0.02433
418.34316,0.02319
416.85337,0.02207
415.36358,0.00593
413.87379,0.02378
412.38400,0.03119
410.89422,0.03862
409.40443,0.03186
407.91464,0.03579
406.42485,0.03095
404.93506,0.02969
403.44527,0.02846
401.95548,0.03323
400.46570,0.01035
398.97591,0.01592
397.48612,0.02151
395.99633,0.02787
394.50654,0.02397
393.01675,0.01636
391.52697,0.00877
390.03718,0.01956
388.54739,0.00663
387.05760,0.00766
385.56781,0.00871
384.07802,0.00950
382.58824,0.03368
381.09845,0.02667
379.60866,0.01968
378.11887,0.01383
376.62908,0.00727
375.13929,0.00362
373.64950,0.00000
372.15972,0.01686
370.66993,0.05075
369.18014,0.03765
367.69035,0.02457
366.20056,0.05153
364.71077,0.04187
363.22099,0.04429
361.73120,0.04673
360.24141,0.06257
358.75162,0.09525
357.26183,0.08515
355.77204,0.07507
354.28225,0.06053
352.79247,0.06508
351.30268,0.05798
349.81289,0.05089
348.32310,0.06337
346.83331,0.08540
345.34352,0.07670
343.85374,0.06803
342.36395,0.03649
340.87416,0.04515
339.38437,0.04525
337.89458,0.04537
336.40479,0.04812
334.91501,0.07315
333.42522,0.05072
331.93543,0.02831
330.44564,0.00593
328.95585,0.03035
327.46606,0.02723
325.97627,0.02412
324.48649,0.03944
322.99670,0.04637
321.50691,0.05033
320.01712,0.05431
318.52733,0.08505
317.03754,0.05768
315.54776,0.07173
314.05797,0.08581
312.56818,0.09197
311.07839,0.09068
309.58860,0.08053
308.09881,0.07040
306.60902,0.06526
305.11924,0.04406
303.62945,0.03802
302.13966,0.03201
300.64987,0.00677
299.16008,0.00593
