1778.52000,0.00747
1777.03021,0.01205
1775.54042,0.01865
1774.05063,0.01830
1772.56085,0.02096
1771.07106,0.01037
1769.58127,0.02337
1768.09148,0.00220
1766.60169,0.01558
1765.11190,0.01505
1763.62212,0.01387
1762.13233,0.01571
1760.64254,0.01259
1759.15275,0.01082
1757.66296,0.01406
1756.17317,0.00039
1754.68339,0.00882
1753.19360,0.00399
1751.70381,0.00615
1750.21402,0.01100
1748.72423,0.01487
1747.23444,0.01014
1745.74465,0.01207
1744.25487,0.00738
1742.76508,0.00936
1741.27529,0.02166
1739.78550,0.00809
1738.29571,0.01711
1736.80592,0.01122
1735.31614,0.01731
1733.82635,0.01280
1732.33656,0.02093
1730.84677,0.02045
1729.35698,0.02265
1727.86719,0.01557
1726.37740,0.00188
1724.88762,0.00117
1723.39783,0.00429
1721.90804,0.00278
1720.41825,0.01771
1718.92846,0.01539
1717.43867,0.01044
1715.94889,0.01315
1714.45910,0.01124
1712.96931,0.01135
1711.47952,0.01314
1709.98973,0.00698
1708.49994,0.02044
1707.01016,0.02131
1705.52037,0.02220
1704.03058,0.00220
1702.54079,0.01804
1701.05100,0.02361
1699.56121,0.01326
1698.07142,0.01756
1696.58164,0.01589
1695.09185,0.03783
1693.60206,0.02128
1692.11227,0.01969
1690.62248,0.02377
1689.13269,0.03552
1687.64291,0.02869
1686.15312,0.03583
1684.66333,0.03271
1683.17354,0.03425
1681.68375,0.02653
1680.19396,0.03709
1678.70417,0.03805
1677.21439,0.05928
1675.72460,0.07357
1674.23481,0.05169
1672.74502,0.05773
1671.25523,0.06113
1669.76544,0.06688
1668.27566,0.06901
1666.78587,0.08643
1665.29608,0.07067
1663.80629,0.08947
1662.31650,0.10232
1660.82671,0.08963
1659.33693,0.09655
1657.84714,0.09652
1656.35735,0.08921
1654.86756,0.08027
1653.37777,0.08728
1651.88798,0.07274
1650.39819,0.09044
1648.90841,0.07030
1647.41862,0.08273
1645.92883,0.08539
1644.43904,0.08807
1642.94925,0.08264
1641.45946,0.09583
1639.96968,0.09776
1638.47989,0.12594
1636.99010,0.10301
1635.50031,0.09372
1634.01052,0.07748
1632.52073,0.07853
1631.03094,0.09854
1629.54116,0.09798
1628.05137,0.07287
1626.56158,0.08033
1625.07179,0.10973
1623.58200,0.10362
1622.09221,0.07828
1620.60243,0.10975
1619.11264,0.08811
1617.62285,0.10601
1616.13306,0.08508
1614.64327,0.09539
1613.15348,0.07983
1611.66370,0.09484
1610.17391,0.09194
1608.68412,0.09504
1607.19433,0.09751
1605.70454,0.09435
1604.21475,0.08674
1602.72496,0.07915
1601.23518,0.08237
1599.74539,0.08230
1598.25560,0.07230
1596.76581,0.08025
1595.27602,0.09353
1593.78623,0.09622
1592.29645,0.08100
1590.80666,0.07808
1589.31687,0.08649
1587.82708,0.07532
1586.33729,0.09772
1584.84750,0.06702
1583.35771,0.07950
1581.86793,0.08272
1580.37814,0.09625
1578.88835,0.08689
1577.39856,0.07689
1575.90877,0.07755
1574.41898,0.05465
1572.92920,0.07661
1571.43941,0.05476
1569.94962,0.05484
1568.45983,0.05496
1566.97004,0.06439
1565.48025,0.06455
1563.99047,0.05511
1562.50068,0.06229
1561.01089,0.05024
1559.52110,0.04818
1558.03131,0.04913
1556.54152,0.05740
1555.05173,0.04379
1553.56195,0.03253
1552.07216,0.01531
1550.58237,0.00077
1549.09258,0.00718
1547.60279,0.00000
1546.11300,0.01012
1544.62322,0.01627
1543.13343,0.00220
1541.64364,0.02696
1540.15385,0.01538
1538.66406,0.00382
1537.17427,0.01336
1535.68448,0.00731
1534.19470,0.01192
1532.70491,0.00260
1531.21512,0.01356
1529.72533,0.00329
1528.23554,0.00434
1526.74575,0.01836
1525.25597,0.02477
1523.76618,0.02291
1522.27639,0.03966
1520.78660,0.02224
1519.29681,0.03871
1517.80702,0.04159
1516.31724,0.04283
1514.82745,0.06403
1513.33766,0.06001
1511.84787,0.05601
1510.35808,0.05636
1508.86829,0.04544
1507.37850,0.04484
1505.88872,0.04526
1504.39893,0.05168
1502.90914,0.05016
1501.41935,0.06858
1499.92956,0.08636
1498.43977,0.08325
1496.94999,0.08449
1495.46020,0.08740
1493.97041,0.10064
1492.48062,0.09629
1490.99083,0.09995
1489.50104,0.09200
1488.01125,0.10700
1486.52147,0.12201
1485.03168,0.13141
1483.54189,0.18599
1482.05210,0.17850
1480.56231,0.20856
1479.07252,0.18518
1477.58274,0.21163
1476.09295,0.22151
1474.60316,0.22410
1473.11337,0.24366
1471.62358,0.24663
1470.13379,0.25262
1468.64401,0.25066
1467.15422,0.29456
1465.66443,0.29530
1464.17464,0.29608
1462.68485,0.35133
1461.19506,0.39001
1459.70527,0.45395
1458.21549,0.52920
1456.72570,0.54903
1455.23591,0.60573
1453.74612,0.66080
1452.25633,0.68469
1450.76654,0.71457
1449.27676,0.74879
1447.78697,0.72294
1446.29718,0.70607
1444.80739,0.69023
1443.31760,0.67441
1441.82781,0.62840
1440.33802,0.57810
1438.84824,0.53413
1437.35845,0.49815
1435.86866,0.50802
1434.37887,0.54083
1432.88908,0.58031
1431.39929,0.67825
1429.90951,0.74733
1428.41972,0.78920
1426.92993,0.83276
1425.44014,0.85708
1423.95035,0.88126
1422.46056,0.90546
1420.97078,0.93484
1419.48099,0.97055
1417.99120,1.01459
1416.50141,0.96933
1415.01162,0.93106
1413.52183,0.90046
1412.03204,0.83468
1410.54226,0.78420
1409.05247,0.69323
1407.56268,0.65742
1406.07289,0.61764
1404.58310,0.59482
1403.09331,0.57202
1401.60353,0.52800
1400.11374,0.46740
1398.62395,0.41247
1397.13416,0.32734
1395.64437,0.27313
1394.15458,0.21794
1392.66479,0.19266
1391.17501,0.17604
1389.68522,0.13819
1388.19543,0.11862
1386.70564,0.10589
1385.21585,0.09319
1383.72606,0.07138
1382.23628,0.04262
1380.74649,0.03812
1379.25670,0.03332
1377.76691,0.01559
1376.27712,0.00220
1374.78733,0.00430
1373.29755,0.01173
1371.80776,0.03082
1370.31797,0.02967
1368.82818,0.03170
1367.33839,0.03375
1365.84860,0.03633
1364.35881,0.02997
1362.86903,0.05517
1361.37924,0.08074
1359.88945,0.08873
1358.39966,0.11235
1356.90987,0.13035
1355.42008,0.16331
1353.93030,0.23947
1352.44051,0.27929
1350.95072,0.31914
1349.46093,0.42127
1347.97114,0.49620
1346.48135,0.56817
1344.99156,0.62654
1343.50178,0.69690
1342.01199,0.77823
1340.52220,0.84531
1339.03241,0.83405
1337.54262,0.84938
1336.05283,0.90541
1334.56305,0.96147
1333.07326,0.99846
1331.58347,0.99031
1330.09368,0.99347
1328.60389,0.97408
1327.11410,0.95239
1325.62432,0.87461
1324.13453,0.90742
1322.64474,0.89145
1321.15495,0.82437
1319.66516,0.78703
1318.17537,0.74971
1316.68558,0.66543
1315.19580,0.61538
1313.70601,0.59026
1312.21622,0.53993
1310.72643,0.51120
1309.23664,0.45361
1307.74685,0.40401
1306.25707,0.38731
1304.76728,0.36201
1303.27749,0.33672
1301.78770,0.30582
1300.29791,0.29287
1298.80812,0.24110
1297.31834,0.21292
1295.82855,0.19607
1294.33876,0.14968
1292.84897,0.14416
1291.35918,0.10944
1289.86939,0.10878
1288.37960,0.10815
1286.88982,0.11302
1285.40003,0.09136
1283.91024,0.07170
1282.42045,0.06071
1280.93066,0.05472
1279.44087,0.05042
1277.95109,0.05046
1276.46130,0.04288
1274.97151,0.04397
1273.48172,0.04507
1271.99193,0.03093
1270.50214,0.03972
1269.01235,0.02231
1267.52257,0.03613
1266.03278,0.02906
1264.54299,0.03563
1263.05320,0.03126
1261.56341,0.02543
1260.07362,0.01962
1258.58384,0.01167
1257.09405,0.02069
1255.60426,0.01578
1254.11447,0.00259
1252.62468,0.01733
1251.13489,0.00220
1249.64511,0.00996
1248.15532,0.00979
1246.66553,0.01827
1245.17574,0.02677
1243.68595,0.02235
1242.19616,0.01231
1240.70637,0.02155
1239.21659,0.02417
1237.72680,0.01952
1236.23701,0.02784
1234.74722,0.02157
1233.25743,0.02861
1231.76764,0.03567
1230.27786,0.02881
1228.78807,0.02364
1227.29828,0.02547
1225.80849,0.02400
1224.31870,0.01192
1222.82891,0.00220
1221.33912,0.02970
1219.84934,0.03780
1218.35955,0.04593
1216.86976,0.06255
1215.37997,0.06226
1213.89018,0.07096
1212.40039,0.08200
1210.91061,0.07514
1209.42082,0.05536
1207.93103,0.06266
1206.44124,0.06999
1204.95145,0.04828
1203.46166,0.07342
1201.97188,0.05475
1200.48209,0.05504
1198.99230,0.06631
1197.50251,0.05402
1196.01272,0.06102
1194.52293,0.05327
1193.03314,0.04554
1191.54336,0.07187
1190.05357,0.05407
1188.56378,0.05953
1187.07399,0.05771
1185.58420,0.03865
1184.09441,0.02791
1182.60463,0.01504
1181.11484,0.00220
1179.62505,0.02842
1178.13526,0.04569
1176.64547,0.04606
1175.15568,0.04645
1173.66589,0.03691
1172.17611,0.02606
1170.68632,0.02984
1169.19653,0.03365
1167.70674,0.03516
1166.21695,0.03371
1164.72716,0.05320
1163.23738,0.05512
1161.74759,0.05440
1160.25780,0.05404
1158.76801,0.05686
1157.27822,0.05970
1155.78843,0.06074
1154.29865,0.05650
1152.80886,0.07419
1151.31907,0.11848
1149.82928,0.12592
1148.33949,0.14568
1146.84970,0.13973
1145.35991,0.13381
1143.87013,0.13438
1142.38034,0.16719
1140.89055,0.15586
1139.40076,0.16647
1137.91097,0.19769
1136.42118,0.21200
1134.93140,0.22218
1133.44161,0.23239
1131.95182,0.24744
1130.46203,0.26882
1128.97224,0.23079
1127.48245,0.22831
1125.99266,0.25110
1124.50288,0.23107
1123.01309,0.23265
1121.52330,0.23425
1120.03351,0.21928
1118.54372,0.24617
1117.05393,0.27707
1115.56415,0.25653
1114.07436,0.27984
1112.58457,0.27661
1111.09478,0.27341
1109.60499,0.25728
1108.11520,0.26641
1106.62542,0.26593
1105.13563,0.28673
1103.64584,0.26971
1102.15605,0.25934
1100.66626,0.24203
1099.17647,0.22475
1097.68668,0.23172
1096.19690,0.22677
1094.70711,0.20956
1093.21732,0.23122
1091.72753,0.19546
1090.23774,0.18961
1088.74795,0.18379
1087.25817,0.16337
1085.76838,0.17918
1084.27859,0.19003
1082.78880,0.17102
1081.29901,0.19222
1079.80922,0.19384
1078.31943,0.18537
1076.82965,0.17691
1075.33986,0.17197
1073.85007,0.21355
1072.36028,0.18939
1070.87049,0.22537
1069.38070,0.29458
1067.89092,0.28660
1066.40113,0.27866
1064.91134,0.31871
1063.42155,0.41425
1061.93176,0.46399
1060.44197,0.53633
1058.95219,0.62430
1057.46240,0.66050
1055.97261,0.69672
1054.48282,0.81997
1052.99303,0.88911
1051.50324,0.89851
1050.01345,0.89897
1048.52367,0.85263
1047.03388,0.84417
1045.54409,0.83573
1044.05430,0.77020
1042.56451,0.75584
1041.07472,0.70564
1039.58494,0.67771
1038.09515,0.58007
1036.60536,0.53990
1035.11557,0.49976
1033.62578,0.46396
1032.13599,0.42354
1030.64620,0.36919
1029.15642,0.31985
1027.66663,0.28730
1026.17684,0.25477
1024.68705,0.22377
1023.19726,0.18250
1021.70747,0.13792
1020.21769,0.11662
1018.72790,0.11925
1017.23811,0.12075
1015.74832,0.12227
1014.25853,0.12497
1012.76874,0.12670
1011.27896,0.11020
1009.78917,0.09571
1008.29938,0.08091
1006.80959,0.06398
1005.31980,0.04707
1003.83001,0.04397
1002.34022,0.01068
1000.85044,0.02024
999.36065,0.01655
997.87086,0.02069
996.38107,0.02485
994.89128,0.04182
993.40149,0.03490
991.91171,0.08679
990.42192,0.11080
988.93213,0.11260
987.44234,0.10229
985.95255,0.09202
984.46276,0.10916
982.97297,0.08747
981.48319,0.07843
979.99340,0.05812
978.50361,0.04863
977.01382,0.03916
975.52403,0.04084
974.03424,0.02262
972.54446,0.01207
971.05467,0.00220
969.56488,0.01341
968.07509,0.02430
966.58530,0.03523
965.09551,0.01297
963.60573,0.00203
962.11594,0.01382
960.62615,0.01800
959.13636,0.02154
957.64657,0.02510
956.15678,0.02902
954.66699,0.03628
953.17721,0.04855
951.68742,0.03561
950.19763,0.03199
948.70784,0.02840
947.21805,0.05239
945.72826,0.10396
944.23848,0.09646
942.74869,0.11720
941.25890,0.13166
939.76911,0.13850
938.27932,0.14537
936.78953,0.14330
935.29974,0.19140
933.80996,0.19768
932.32017,0.19867
930.83038,0.21346
929.34059,0.22828
927.85080,0.25591
926.36101,0.30847
924.87123,0.30294
923.38144,0.34891
921.89165,0.40071
920.40186,0.45254
918.91207,0.54739
917.42228,0.62899
915.93250,0.78864
914.44271,0.96824
912.95292,1.07531
911.46313,1.18241
909.97334,1.42517
908.48355,1.62546
906.99376,1.77795
905.50398,1.85676
904.01419,1.90885
902.52440,1.96097
901.03461,2.00000
899.54482,1.97829
898.05503,1.89583
896.56525,1.65533
895.07546,1.51365
893.58567,1.37200
892.09588,1.07446
890.60609,0.86429
889.11630,0.67007
887.62651,0.49680
886.13673,0.43513
884.64694,0.37348
883.15715,0.26902
881.66736,0.18650
880.17757,0.15846
878.68778,0.12231
877.19800,0.08619
875.70821,0.05424
874.21842,0.04191
872.72863,0.05119
871.23884,0.03591
869.74905,0.02000
868.25927,0.00411
866.76948,0.00220
865.27969,0.01722
863.78990,0.05253
862.30011,0.04270
860.81032,0.04086
859.32053,0.03905
857.83075,0.05884
856.34096,0.08165
854.85117,0.07593
853.36138,0.08716
851.87159,0.10174
850.38180,0.11635
848.89202,0.10143
847.40223,0.14464
845.91244,0.14670
844.42265,0.15791
842.93286,0.16915
841.44307,0.19387
839.95329,0.19237
838.46350,0.20087
836.97371,0.20440
835.48392,0.21294
833.99413,0.22151
832.50434,0.20453
831.01455,0.18359
829.52477,0.18293
828.03498,0.15042
826.54519,0.14085
825.05540,0.13129
823.56561,0.13107
822.07582,0.11094
820.58604,0.11574
819.09625,0.10662
817.60646,0.09752
816.11667,0.09210
814.62688,0.10298
813.13709,0.11322
811.64730,0.09326
810.15752,0.09773
808.66773,0.10223
807.17794,0.08102
805.68815,0.09503
804.19836,0.08649
802.70857,0.08345
801.21879,0.08043
799.72900,0.08823
798.23921,0.09805
796.74942,0.08930
795.25963,0.09103
793.76984,0.09278
792.28006,0.10868
790.79027,0.10932
789.30048,0.11729
787.81069,0.16680
786.32090,0.17664
784.83111,0.18651
783.34132,0.21716
781.85154,0.23921
780.36175,0.26227
778.87196,0.28203
777.38217,0.30182
775.89238,0.34621
774.40259,0.34280
772.91281,0.34806
771.42302,0.33441
769.93323,0.32078
768.44344,0.28161
766.95365,0.21789
765.46386,0.18575
763.97407,0.15030
762.48429,0.14892
760.99450,0.14756
759.50471,0.13743
758.01492,0.11171
756.52513,0.10362
755.03534,0.10518
753.54556,0.10677
752.05577,0.09809
750.56598,0.07183
749.07619,0.06851
747.58640,0.04944
746.09661,0.03039
744.60683,0.03047
743.11704,0.03123
741.62725,0.02703
740.13746,0.02303
738.64767,0.01905
737.15788,0.02622
735.66809,0.00220
734.17831,0.00194
732.68852,0.00880
731.19873,0.01570
729.70894,0.02560
728.21915,0.01893
726.72936,0.02058
725.23958,0.02491
723.74979,0.01881
722.26000,0.01273
720.77021,0.00220
719.28042,0.01283
717.79063,0.01186
716.30084,0.01191
714.81106,0.01199
713.32127,0.02703
711.83148,0.05007
710.34169,0.03859
708.85190,0.03528
707.36211,0.03199
705.87233,0.05114
704.38254,0.05471
702.89275,0.03572
701.40296,0.04648
699.91317,0.05726
698.42338,0.07653
696.93360,0.08155
695.44381,0.11283
693.95402,0.11789
692.46423,0.12299
690.97444,0.13807
689.48465,0.13324
687.99486,0.18689
686.50508,0.18876
685.01529,0.19065
683.52550,0.23541
682.03571,0.23735
680.54592,0.25957
679.05613,0.26505
677.56635,0.27056
676.07656,0.28422
674.58677,0.24378
673.09698,0.23657
671.60719,0.22640
670.11740,0.21625
668.62761,0.19185
667.13783,0.15353
665.64804,0.13366
664.15825,0.11381
662.66846,0.11076
661.17867,0.08449
659.68888,0.07120
658.19910,0.06573
656.70931,0.06028
655.21952,0.05569
653.72973,0.04582
652.23994,0.06186
650.75015,0.06880
649.26037,0.07577
647.77058,0.05271
646.28079,0.04793
644.79100,0.03222
643.30121,0.04095
641.81142,0.04969
640.32163,0.03306
638.83185,0.03472
637.34206,0.00220
635.85227,0.00297
634.36248,0.00377
632.87269,0.01423
631.38290,0.02338
629.89312,0.05148
628.40333,0.03793
626.91354,0.02441
625.42375,0.02569
623.93396,0.02002
622.44417,0.01437
620.95438,0.00875
619.46460,0.01345
617.97481,0.02349
616.48502,0.04882
614.99523,0.06372
613.50544,0.07864
612.01565,0.09708
610.52587,0.14575
609.03608,0.16357
607.54629,0.18258
606.05650,0.20161
604.56671,0.25935
603.07692,0.30682
601.58714,0.33788
600.09735,0.36896
598.60756,0.41252
597.11777,0.41161
595.62798,0.42965
594.13819,0.41517
592.64840,0.40072
591.15862,0.35707
589.66883,0.33104
588.17904,0.29076
586.68925,0.25399
585.19946,0.21724
583.70967,0.14051
582.21989,0.12424
580.73010,0.10815
579.24031,0.09209
577.75052,0.07755
576.26073,0.06171
574.77094,0.05718
573.28115,0.04819
571.79137,0.03923
570.30158,0.04174
568.81179,0.06288
567.32200,0.06628
565.83221,0.06970
564.34242,0.08028
562.85264,0.07761
561.36285,0.10518
559.87306,0.11318
558.38327,0.12121
556.89348,0.14387
555.40369,0.17984
553.91391,0.18594
552.42412,0.19207
550.93433,0.15838
549.44454,0.17320
547.95475,0.18770
546.46496,0.17683
544.97517,0.16598
543.48539,0.19451
541.99560,0.21941
540.50581,0.24002
539.01602,0.26065
537.52623,0.30521
536.03644,0.38068
534.54666,0.40969
533.05687,0.43158
531.56708,0.45349
530.07729,0.53570
528.58750,0.58705
527.09771,0.62000
525.60792,0.65297
524.11814,0.66886
522.62835,0.74323
521.13856,0.77544
519.64877,0.79672
518.15898,0.81803
516.66919,0.85729
515.17941,0.82120
513.68962,0.84158
512.19983,0.86199
510.71004,0.85021
509.22025,0.79496
507.73046,0.72379
506.24068,0.64600
504.75089,0.56824
503.26110,0.50412
501.77131,0.41745
500.28152,0.35852
498.79173,0.29962
497.30194,0.22497
495.81216,0.15931
494.32237,0.14747
492.83258,0.13565
491.34279,0.11490
489.85300,0.09582
488.36321,0.09736
486.87343,0.06240
485.38364,0.02746
483.89385,0.05697
482.40406,0.06824
480.91427,0.07355
479.42448,0.07889
477.93469,0.10152
476.44491,0.11820
474.95512,0.13374
473.46533,0.14931
471.97554,0.16207
470.48575,0.19280
468.99596,0.16012
467.50618,0.14490
466.01639,0.12971
464.52660,0.08980
463.03681,0.06752
461.54702,0.06983
460.05723,0.07216
458.56745,0.03900
457.07766,0.02279
455.58787,0.02403
454.09808,0.02531
452.60829,0.00220
451.11850,0.00674
449.62871,0.02426
448.13893,0.04180
446.64914,0.01918
445.15935,0.00987
443.66956,0.01520
442.17977,0.02005
440.68998,0.02493
439.20020,0.03166
437.71041,0.02414
436.22062,0.01647
434.73083,0.00883
433.24104,0.04953
431.75125,0.02749
430.26146,0.02590
428.77168,0.02433
427.28189,0.04188
425.79210,0.06045
424.30231,0.04966
422.81252,0.03890
421.32273,0.05024
419.83295,0.02839
418.34316,0.02700
416.85337,0.02563
415.36358,0.00220
413.87379,0.02405
412.38400,0.03879
410.89422,0.05355
409.40443,0.05721
407.91464,0.04994
406.42485,0.05033
404.93506,0.06021
403.44527,0.07011
401.95548,0.05630
400.46570,0.02491
398.97591,0.03771
397.48612,0.05053
395.99633,0.05940
394.50654,0.03774
393.01675,0.04233
391.52697,0.04695
390.03718,0.02072
388.54739,0.01406
387.05760,0.01042
385.56781,0.00680
384.07802,0.05861
382.58824,0.06162
381.09845,0.06566
379.60866,0.06972
378.11887,0.01835
376.62908,0.00220
375.13929,0.01017
373.64950,0.01816
372.15972,0.03581
370.66993,0.06942
369.18014,0.04710
367.69035,0.02481
366.20056,0.04532
364.71077,0.03896
363.22099,0.02948
361.73120,0.02001
360.24141,0.04993
358.75162,0.08119
357.26183,0.05653
355.77204,0.03189
354.28225,0.03168
352.79247,0.05640
351.30268,0.05192
349.81289,0.04747
348.32310,0.02611
346.83331,0.07683
345.34352,0.06631
343.85374,0.05581
342.36395,0.03123
340.87416,0.04618
339.38437,0.04622
337.89458,0.04628
336.40479,0.04802
334.91501,0.05976
333.42522,0.04711
331.93543,0.03448
330.44564,0.02337
328.95585,0.01262
327.46606,0.01153
325.97627,0.01046
324.48649,0.04102
322.99670,0.03441
321.50691,0.04542
320.01712,0.05646
318.52733,0.08646
317.03754,0.07795
315.54776,0.08691
314.05797,0.09589
312.56818,0.11436
311.07839,0.12023
309.58860,0.10820
308.09881,0.09619
306.60902,0.10181
305.11924,0.06129
303.62945,0.03541
302.13966,0.00955
300.64987,0.00220
299.16008,0.00220
