1778.52000,0.02305
1777.03021,0.01985
1775.54042,0.01870
1774.05063,0.01641
1772.56085,0.01820
1771.07106,0.01943
1769.58127,0.00451
1768.09148,0.01186
1766.60169,0.01403
1765.11190,0.01883
1763.62212,0.01123
1762.13233,0.01290
1760.64254,0.01603
1759.15275,0.02035
1757.66296,0.02181
1756.17317,0.02271
1754.68339,0.01699
1753.19360,0.01187
1751.70381,0.01602
1750.21402,0.01442
1748.72423,0.01053
1747.23444,0.01332
1745.74465,0.00832
1744.25487,0.00451
1742.76508,0.02890
1741.27529,0.02413
1739.78550,0.02054
1738.29571,0.01005
1736.80592,0.01922
1735.31614,0.02004
1733.82635,0.01569
1732.33656,0.01049
1730.84677,0.01081
1729.35698,0.01953
1727.86719,0.00863
1726.37740,0.00208
1724.88762,0.00662
1723.39783,0.01148
1721.90804,0.00451
1720.41825,0.00663
1718.92846,0.01744
1717.43867,0.01440
1715.94889,0.01660
1714.45910,0.01101
1712.96931,0.01036
1711.47952,0.01263
1709.98973,0.01290
1708.49994,0.01377
1707.01016,0.00932
1705.52037,0.00489
1704.03058,0.01682
1702.54079,0.01923
1701.05100,0.01618
1699.56121,0.01113
1698.07142,0.01795
1696.58164,0.01584
1695.09185,0.00451
1693.60206,0.02491
1692.11227,0.02107
1690.62248,0.03343
1689.13269,0.03772
1687.64291,0.03222
1686.15312,0.02501
1684.66333,0.04064
1683.17354,0.04186
1681.68375,0.05610
1680.19396,0.04147
1678.70417,0.06415
1677.21439,0.06922
1675.72460,0.06622
1674.23481,0.05718
1672.74502,0.05626
1671.25523,0.06258
1669.76544,0.06806
1668.27566,0.07039
1666.78587,0.09211
1665.29608,0.08350
1663.80629,0.06481
1662.31650,0.08169
1660.82671,0.09223
1659.33693,0.07795
1657.84714,0.09085
1656.35735,0.07662
1654.86756,0.09362
1653.37777,0.08492
1651.88798,0.07423
1650.39819,0.09506
1648.90841,0.07257
1647.41862,0.08333
1645.92883,0.08040
1644.43904,0.07748
1642.94925,0.09381
1641.45946,0.08936
1639.96968,0.09620
1638.47989,0.07880
1636.99010,0.08598
1635.50031,0.09607
1634.01052,0.08683
1632.52073,0.08917
1631.03094,0.07045
1629.54116,0.08555
1628.05137,0.08768
1626.56158,0.09445
1625.07179,0.10096
1623.58200,0.07918
1622.09221,0.08834
1620.60243,0.10100
1619.11264,0.09345
1617.62285,0.09892
1616.13306,0.08333
1614.64327,0.07412
1613.15348,0.08343
1611.66370,0.09565
1610.17391,0.07785
1608.68412,0.07568
1607.19433,0.08075
1605.70454,0.08902
1604.21475,0.08432
1602.72496,0.07964
1601.23518,0.07123
1599.74539,0.09059
1598.25560,0.07269
1596.76581,0.08111
1595.27602,0.07772
1593.78623,0.08359
1592.29645,0.07012
1590.80666,0.06333
1589.31687,0.06350
1587.82708,0.08883
1586.33729,0.08529
1584.84750,0.07715
1583.35771,0.07481
1581.86793,0.06615
1580.37814,0.07137
1578.88835,0.08327
1577.39856,0.07641
1575.90877,0.06958
1574.41898,0.05814
1572.92920,0.04616
1571.43941,0.05615
1569.94962,0.05231
1568.45983,0.04849
1566.97004,0.05885
1565.48025,0.04236
1563.99047,0.03225
1562.50068,0.04876
1561.01089,0.03754
1559.52110,0.03214
1558.03131,0.03166
1556.54152,0.01879
1555.05173,0.02184
1553.56195,0.03444
1552.07216,0.02540
1550.58237,0.03054
1549.09258,0.01664
1547.60279,0.01692
1546.11300,0.00451
1544.62322,0.01182
1543.13343,0.01251
1541.64364,0.01554
1540.15385,0.01281
1538.66406,0.01011
1537.17427,0.02072
1535.68448,0.00853
1534.19470,0.01891
1532.70491,0.02063
1531.21512,0.01748
1529.72533,0.01897
1528.23554,0.00661
1526.74575,0.01653
1525.25597,0.03370
1523.76618,0.02517
1522.27639,0.03921
1520.78660,0.02669
1519.29681,0.05263
1517.80702,0.03380
1516.31724,0.03493
1514.82745,0.03609
1513.33766,0.04233
1511.84787,0.04860
1510.35808,0.05069
1508.86829,0.07131
1507.37850,0.07201
1505.88872,0.06147
1504.39893,0.06454
1502.90914,0.07716
1501.41935,0.06150
1499.92956,0.03921
1498.43977,0.07011
1496.94999,0.07243
1495.46020,0.07073
1493.97041,0.07397
1492.48062,0.08301
1490.99083,0.09843
1489.50104,0.10781
1488.01125,0.11447
1486.52147,0.12115
1485.03168,0.12627
1483.54189,0.13141
1482.05210,0.13600
1480.56231,0.15940
1479.07252,0.20160
1477.58274,0.19355
1476.09295,0.19997
1474.60316,0.21538
1473.11337,0.21376
1471.62358,0.22314
1470.13379,0.25393
1468.64401,0.28475
1467.15422,0.28959
1465.66443,0.31308
1464.17464,0.33660
1462.68485,0.34700
1461.19506,0.39788
1459.70527,0.44618
1458.21549,0.47659
1456.72570,0.49576
1455.23591,0.55338
1453.74612,0.61304
1452.25633,0.67360
1450.76654,0.68564
1449.27676,0.69078
1447.78697,0.68380
1446.29718,0.64679
1444.80739,0.63264
1443.31760,0.61851
1441.82781,0.57580
1440.33802,0.54843
1438.84824,0.46648
1437.35845,0.44205
1435.86866,0.44538
1434.37887,0.43053
1432.88908,0.50441
1431.39929,0.56907
1429.90951,0.64878
1428.41972,0.70453
1426.92993,0.76666
1425.44014,0.81004
1423.95035,0.84217
1422.46056,0.87433
1420.97078,0.93425
1419.48099,0.99362
1417.99120,0.99551
1416.50141,0.95553
1415.01162,0.92945
1413.52183,0.88605
1412.03204,0.83170
1410.54226,0.77737
1409.05247,0.73867
1407.56268,0.65608
1406.07289,0.56571
1404.58310,0.53416
1403.09331,0.50264
1401.60353,0.43402
1400.11374,0.37871
1398.62395,0.33122
1397.13416,0.30225
1395.64437,0.24355
1394.15458,0.19672
1392.66479,0.16031
1391.17501,0.14271
1389.68522,0.11705
1388.19543,0.08852
1386.70564,0.08284
1385.21585,0.07718
1383.72606,0.03890
1382.23628,0.02231
1380.74649,0.01962
1379.25670,0.01984
1377.76691,0.02240
1376.27712,0.01112
1374.78733,0.00592
1373.29755,0.00451
1371.80776,0.01889
1370.31797,0.00527
1368.82818,0.00662
1367.33839,0.00800
1365.84860,0.02919
1364.35881,0.04290
1362.86903,0.04132
1361.37924,0.05277
1359.88945,0.05788
1358.39966,0.07833
1356.90987,0.10632
1355.42008,0.15947
1353.93030,0.20889
1352.44051,0.24996
1350.95072,0.29105
1349.46093,0.34083
1347.97114,0.41808
1346.48135,0.48034
1344.99156,0.56805
1343.50178,0.65029
1342.01199,0.70048
1340.52220,0.77497
1339.03241,0.79834
1337.54262,0.87953
1336.05283,0.90136
1334.56305,0.92322
1333.07326,1.04377
1331.58347,1.08027
1330.09368,1.06681
1328.60389,1.03170
1327.11410,0.96339
1325.62432,0.91561
1324.13453,0.85168
1322.64474,0.79327
1321.15495,0.76175
1319.66516,0.74037
1318.17537,0.71901
1316.68558,0.64567
1315.19580,0.58825
1313.70601,0.51813
1312.21622,0.47116
1310.72643,0.47969
1309.23664,0.44143
1307.74685,0.41302
1306.25707,0.36152
1304.76728,0.33967
1303.27749,0.31783
1301.78770,0.29328
1300.29791,0.25142
1298.80812,0.21998
1297.31834,0.18596
1295.82855,0.16151
1294.33876,0.14575
1292.84897,0.09823
1291.35918,0.09234
1289.86939,0.09139
1288.37960,0.09046
1286.88982,0.10747
1285.40003,0.10110
1283.91024,0.09302
1282.42045,0.08468
1280.93066,0.05007
1279.44087,0.05276
1277.95109,0.06212
1276.46130,0.05734
1274.97151,0.04017
1273.48172,0.02302
1271.99193,0.02872
1270.50214,0.02953
1269.01235,0.04106
1267.52257,0.04394
1266.03278,0.05176
1264.54299,0.03129
1263.05320,0.03338
1261.56341,0.03536
1260.07362,0.03735
1258.58384,0.01265
1257.09405,0.00588
1255.60426,0.02890
1254.11447,0.00542
1252.62468,0.00451
1251.13489,0.02704
1249.64511,0.01522
1248.15532,0.02885
1246.66553,0.03080
1245.17574,0.03278
1243.68595,0.01874
1242.19616,0.02900
1240.70637,0.03264
1239.21659,0.04295
1237.72680,0.03277
1236.23701,0.03619
1234.74722,0.05351
1233.25743,0.03878
1231.76764,0.02408
1230.27786,0.02153
1228.78807,0.03750
1227.29828,0.02749
1225.80849,0.00451
1224.31870,0.00533
1222.82891,0.02293
1221.33912,0.02698
1219.84934,0.03583
1218.35955,0.04469
1216.86976,0.04275
1215.37997,0.06163
1213.89018,0.07014
1212.40039,0.05209
1210.91061,0.04359
1209.42082,0.04813
1207.93103,0.04922
1206.44124,0.05034
1204.95145,0.05061
1203.46166,0.04860
1201.97188,0.05615
1200.48209,0.04957
1198.99230,0.04011
1197.50251,0.04629
1196.01272,0.04180
1194.52293,0.03864
1193.03314,0.03550
1191.54336,0.04958
1190.05357,0.02323
1188.56378,0.01742
1187.07399,0.02463
1185.58420,0.01598
1184.09441,0.01891
1182.60463,0.01450
1181.11484,0.01011
1179.62505,0.00503
1178.13526,0.01615
1176.64547,0.02816
1175.15568,0.00697
1173.66589,0.02279
1172.17611,0.03718
1170.68632,0.02083
1169.19653,0.00451
1167.70674,0.01988
1166.21695,0.02200
1164.72716,0.03251
1163.23738,0.04074
1161.74759,0.08164
1160.25780,0.06853
1158.76801,0.06716
1157.27822,0.06580
1155.78843,0.09611
1154.29865,0.10160
1152.80886,0.09410
1151.31907,0.13980
1149.82928,0.16501
1148.33949,0.18302
1146.84970,0.18328
1145.35991,0.18357
1143.87013,0.19703
1142.38034,0.18595
1140.89055,0.19310
1139.40076,0.17919
1137.91097,0.19679
1136.42118,0.20864
1134.93140,0.21315
1133.44161,0.21768
1131.95182,0.21226
1130.46203,0.23143
1128.97224,0.21856
1127.48245,0.21466
1125.99266,0.24258
1124.50288,0.25982
1123.01309,0.24733
1121.52330,0.23487
1120.03351,0.24034
1118.54372,0.24238
1117.05393,0.24761
1115.56415,0.25056
1114.07436,0.24573
1112.58457,0.25046
1111.09478,0.25521
1109.60499,0.26433
1108.11520,0.24862
1106.62542,0.22571
1105.13563,0.25830
1103.64584,0.21030
1102.15605,0.21839
1100.66626,0.19948
1099.17647,0.18059
1097.68668,0.19048
1096.19690,0.20328
1094.70711,0.21467
1093.21732,0.19053
1091.72753,0.18983
1090.23774,0.18857
1088.74795,0.18734
1087.25817,0.17487
1085.76838,0.14739
1084.27859,0.13612
1082.78880,0.15348
1081.29901,0.16219
1079.80922,0.18798
1078.31943,0.19198
1076.82965,0.19600
1075.33986,0.21926
1073.85007,0.20123
1072.36028,0.17831
1070.87049,0.19817
1069.38070,0.20506
1067.89092,0.23047
1066.40113,0.25590
1064.91134,0.32007
1063.42155,0.38167
1061.93176,0.48519
1060.44197,0.55030
1058.95219,0.61833
1057.46240,0.66948
1055.97261,0.72065
1054.48282,0.75091
1052.99303,0.76933
1051.50324,0.81842
1050.01345,0.85365
1048.52367,0.85626
1047.03388,0.82755
1045.54409,0.79886
1044.05430,0.74434
1042.56451,0.69013
1041.07472,0.64374
1039.58494,0.59363
1038.09515,0.54527
1036.60536,0.50604
1035.11557,0.46683
1033.62578,0.41017
1032.13599,0.38069
1030.64620,0.30992
1029.15642,0.25275
1027.66663,0.23071
1026.17684,0.20870
1024.68705,0.22904
1023.19726,0.15637
1021.70747,0.12793
1020.21769,0.11165
1018.72790,0.12140
1017.23811,0.10936
1015.74832,0.09735
1014.25853,0.10890
1012.76874,0.08090
1011.27896,0.10291
1009.78917,0.08651
1008.29938,0.06523
1006.80959,0.05018
1005.31980,0.03516
1003.83001,0.02753
1002.34022,0.02311
1000.85044,0.02593
999.36065,0.04004
997.87086,0.04797
996.38107,0.05592
994.89128,0.06231
993.40149,0.10542
991.91171,0.11099
990.42192,0.10358
988.93213,0.12625
987.44234,0.12785
985.95255,0.12947
984.46276,0.11291
982.97297,0.13424
981.48319,0.12264
979.99340,0.08102
978.50361,0.08060
977.01382,0.08021
975.52403,0.05282
974.03424,0.05377
972.54446,0.02239
971.05467,0.01473
969.56488,0.01864
968.07509,0.02186
966.58530,0.02511
965.09551,0.02072
963.60573,0.00451
962.11594,0.02407
960.62615,0.00724
959.13636,0.01370
957.64657,0.02019
956.15678,0.01384
954.66699,0.02196
953.17721,0.03762
951.68742,0.03251
950.19763,0.03536
948.70784,0.03823
947.21805,0.05486
945.72826,0.09838
944.23848,0.10090
942.74869,0.11471
941.25890,0.11207
939.76911,0.12406
938.27932,0.13606
936.78953,0.14188
935.29974,0.17575
933.80996,0.18335
932.32017,0.21872
930.83038,0.22550
929.34059,0.23231
927.85080,0.27584
926.36101,0.33008
924.87123,0.38579
923.38144,0.46031
921.89165,0.48631
920.40186,0.51234
918.91207,0.61640
917.42228,0.69969
915.93250,0.83038
914.44271,0.99346
912.95292,1.07422
911.46313,1.15500
909.97334,1.35630
908.48355,1.57293
906.99376,1.76965
905.50398,1.85256
904.01419,1.89446
902.52440,1.93638
901.03461,2.00000
899.54482,1.99806
898.05503,1.86496
896.56525,1.64780
895.07546,1.52183
893.58567,1.39589
892.09588,1.10109
890.60609,0.82249
889.11630,0.61702
887.62651,0.46097
886.13673,0.38673
884.64694,0.31251
883.15715,0.22357
881.66736,0.17165
880.17757,0.11773
878.68778,0.10688
877.19800,0.09606
875.70821,0.06533
874.21842,0.03635
872.72863,0.04150
871.23884,0.03540
869.74905,0.02845
868.25927,0.02154
866.76948,0.01985
865.27969,0.01095
863.78990,0.02318
862.30011,0.03139
860.81032,0.03644
859.32053,0.04152
857.83075,0.03246
856.34096,0.04654
854.85117,0.06470
853.36138,0.09096
851.87159,0.09486
850.38180,0.09879
848.89202,0.09335
847.40223,0.13763
845.91244,0.12992
844.42265,0.15273
842.93286,0.17556
841.44307,0.16244
839.95329,0.19470
838.46350,0.18452
836.97371,0.19228
835.48392,0.19371
833.99413,0.19516
832.50434,0.17554
831.01455,0.19380
829.52477,0.18463
828.03498,0.13475
826.54519,0.12939
825.05540,0.12405
823.56561,0.10776
822.07582,0.10912
820.58604,0.08219
819.09625,0.07710
817.60646,0.07203
816.11667,0.07984
814.62688,0.09750
813.13709,0.09728
811.64730,0.07974
810.15752,0.06757
808.66773,0.05542
807.17794,0.07032
805.68815,0.09073
804.19836,0.08314
802.70857,0.08756
801.21879,0.09201
799.72900,0.08854
798.23921,0.07064
796.74942,0.08224
795.25963,0.08087
793.76984,0.07952
792.28006,0.11084
790.79027,0.09393
789.30048,0.12733
787.81069,0.13474
786.32090,0.13814
784.83111,0.14156
783.34132,0.19065
781.85154,0.21319
780.36175,0.24095
778.87196,0.25126
777.38217,0.26159
775.89238,0.29550
774.40259,0.32221
772.91281,0.31629
771.42302,0.29941
769.93323,0.28256
768.44344,0.28943
766.95365,0.23738
765.46386,0.21107
763.97407,0.17930
762.48429,0.15564
760.99450,0.13200
759.50471,0.08672
758.01492,0.09549
756.52513,0.08407
755.03534,0.08552
753.54556,0.08700
752.05577,0.07970
750.56598,0.07126
749.07619,0.04522
747.58640,0.04535
746.09661,0.04551
744.60683,0.06346
743.11704,0.05515
741.62725,0.02866
740.13746,0.02588
738.64767,0.02313
737.15788,0.00451
735.66809,0.01628
734.17831,0.02462
732.68852,0.02185
731.19873,0.01911
729.70894,0.02289
728.21915,0.01977
726.72936,0.02187
725.23958,0.03844
723.74979,0.02831
722.26000,0.01820
720.77021,0.00451
719.28042,0.01587
717.79063,0.01282
716.30084,0.01051
714.81106,0.00822
713.32127,0.05205
711.83148,0.04706
710.34169,0.04644
708.85190,0.05567
707.36211,0.06492
705.87233,0.09124
704.38254,0.08349
702.89275,0.09571
701.40296,0.09206
699.91317,0.08843
698.42338,0.08771
696.93360,0.10292
695.44381,0.11352
693.95402,0.11548
692.46423,0.11746
690.97444,0.12525
689.48465,0.14982
687.99486,0.16806
686.50508,0.17275
685.01529,0.17745
683.52550,0.19808
682.03571,0.21410
680.54592,0.22727
679.05613,0.23164
677.56635,0.23604
676.07656,0.24407
674.58677,0.23451
673.09698,0.18943
671.60719,0.17976
670.11740,0.17013
668.62761,0.13090
667.13783,0.13099
665.64804,0.12591
664.15825,0.12085
662.66846,0.10599
661.17867,0.06631
659.68888,0.04456
658.19910,0.04133
656.70931,0.03813
655.21952,0.03698
653.72973,0.03238
652.23994,0.04745
650.75015,0.03669
649.26037,0.02595
647.77058,0.04717
646.28079,0.04212
644.79100,0.02235
643.30121,0.02053
641.81142,0.01873
640.32163,0.00713
638.83185,0.00451
637.34206,0.01818
635.85227,0.01657
634.36248,0.01498
632.87269,0.00908
631.38290,0.02054
629.89312,0.01526
628.40333,0.01767
626.91354,0.02011
625.42375,0.02415
623.93396,0.01291
622.44417,0.01412
620.95438,0.01535
619.46460,0.00014
617.97481,0.03811
616.48502,0.03653
614.99523,0.05909
613.50544,0.08169
612.01565,0.14230
610.52587,0.16046
609.03608,0.18645
607.54629,0.21333
606.05650,0.24023
604.56671,0.27323
603.07692,0.28429
601.58714,0.30275
600.09735,0.32122
598.60756,0.33236
597.11777,0.35334
595.62798,0.38129
594.13819,0.37039
592.64840,0.35952
591.15862,0.31791
589.66883,0.26476
588.17904,0.22233
586.68925,0.19379
585.19946,0.16527
583.70967,0.15151
582.21989,0.12334
580.73010,0.10703
579.24031,0.09075
577.75052,0.07391
576.26073,0.06837
574.77094,0.02905
573.28115,0.03020
571.79137,0.03138
570.30158,0.05165
568.81179,0.07975
567.32200,0.08129
565.83221,0.08285
564.34242,0.11767
562.85264,0.09993
561.36285,0.12641
559.87306,0.13415
558.38327,0.14190
556.89348,0.12743
555.40369,0.14102
553.91391,0.17110
552.42412,0.20120
550.93433,0.17296
549.44454,0.21091
547.95475,0.15614
546.46496,0.16800
544.97517,0.17987
543.48539,0.21821
541.99560,0.24329
540.50581,0.25900
539.01602,0.27473
537.52623,0.31288
536.03644,0.39006
534.54666,0.35892
533.05687,0.38775
531.56708,0.41661
530.07729,0.44621
528.58750,0.47758
527.09771,0.50868
525.60792,0.53980
524.11814,0.57962
522.62835,0.62466
521.13856,0.65441
519.64877,0.67725
518.15898,0.70012
516.66919,0.77444
515.17941,0.77714
513.68962,0.77624
512.19983,0.77537
510.71004,0.75733
509.22025,0.69887
507.73046,0.63234
506.24068,0.56424
504.75089,0.49617
503.26110,0.41758
501.77131,0.34826
500.28152,0.33444
498.79173,0.32064
497.30194,0.26093
495.81216,0.21107
494.32237,0.20890
492.83258,0.20676
491.34279,0.15033
489.85300,0.13292
488.36321,0.10485
486.87343,0.08706
485.38364,0.06930
483.89385,0.11527
482.40406,0.09770
480.91427,0.09345
479.42448,0.08922
477.93469,0.12055
476.44491,0.12070
474.95512,0.11973
473.46533,0.11877
471.97554,0.15743
470.48575,0.15710
468.99596,0.13195
467.50618,0.12677
466.01639,0.12160
464.52660,0.12946
463.03681,0.09748
461.54702,0.08141
460.05723,0.06536
458.56745,0.02016
457.07766,0.03277
455.58787,0.03327
454.09808,0.03379
452.60829,0.03174
451.11850,0.01440
449.62871,0.01052
448.13893,0.00666
446.64914,0.03475
445.15935,0.00451
443.66956,0.01219
442.17977,0.02697
440.68998,0.04177
439.20020,0.00619
437.71041,0.03303
436.22062,0.03534
434.73083,0.03768
433.24104,0.04062
431.75125,0.03694
430.26146,0.02071
428.77168,0.00451
427.28189,0.03106
425.79210,0.05272
424.30231,0.05028
422.81252,0.04787
421.32273,0.06614
419.83295,0.06449
418.34316,0.05117
416.85337,0.03788
415.36358,0.02157
413.87379,0.02696
412.38400,0.03657
410.89422,0.04620
409.40443,0.06235
407.91464,0.04675
406.42485,0.03897
404.93506,0.03454
403.44527,0.03014
401.95548,0.05248
400.46570,0.02573
398.97591,0.03021
397.48612,0.03472
395.99633,0.02480
394.50654,0.00451
393.01675,0.00924
391.52697,0.00766
390.03718,0.03239
388.54739,0.07333
387.05760,0.05477
385.56781,0.03624
384.07802,0.01369
382.58824,0.01196
381.09845,0.02066
379.60866,0.02939
378.11887,0.00000
376.62908,0.03869
375.13929,0.02396
373.64950,0.00925
372.15972,0.01913
370.66993,0.04261
369.18014,0.04762
367.69035,0.05266
366.20056,0.08199
364.71077,0.10036
363.22099,0.09609
361.73120,0.09183
360.24141,0.07474
358.75162,0.05883
357.26183,0.06766
355.77204,0.07650
354.28225,0.06356
352.79247,0.05959
351.30268,0.05363
349.81289,0.04770
348.32310,0.03716
346.83331,0.04110
345.34352,0.03134
343.85374,0.02160
342.36395,0.01781
340.87416,0.00451
339.38437,0.01024
337.89458,0.01599
336.40479,0.03853
334.91501,0.03249
333.42522,0.02401
331.93543,0.01557
330.44564,0.01971
328.95585,0.00770
327.46606,0.01955
325.97627,0.03142
324.48649,0.03596
322.99670,0.04716
321.50691,0.05463
320.01712,0.06212
318.52733,0.06473
317.03754,0.04367
315.54776,0.05341
314.05797,0.06317
312.56818,0.07512
311.07839,0.07901
309.58860,0.07223
308.09881,0.06547
306.60902,0.04863
305.11924,0.06937
303.62945,0.04015
302.13966,0.01096
300.64987,0.00451
299.16008,0.00451
