1778.52000,0.01297
1777.03021,0.01297
1775.54042,0.02007
1774.05063,0.01171
1772.56085,0.01289
1771.07106,0.00834
1769.58127,0.01289
1768.09148,0.01391
1766.60169,0.01121
1765.11190,0.01029
1763.62212,0.01095
1762.13233,0.01517
1760.64254,0.01167
1759.15275,0.00665
1757.66296,0.00475
1756.17317,0.01260
1754.68339,0.00698
1753.19360,0.00759
1751.70381,0.01175
1750.21402,0.00577
1748.72423,0.01595
1747.23444,0.01156
1745.74465,0.00852
1744.25487,0.00883
1742.76508,0.00716
1741.27529,0.00884
1739.78550,0.01916
1738.29571,0.00475
1736.80592,0.00867
1735.31614,0.00709
1733.82635,0.01571
1732.33656,0.00445
1730.84677,0.00449
1729.35698,0.01075
1727.86719,0.00929
1726.37740,0.00586
1724.88762,0.00114
1723.39783,0.00749
1721.90804,0.00546
1720.41825,0.00301
1718.92846,0.00738
1717.43867,0.01464
1715.94889,0.01287
1714.45910,0.00581
1712.96931,0.00818
1711.47952,0.01278
1709.98973,0.00260
1708.49994,0.00062
1707.01016,0.00220
1705.52037,0.00381
1704.03058,0.00699
1702.54079,0.00245
1701.05100,0.00745
1699.56121,0.01313
1698.07142,0.01154
1696.58164,0.00643
1695.09185,0.00865
1693.60206,0.01863
1692.11227,0.00475
1690.62248,0.01249
1689.13269,0.01916
1687.64291,0.01700
1686.15312,0.01929
1684.66333,0.01652
1683.17354,0.02527
1681.68375,0.02078
1680.19396,0.03864
1678.70417,0.04371
1677.21439,0.03685
1675.72460,0.04749
1674.23481,0.04135
1672.74502,0.04098
1671.25523,0.04196
1669.76544,0.04606
1668.27566,0.05372
1666.78587,0.06516
1665.29608,0.06956
1663.80629,0.07154
1662.31650,0.07333
1660.82671,0.07823
1659.33693,0.07034
1657.84714,0.06799
1656.35735,0.06368
1654.86756,0.07355
1653.37777,0.06730
1651.88798,0.07942
1650.39819,0.07720
1648.90841,0.09158
1647.41862,0.08211
1645.92883,0.08161
1644.43904,0.08114
1642.94925,0.08877
1641.45946,0.08823
1639.96968,0.08153
1638.47989,0.08967
1636.99010,0.08854
1635.50031,0.07970
1634.01052,0.09278
1632.52073,0.08686
1631.03094,0.07963
1629.54116,0.07907
1628.05137,0.08737
1626.56158,0.10455
1625.07179,0.09897
1623.58200,0.09607
1622.09221,0.09474
1620.60243,0.09011
1619.11264,0.09370
1617.62285,0.09244
1616.13306,0.09695
1614.64327,0.09375
1613.15348,0.07731
1611.66370,0.09450
1610.17391,0.09225
1608.68412,0.08892
1607.19433,0.09093
1605.70454,0.08323
1604.21475,0.09313
1602.72496,0.10305
1601.23518,0.08746
1599.74539,0.08251
1598.25560,0.09151
1596.76581,0.08749
1595.27602,0.09145
1593.78623,0.07509
1592.29645,0.07004
1590.80666,0.06899
1589.31687,0.07570
1587.82708,0.07271
1586.33729,0.07880
1584.84750,0.07187
1583.35771,0.08222
1581.86793,0.07269
1580.37814,0.07755
1578.88835,0.08332
1577.39856,0.07408
1575.90877,0.06288
1574.41898,0.04971
1572.92920,0.04783
1571.43941,0.04179
1569.94962,0.04604
1568.45983,0.05032
1566.97004,0.03528
1565.48025,0.04105
1563.99047,0.04020
1562.50068,0.03739
1561.01089,0.02797
1559.52110,0.03206
1558.03131,0.02203
1556.54152,0.00980
1555.05173,0.01706
1553.56195,0.01130
1552.07216,0.02082
1550.58237,0.01532
1549.09258,0.00698
1547.60279,0.00861
1546.11300,0.01623
1544.62322,0.01569
1543.13343,0.00545
1541.64364,0.00475
1540.15385,0.00956
1538.66406,0.01441
1537.17427,0.02060
1535.68448,0.02040
1534.19470,0.01050
1532.70491,0.01079
1531.21512,0.00624
1529.72533,0.02715
1528.23554,0.01734
1526.74575,0.02127
1525.25597,0.01394
1523.76618,0.02610
1522.27639,0.03628
1520.78660,0.04230
1519.29681,0.03728
1517.80702,0.04378
1516.31724,0.03748
1514.82745,0.05022
1513.33766,0.04839
1511.84787,0.04658
1510.35808,0.04966
1508.86829,0.04879
1507.37850,0.03732
1505.88872,0.05330
1504.39893,0.05670
1502.90914,0.04818
1501.41935,0.06976
1499.92956,0.06063
1498.43977,0.06169
1496.94999,0.07892
1495.46020,0.09020
1493.97041,0.08005
1492.48062,0.09647
1490.99083,0.11667
1489.50104,0.13335
1488.01125,0.14939
1486.52147,0.16546
1485.03168,0.16895
1483.54189,0.19899
1482.05210,0.21602
1480.56231,0.22223
1479.07252,0.24217
1477.58274,0.25109
1476.09295,0.24985
1474.60316,0.25748
1473.11337,0.26160
1471.62358,0.26531
1470.13379,0.27942
1468.64401,0.31435
1467.15422,0.34046
1465.66443,0.35697
1464.17464,0.37350
1462.68485,0.38995
1461.19506,0.42898
1459.70527,0.47046
1458.21549,0.48764
1456.72570,0.54952
1455.23591,0.63839
1453.74612,0.67533
1452.25633,0.74015
1450.76654,0.75435
1449.27676,0.76880
1447.78697,0.78040
1446.29718,0.72967
1444.80739,0.70362
1443.31760,0.67759
1441.82781,0.63842
1440.33802,0.56899
1438.84824,0.54579
1437.35845,0.53058
1435.86866,0.49926
1434.37887,0.53982
1432.88908,0.59234
1431.39929,0.68712
1429.90951,0.76468
1428.41972,0.80755
1426.92993,0.84116
1425.44014,0.88849
1423.95035,0.89207
1422.46056,0.89567
1420.97078,0.93468
1419.48099,0.96287
1417.99120,0.97429
1416.50141,0.95344
1415.01162,0.92709
1413.52183,0.86140
1412.03204,0.82426
1410.54226,0.77719
1409.05247,0.73435
1407.56268,0.69463
1406.07289,0.62265
1404.58310,0.58994
1403.09331,0.55725
1401.60353,0.48711
1400.11374,0.42142
1398.62395,0.36017
1397.13416,0.32371
1395.64437,0.26472
1394.15458,0.22565
1392.66479,0.20364
1391.17501,0.18231
1389.68522,0.14243
1388.19543,0.10324
1386.70564,0.09525
1385.21585,0.08729
1383.72606,0.06033
1382.23628,0.03517
1380.74649,0.04540
1379.25670,0.02316
1377.76691,0.02283
1376.27712,0.00749
1374.78733,0.01407
1373.29755,0.00475
1371.80776,0.02899
1370.31797,0.02738
1368.82818,0.02757
1367.33839,0.02777
1365.84860,0.02823
1364.35881,0.02451
1362.86903,0.03717
1361.37924,0.06003
1359.88945,0.08579
1358.39966,0.09498
1356.90987,0.13516
1355.42008,0.16895
1353.93030,0.21714
1352.44051,0.26203
1350.95072,0.30695
1349.46093,0.40209
1347.97114,0.46762
1346.48135,0.54622
1344.99156,0.61666
1343.50178,0.64555
1342.01199,0.70499
1340.52220,0.77462
1339.03241,0.80247
1337.54262,0.86154
1336.05283,0.88878
1334.56305,0.91605
1333.07326,0.95418
1331.58347,0.96734
1330.09368,0.93851
1328.60389,0.91214
1327.11410,0.88978
1325.62432,0.88933
1324.13453,0.89089
1322.64474,0.81928
1321.15495,0.77490
1319.66516,0.73894
1318.17537,0.70301
1316.68558,0.65207
1315.19580,0.61905
1313.70601,0.55887
1312.21622,0.53453
1310.72643,0.50535
1309.23664,0.49654
1307.74685,0.44905
1306.25707,0.42127
1304.76728,0.38677
1303.27749,0.35229
1301.78770,0.30667
1300.29791,0.26726
1298.80812,0.25286
1297.31834,0.22743
1295.82855,0.20004
1294.33876,0.15454
1292.84897,0.12233
1291.35918,0.10584
1289.86939,0.10629
1288.37960,0.10677
1286.88982,0.11932
1285.40003,0.11332
1283.91024,0.09054
1282.42045,0.06689
1280.93066,0.05544
1279.44087,0.03980
1277.95109,0.05250
1276.46130,0.04288
1274.97151,0.04445
1273.48172,0.04605
1271.99193,0.05221
1270.50214,0.05441
1269.01235,0.04933
1267.52257,0.04494
1266.03278,0.05429
1264.54299,0.03160
1263.05320,0.02640
1261.56341,0.02365
1260.07362,0.02093
1258.58384,0.00475
1257.09405,0.01992
1255.60426,0.01809
1254.11447,0.00721
1252.62468,0.01958
1251.13489,0.02556
1249.64511,0.02228
1248.15532,0.02123
1246.66553,0.02208
1245.17574,0.02296
1243.68595,0.01690
1242.19616,0.01086
1240.70637,0.01590
1239.21659,0.02030
1237.72680,0.00880
1236.23701,0.02165
1234.74722,0.00755
1233.25743,0.01061
1231.76764,0.01369
1230.27786,0.00475
1228.78807,0.02168
1227.29828,0.02471
1225.80849,0.02091
1224.31870,0.01381
1222.82891,0.01625
1221.33912,0.03419
1219.84934,0.03778
1218.35955,0.04139
1216.86976,0.04901
1215.37997,0.06218
1213.89018,0.05702
1212.40039,0.06692
1210.91061,0.08414
1209.42082,0.09608
1207.93103,0.08604
1206.44124,0.07602
1204.95145,0.09245
1203.46166,0.07043
1201.97188,0.07475
1200.48209,0.07334
1198.99230,0.05869
1197.50251,0.05843
1196.01272,0.04295
1194.52293,0.03865
1193.03314,0.03437
1191.54336,0.03244
1190.05357,0.02302
1188.56378,0.02512
1187.07399,0.02481
1185.58420,0.02541
1184.09441,0.01653
1182.60463,0.02049
1181.11484,0.02448
1179.62505,0.02340
1178.13526,0.01461
1176.64547,0.00651
1175.15568,0.00550
1173.66589,0.00475
1172.17611,0.02586
1170.68632,0.02112
1169.19653,0.01641
1167.70674,0.02057
1166.21695,0.03426
1164.72716,0.03360
1163.23738,0.03230
1161.74759,0.05314
1160.25780,0.06693
1158.76801,0.08118
1157.27822,0.09545
1155.78843,0.11329
1154.29865,0.11390
1152.80886,0.12405
1151.31907,0.13333
1149.82928,0.12296
1148.33949,0.15286
1146.84970,0.15215
1145.35991,0.15147
1143.87013,0.15932
1142.38034,0.18335
1140.89055,0.19434
1139.40076,0.19122
1137.91097,0.21442
1136.42118,0.20183
1134.93140,0.20386
1133.44161,0.20591
1131.95182,0.23364
1130.46203,0.24480
1128.97224,0.24560
1127.48245,0.26168
1125.99266,0.26297
1124.50288,0.24791
1123.01309,0.24750
1121.52330,0.24709
1120.03351,0.24668
1118.54372,0.24627
1117.05393,0.24585
1115.56415,0.24544
1114.07436,0.24503
1112.58457,0.24462
1111.09478,0.24421
1109.60499,0.24380
1108.11520,0.24339
1106.62542,0.24297
1105.13563,0.24256
1103.64584,0.21833
1102.15605,0.21757
1100.66626,0.21981
1099.17647,0.22208
1097.68668,0.24261
1096.19690,0.22448
1094.70711,0.20282
1093.21732,0.20928
1091.72753,0.18391
1090.23774,0.19351
1088.74795,0.20313
1087.25817,0.22361
1085.76838,0.21448
1084.27859,0.18636
1082.78880,0.18856
1081.29901,0.22063
1079.80922,0.22663
1078.31943,0.23421
1076.82965,0.24181
1075.33986,0.26447
1073.85007,0.24978
1072.36028,0.25679
1070.87049,0.29279
1069.38070,0.30139
1067.89092,0.32063
1066.40113,0.33990
1064.91134,0.41027
1063.42155,0.49150
1061.93176,0.60702
1060.44197,0.68962
1058.95219,0.80608
1057.46240,0.87624
1055.97261,0.94642
1054.48282,1.01518
1052.99303,1.06341
1051.50324,1.11276
1050.01345,1.08983
1048.52367,1.04879
1047.03388,1.04581
1045.54409,1.04286
1044.05430,0.99017
1042.56451,0.93264
1041.07472,0.85413
1039.58494,0.79068
1038.09515,0.65274
1036.60536,0.61565
1035.11557,0.57859
1033.62578,0.52540
1032.13599,0.43974
1030.64620,0.36936
1029.15642,0.32443
1027.66663,0.29776
1026.17684,0.27112
1024.68705,0.21985
1023.19726,0.19890
1021.70747,0.17487
1020.21769,0.17299
1018.72790,0.14083
1017.23811,0.13965
1015.74832,0.13849
1014.25853,0.11304
1012.76874,0.08827
1011.27896,0.09449
1009.78917,0.07795
1008.29938,0.04662
1006.80959,0.03942
1005.31980,0.03224
1003.83001,0.02022
1002.34022,0.02215
1000.85044,0.04468
999.36065,0.05197
997.87086,0.06116
996.38107,0.07038
994.89128,0.06624
993.40149,0.07628
991.91171,0.11000
990.42192,0.12119
988.93213,0.12223
987.44234,0.13314
985.95255,0.14407
984.46276,0.14342
982.97297,0.12930
981.48319,0.10216
979.99340,0.08455
978.50361,0.07559
977.01382,0.06665
975.52403,0.04469
974.03424,0.04464
972.54446,0.03224
971.05467,0.02472
969.56488,0.01878
968.07509,0.01418
966.58530,0.00961
965.09551,0.01192
963.60573,0.00475
962.11594,0.00867
960.62615,0.01349
959.13636,0.00873
957.64657,0.00398
956.15678,0.00509
954.66699,0.01927
953.17721,0.01688
951.68742,0.03951
950.19763,0.04491
948.70784,0.05033
947.21805,0.05401
945.72826,0.06568
944.23848,0.08157
942.74869,0.08798
941.25890,0.12072
939.76911,0.12573
938.27932,0.13077
936.78953,0.15054
935.29974,0.17653
933.80996,0.17334
932.32017,0.20070
930.83038,0.20896
929.34059,0.21724
927.85080,0.24665
926.36101,0.25929
924.87123,0.26753
923.38144,0.32444
921.89165,0.36136
920.40186,0.39831
918.91207,0.50151
917.42228,0.59035
915.93250,0.75795
914.44271,0.93308
912.95292,1.04776
911.46313,1.16246
909.97334,1.34895
908.48355,1.56597
906.99376,1.79938
905.50398,1.91429
904.01419,1.94718
902.52440,1.98010
901.03461,2.00000
899.54482,1.99538
898.05503,1.87358
896.56525,1.68768
895.07546,1.53873
893.58567,1.38981
892.09588,1.09983
890.60609,0.89236
889.11630,0.67230
887.62651,0.50866
886.13673,0.44024
884.64694,0.37183
883.15715,0.30224
881.66736,0.23400
880.17757,0.17484
878.68778,0.14977
877.19800,0.12471
875.70821,0.09548
874.21842,0.07136
872.72863,0.07026
871.23884,0.05216
869.74905,0.05056
868.25927,0.04898
866.76948,0.05483
865.27969,0.05517
863.78990,0.06638
862.30011,0.08291
860.81032,0.08775
859.32053,0.09262
857.83075,0.10502
856.34096,0.13448
854.85117,0.15246
853.36138,0.15521
851.87159,0.17445
850.38180,0.19372
848.89202,0.21445
847.40223,0.23277
845.91244,0.25178
844.42265,0.26252
842.93286,0.27329
841.44307,0.27932
839.95329,0.31390
838.46350,0.33148
836.97371,0.33759
835.48392,0.34361
833.99413,0.34965
832.50434,0.35958
831.01455,0.33969
829.52477,0.29837
828.03498,0.28848
826.54519,0.26280
825.05540,0.23714
823.56561,0.23285
822.07582,0.22216
820.58604,0.19492
819.09625,0.18771
817.60646,0.18053
816.11667,0.17547
814.62688,0.15716
813.13709,0.16719
811.64730,0.17856
810.15752,0.18487
808.66773,0.19121
807.17794,0.17656
805.68815,0.19666
804.19836,0.20992
802.70857,0.21093
801.21879,0.21197
799.72900,0.20872
798.23921,0.18979
796.74942,0.18040
795.25963,0.17612
793.76984,0.17185
792.28006,0.18354
790.79027,0.19967
789.30048,0.23241
787.81069,0.27888
786.32090,0.29619
784.83111,0.31352
783.34132,0.35343
781.85154,0.37081
780.36175,0.41939
778.87196,0.43615
777.38217,0.45294
775.89238,0.48611
774.40259,0.47398
772.91281,0.45700
771.42302,0.44237
769.93323,0.42777
768.44344,0.36775
766.95365,0.31505
765.46386,0.25419
763.97407,0.21878
762.48429,0.21071
760.99450,0.20266
759.50471,0.18656
758.01492,0.14860
756.52513,0.14139
755.03534,0.12769
753.54556,0.11401
752.05577,0.10710
750.56598,0.08827
749.07619,0.07875
747.58640,0.06528
746.09661,0.05183
744.60683,0.04327
743.11704,0.03938
741.62725,0.02666
740.13746,0.02370
738.64767,0.02076
737.15788,0.03686
735.66809,0.01098
734.17831,0.01717
732.68852,0.01898
731.19873,0.02080
729.70894,0.02597
728.21915,0.02452
726.72936,0.00475
725.23958,0.02289
723.74979,0.01938
722.26000,0.01590
720.77021,0.00956
719.28042,0.01475
717.79063,0.02859
716.30084,0.02675
714.81106,0.02493
713.32127,0.00788
711.83148,0.01098
710.34169,0.01476
708.85190,0.02432
707.36211,0.03390
705.87233,0.04947
704.38254,0.04517
702.89275,0.04930
701.40296,0.04814
699.91317,0.04700
698.42338,0.05186
696.93360,0.06139
695.44381,0.08066
693.95402,0.09610
692.46423,0.11155
690.97444,0.12029
689.48465,0.13790
687.99486,0.14690
686.50508,0.16257
685.01529,0.17825
683.52550,0.21342
682.03571,0.23933
680.54592,0.26415
679.05613,0.25837
677.56635,0.25262
676.07656,0.25828
674.58677,0.23698
673.09698,0.21969
671.60719,0.19513
670.11740,0.17058
668.62761,0.14187
667.13783,0.12356
665.64804,0.11734
664.15825,0.11113
662.66846,0.08118
661.17867,0.06607
659.68888,0.04590
658.19910,0.04255
656.70931,0.03923
655.21952,0.06004
653.72973,0.03731
652.23994,0.05109
650.75015,0.04576
649.26037,0.04046
647.77058,0.02733
646.28079,0.04386
644.79100,0.03675
643.30121,0.03022
641.81142,0.02371
640.32163,0.02419
638.83185,0.00788
637.34206,0.00743
635.85227,0.01021
634.36248,0.01301
632.87269,0.01152
631.38290,0.00475
629.89312,0.01789
628.40333,0.01723
626.91354,0.01660
625.42375,0.01809
623.93396,0.01187
622.44417,0.01275
620.95438,0.01365
619.46460,0.03116
617.97481,0.02193
616.48502,0.06182
614.99523,0.06790
613.50544,0.07401
612.01565,0.11087
610.52587,0.16899
609.03608,0.19839
607.54629,0.21421
606.05650,0.23005
604.56671,0.29224
603.07692,0.35822
601.58714,0.37845
600.09735,0.39870
598.60756,0.42339
597.11777,0.42755
595.62798,0.45871
594.13819,0.47043
592.64840,0.48217
591.15862,0.42385
589.66883,0.36997
588.17904,0.27188
586.68925,0.24016
585.19946,0.20847
583.70967,0.15822
582.21989,0.14138
580.73010,0.12502
579.24031,0.10867
577.75052,0.09700
576.26073,0.06544
574.77094,0.06774
573.28115,0.06288
571.79137,0.05804
570.30158,0.07501
568.81179,0.07918
567.32200,0.08370
565.83221,0.08824
564.34242,0.11548
562.85264,0.15667
561.36285,0.17577
559.87306,0.18306
558.38327,0.19038
556.89348,0.22216
555.40369,0.24931
553.91391,0.23868
552.42412,0.22807
550.93433,0.24336
549.44454,0.22240
547.95475,0.21231
546.46496,0.23231
544.97517,0.25234
543.48539,0.25469
541.99560,0.28803
540.50581,0.32383
539.01602,0.35965
537.52623,0.43640
536.03644,0.46343
534.54666,0.46173
533.05687,0.48205
531.56708,0.50241
530.07729,0.57021
528.58750,0.60841
527.09771,0.62098
525.60792,0.63358
524.11814,0.68025
522.62835,0.76277
521.13856,0.78892
519.64877,0.80703
518.15898,0.82516
516.66919,0.88500
515.17941,0.90484
513.68962,0.91807
512.19983,0.93132
510.71004,0.86786
509.22025,0.83163
507.73046,0.73727
506.24068,0.67764
504.75089,0.61804
503.26110,0.50518
501.77131,0.41555
500.28152,0.35392
498.79173,0.29231
497.30194,0.22089
495.81216,0.17802
494.32237,0.16314
492.83258,0.14829
491.34279,0.12804
489.85300,0.10605
488.36321,0.08983
486.87343,0.08757
485.38364,0.08533
483.89385,0.08444
482.40406,0.11232
480.91427,0.13690
479.42448,0.16151
477.93469,0.19123
476.44491,0.18383
474.95512,0.19480
473.46533,0.20580
471.97554,0.21925
470.48575,0.22034
468.99596,0.18763
467.50618,0.17384
466.01639,0.16008
464.52660,0.15596
463.03681,0.14324
461.54702,0.11827
460.05723,0.09333
458.56745,0.05680
457.07766,0.03069
455.58787,0.02992
454.09808,0.02917
452.60829,0.03011
451.11850,0.01382
449.62871,0.01790
448.13893,0.02201
446.64914,0.01331
445.15935,0.01613
443.66956,0.01323
442.17977,0.01533
440.68998,0.01745
439.20020,0.03364
437.71041,0.03282
436.22062,0.03977
434.73083,0.04674
433.24104,0.04688
431.75125,0.03997
430.26146,0.04524
428.77168,0.05054
427.28189,0.03751
425.79210,0.03180
424.30231,0.03087
422.81252,0.02996
421.32273,0.03957
419.83295,0.03396
418.34316,0.03146
416.85337,0.02899
415.36358,0.03892
413.87379,0.01748
412.38400,0.02846
410.89422,0.03946
409.40443,0.02936
407.91464,0.02748
406.42485,0.02716
404.93506,0.03096
403.44527,0.03478
401.95548,0.03896
400.46570,0.04471
398.97591,0.03777
397.48612,0.03085
395.99633,0.04419
394.50654,0.02483
393.01675,0.01477
391.52697,0.00475
390.03718,0.01770
388.54739,0.02890
387.05760,0.02631
385.56781,0.02374
384.07802,0.01888
382.58824,0.01094
381.09845,0.00546
379.60866,0.00000
378.11887,0.00594
376.62908,0.00814
375.13929,0.00815
373.64950,0.00819
372.15972,0.01776
370.66993,0.01121
369.18014,0.01070
367.69035,0.01021
366.20056,0.02213
364.71077,0.03651
363.22099,0.02062
361.73120,0.00475
360.24141,0.03616
358.75162,0.04527
357.26183,0.03604
355.77204,0.02684
354.28225,0.03845
352.79247,0.04411
351.30268,0.04283
349.81289,0.04158
348.32310,0.06257
346.83331,0.09022
345.34352,0.07963
343.85374,0.06908
342.36395,0.05301
340.87416,0.03211
339.38437,0.01842
337.89458,0.00475
336.40479,0.02079
334.91501,0.02071
333.42522,0.01192
331.93543,0.00315
330.44564,0.00668
328.95585,0.02527
327.46606,0.02078
325.97627,0.01631
324.48649,0.05547
322.99670,0.06236
321.50691,0.06276
320.01712,0.06319
318.52733,0.09138
317.03754,0.07892
315.54776,0.07587
314.05797,0.07285
312.56818,0.06709
311.07839,0.06335
309.58860,0.06360
308.09881,0.06389
306.60902,0.05712
305.11924,0.02715
303.62945,0.01866
302.13966,0.00475
300.64987,0.00462
299.16008,0.00475
