1778.52000,0.00000
1777.03021,0.00586
1775.54042,0.00623
1774.05063,0.01127
1772.56085,0.01140
1771.07106,0.00401
1769.58127,0.01492
1768.09148,0.01860
1766.60169,0.00490
1765.11190,0.01618
1763.62212,0.01066
1762.13233,0.02169
1760.64254,0.01099
1759.15275,0.01918
1757.66296,0.01578
1756.17317,0.01560
1754.68339,0.01777
1753.19360,0.01851
1751.70381,0.01521
1750.21402,0.00787
1748.72423,0.02074
1747.23444,0.01477
1745.74465,0.01608
1744.25487,0.01394
1742.76508,0.02981
1741.27529,0.03322
1739.78550,0.02186
1738.29571,0.01430
1736.80592,0.01547
1735.31614,0.01957
1733.82635,0.02456
1732.33656,0.00433
1730.84677,0.00821
1729.35698,0.00921
1727.86719,0.00240
1726.37740,0.00838
1724.88762,0.01033
1723.39783,0.01201
1721.90804,0.01690
1720.41825,0.00471
1718.92846,0.00907
1717.43867,0.01346
1715.94889,0.00772
1714.45910,0.00490
1712.96931,0.00818
1711.47952,0.00742
1709.98973,0.01219
1708.49994,0.01351
1707.01016,0.01311
1705.52037,0.01273
1704.03058,0.00600
1702.54079,0.00451
1701.05100,0.01408
1699.56121,0.02076
1698.07142,0.01355
1696.58164,0.00490
1695.09185,0.02201
1693.60206,0.01650
1692.11227,0.02118
1690.62248,0.03052
1689.13269,0.01523
1687.64291,0.01823
1686.15312,0.02678
1684.66333,0.01185
1683.17354,0.03321
1681.68375,0.02848
1680.19396,0.02291
1678.70417,0.05131
1677.21439,0.04840
1675.72460,0.05160
1674.23481,0.04758
1672.74502,0.05780
1671.25523,0.05150
1669.76544,0.05626
1668.27566,0.06829
1666.78587,0.07338
1665.29608,0.08256
1663.80629,0.07726
1662.31650,0.08823
1660.82671,0.08327
1659.33693,0.09545
1657.84714,0.09344
1656.35735,0.07027
1654.86756,0.08861
1653.37777,0.07420
1651.88798,0.08447
1650.39819,0.07272
1648.90841,0.07346
1647.41862,0.08671
1645.92883,0.08257
1644.43904,0.07846
1642.94925,0.08047
1641.45946,0.09323
1639.96968,0.09935
1638.47989,0.11158
1636.99010,0.08409
1635.50031,0.07606
1634.01052,0.08083
1632.52073,0.08271
1631.03094,0.08666
1629.54116,0.09092
1628.05137,0.07344
1626.56158,0.08122
1625.07179,0.09832
1623.58200,0.09717
1622.09221,0.07514
1620.60243,0.08796
1619.11264,0.09094
1617.62285,0.09424
1616.13306,0.09581
1614.64327,0.09161
1613.15348,0.08715
1611.66370,0.10272
1610.17391,0.09482
1608.68412,0.10755
1607.19433,0.10231
1605.70454,0.11074
1604.21475,0.10482
1602.72496,0.09893
1601.23518,0.09263
1599.74539,0.09535
1598.25560,0.08242
1596.76581,0.09999
1595.27602,0.09930
1593.78623,0.09370
1592.29645,0.10032
1590.80666,0.09303
1589.31687,0.07067
1587.82708,0.07823
1586.33729,0.07711
1584.84750,0.06266
1583.35771,0.08335
1581.86793,0.08404
1580.37814,0.08534
1578.88835,0.08434
1577.39856,0.09816
1575.90877,0.08735
1574.41898,0.06611
1572.92920,0.07479
1571.43941,0.06753
1569.94962,0.05985
1568.45983,0.05221
1566.97004,0.06533
1565.48025,0.05904
1563.99047,0.06932
1562.50068,0.06423
1561.01089,0.05337
1559.52110,0.05879
1558.03131,0.05523
1556.54152,0.04096
1555.05173,0.04297
1553.56195,0.04152
1552.07216,0.03632
1550.58237,0.00590
1549.09258,0.01526
1547.60279,0.01361
1546.11300,0.00300
1544.62322,0.03572
1543.13343,0.01189
1541.64364,0.00490
1540.15385,0.00733
1538.66406,0.00978
1537.17427,0.01167
1535.68448,0.01388
1534.19470,0.01931
1532.70491,0.02563
1531.21512,0.02530
1529.72533,0.01832
1528.23554,0.03748
1526.74575,0.03229
1525.25597,0.01842
1523.76618,0.02982
1522.27639,0.01948
1520.78660,0.03703
1519.29681,0.05256
1517.80702,0.07335
1516.31724,0.06659
1514.82745,0.06827
1513.33766,0.06867
1511.84787,0.06910
1510.35808,0.06012
1508.86829,0.05552
1507.37850,0.04078
1505.88872,0.07714
1504.39893,0.05462
1502.90914,0.05650
1501.41935,0.07059
1499.92956,0.07832
1498.43977,0.08492
1496.94999,0.07790
1495.46020,0.10776
1493.97041,0.13184
1492.48062,0.13041
1490.99083,0.11420
1489.50104,0.12239
1488.01125,0.13569
1486.52147,0.14901
1485.03168,0.16976
1483.54189,0.18646
1482.05210,0.21219
1480.56231,0.24200
1479.07252,0.22600
1477.58274,0.23265
1476.09295,0.24744
1474.60316,0.28229
1473.11337,0.26000
1471.62358,0.27777
1470.13379,0.30108
1468.64401,0.27944
1467.15422,0.32225
1465.66443,0.33504
1464.17464,0.34786
1462.68485,0.37652
1461.19506,0.40694
1459.70527,0.47656
1458.21549,0.51690
1456.72570,0.56916
1455.23591,0.61477
1453.74612,0.68072
1452.25633,0.74756
1450.76654,0.74885
1449.27676,0.77657
1447.78697,0.78052
1446.29718,0.73777
1444.80739,0.71276
1443.31760,0.68776
1441.82781,0.66831
1440.33802,0.61551
1438.84824,0.56389
1437.35845,0.56482
1435.86866,0.55388
1434.37887,0.56124
1432.88908,0.62260
1431.39929,0.70662
1429.90951,0.80400
1428.41972,0.87965
1426.92993,0.87786
1425.44014,0.88420
1423.95035,0.90886
1422.46056,0.93354
1420.97078,1.00322
1419.48099,1.01866
1417.99120,1.06721
1416.50141,0.99652
1415.01162,0.95981
1413.52183,0.88917
1412.03204,0.84264
1410.54226,0.82631
1409.05247,0.72180
1407.56268,0.68289
1406.07289,0.64632
1404.58310,0.61704
1403.09331,0.58777
1401.60353,0.51298
1400.11374,0.45301
1398.62395,0.40119
1397.13416,0.32705
1395.64437,0.25758
1394.15458,0.24703
1392.66479,0.18979
1391.17501,0.17321
1389.68522,0.13836
1388.19543,0.12066
1386.70564,0.10749
1385.21585,0.09433
1383.72606,0.09499
1382.23628,0.05359
1380.74649,0.04008
1379.25670,0.03732
1377.76691,0.03401
1376.27712,0.00490
1374.78733,0.00964
1373.29755,0.00859
1371.80776,0.01541
1370.31797,0.01412
1368.82818,0.02157
1367.33839,0.02904
1365.84860,0.05510
1364.35881,0.06755
1362.86903,0.08322
1361.37924,0.07744
1359.88945,0.10157
1358.39966,0.12631
1356.90987,0.16441
1355.42008,0.20255
1353.93030,0.24593
1352.44051,0.30326
1350.95072,0.36062
1349.46093,0.43019
1347.97114,0.50849
1346.48135,0.58768
1344.99156,0.64485
1343.50178,0.75920
1342.01199,0.83934
1340.52220,0.88759
1339.03241,0.92135
1337.54262,0.91625
1336.05283,0.94266
1334.56305,0.96910
1333.07326,1.02182
1331.58347,1.00260
1330.09368,1.00691
1328.60389,0.98658
1327.11410,0.95032
1325.62432,0.87636
1324.13453,0.89238
1322.64474,0.85213
1321.15495,0.83279
1319.66516,0.79143
1318.17537,0.75009
1316.68558,0.71313
1315.19580,0.63296
1313.70601,0.58850
1312.21622,0.58556
1310.72643,0.52868
1309.23664,0.48372
1307.74685,0.43849
1306.25707,0.40721
1304.76728,0.38728
1303.27749,0.36737
1301.78770,0.31643
1300.29791,0.25044
1298.80812,0.24192
1297.31834,0.20847
1295.82855,0.20029
1294.33876,0.15760
1292.84897,0.13757
1291.35918,0.12047
1289.86939,0.12327
1288.37960,0.12610
1286.88982,0.11980
1285.40003,0.11093
1283.91024,0.10062
1282.42045,0.09788
1280.93066,0.07602
1279.44087,0.06115
1277.95109,0.06719
1276.46130,0.03583
1274.97151,0.03844
1273.48172,0.04107
1271.99193,0.04170
1270.50214,0.04351
1269.01235,0.05667
1267.52257,0.03909
1266.03278,0.04707
1264.54299,0.05130
1263.05320,0.03960
1261.56341,0.04054
1260.07362,0.04151
1258.58384,0.01973
1257.09405,0.02205
1255.60426,0.03514
1254.11447,0.02823
1252.62468,0.02540
1251.13489,0.00490
1249.64511,0.02212
1248.15532,0.04401
1246.66553,0.04749
1245.17574,0.05100
1243.68595,0.04510
1242.19616,0.03110
1240.70637,0.03715
1239.21659,0.03742
1237.72680,0.03945
1236.23701,0.03774
1234.74722,0.03779
1233.25743,0.04397
1231.76764,0.05016
1230.27786,0.04594
1228.78807,0.03564
1227.29828,0.04133
1225.80849,0.01280
1224.31870,0.00490
1222.82891,0.02935
1221.33912,0.04540
1219.84934,0.05117
1218.35955,0.05697
1216.86976,0.08847
1215.37997,0.07590
1213.89018,0.09323
1212.40039,0.08970
1210.91061,0.08590
1209.42082,0.07255
1207.93103,0.07272
1206.44124,0.07291
1204.95145,0.08343
1203.46166,0.06641
1201.97188,0.07088
1200.48209,0.05884
1198.99230,0.04479
1197.50251,0.06269
1196.01272,0.07335
1194.52293,0.07244
1193.03314,0.07154
1191.54336,0.05327
1190.05357,0.04894
1188.56378,0.03710
1187.07399,0.04095
1185.58420,0.04395
1184.09441,0.00490
1182.60463,0.01555
1181.11484,0.02623
1179.62505,0.04027
1178.13526,0.03866
1176.64547,0.03214
1175.15568,0.03522
1173.66589,0.02208
1172.17611,0.00490
1170.68632,0.01308
1169.19653,0.02128
1167.70674,0.02632
1166.21695,0.03283
1164.72716,0.05909
1163.23738,0.06101
1161.74759,0.06498
1160.25780,0.07101
1158.76801,0.07373
1157.27822,0.07647
1155.78843,0.06980
1154.29865,0.05910
1152.80886,0.08701
1151.31907,0.10973
1149.82928,0.12202
1148.33949,0.14275
1146.84970,0.14204
1145.35991,0.14135
1143.87013,0.15461
1142.38034,0.16383
1140.89055,0.15654
1139.40076,0.16582
1137.91097,0.21313
1136.42118,0.21346
1134.93140,0.22266
1133.44161,0.23189
1131.95182,0.27001
1130.46203,0.25825
1128.97224,0.25725
1127.48245,0.24670
1125.99266,0.26780
1124.50288,0.24192
1123.01309,0.23362
1121.52330,0.22534
1120.03351,0.23174
1118.54372,0.27357
1117.05393,0.26203
1115.56415,0.25226
1114.07436,0.27791
1112.58457,0.27196
1111.09478,0.26603
1109.60499,0.28102
1108.11520,0.27949
1106.62542,0.30236
1105.13563,0.29015
1103.64584,0.26026
1102.15605,0.21937
1100.66626,0.20897
1099.17647,0.19860
1097.68668,0.22394
1096.19690,0.22928
1094.70711,0.22943
1093.21732,0.19913
1091.72753,0.20049
1090.23774,0.19186
1088.74795,0.18325
1087.25817,0.19397
1085.76838,0.19136
1084.27859,0.18384
1082.78880,0.18680
1081.29901,0.17150
1079.80922,0.19017
1078.31943,0.18261
1076.82965,0.17507
1075.33986,0.18308
1073.85007,0.19663
1072.36028,0.22122
1070.87049,0.21973
1069.38070,0.26962
1067.89092,0.28255
1066.40113,0.29549
1064.91134,0.30599
1063.42155,0.39284
1061.93176,0.49595
1060.44197,0.56485
1058.95219,0.62681
1057.46240,0.66907
1055.97261,0.71135
1054.48282,0.80327
1052.99303,0.87084
1051.50324,0.85400
1050.01345,0.86794
1048.52367,0.82562
1047.03388,0.81915
1045.54409,0.81271
1044.05430,0.77133
1042.56451,0.71952
1041.07472,0.68748
1039.58494,0.65226
1038.09515,0.58689
1036.60536,0.53519
1035.11557,0.48351
1033.62578,0.46116
1032.13599,0.41040
1030.64620,0.36024
1029.15642,0.31940
1027.66663,0.29120
1026.17684,0.26302
1024.68705,0.23734
1023.19726,0.20501
1021.70747,0.15616
1020.21769,0.14390
1018.72790,0.12179
1017.23811,0.12423
1015.74832,0.12670
1014.25853,0.11250
1012.76874,0.09949
1011.27896,0.11001
1009.78917,0.09676
1008.29938,0.08586
1006.80959,0.07367
1005.31980,0.06151
1003.83001,0.03182
1002.34022,0.03291
1000.85044,0.02416
999.36065,0.01601
997.87086,0.02835
996.38107,0.04071
994.89128,0.05817
993.40149,0.05709
991.91171,0.11029
990.42192,0.11593
988.93213,0.10621
987.44234,0.10813
985.95255,0.11007
984.46276,0.11146
982.97297,0.10590
981.48319,0.07310
979.99340,0.07572
978.50361,0.05791
977.01382,0.04012
975.52403,0.03991
974.03424,0.02087
972.54446,0.02680
971.05467,0.01941
969.56488,0.02656
968.07509,0.03416
966.58530,0.04179
965.09551,0.00490
963.60573,0.03054
962.11594,0.02109
960.62615,0.01515
959.13636,0.01562
957.64657,0.01611
956.15678,0.02765
954.66699,0.03602
953.17721,0.03398
951.68742,0.03283
950.19763,0.03271
948.70784,0.03263
947.21805,0.07885
945.72826,0.07257
944.23848,0.08924
942.74869,0.10449
941.25890,0.14471
939.76911,0.14753
938.27932,0.15037
936.78953,0.16020
935.29974,0.19733
933.80996,0.18777
932.32017,0.21421
930.83038,0.22211
929.34059,0.23003
927.85080,0.25248
926.36101,0.26684
924.87123,0.31459
923.38144,0.34147
921.89165,0.38288
920.40186,0.42432
918.91207,0.51628
917.42228,0.59636
915.93250,0.70635
914.44271,0.92169
912.95292,1.02825
911.46313,1.13484
909.97334,1.36448
908.48355,1.55584
906.99376,1.73272
905.50398,1.85304
904.01419,1.91085
902.52440,1.96869
901.03461,2.00000
899.54482,1.94806
898.05503,1.81577
896.56525,1.60341
895.07546,1.45956
893.58567,1.31574
892.09588,1.01786
890.60609,0.80967
889.11630,0.62413
887.62651,0.45023
886.13673,0.38995
884.64694,0.32969
883.15715,0.24320
881.66736,0.17792
880.17757,0.13993
878.68778,0.12055
877.19800,0.10118
875.70821,0.03977
874.21842,0.04338
872.72863,0.05253
871.23884,0.01382
869.74905,0.01097
868.25927,0.00815
866.76948,0.01101
865.27969,0.00490
863.78990,0.02019
862.30011,0.01955
860.81032,0.03387
859.32053,0.04822
857.83075,0.06128
856.34096,0.05580
854.85117,0.07124
853.36138,0.08467
851.87159,0.09290
850.38180,0.10115
848.89202,0.13062
847.40223,0.14501
845.91244,0.12462
844.42265,0.14226
842.93286,0.15992
841.44307,0.16919
839.95329,0.17414
838.46350,0.19130
836.97371,0.21167
835.48392,0.21118
833.99413,0.21071
832.50434,0.20214
831.01455,0.19911
829.52477,0.17753
828.03498,0.15569
826.54519,0.14606
825.05540,0.13645
823.56561,0.12426
822.07582,0.12399
820.58604,0.12055
819.09625,0.10146
817.60646,0.08240
816.11667,0.11328
814.62688,0.09630
813.13709,0.10546
811.64730,0.11232
810.15752,0.10920
808.66773,0.10610
807.17794,0.10114
805.68815,0.07793
804.19836,0.09362
802.70857,0.09323
801.21879,0.09287
799.72900,0.09906
798.23921,0.08496
796.74942,0.09410
795.25963,0.09645
793.76984,0.09882
792.28006,0.09730
790.79027,0.10741
789.30048,0.11639
787.81069,0.16194
786.32090,0.18170
784.83111,0.20149
783.34132,0.21607
781.85154,0.23707
780.36175,0.28275
778.87196,0.29233
777.38217,0.30194
775.89238,0.32129
774.40259,0.33776
772.91281,0.32902
771.42302,0.31942
769.93323,0.30986
768.44344,0.26317
766.95365,0.21767
765.46386,0.18874
763.97407,0.15228
762.48429,0.15503
760.99450,0.15779
759.50471,0.13215
758.01492,0.10015
756.52513,0.09922
755.03534,0.09860
753.54556,0.09801
752.05577,0.07539
750.56598,0.08703
749.07619,0.05808
747.58640,0.05584
746.09661,0.05363
744.60683,0.05522
743.11704,0.02695
741.62725,0.03613
740.13746,0.03706
738.64767,0.03802
737.15788,0.02116
735.66809,0.00490
734.17831,0.01686
732.68852,0.01912
731.19873,0.02141
729.70894,0.03605
728.21915,0.02112
726.72936,0.03814
725.23958,0.02296
723.74979,0.02001
722.26000,0.01707
720.77021,0.00517
719.28042,0.00730
717.79063,0.03093
716.30084,0.02905
714.81106,0.02719
713.32127,0.04422
711.83148,0.05025
710.34169,0.04876
708.85190,0.03554
707.36211,0.02234
705.87233,0.03340
704.38254,0.03433
702.89275,0.03267
701.40296,0.03524
699.91317,0.03784
698.42338,0.08529
696.93360,0.08547
695.44381,0.09554
693.95402,0.10753
692.46423,0.11953
690.97444,0.13867
689.48465,0.14507
687.99486,0.16832
686.50508,0.18898
685.01529,0.20967
683.52550,0.24286
682.03571,0.23661
680.54592,0.25476
679.05613,0.25829
677.56635,0.26183
676.07656,0.27135
674.58677,0.26697
673.09698,0.23882
671.60719,0.21461
670.11740,0.19042
668.62761,0.16350
667.13783,0.15141
665.64804,0.12816
664.15825,0.10495
662.66846,0.10743
661.17867,0.07077
659.68888,0.06983
658.19910,0.05802
656.70931,0.04624
655.21952,0.05524
653.72973,0.05004
652.23994,0.05415
650.75015,0.05698
649.26037,0.05983
647.77058,0.05299
646.28079,0.05255
644.79100,0.05766
643.30121,0.05611
641.81142,0.05459
640.32163,0.03945
638.83185,0.02638
637.34206,0.01013
635.85227,0.01222
634.36248,0.01434
632.87269,0.02809
631.38290,0.02677
629.89312,0.02867
628.40333,0.02784
626.91354,0.02704
625.42375,0.02698
623.93396,0.02463
622.44417,0.01475
620.95438,0.00490
619.46460,0.02692
617.97481,0.04751
616.48502,0.07450
614.99523,0.08861
613.50544,0.10275
612.01565,0.11531
610.52587,0.15488
609.03608,0.16459
607.54629,0.17737
606.05650,0.19018
604.56671,0.26496
603.07692,0.31278
601.58714,0.33712
600.09735,0.36149
598.60756,0.38646
597.11777,0.41551
595.62798,0.41819
594.13819,0.40116
592.64840,0.38416
591.15862,0.34164
589.66883,0.30640
588.17904,0.26916
586.68925,0.23281
585.19946,0.19649
583.70967,0.13465
582.21989,0.13668
580.73010,0.11262
579.24031,0.08858
577.75052,0.07559
576.26073,0.04261
574.77094,0.04302
573.28115,0.05027
571.79137,0.05755
570.30158,0.04382
568.81179,0.07798
567.32200,0.08359
565.83221,0.08923
564.34242,0.06137
562.85264,0.07939
561.36285,0.08873
559.87306,0.10317
558.38327,0.11763
556.89348,0.13894
555.40369,0.16143
553.91391,0.16073
552.42412,0.16006
550.93433,0.16957
549.44454,0.14109
547.95475,0.16254
546.46496,0.16850
544.97517,0.17448
543.48539,0.16931
541.99560,0.19841
540.50581,0.22419
539.01602,0.25000
537.52623,0.28323
536.03644,0.34028
534.54666,0.37299
533.05687,0.38917
531.56708,0.40538
530.07729,0.48633
528.58750,0.56991
527.09771,0.58140
525.60792,0.59293
524.11814,0.65453
522.62835,0.70397
521.13856,0.73602
519.64877,0.74793
518.15898,0.75986
516.66919,0.81607
515.17941,0.80093
513.68962,0.80655
512.19983,0.81220
510.71004,0.81802
509.22025,0.75655
507.73046,0.67044
506.24068,0.58913
504.75089,0.50786
503.26110,0.42965
501.77131,0.35118
500.28152,0.31582
498.79173,0.28049
497.30194,0.20703
495.81216,0.16434
494.32237,0.14722
492.83258,0.13012
491.34279,0.11769
489.85300,0.09019
488.36321,0.06824
486.87343,0.05095
485.38364,0.03368
483.89385,0.06896
482.40406,0.05668
480.91427,0.07619
479.42448,0.09573
477.93469,0.11544
476.44491,0.11660
474.95512,0.12374
473.46533,0.13090
471.97554,0.16289
470.48575,0.15283
468.99596,0.16340
467.50618,0.15659
466.01639,0.14980
464.52660,0.10763
463.03681,0.08493
461.54702,0.07633
460.05723,0.06775
458.56745,0.03526
457.07766,0.01556
455.58787,0.01765
454.09808,0.01976
452.60829,0.01319
451.11850,0.00490
449.62871,0.01165
448.13893,0.01841
446.64914,0.02129
445.15935,0.00677
443.66956,0.00825
442.17977,0.01511
440.68998,0.02200
439.20020,0.05285
437.71041,0.03295
436.22062,0.02758
434.73083,0.02224
433.24104,0.01663
431.75125,0.06124
430.26146,0.05437
428.77168,0.04753
427.28189,0.04956
425.79210,0.05104
424.30231,0.04804
422.81252,0.04507
421.32273,0.03066
419.83295,0.02673
418.34316,0.01919
416.85337,0.01167
415.36358,0.00490
413.87379,0.04109
412.38400,0.04451
410.89422,0.04795
409.40443,0.04649
407.91464,0.08451
406.42485,0.04683
404.93506,0.05153
403.44527,0.05626
401.95548,0.02851
400.46570,0.02226
398.97591,0.02982
397.48612,0.03741
395.99633,0.03994
394.50654,0.02914
393.01675,0.03317
391.52697,0.03723
390.03718,0.03376
388.54739,0.03961
387.05760,0.02516
385.56781,0.01074
384.07802,0.03303
382.58824,0.04025
381.09845,0.03517
379.60866,0.03011
378.11887,0.00490
376.62908,0.01229
375.13929,0.01055
373.64950,0.00884
372.15972,0.03951
370.66993,0.02755
369.18014,0.01895
367.69035,0.01037
366.20056,0.02982
364.71077,0.04320
363.22099,0.02962
361.73120,0.01606
360.24141,0.06608
358.75162,0.07056
357.26183,0.06405
355.77204,0.05755
354.28225,0.04644
352.79247,0.06002
351.30268,0.04432
349.81289,0.02864
348.32310,0.02343
346.83331,0.06322
345.34352,0.06067
343.85374,0.05814
342.36395,0.06435
340.87416,0.04504
339.38437,0.03665
337.89458,0.02827
336.40479,0.07926
334.91501,0.06586
333.42522,0.04711
331.93543,0.02839
330.44564,0.00490
328.95585,0.03874
327.46606,0.03197
325.97627,0.02522
324.48649,0.04290
322.99670,0.08614
321.50691,0.08951
320.01712,0.09290
318.52733,0.11416
317.03754,0.14270
315.54776,0.11744
314.05797,0.09220
312.56818,0.11211
311.07839,0.12333
309.58860,0.11021
308.09881,0.09711
306.60902,0.11654
305.11924,0.05329
303.62945,0.03650
302.13966,0.01973
300.64987,0.00490
299.16008,0.00490
