1778.52000,0.01595
1777.03021,0.00993
1775.54042,0.00918
1774.05063,0.00000
1772.56085,0.01065
1771.07106,0.00968
1769.58127,0.01340
1768.09148,0.01510
1766.60169,0.00517
1765.11190,0.01246
1763.62212,0.00578
1762.13233,0.02127
1760.64254,0.01378
1759.15275,0.01301
1757.66296,0.02187
1756.17317,0.00776
1754.68339,0.01230
1753.19360,0.01571
1751.70381,0.01361
1750.21402,0.01619
1748.72423,0.00540
1747.23444,0.01696
1745.74465,0.02563
1744.25487,0.02587
1742.76508,0.01362
1741.27529,0.02645
1739.78550,0.02415
1738.29571,0.01751
1736.80592,0.01264
1735.31614,0.01559
1733.82635,0.02411
1732.33656,0.01838
1730.84677,0.02112
1729.35698,0.01340
1727.86719,0.00949
1726.37740,0.01056
1724.88762,0.01631
1723.39783,0.01481
1721.90804,0.01391
1720.41825,0.01595
1718.92846,0.00578
1717.43867,0.02473
1715.94889,0.01370
1714.45910,0.02308
1712.96931,0.01356
1711.47952,0.01542
1709.98973,0.01963
1708.49994,0.00873
1707.01016,0.01052
1705.52037,0.01234
1704.03058,0.01403
1702.54079,0.01400
1701.05100,0.01196
1699.56121,0.00732
1698.07142,0.02222
1696.58164,0.01356
1695.09185,0.03229
1693.60206,0.02863
1692.11227,0.02091
1690.62248,0.02458
1689.13269,0.02536
1687.64291,0.02383
1686.15312,0.02816
1684.66333,0.02814
1683.17354,0.02727
1681.68375,0.04157
1680.19396,0.03755
1678.70417,0.03938
1677.21439,0.05201
1675.72460,0.06524
1674.23481,0.06482
1672.74502,0.05510
1671.25523,0.05705
1669.76544,0.05379
1668.27566,0.07967
1666.78587,0.08345
1665.29608,0.07676
1663.80629,0.08729
1662.31650,0.09347
1660.82671,0.10171
1659.33693,0.09775
1657.84714,0.08741
1656.35735,0.09136
1654.86756,0.08339
1653.37777,0.07807
1651.88798,0.07977
1650.39819,0.08877
1648.90841,0.08120
1647.41862,0.06987
1645.92883,0.07385
1644.43904,0.07785
1642.94925,0.08756
1641.45946,0.07574
1639.96968,0.09075
1638.47989,0.07432
1636.99010,0.08180
1635.50031,0.07969
1634.01052,0.06771
1632.52073,0.06449
1631.03094,0.07207
1629.54116,0.06104
1628.05137,0.08235
1626.56158,0.06525
1625.07179,0.09128
1623.58200,0.09229
1622.09221,0.08575
1620.60243,0.07836
1619.11264,0.07828
1617.62285,0.07356
1616.13306,0.07556
1614.64327,0.07235
1613.15348,0.08314
1611.66370,0.07969
1610.17391,0.07626
1608.68412,0.08131
1607.19433,0.08113
1605.70454,0.09380
1604.21475,0.08057
1602.72496,0.06736
1601.23518,0.06146
1599.74539,0.05588
1598.25560,0.06285
1596.76581,0.07042
1595.27602,0.06083
1593.78623,0.07195
1592.29645,0.07377
1590.80666,0.05494
1589.31687,0.05361
1587.82708,0.05610
1586.33729,0.06472
1584.84750,0.05880
1583.35771,0.05175
1581.86793,0.05695
1580.37814,0.06014
1578.88835,0.06772
1577.39856,0.07736
1575.90877,0.06781
1574.41898,0.04635
1572.92920,0.03918
1571.43941,0.04979
1569.94962,0.03845
1568.45983,0.02713
1566.97004,0.03258
1565.48025,0.03311
1563.99047,0.04182
1562.50068,0.04560
1561.01089,0.03542
1559.52110,0.03372
1558.03131,0.02884
1556.54152,0.02922
1555.05173,0.03633
1553.56195,0.02657
1552.07216,0.01043
1550.58237,0.00131
1549.09258,0.00007
1547.60279,0.00905
1546.11300,0.01398
1544.62322,0.00146
1543.13343,0.00644
1541.64364,0.01290
1540.15385,0.00933
1538.66406,0.00580
1537.17427,0.00563
1535.68448,0.00578
1534.19470,0.01660
1532.70491,0.01957
1531.21512,0.01179
1529.72533,0.00578
1528.23554,0.02616
1526.74575,0.02326
1525.25597,0.01252
1523.76618,0.01753
1522.27639,0.02489
1520.78660,0.03316
1519.29681,0.03242
1517.80702,0.03404
1516.31724,0.04558
1514.82745,0.04492
1513.33766,0.04443
1511.84787,0.04396
1510.35808,0.04075
1508.86829,0.03582
1507.37850,0.03092
1505.88872,0.02662
1504.39893,0.01943
1502.90914,0.03965
1501.41935,0.04241
1499.92956,0.04957
1498.43977,0.06549
1496.94999,0.05843
1495.46020,0.06829
1493.97041,0.08836
1492.48062,0.08603
1490.99083,0.10237
1489.50104,0.08379
1488.01125,0.09173
1486.52147,0.09970
1485.03168,0.13594
1483.54189,0.14745
1482.05210,0.15112
1480.56231,0.16676
1479.07252,0.18447
1477.58274,0.20889
1476.09295,0.18995
1474.60316,0.21268
1473.11337,0.21039
1471.62358,0.23812
1470.13379,0.22568
1468.64401,0.26569
1467.15422,0.26263
1465.66443,0.26934
1464.17464,0.27608
1462.68485,0.30891
1461.19506,0.36449
1459.70527,0.40232
1458.21549,0.43027
1456.72570,0.47835
1455.23591,0.52907
1453.74612,0.58651
1452.25633,0.63524
1450.76654,0.66594
1449.27676,0.65677
1447.78697,0.63976
1446.29718,0.64782
1444.80739,0.62678
1443.31760,0.60577
1441.82781,0.56964
1440.33802,0.53149
1438.84824,0.46250
1437.35845,0.47130
1435.86866,0.43090
1434.37887,0.47731
1432.88908,0.51326
1431.39929,0.57807
1429.90951,0.66620
1428.41972,0.69611
1426.92993,0.74177
1425.44014,0.74960
1423.95035,0.78629
1422.46056,0.82300
1420.97078,0.86119
1419.48099,0.87785
1417.99120,0.88755
1416.50141,0.82971
1415.01162,0.81646
1413.52183,0.79594
1412.03204,0.76963
1410.54226,0.70752
1409.05247,0.66699
1407.56268,0.58425
1406.07289,0.51931
1404.58310,0.50069
1403.09331,0.48210
1401.60353,0.45655
1400.11374,0.37685
1398.62395,0.35076
1397.13416,0.29674
1395.64437,0.23809
1394.15458,0.21120
1392.66479,0.16570
1391.17501,0.13800
1389.68522,0.12313
1388.19543,0.09954
1386.70564,0.08385
1385.21585,0.06818
1383.72606,0.04118
1382.23628,0.04158
1380.74649,0.03297
1379.25670,0.01770
1377.76691,0.01409
1376.27712,0.00527
1374.78733,0.00578
1373.29755,0.00729
1371.80776,0.01378
1370.31797,0.01650
1368.82818,0.02187
1367.33839,0.02727
1365.84860,0.04026
1364.35881,0.05036
1362.86903,0.05117
1361.37924,0.07094
1359.88945,0.06918
1358.39966,0.08841
1356.90987,0.13446
1355.42008,0.16627
1353.93030,0.21470
1352.44051,0.25645
1350.95072,0.29824
1349.46093,0.36043
1347.97114,0.44041
1346.48135,0.51809
1344.99156,0.57745
1343.50178,0.65634
1342.01199,0.70090
1340.52220,0.77897
1339.03241,0.77785
1337.54262,0.81257
1336.05283,0.84281
1334.56305,0.87307
1333.07326,0.92389
1331.58347,0.92232
1330.09368,0.90649
1328.60389,0.89769
1327.11410,0.86007
1325.62432,0.81345
1324.13453,0.82715
1322.64474,0.78815
1321.15495,0.76316
1319.66516,0.73281
1318.17537,0.70248
1316.68558,0.64290
1315.19580,0.57608
1313.70601,0.52267
1312.21622,0.50453
1310.72643,0.47592
1309.23664,0.42842
1307.74685,0.39637
1306.25707,0.35940
1304.76728,0.33716
1303.27749,0.31494
1301.78770,0.28387
1300.29791,0.26010
1298.80812,0.22238
1297.31834,0.18002
1295.82855,0.14818
1294.33876,0.14519
1292.84897,0.11776
1291.35918,0.08278
1289.86939,0.08132
1288.37960,0.07989
1286.88982,0.10091
1285.40003,0.08816
1283.91024,0.06904
1282.42045,0.05722
1280.93066,0.05096
1279.44087,0.05754
1277.95109,0.06007
1276.46130,0.02680
1274.97151,0.03462
1273.48172,0.04246
1271.99193,0.02150
1270.50214,0.03988
1269.01235,0.02392
1267.52257,0.04089
1266.03278,0.04013
1264.54299,0.03501
1263.05320,0.05614
1261.56341,0.03739
1260.07362,0.01867
1258.58384,0.01540
1257.09405,0.02149
1255.60426,0.01332
1254.11447,0.01392
1252.62468,0.02124
1251.13489,0.00674
1249.64511,0.00887
1248.15532,0.00578
1246.66553,0.00959
1245.17574,0.01342
1243.68595,0.02310
1242.19616,0.03950
1240.70637,0.01632
1239.21659,0.03074
1237.72680,0.05275
1236.23701,0.03168
1234.74722,0.04472
1233.25743,0.03535
1231.76764,0.02601
1230.27786,0.03999
1228.78807,0.04322
1227.29828,0.02493
1225.80849,0.00578
1224.31870,0.00611
1222.82891,0.02621
1221.33912,0.02771
1219.84934,0.02951
1218.35955,0.03135
1216.86976,0.04893
1215.37997,0.07003
1213.89018,0.08213
1212.40039,0.07096
1210.91061,0.06972
1209.42082,0.05073
1207.93103,0.05507
1206.44124,0.05943
1204.95145,0.06557
1203.46166,0.06095
1201.97188,0.05112
1200.48209,0.05092
1198.99230,0.04434
1197.50251,0.03633
1196.01272,0.04291
1194.52293,0.04965
1193.03314,0.05643
1191.54336,0.03687
1190.05357,0.03189
1188.56378,0.03889
1187.07399,0.03134
1185.58420,0.02033
1184.09441,0.01895
1182.60463,0.01236
1181.11484,0.00578
1179.62505,0.02985
1178.13526,0.03384
1176.64547,0.03145
1175.15568,0.02355
1173.66589,0.01917
1172.17611,0.00578
1170.68632,0.01037
1169.19653,0.01497
1167.70674,0.03009
1166.21695,0.03416
1164.72716,0.05545
1163.23738,0.05520
1161.74759,0.03460
1160.25780,0.07052
1158.76801,0.07122
1157.27822,0.07195
1155.78843,0.05552
1154.29865,0.04815
1152.80886,0.09206
1151.31907,0.11356
1149.82928,0.12170
1148.33949,0.13568
1146.84970,0.13921
1145.35991,0.14276
1143.87013,0.13731
1142.38034,0.15693
1140.89055,0.17337
1139.40076,0.16333
1137.91097,0.18448
1136.42118,0.21556
1134.93140,0.22511
1133.44161,0.23468
1131.95182,0.22769
1130.46203,0.25333
1128.97224,0.22920
1127.48245,0.23771
1125.99266,0.24129
1124.50288,0.24461
1123.01309,0.23733
1121.52330,0.23007
1120.03351,0.22851
1118.54372,0.24911
1117.05393,0.22663
1115.56415,0.26039
1114.07436,0.24932
1112.58457,0.24964
1111.09478,0.24998
1109.60499,0.24801
1108.11520,0.26442
1106.62542,0.29920
1105.13563,0.26761
1103.64584,0.24827
1102.15605,0.24993
1100.66626,0.24258
1099.17647,0.23526
1097.68668,0.23524
1096.19690,0.21632
1094.70711,0.21315
1093.21732,0.22602
1091.72753,0.17543
1090.23774,0.18340
1088.74795,0.19140
1087.25817,0.18690
1085.76838,0.18621
1084.27859,0.18758
1082.78880,0.18665
1081.29901,0.17380
1079.80922,0.19389
1078.31943,0.18823
1076.82965,0.18259
1075.33986,0.19576
1073.85007,0.20634
1072.36028,0.21286
1070.87049,0.21271
1069.38070,0.24142
1067.89092,0.25501
1066.40113,0.26862
1064.91134,0.30964
1063.42155,0.38533
1061.93176,0.46426
1060.44197,0.54030
1058.95219,0.59219
1057.46240,0.64075
1055.97261,0.68934
1054.48282,0.79926
1052.99303,0.87047
1051.50324,0.87910
1050.01345,0.87260
1048.52367,0.85797
1047.03388,0.85225
1045.54409,0.84656
1044.05430,0.78920
1042.56451,0.74322
1041.07472,0.70717
1039.58494,0.68279
1038.09515,0.60223
1036.60536,0.57033
1035.11557,0.53845
1033.62578,0.47748
1032.13599,0.42469
1030.64620,0.36376
1029.15642,0.31830
1027.66663,0.29558
1026.17684,0.27288
1024.68705,0.22342
1023.19726,0.19553
1021.70747,0.14495
1020.21769,0.14041
1018.72790,0.12453
1017.23811,0.12397
1015.74832,0.12344
1014.25853,0.12803
1012.76874,0.12449
1011.27896,0.13728
1009.78917,0.12621
1008.29938,0.09304
1006.80959,0.07271
1005.31980,0.05240
1003.83001,0.04231
1002.34022,0.02205
1000.85044,0.01260
999.36065,0.00578
997.87086,0.01488
996.38107,0.02399
994.89128,0.03605
993.40149,0.06094
991.91171,0.08237
990.42192,0.10090
988.93213,0.08714
987.44234,0.10034
985.95255,0.11356
984.46276,0.10948
982.97297,0.10106
981.48319,0.08363
979.99340,0.06332
978.50361,0.05949
977.01382,0.05568
975.52403,0.02671
974.03424,0.01203
972.54446,0.01718
971.05467,0.00721
969.56488,0.00978
968.07509,0.00947
966.58530,0.00919
965.09551,0.01243
963.60573,0.00578
962.11594,0.02939
960.62615,0.03438
959.13636,0.02906
957.64657,0.02376
956.15678,0.02883
954.66699,0.04644
953.17721,0.04631
951.68742,0.04563
950.19763,0.03929
948.70784,0.03298
947.21805,0.06441
945.72826,0.09469
944.23848,0.10083
942.74869,0.12069
941.25890,0.14726
939.76911,0.15523
938.27932,0.16321
936.78953,0.17326
935.29974,0.19907
933.80996,0.19985
932.32017,0.20444
930.83038,0.22071
929.34059,0.23700
927.85080,0.27982
926.36101,0.31829
924.87123,0.35417
923.38144,0.40114
921.89165,0.44319
920.40186,0.48526
918.91207,0.58327
917.42228,0.70723
915.93250,0.82131
914.44271,0.98900
912.95292,1.09686
911.46313,1.20476
909.97334,1.41941
908.48355,1.62040
906.99376,1.83423
905.50398,1.91645
904.01419,1.95821
902.52440,2.00000
901.03461,1.99580
899.54482,1.95231
898.05503,1.89282
896.56525,1.64697
895.07546,1.50134
893.58567,1.35572
892.09588,1.07151
890.60609,0.86653
889.11630,0.63566
887.62651,0.49394
886.13673,0.41907
884.64694,0.34423
883.15715,0.25383
881.66736,0.17744
880.17757,0.13398
878.68778,0.11370
877.19800,0.09345
875.70821,0.07394
874.21842,0.02651
872.72863,0.01550
871.23884,0.02112
869.74905,0.02749
868.25927,0.03389
866.76948,0.00784
865.27969,0.00948
863.78990,0.00998
862.30011,0.04778
860.81032,0.04775
859.32053,0.04775
857.83075,0.04864
856.34096,0.07839
854.85117,0.06040
853.36138,0.07622
851.87159,0.07794
850.38180,0.07969
848.89202,0.11597
847.40223,0.11966
845.91244,0.13619
844.42265,0.14138
842.93286,0.14660
841.44307,0.16670
839.95329,0.18041
838.46350,0.17552
836.97371,0.20501
835.48392,0.20497
833.99413,0.20495
832.50434,0.21500
831.01455,0.19072
829.52477,0.18393
828.03498,0.14077
826.54519,0.13709
825.05540,0.13343
823.56561,0.09792
822.07582,0.09417
820.58604,0.09306
819.09625,0.09082
817.60646,0.08860
816.11667,0.07418
814.62688,0.07813
813.13709,0.08297
811.64730,0.10474
810.15752,0.09784
808.66773,0.09097
807.17794,0.09504
805.68815,0.06710
804.19836,0.08287
802.70857,0.08236
801.21879,0.08188
799.72900,0.08549
798.23921,0.08127
796.74942,0.07794
795.25963,0.08892
793.76984,0.09991
792.28006,0.09200
790.79027,0.10596
789.30048,0.09723
787.81069,0.14357
786.32090,0.15498
784.83111,0.16642
783.34132,0.18982
781.85154,0.24732
780.36175,0.28417
778.87196,0.29920
777.38217,0.31426
775.89238,0.31507
774.40259,0.32814
772.91281,0.33367
771.42302,0.31810
769.93323,0.30256
768.44344,0.26971
766.95365,0.21505
765.46386,0.19303
763.97407,0.14948
762.48429,0.14441
760.99450,0.13935
759.50471,0.12005
758.01492,0.09932
756.52513,0.09551
755.03534,0.09449
753.54556,0.09349
752.05577,0.07636
750.56598,0.07090
749.07619,0.04595
747.58640,0.04607
746.09661,0.04622
744.60683,0.02222
743.11704,0.01368
741.62725,0.01332
740.13746,0.01940
738.64767,0.02549
737.15788,0.02230
735.66809,0.00689
734.17831,0.00578
732.68852,0.01111
731.19873,0.01646
729.70894,0.00946
728.21915,0.01704
726.72936,0.00951
725.23958,0.02251
723.74979,0.02127
722.26000,0.02006
720.77021,0.00955
719.28042,0.01799
717.79063,0.00578
716.30084,0.01320
714.81106,0.02064
713.32127,0.02403
711.83148,0.03735
710.34169,0.03875
708.85190,0.03071
707.36211,0.02269
705.87233,0.02562
704.38254,0.03266
702.89275,0.03564
701.40296,0.04214
699.91317,0.04867
698.42338,0.08085
696.93360,0.09266
695.44381,0.10043
693.95402,0.11113
692.46423,0.12186
690.97444,0.15038
689.48465,0.15679
687.99486,0.18623
686.50508,0.20143
685.01529,0.21665
683.52550,0.23714
682.03571,0.24775
680.54592,0.26946
679.05613,0.26629
677.56635,0.26314
676.07656,0.28987
674.58677,0.27789
673.09698,0.25429
671.60719,0.24265
670.11740,0.23104
668.62761,0.19790
667.13783,0.14470
665.64804,0.12894
664.15825,0.11320
662.66846,0.12210
661.17867,0.08355
659.68888,0.08260
658.19910,0.08342
656.70931,0.08426
655.21952,0.07349
653.72973,0.06448
652.23994,0.07763
650.75015,0.07260
649.26037,0.06760
647.77058,0.05782
646.28079,0.05855
644.79100,0.05406
643.30121,0.05790
641.81142,0.06176
640.32163,0.03929
638.83185,0.01044
637.34206,0.00578
635.85227,0.01099
634.36248,0.01623
632.87269,0.03910
631.38290,0.04919
629.89312,0.06076
628.40333,0.06041
626.91354,0.06009
625.42375,0.03388
623.93396,0.03885
622.44417,0.03161
620.95438,0.02440
619.46460,0.02159
617.97481,0.04966
616.48502,0.07719
614.99523,0.08041
613.50544,0.08367
612.01565,0.12058
610.52587,0.16073
609.03608,0.17206
607.54629,0.18998
606.05650,0.20792
604.56671,0.26185
603.07692,0.31493
601.58714,0.33673
600.09735,0.35856
598.60756,0.38638
597.11777,0.43490
595.62798,0.41385
594.13819,0.40709
592.64840,0.40035
591.15862,0.37588
589.66883,0.33832
588.17904,0.30050
586.68925,0.25499
585.19946,0.20950
583.70967,0.16709
582.21989,0.13840
580.73010,0.11818
579.24031,0.09798
577.75052,0.06994
576.26073,0.06989
574.77094,0.07802
573.28115,0.07117
571.79137,0.06435
570.30158,0.06090
568.81179,0.07087
567.32200,0.08116
565.83221,0.09148
564.34242,0.10095
562.85264,0.10520
561.36285,0.10481
559.87306,0.11726
558.38327,0.12974
556.89348,0.14778
555.40369,0.17778
553.91391,0.17083
552.42412,0.16389
550.93433,0.16077
549.44454,0.16029
547.95475,0.19246
546.46496,0.18665
544.97517,0.18086
543.48539,0.22271
541.99560,0.23226
540.50581,0.24926
539.01602,0.26629
537.52623,0.31698
536.03644,0.36158
534.54666,0.38057
533.05687,0.40003
531.56708,0.41951
530.07729,0.48372
528.58750,0.52757
527.09771,0.55732
525.60792,0.58710
524.11814,0.62199
522.62835,0.70002
521.13856,0.72128
519.64877,0.73368
518.15898,0.74610
516.66919,0.75258
515.17941,0.77336
513.68962,0.76489
512.19983,0.75645
510.71004,0.74731
509.22025,0.72479
507.73046,0.63677
506.24068,0.58547
504.75089,0.53420
503.26110,0.43694
501.77131,0.35280
500.28152,0.30801
498.79173,0.26325
497.30194,0.21530
495.81216,0.17204
494.32237,0.14657
492.83258,0.12113
491.34279,0.11726
489.85300,0.07788
488.36321,0.07028
486.87343,0.06212
485.38364,0.05398
483.89385,0.06305
482.40406,0.09137
480.91427,0.08986
479.42448,0.08837
477.93469,0.11560
476.44491,0.11023
474.95512,0.12295
473.46533,0.13569
471.97554,0.16039
470.48575,0.19619
468.99596,0.17289
467.50618,0.14234
466.01639,0.11181
464.52660,0.11305
463.03681,0.08578
461.54702,0.08255
460.05723,0.07936
458.56745,0.05012
457.07766,0.02265
455.58787,0.02885
454.09808,0.03507
452.60829,0.02574
451.11850,0.02866
449.62871,0.02811
448.13893,0.02759
446.64914,0.03699
445.15935,0.01060
443.66956,0.00578
442.17977,0.01051
440.68998,0.01526
439.20020,0.02528
437.71041,0.02600
436.22062,0.03287
434.73083,0.03976
433.24104,0.04376
431.75125,0.03089
430.26146,0.02417
428.77168,0.01747
427.28189,0.04749
425.79210,0.06007
424.30231,0.05738
422.81252,0.05471
421.32273,0.06095
419.83295,0.01159
418.34316,0.01380
416.85337,0.01604
415.36358,0.00578
413.87379,0.02504
412.38400,0.03675
410.89422,0.04848
409.40443,0.03462
407.91464,0.01524
406.42485,0.03782
404.93506,0.04529
403.44527,0.05278
401.95548,0.04020
400.46570,0.02415
398.97591,0.03346
397.48612,0.04280
395.99633,0.03353
394.50654,0.01700
393.01675,0.01665
391.52697,0.01431
390.03718,0.02525
388.54739,0.01553
387.05760,0.01065
385.56781,0.00578
384.07802,0.00744
382.58824,0.01466
381.09845,0.01244
379.60866,0.01024
378.11887,0.02103
376.62908,0.00331
375.13929,0.00963
373.64950,0.01598
372.15972,0.04492
370.66993,0.04419
369.18014,0.03212
367.69035,0.02007
366.20056,0.05271
364.71077,0.03937
363.22099,0.03405
361.73120,0.02876
360.24141,0.06529
358.75162,0.08932
357.26183,0.07231
355.77204,0.05532
354.28225,0.04681
352.79247,0.02405
351.30268,0.02490
349.81289,0.02578
348.32310,0.03834
346.83331,0.04859
345.34352,0.04037
343.85374,0.03217
342.36395,0.04774
340.87416,0.03538
339.38437,0.03192
337.89458,0.02848
336.40479,0.04531
334.91501,0.04441
333.42522,0.03449
331.93543,0.02461
330.44564,0.00805
328.95585,0.00578
327.46606,0.01643
325.97627,0.02710
324.48649,0.04230
322.99670,0.04210
321.50691,0.05051
320.01712,0.05895
318.52733,0.08620
317.03754,0.07794
315.54776,0.08442
314.05797,0.09092
312.56818,0.11040
311.07839,0.05973
309.58860,0.06077
308.09881,0.06183
306.60902,0.08520
305.11924,0.06026
303.62945,0.03970
302.13966,0.01917
300.64987,0.00578
299.16008,0.00578
