1778.52000,0.00959
1777.03021,0.00614
1775.54042,0.01188
1774.05063,0.01115
1772.56085,0.00415
1771.07106,0.00767
1769.58127,0.01351
1768.09148,0.00371
1766.60169,0.00750
1765.11190,0.01092
1763.62212,0.00693
1762.13233,0.00887
1760.64254,0.01218
1759.15275,0.00711
1757.66296,0.00550
1756.17317,0.00048
1754.68339,0.00788
1753.19360,0.00902
1751.70381,0.00579
1750.21402,0.00754
1748.72423,0.00836
1747.23444,0.00826
1745.74465,0.00531
1744.25487,0.01231
1742.76508,0.00769
1741.27529,0.01742
1739.78550,0.01456
1738.29571,0.01880
1736.80592,0.00550
1735.31614,0.01497
1733.82635,0.00882
1732.33656,0.00689
1730.84677,0.00842
1729.35698,0.00902
1727.86719,0.01155
1726.37740,0.00743
1724.88762,0.00199
1723.39783,0.00593
1721.90804,0.00150
1720.41825,0.00869
1718.92846,0.00598
1717.43867,0.00883
1715.94889,0.00541
1714.45910,0.00716
1712.96931,0.00550
1711.47952,0.00436
1709.98973,0.00000
1708.49994,0.00368
1707.01016,0.00271
1705.52037,0.00176
1704.03058,0.00837
1702.54079,0.00948
1701.05100,0.00583
1699.56121,0.00240
1698.07142,0.01301
1696.58164,0.00552
1695.09185,0.00949
1693.60206,0.00815
1692.11227,0.00550
1690.62248,0.01675
1689.13269,0.00836
1687.64291,0.00974
1686.15312,0.01476
1684.66333,0.00854
1683.17354,0.01533
1681.68375,0.01947
1680.19396,0.01925
1678.70417,0.02611
1677.21439,0.02974
1675.72460,0.02654
1674.23481,0.03805
1672.74502,0.03527
1671.25523,0.04072
1669.76544,0.04562
1668.27566,0.04005
1666.78587,0.05092
1665.29608,0.05971
1663.80629,0.06375
1662.31650,0.06362
1660.82671,0.06885
1659.33693,0.08022
1657.84714,0.07730
1656.35735,0.06600
1654.86756,0.07191
1653.37777,0.07211
1651.88798,0.07500
1650.39819,0.07201
1648.90841,0.06694
1647.41862,0.06380
1645.92883,0.07137
1644.43904,0.07897
1642.94925,0.07648
1641.45946,0.08488
1639.96968,0.08492
1638.47989,0.07562
1636.99010,0.07437
1635.50031,0.07486
1634.01052,0.07575
1632.52073,0.07857
1631.03094,0.07684
1629.54116,0.07265
1628.05137,0.07631
1626.56158,0.07752
1625.07179,0.08695
1623.58200,0.07942
1622.09221,0.07936
1620.60243,0.08390
1619.11264,0.08484
1617.62285,0.09019
1616.13306,0.08412
1614.64327,0.08112
1613.15348,0.08215
1611.66370,0.09447
1610.17391,0.09422
1608.68412,0.08635
1607.19433,0.07985
1605.70454,0.08616
1604.21475,0.07855
1602.72496,0.07098
1601.23518,0.06934
1599.74539,0.06677
1598.25560,0.07778
1596.76581,0.08671
1595.27602,0.07257
1593.78623,0.07124
1592.29645,0.06898
1590.80666,0.06312
1589.31687,0.06129
1587.82708,0.06616
1586.33729,0.05484
1584.84750,0.06415
1583.35771,0.06986
1581.86793,0.06719
1580.37814,0.06169
1578.88835,0.06346
1577.39856,0.05514
1575.90877,0.03979
1574.41898,0.03972
1572.92920,0.03376
1571.43941,0.03985
1569.94962,0.03881
1568.45983,0.03779
1566.97004,0.03880
1565.48025,0.02342
1563.99047,0.03211
1562.50068,0.03548
1561.01089,0.02074
1559.52110,0.02301
1558.03131,0.02588
1556.54152,0.01370
1555.05173,0.01299
1553.56195,0.02222
1552.07216,0.00782
1550.58237,0.00241
1549.09258,0.00561
1547.60279,0.00540
1546.11300,0.00579
1544.62322,0.00544
1543.13343,0.00721
1541.64364,0.00480
1540.15385,0.00550
1538.66406,0.00600
1537.17427,0.01326
1535.68448,0.01996
1534.19470,0.01028
1532.70491,0.01647
1531.21512,0.01752
1529.72533,0.02089
1528.23554,0.00939
1526.74575,0.01930
1525.25597,0.01396
1523.76618,0.01456
1522.27639,0.02033
1520.78660,0.03129
1519.29681,0.03177
1517.80702,0.03743
1516.31724,0.03585
1514.82745,0.03946
1513.33766,0.04128
1511.84787,0.04312
1510.35808,0.03744
1508.86829,0.04477
1507.37850,0.03590
1505.88872,0.03831
1504.39893,0.03979
1502.90914,0.04454
1501.41935,0.05313
1499.92956,0.05258
1498.43977,0.05664
1496.94999,0.06588
1495.46020,0.07361
1493.97041,0.07697
1492.48062,0.07769
1490.99083,0.07901
1489.50104,0.09695
1488.01125,0.10213
1486.52147,0.10733
1485.03168,0.14385
1483.54189,0.16857
1482.05210,0.17862
1480.56231,0.18391
1479.07252,0.20107
1477.58274,0.20527
1476.09295,0.21865
1474.60316,0.22118
1473.11337,0.23423
1471.62358,0.23700
1470.13379,0.26689
1468.64401,0.26685
1467.15422,0.27331
1465.66443,0.28505
1464.17464,0.29681
1462.68485,0.32243
1461.19506,0.36449
1459.70527,0.41860
1458.21549,0.45689
1456.72570,0.48948
1455.23591,0.54270
1453.74612,0.60416
1452.25633,0.63548
1450.76654,0.66664
1449.27676,0.65755
1447.78697,0.67673
1446.29718,0.63429
1444.80739,0.62231
1443.31760,0.61036
1441.82781,0.59222
1440.33802,0.52068
1438.84824,0.50641
1437.35845,0.46984
1435.86866,0.47050
1434.37887,0.46280
1432.88908,0.51523
1431.39929,0.58945
1429.90951,0.66789
1428.41972,0.71066
1426.92993,0.73418
1425.44014,0.76021
1423.95035,0.79160
1422.46056,0.82302
1420.97078,0.84377
1419.48099,0.89909
1417.99120,0.90024
1416.50141,0.87659
1415.01162,0.85221
1413.52183,0.82174
1412.03204,0.76782
1410.54226,0.73015
1409.05247,0.67647
1407.56268,0.64190
1406.07289,0.58674
1404.58310,0.54688
1403.09331,0.50703
1401.60353,0.48878
1400.11374,0.43486
1398.62395,0.36761
1397.13416,0.30629
1395.64437,0.25951
1394.15458,0.21541
1392.66479,0.18662
1391.17501,0.16338
1389.68522,0.14302
1388.19543,0.11372
1386.70564,0.10773
1385.21585,0.10176
1383.72606,0.07177
1382.23628,0.04524
1380.74649,0.03915
1379.25670,0.02965
1377.76691,0.02762
1376.27712,0.00405
1374.78733,0.01290
1373.29755,0.00728
1371.80776,0.00550
1370.31797,0.02345
1368.82818,0.02778
1367.33839,0.03214
1365.84860,0.03642
1364.35881,0.03749
1362.86903,0.03266
1361.37924,0.05533
1359.88945,0.06830
1358.39966,0.09675
1356.90987,0.13095
1355.42008,0.15296
1353.93030,0.22022
1352.44051,0.25039
1350.95072,0.28058
1349.46093,0.35192
1347.97114,0.44867
1346.48135,0.51491
1344.99156,0.58251
1343.50178,0.64097
1342.01199,0.70308
1340.52220,0.73773
1339.03241,0.78672
1337.54262,0.84566
1336.05283,0.87590
1334.56305,0.90616
1333.07326,0.95658
1331.58347,0.94023
1330.09368,0.95424
1328.60389,0.91560
1327.11410,0.88902
1325.62432,0.88211
1324.13453,0.86664
1322.64474,0.85119
1321.15495,0.78252
1319.66516,0.75042
1318.17537,0.71834
1316.68558,0.65260
1315.19580,0.61055
1313.70601,0.56185
1312.21622,0.53951
1310.72643,0.49848
1309.23664,0.45787
1307.74685,0.44266
1306.25707,0.40686
1304.76728,0.38339
1303.27749,0.35995
1301.78770,0.30247
1300.29791,0.26352
1298.80812,0.24101
1297.31834,0.21509
1295.82855,0.18518
1294.33876,0.15606
1292.84897,0.13937
1291.35918,0.11984
1289.86939,0.11293
1288.37960,0.10605
1286.88982,0.10071
1285.40003,0.08624
1283.91024,0.07809
1282.42045,0.06672
1280.93066,0.05976
1279.44087,0.06600
1277.95109,0.04993
1276.46130,0.03235
1274.97151,0.04076
1273.48172,0.04919
1271.99193,0.03722
1270.50214,0.03825
1269.01235,0.03683
1267.52257,0.04707
1266.03278,0.02719
1264.54299,0.03633
1263.05320,0.03348
1261.56341,0.02778
1260.07362,0.02211
1258.58384,0.01704
1257.09405,0.00550
1255.60426,0.00865
1254.11447,0.01258
1252.62468,0.01254
1251.13489,0.01805
1249.64511,0.01862
1248.15532,0.01750
1246.66553,0.01707
1245.17574,0.01666
1243.68595,0.00988
1242.19616,0.01229
1240.70637,0.01835
1239.21659,0.01604
1237.72680,0.02558
1236.23701,0.02140
1234.74722,0.02412
1233.25743,0.02238
1231.76764,0.02066
1230.27786,0.01677
1228.78807,0.02130
1227.29828,0.02394
1225.80849,0.01211
1224.31870,0.01022
1222.82891,0.00550
1221.33912,0.02832
1219.84934,0.03638
1218.35955,0.04446
1216.86976,0.04884
1215.37997,0.06756
1213.89018,0.07046
1212.40039,0.05831
1210.91061,0.06507
1209.42082,0.07282
1207.93103,0.07305
1206.44124,0.07330
1204.95145,0.07787
1203.46166,0.06128
1201.97188,0.06437
1200.48209,0.06043
1198.99230,0.05422
1197.50251,0.05013
1196.01272,0.03824
1194.52293,0.04593
1193.03314,0.05365
1191.54336,0.02867
1190.05357,0.02546
1188.56378,0.02877
1187.07399,0.03763
1185.58420,0.02743
1184.09441,0.01211
1182.60463,0.01513
1181.11484,0.01817
1179.62505,0.03498
1178.13526,0.02471
1176.64547,0.01962
1175.15568,0.02428
1173.66589,0.00550
1172.17611,0.01765
1170.68632,0.01867
1169.19653,0.01970
1167.70674,0.02506
1166.21695,0.03254
1164.72716,0.04328
1163.23738,0.03192
1161.74759,0.04996
1160.25780,0.05620
1158.76801,0.06036
1157.27822,0.06455
1155.78843,0.06819
1154.29865,0.08425
1152.80886,0.09824
1151.31907,0.12695
1149.82928,0.11580
1148.33949,0.11574
1146.84970,0.12486
1145.35991,0.13401
1143.87013,0.12238
1142.38034,0.13978
1140.89055,0.15663
1139.40076,0.14717
1137.91097,0.15205
1136.42118,0.16859
1134.93140,0.17265
1133.44161,0.17674
1131.95182,0.19851
1130.46203,0.19587
1128.97224,0.19822
1127.48245,0.20880
1125.99266,0.20165
1124.50288,0.19090
1123.01309,0.20088
1121.52330,0.21088
1120.03351,0.20307
1118.54372,0.20577
1117.05393,0.20373
1115.56415,0.20839
1114.07436,0.21460
1112.58457,0.20757
1111.09478,0.20057
1109.60499,0.20132
1108.11520,0.21907
1106.62542,0.21701
1105.13563,0.20561
1103.64584,0.18737
1102.15605,0.18194
1100.66626,0.17853
1099.17647,0.17515
1097.68668,0.19346
1096.19690,0.17591
1094.70711,0.18758
1093.21732,0.17943
1091.72753,0.14974
1090.23774,0.15566
1088.74795,0.16161
1087.25817,0.16767
1085.76838,0.15773
1084.27859,0.15240
1082.78880,0.15853
1081.29901,0.14943
1079.80922,0.16268
1078.31943,0.16831
1076.82965,0.17397
1075.33986,0.18538
1073.85007,0.20350
1072.36028,0.21171
1070.87049,0.20620
1069.38070,0.22515
1067.89092,0.24498
1066.40113,0.26484
1064.91134,0.29913
1063.42155,0.38821
1061.93176,0.47618
1060.44197,0.53077
1058.95219,0.64645
1057.46240,0.70223
1055.97261,0.75804
1054.48282,0.84994
1052.99303,0.93996
1051.50324,0.94449
1050.01345,0.95020
1048.52367,0.91280
1047.03388,0.89766
1045.54409,0.88254
1044.05430,0.84979
1042.56451,0.82698
1041.07472,0.75764
1039.58494,0.66885
1038.09515,0.56386
1036.60536,0.53066
1035.11557,0.49748
1033.62578,0.43226
1032.13599,0.36801
1030.64620,0.31735
1029.15642,0.27377
1027.66663,0.24700
1026.17684,0.22026
1024.68705,0.18687
1023.19726,0.16399
1021.70747,0.14114
1020.21769,0.11946
1018.72790,0.12128
1017.23811,0.11062
1015.74832,0.09998
1014.25853,0.08717
1012.76874,0.08622
1011.27896,0.06754
1009.78917,0.07275
1008.29938,0.05450
1006.80959,0.04792
1005.31980,0.04136
1003.83001,0.01192
1002.34022,0.00656
1000.85044,0.00580
999.36065,0.02033
997.87086,0.02849
996.38107,0.03667
994.89128,0.06884
993.40149,0.07087
991.91171,0.09811
990.42192,0.10114
988.93213,0.10286
987.44234,0.10785
985.95255,0.11286
984.46276,0.11675
982.97297,0.10635
981.48319,0.09865
979.99340,0.08486
978.50361,0.07090
977.01382,0.05697
975.52403,0.04288
974.03424,0.03472
972.54446,0.02009
971.05467,0.01427
969.56488,0.01229
968.07509,0.01225
966.58530,0.01222
965.09551,0.01547
963.60573,0.01301
962.11594,0.00753
960.62615,0.00550
959.13636,0.00728
957.64657,0.00909
956.15678,0.02171
954.66699,0.00858
953.17721,0.03957
951.68742,0.02210
950.19763,0.02345
948.70784,0.02483
947.21805,0.05438
945.72826,0.05285
944.23848,0.08627
942.74869,0.10196
941.25890,0.12302
939.76911,0.12874
938.27932,0.13449
936.78953,0.14359
935.29974,0.17353
933.80996,0.16932
932.32017,0.18938
930.83038,0.20316
929.34059,0.21697
927.85080,0.23462
926.36101,0.24943
924.87123,0.27762
923.38144,0.32206
921.89165,0.34543
920.40186,0.36883
918.91207,0.45341
917.42228,0.56246
915.93250,0.71599
914.44271,0.90447
912.95292,1.02131
911.46313,1.13818
909.97334,1.33532
908.48355,1.52867
906.99376,1.75697
905.50398,1.89999
904.01419,1.94998
902.52440,2.00000
901.03461,1.99708
899.54482,1.97090
898.05503,1.81020
896.56525,1.59665
895.07546,1.46061
893.58567,1.32460
892.09588,1.08097
890.60609,0.86122
889.11630,0.64473
887.62651,0.48820
886.13673,0.42407
884.64694,0.35996
883.15715,0.27984
881.66736,0.21272
880.17757,0.14887
878.68778,0.12971
877.19800,0.11056
875.70821,0.06893
874.21842,0.05403
872.72863,0.05252
871.23884,0.03633
869.74905,0.03134
868.25927,0.02637
866.76948,0.01655
865.27969,0.03863
863.78990,0.04299
862.30011,0.06416
860.81032,0.06676
859.32053,0.06937
857.83075,0.07764
856.34096,0.09967
854.85117,0.10951
853.36138,0.12892
851.87159,0.14024
850.38180,0.15159
848.89202,0.16229
847.40223,0.18351
845.91244,0.20037
844.42265,0.20570
842.93286,0.21106
841.44307,0.22264
839.95329,0.24207
838.46350,0.26248
836.97371,0.29303
835.48392,0.29011
833.99413,0.28721
832.50434,0.27737
831.01455,0.25076
829.52477,0.22856
828.03498,0.21898
826.54519,0.21010
825.05540,0.20123
823.56561,0.16959
822.07582,0.16965
820.58604,0.15370
819.09625,0.15190
817.60646,0.15012
816.11667,0.13749
814.62688,0.13156
813.13709,0.15066
811.64730,0.13485
810.15752,0.13090
808.66773,0.12698
807.17794,0.12918
805.68815,0.13103
804.19836,0.14779
802.70857,0.15264
801.21879,0.15752
799.72900,0.14572
798.23921,0.14463
796.74942,0.15540
795.25963,0.14721
793.76984,0.13904
792.28006,0.14339
790.79027,0.15864
789.30048,0.17125
787.81069,0.23636
786.32090,0.24281
784.83111,0.24929
783.34132,0.27096
781.85154,0.32396
780.36175,0.32735
778.87196,0.35349
777.38217,0.37964
775.89238,0.39933
774.40259,0.40970
772.91281,0.39413
771.42302,0.37667
769.93323,0.35924
768.44344,0.30596
766.95365,0.26433
765.46386,0.22369
763.97407,0.17410
762.48429,0.16624
760.99450,0.15840
759.50471,0.14171
758.01492,0.12370
756.52513,0.11011
755.03534,0.10399
753.54556,0.09789
752.05577,0.08934
750.56598,0.07336
749.07619,0.06103
747.58640,0.05503
746.09661,0.04905
744.60683,0.05168
743.11704,0.03353
741.62725,0.03411
740.13746,0.03042
738.64767,0.02676
737.15788,0.02226
735.66809,0.00843
734.17831,0.00550
732.68852,0.01404
731.19873,0.02261
729.70894,0.01422
728.21915,0.01062
726.72936,0.01488
725.23958,0.00636
723.74979,0.00853
722.26000,0.01071
720.77021,0.00538
719.28042,0.01495
717.79063,0.02131
716.30084,0.02358
714.81106,0.02587
713.32127,0.02791
711.83148,0.02405
710.34169,0.01888
708.85190,0.01879
707.36211,0.01872
705.87233,0.03423
704.38254,0.03985
702.89275,0.04796
701.40296,0.05076
699.91317,0.05358
698.42338,0.06558
696.93360,0.08353
695.44381,0.08661
693.95402,0.09621
692.46423,0.10582
690.97444,0.13226
689.48465,0.16445
687.99486,0.18082
686.50508,0.18605
685.01529,0.19130
683.52550,0.21270
682.03571,0.22421
680.54592,0.23879
679.05613,0.23831
677.56635,0.23786
676.07656,0.24126
674.58677,0.23723
673.09698,0.20631
671.60719,0.19880
670.11740,0.19131
668.62761,0.15990
667.13783,0.14053
665.64804,0.12691
664.15825,0.11332
662.66846,0.09402
661.17867,0.08486
659.68888,0.07057
658.19910,0.06356
656.70931,0.05658
655.21952,0.04847
653.72973,0.03981
652.23994,0.05122
650.75015,0.05100
649.26037,0.05082
647.77058,0.04645
646.28079,0.04001
644.79100,0.03474
643.30121,0.03780
641.81142,0.04088
640.32163,0.02136
638.83185,0.01695
637.34206,0.00798
635.85227,0.00864
634.36248,0.00932
632.87269,0.01451
631.38290,0.00961
629.89312,0.00550
628.40333,0.01137
626.91354,0.01727
625.42375,0.01432
623.93396,0.00643
622.44417,0.00534
620.95438,0.00427
619.46460,0.01096
617.97481,0.04095
616.48502,0.05761
614.99523,0.06208
613.50544,0.06657
612.01565,0.10677
610.52587,0.12391
609.03608,0.16320
607.54629,0.17953
606.05650,0.19587
604.56671,0.25185
603.07692,0.29181
601.58714,0.31329
600.09735,0.33479
598.60756,0.37215
597.11777,0.40190
595.62798,0.39714
594.13819,0.37655
592.64840,0.35599
591.15862,0.35130
589.66883,0.29357
588.17904,0.24216
586.68925,0.21082
585.19946,0.17950
583.70967,0.13389
582.21989,0.10205
580.73010,0.08874
579.24031,0.07546
577.75052,0.05456
576.26073,0.04113
574.77094,0.04548
573.28115,0.04460
571.79137,0.04375
570.30158,0.04415
568.81179,0.06138
567.32200,0.06136
565.83221,0.06136
564.34242,0.07828
562.85264,0.10477
561.36285,0.11505
559.87306,0.12975
558.38327,0.14447
556.89348,0.15082
555.40369,0.18009
553.91391,0.17733
552.42412,0.17459
550.93433,0.16958
549.44454,0.15849
547.95475,0.17605
546.46496,0.17646
544.97517,0.17689
543.48539,0.20483
541.99560,0.21676
540.50581,0.23406
539.01602,0.25138
537.52623,0.30899
536.03644,0.37484
534.54666,0.40139
533.05687,0.42033
531.56708,0.43930
530.07729,0.49284
528.58750,0.51281
527.09771,0.53433
525.60792,0.55587
524.11814,0.63164
522.62835,0.68090
521.13856,0.70156
519.64877,0.72053
518.15898,0.73952
516.66919,0.79002
515.17941,0.82624
513.68962,0.81362
512.19983,0.80102
510.71004,0.76383
509.22025,0.72991
507.73046,0.66032
506.24068,0.60516
504.75089,0.55003
503.26110,0.46696
501.77131,0.35681
500.28152,0.31044
498.79173,0.26408
497.30194,0.20859
495.81216,0.14587
494.32237,0.12793
492.83258,0.11002
491.34279,0.09756
489.85300,0.06127
488.36321,0.05746
486.87343,0.05318
485.38364,0.04894
483.89385,0.05168
482.40406,0.08059
480.91427,0.08930
479.42448,0.09803
477.93469,0.13083
476.44491,0.14552
474.95512,0.16549
473.46533,0.18548
471.97554,0.20826
470.48575,0.19041
468.99596,0.15370
467.50618,0.15517
466.01639,0.15667
464.52660,0.12117
463.03681,0.12043
461.54702,0.10578
460.05723,0.09115
458.56745,0.05556
457.07766,0.03124
455.58787,0.03196
454.09808,0.03269
452.60829,0.01628
451.11850,0.01038
449.62871,0.01443
448.13893,0.01851
446.64914,0.02108
445.15935,0.03208
443.66956,0.00550
442.17977,0.01324
440.68998,0.02100
439.20020,0.02335
437.71041,0.03812
436.22062,0.03279
434.73083,0.02748
433.24104,0.03813
431.75125,0.03792
430.26146,0.03469
428.77168,0.03148
427.28189,0.04909
425.79210,0.04650
424.30231,0.04030
422.81252,0.03413
421.32273,0.01520
419.83295,0.01996
418.34316,0.01834
416.85337,0.01675
415.36358,0.01452
413.87379,0.01975
412.38400,0.02558
410.89422,0.03143
409.40443,0.02815
407.91464,0.03157
406.42485,0.03558
404.93506,0.03762
403.44527,0.03968
401.95548,0.03918
400.46570,0.01352
398.97591,0.02605
397.48612,0.03861
395.99633,0.03096
394.50654,0.01856
393.01675,0.02050
391.52697,0.02246
390.03718,0.01491
388.54739,0.03246
387.05760,0.02036
385.56781,0.00829
384.07802,0.01552
382.58824,0.01400
381.09845,0.00974
379.60866,0.00550
378.11887,0.00756
376.62908,0.02662
375.13929,0.02624
373.64950,0.02589
372.15972,0.04064
370.66993,0.04262
369.18014,0.03127
367.69035,0.01995
366.20056,0.03719
364.71077,0.04892
363.22099,0.04875
361.73120,0.04860
360.24141,0.05602
358.75162,0.05506
357.26183,0.06319
355.77204,0.07134
354.28225,0.06645
352.79247,0.06081
351.30268,0.05873
349.81289,0.05667
348.32310,0.06581
346.83331,0.06275
345.34352,0.06630
343.85374,0.06987
342.36395,0.06535
340.87416,0.05304
339.38437,0.04037
337.89458,0.02772
336.40479,0.04162
334.91501,0.01909
333.42522,0.01262
331.93543,0.00617
330.44564,0.01294
328.95585,0.01304
327.46606,0.03207
325.97627,0.05112
324.48649,0.04519
322.99670,0.06086
321.50691,0.06757
320.01712,0.07431
318.52733,0.09234
317.03754,0.08366
315.54776,0.08446
314.05797,0.08529
312.56818,0.07821
311.07839,0.07364
309.58860,0.06881
308.09881,0.06401
306.60902,0.05531
305.11924,0.03061
303.62945,0.02014
302.13966,0.00971
300.64987,0.00551
299.16008,0.00550
