1778.52000,0.01748
1777.03021,0.01212
1775.54042,0.02554
1774.05063,0.01921
1772.56085,0.00847
1771.07106,0.01309
1769.58127,0.00274
1768.09148,0.01219
1766.60169,0.01245
1765.11190,0.02025
1763.62212,0.01306
1762.13233,0.02090
1760.64254,0.01036
1759.15275,0.02166
1757.66296,0.01014
1756.17317,0.00615
1754.68339,0.01888
1753.19360,0.00641
1751.70381,0.00897
1750.21402,0.01019
1748.72423,0.01041
1747.23444,0.01509
1745.74465,0.00956
1744.25487,0.00508
1742.76508,0.00369
1741.27529,0.02040
1739.78550,0.01292
1738.29571,0.01468
1736.80592,0.00521
1735.31614,0.01983
1733.82635,0.00550
1732.33656,0.00244
1730.84677,0.00724
1729.35698,0.02298
1727.86719,0.00022
1726.37740,0.01226
1724.88762,0.01035
1723.39783,0.00301
1721.90804,0.00387
1720.41825,0.00169
1718.92846,0.00805
1717.43867,0.00388
1715.94889,0.01813
1714.45910,0.01094
1712.96931,0.00274
1711.47952,0.02709
1709.98973,0.01123
1708.49994,0.01176
1707.01016,0.01215
1705.52037,0.01256
1704.03058,0.01453
1702.54079,0.00766
1701.05100,0.01548
1699.56121,0.02877
1698.07142,0.01072
1696.58164,0.01861
1695.09185,0.02652
1693.60206,0.02219
1692.11227,0.02503
1690.62248,0.02075
1689.13269,0.02126
1687.64291,0.02452
1686.15312,0.03565
1684.66333,0.04168
1683.17354,0.02797
1681.68375,0.03645
1680.19396,0.05858
1678.70417,0.03676
1677.21439,0.04872
1675.72460,0.05627
1674.23481,0.06214
1672.74502,0.07144
1671.25523,0.05792
1669.76544,0.07171
1668.27566,0.05824
1666.78587,0.06935
1665.29608,0.10468
1663.80629,0.09436
1662.31650,0.09019
1660.82671,0.10037
1659.33693,0.11058
1657.84714,0.08774
1656.35735,0.09151
1654.86756,0.08850
1653.37777,0.09062
1651.88798,0.10265
1650.39819,0.09084
1648.90841,0.09440
1647.41862,0.09150
1645.92883,0.09494
1644.43904,0.09840
1642.94925,0.09524
1641.45946,0.09858
1639.96968,0.09546
1638.47989,0.10976
1636.99010,0.10840
1635.50031,0.09922
1634.01052,0.09928
1632.52073,0.08401
1631.03094,0.07729
1629.54116,0.09242
1628.05137,0.09359
1626.56158,0.09888
1625.07179,0.10658
1623.58200,0.10885
1622.09221,0.10228
1620.60243,0.10426
1619.11264,0.09944
1617.62285,0.09806
1616.13306,0.10488
1614.64327,0.10560
1613.15348,0.11485
1611.66370,0.09721
1610.17391,0.10276
1608.68412,0.10425
1607.19433,0.12418
1605.70454,0.11072
1604.21475,0.10376
1602.72496,0.09683
1601.23518,0.09503
1599.74539,0.09531
1598.25560,0.10413
1596.76581,0.08980
1595.27602,0.09321
1593.78623,0.11404
1592.29645,0.10421
1590.80666,0.09509
1589.31687,0.08258
1587.82708,0.07793
1586.33729,0.08354
1584.84750,0.08679
1583.35771,0.08665
1581.86793,0.09302
1580.37814,0.08918
1578.88835,0.10718
1577.39856,0.09760
1575.90877,0.08020
1574.41898,0.06145
1572.92920,0.06319
1571.43941,0.06768
1569.94962,0.05396
1568.45983,0.04026
1566.97004,0.05573
1565.48025,0.05180
1563.99047,0.07755
1562.50068,0.06514
1561.01089,0.06503
1559.52110,0.04585
1558.03131,0.06011
1556.54152,0.06280
1555.05173,0.05971
1553.56195,0.04779
1552.07216,0.02942
1550.58237,0.02880
1549.09258,0.00911
1547.60279,0.00274
1546.11300,0.02952
1544.62322,0.01405
1543.13343,0.02009
1541.64364,0.01421
1540.15385,0.01007
1538.66406,0.00595
1537.17427,0.01205
1535.68448,0.01920
1534.19470,0.02262
1532.70491,0.01413
1531.21512,0.01999
1529.72533,0.02246
1528.23554,0.00927
1526.74575,0.02543
1525.25597,0.02115
1523.76618,0.02713
1522.27639,0.03655
1520.78660,0.04462
1519.29681,0.05476
1517.80702,0.05879
1516.31724,0.05194
1514.82745,0.06488
1513.33766,0.07223
1511.84787,0.07959
1510.35808,0.08034
1508.86829,0.05451
1507.37850,0.03792
1505.88872,0.03976
1504.39893,0.05731
1502.90914,0.06670
1501.41935,0.06248
1499.92956,0.08964
1498.43977,0.07081
1496.94999,0.09155
1495.46020,0.09901
1493.97041,0.12185
1492.48062,0.12732
1490.99083,0.14099
1489.50104,0.11788
1488.01125,0.13245
1486.52147,0.14706
1485.03168,0.17685
1483.54189,0.20565
1482.05210,0.20789
1480.56231,0.22514
1479.07252,0.22470
1477.58274,0.23178
1476.09295,0.24740
1474.60316,0.25760
1473.11337,0.27089
1471.62358,0.26170
1470.13379,0.30333
1468.64401,0.31090
1467.15422,0.33008
1465.66443,0.33991
1464.17464,0.34977
1462.68485,0.37857
1461.19506,0.43433
1459.70527,0.49761
1458.21549,0.52206
1456.72570,0.56800
1455.23591,0.64193
1453.74612,0.69645
1452.25633,0.72985
1450.76654,0.77555
1449.27676,0.79537
1447.78697,0.75248
1446.29718,0.74610
1444.80739,0.73173
1443.31760,0.71738
1441.82781,0.67357
1440.33802,0.59842
1438.84824,0.56215
1437.35845,0.55387
1435.86866,0.53981
1434.37887,0.56908
1432.88908,0.62428
1431.39929,0.68939
1429.90951,0.77192
1428.41972,0.86538
1426.92993,0.87227
1425.44014,0.89077
1423.95035,0.93862
1422.46056,0.98649
1420.97078,1.00098
1419.48099,1.02299
1417.99120,1.02048
1416.50141,0.99924
1415.01162,0.98315
1413.52183,0.90059
1412.03204,0.84022
1410.54226,0.78158
1409.05247,0.74615
1407.56268,0.68040
1406.07289,0.63377
1404.58310,0.59568
1403.09331,0.55762
1401.60353,0.52947
1400.11374,0.45702
1398.62395,0.42313
1397.13416,0.36505
1395.64437,0.28688
1394.15458,0.22203
1392.66479,0.21789
1391.17501,0.17150
1389.68522,0.12309
1388.19543,0.12107
1386.70564,0.10715
1385.21585,0.09324
1383.72606,0.05993
1382.23628,0.04505
1380.74649,0.04213
1379.25670,0.03992
1377.76691,0.01727
1376.27712,0.01511
1374.78733,0.00274
1373.29755,0.01018
1371.80776,0.01696
1370.31797,0.04286
1368.82818,0.03639
1367.33839,0.02995
1365.84860,0.05183
1364.35881,0.05498
1362.86903,0.08407
1361.37924,0.09238
1359.88945,0.10686
1358.39966,0.10909
1356.90987,0.13623
1355.42008,0.20055
1353.93030,0.25399
1352.44051,0.30388
1350.95072,0.35379
1349.46093,0.42537
1347.97114,0.52152
1346.48135,0.60713
1344.99156,0.63413
1343.50178,0.73274
1342.01199,0.80103
1340.52220,0.86288
1339.03241,0.87395
1337.54262,0.90038
1336.05283,0.94167
1334.56305,0.98299
1333.07326,1.02006
1331.58347,1.00637
1330.09368,1.00838
1328.60389,0.98621
1327.11410,0.91361
1325.62432,0.92183
1324.13453,0.89122
1322.64474,0.86710
1321.15495,0.84096
1319.66516,0.79439
1318.17537,0.74785
1316.68558,0.70747
1315.19580,0.63472
1313.70601,0.61143
1312.21622,0.53908
1310.72643,0.55300
1309.23664,0.47149
1307.74685,0.44182
1306.25707,0.41968
1304.76728,0.39466
1303.27749,0.36967
1301.78770,0.32101
1300.29791,0.27135
1298.80812,0.22444
1297.31834,0.21097
1295.82855,0.19343
1294.33876,0.14796
1292.84897,0.13933
1291.35918,0.12187
1289.86939,0.11602
1288.37960,0.11019
1286.88982,0.10541
1285.40003,0.12384
1283.91024,0.07582
1282.42045,0.06804
1280.93066,0.05859
1279.44087,0.07132
1277.95109,0.06942
1276.46130,0.04742
1274.97151,0.04472
1273.48172,0.04203
1271.99193,0.05012
1270.50214,0.05243
1269.01235,0.03874
1267.52257,0.05473
1266.03278,0.04348
1264.54299,0.05509
1263.05320,0.04968
1261.56341,0.03356
1260.07362,0.01746
1258.58384,0.03258
1257.09405,0.02147
1255.60426,0.01414
1254.11447,0.00274
1252.62468,0.02753
1251.13489,0.01961
1249.64511,0.02638
1248.15532,0.03113
1246.66553,0.02857
1245.17574,0.02604
1243.68595,0.02302
1242.19616,0.01900
1240.70637,0.02489
1239.21659,0.02058
1237.72680,0.04255
1236.23701,0.02260
1234.74722,0.02075
1233.25743,0.01756
1231.76764,0.01440
1230.27786,0.03103
1228.78807,0.01291
1227.29828,0.01016
1225.80849,0.01767
1224.31870,0.00337
1222.82891,0.00274
1221.33912,0.00955
1219.84934,0.03069
1218.35955,0.05187
1216.86976,0.07068
1215.37997,0.07383
1213.89018,0.09201
1212.40039,0.06862
1210.91061,0.06673
1209.42082,0.05055
1207.93103,0.04001
1206.44124,0.02951
1204.95145,0.07340
1203.46166,0.06379
1201.97188,0.06410
1200.48209,0.03068
1198.99230,0.04398
1197.50251,0.03107
1196.01272,0.03658
1194.52293,0.04894
1193.03314,0.06133
1191.54336,0.04714
1190.05357,0.03128
1188.56378,0.04544
1187.07399,0.02792
1185.58420,0.02372
1184.09441,0.01784
1182.60463,0.01710
1181.11484,0.01639
1179.62505,0.00274
1178.13526,0.03202
1176.64547,0.02995
1175.15568,0.01632
1173.66589,0.01533
1172.17611,0.01334
1170.68632,0.01973
1169.19653,0.02614
1167.70674,0.00274
1166.21695,0.01502
1164.72716,0.04233
1163.23738,0.03318
1161.74759,0.04962
1160.25780,0.07700
1158.76801,0.07219
1157.27822,0.06740
1155.78843,0.05019
1154.29865,0.05005
1152.80886,0.08574
1151.31907,0.11940
1149.82928,0.11047
1148.33949,0.11759
1146.84970,0.11690
1145.35991,0.11622
1143.87013,0.14114
1142.38034,0.15075
1140.89055,0.15390
1139.40076,0.18264
1137.91097,0.18312
1136.42118,0.22282
1134.93140,0.23169
1133.44161,0.24059
1131.95182,0.26401
1130.46203,0.25915
1128.97224,0.25908
1127.48245,0.24848
1125.99266,0.22187
1124.50288,0.22086
1123.01309,0.22533
1121.52330,0.22982
1120.03351,0.25445
1118.54372,0.24297
1117.05393,0.26322
1115.56415,0.26576
1114.07436,0.27583
1112.58457,0.26360
1111.09478,0.25138
1109.60499,0.24619
1108.11520,0.26692
1106.62542,0.27609
1105.13563,0.28665
1103.64584,0.26723
1102.15605,0.24102
1100.66626,0.23017
1099.17647,0.21935
1097.68668,0.23855
1096.19690,0.22846
1094.70711,0.23271
1093.21732,0.21142
1091.72753,0.19697
1090.23774,0.17794
1088.74795,0.15893
1087.25817,0.17490
1085.76838,0.20214
1084.27859,0.19667
1082.78880,0.16328
1081.29901,0.17662
1079.80922,0.17975
1078.31943,0.17080
1076.82965,0.16188
1075.33986,0.20395
1073.85007,0.20377
1072.36028,0.20328
1070.87049,0.20894
1069.38070,0.26032
1067.89092,0.27916
1066.40113,0.29802
1064.91134,0.33038
1063.42155,0.36617
1061.93176,0.46573
1060.44197,0.55066
1058.95219,0.61141
1057.46240,0.66469
1055.97261,0.71799
1054.48282,0.79552
1052.99303,0.83284
1051.50324,0.87803
1050.01345,0.86870
1048.52367,0.83928
1047.03388,0.84465
1045.54409,0.85005
1044.05430,0.78047
1042.56451,0.75865
1041.07472,0.70242
1039.58494,0.67212
1038.09515,0.59037
1036.60536,0.55364
1035.11557,0.51694
1033.62578,0.46356
1032.13599,0.44156
1030.64620,0.34050
1029.15642,0.31208
1027.66663,0.29357
1026.17684,0.27508
1024.68705,0.24503
1023.19726,0.18091
1021.70747,0.14442
1020.21769,0.13047
1018.72790,0.11858
1017.23811,0.12854
1015.74832,0.13852
1014.25853,0.11205
1012.76874,0.10060
1011.27896,0.11849
1009.78917,0.10710
1008.29938,0.07595
1006.80959,0.06903
1005.31980,0.06214
1003.83001,0.03004
1002.34022,0.00274
1000.85044,0.00467
999.36065,0.00696
997.87086,0.02428
996.38107,0.04162
994.89128,0.06921
993.40149,0.05251
991.91171,0.09413
990.42192,0.09657
988.93213,0.09665
987.44234,0.09232
985.95255,0.08801
984.46276,0.09907
982.97297,0.09618
981.48319,0.06399
979.99340,0.03388
978.50361,0.03958
977.01382,0.04531
975.52403,0.00674
974.03424,0.01354
972.54446,0.01593
971.05467,0.00301
969.56488,0.00597
968.07509,0.00896
966.58530,0.01198
965.09551,0.01740
963.60573,0.00274
962.11594,0.02673
960.62615,0.01359
959.13636,0.02178
957.64657,0.02999
956.15678,0.02919
954.66699,0.02637
953.17721,0.02222
951.68742,0.00274
950.19763,0.02434
948.70784,0.04596
947.21805,0.04920
945.72826,0.06679
944.23848,0.10382
942.74869,0.12452
941.25890,0.13127
939.76911,0.13361
938.27932,0.13597
936.78953,0.15234
935.29974,0.18407
933.80996,0.21855
932.32017,0.22783
930.83038,0.22640
929.34059,0.22499
927.85080,0.26059
926.36101,0.28088
924.87123,0.30391
923.38144,0.37096
921.89165,0.39200
920.40186,0.41307
918.91207,0.55859
917.42228,0.63903
915.93250,0.76688
914.44271,0.94077
912.95292,1.06731
911.46313,1.19387
909.97334,1.42988
908.48355,1.62774
906.99376,1.82563
905.50398,1.93217
904.01419,1.96458
902.52440,1.99702
901.03461,2.00000
899.54482,1.97539
898.05503,1.85841
896.56525,1.68452
895.07546,1.52054
893.58567,1.35659
892.09588,1.07879
890.60609,0.86102
889.11630,0.66748
887.62651,0.46681
886.13673,0.41224
884.64694,0.35770
883.15715,0.23278
881.66736,0.17744
880.17757,0.13337
878.68778,0.10808
877.19800,0.08281
875.70821,0.04904
874.21842,0.02279
872.72863,0.03101
871.23884,0.03174
869.74905,0.02126
868.25927,0.01079
866.76948,0.00274
865.27969,0.02252
863.78990,0.02800
862.30011,0.04407
860.81032,0.05131
859.32053,0.05856
857.83075,0.06278
856.34096,0.08031
854.85117,0.08390
853.36138,0.08103
851.87159,0.09318
850.38180,0.10536
848.89202,0.11927
847.40223,0.13115
845.91244,0.14613
844.42265,0.15654
842.93286,0.16696
841.44307,0.16906
839.95329,0.19164
838.46350,0.21049
836.97371,0.19766
835.48392,0.20241
833.99413,0.20719
832.50434,0.22716
831.01455,0.21614
829.52477,0.17139
828.03498,0.14916
826.54519,0.13974
825.05540,0.13035
823.56561,0.12967
822.07582,0.12459
820.58604,0.10350
819.09625,0.10614
817.60646,0.10880
816.11667,0.08881
814.62688,0.08692
813.13709,0.10517
811.64730,0.10639
810.15752,0.10730
808.66773,0.10823
807.17794,0.08362
805.68815,0.07369
804.19836,0.09140
802.70857,0.08664
801.21879,0.08189
799.72900,0.09832
798.23921,0.08953
796.74942,0.08759
795.25963,0.09215
793.76984,0.09674
792.28006,0.12351
790.79027,0.09576
789.30048,0.15054
787.81069,0.16954
786.32090,0.18158
784.83111,0.19364
783.34132,0.21101
781.85154,0.25193
780.36175,0.29867
778.87196,0.30299
777.38217,0.30734
775.89238,0.34154
774.40259,0.35087
772.91281,0.35717
771.42302,0.35138
769.93323,0.34562
768.44344,0.29710
766.95365,0.25031
765.46386,0.21377
763.97407,0.16259
762.48429,0.16087
760.99450,0.15918
759.50471,0.12546
758.01492,0.09382
756.52513,0.10959
755.03534,0.11038
753.54556,0.11119
752.05577,0.08681
750.56598,0.07028
749.07619,0.05992
747.58640,0.05180
746.09661,0.04371
744.60683,0.04228
743.11704,0.03372
741.62725,0.01326
740.13746,0.00799
738.64767,0.00274
737.15788,0.01533
735.66809,0.02045
734.17831,0.01877
732.68852,0.02019
731.19873,0.02163
729.70894,0.03332
728.21915,0.02185
726.72936,0.02064
725.23958,0.00274
723.74979,0.01033
722.26000,0.01794
720.77021,0.00154
719.28042,0.01450
717.79063,0.00123
716.30084,0.01339
714.81106,0.02557
713.32127,0.04749
711.83148,0.05001
710.34169,0.03039
708.85190,0.03721
707.36211,0.04406
705.87233,0.03679
704.38254,0.04590
702.89275,0.04140
701.40296,0.05176
699.91317,0.06214
698.42338,0.09044
696.93360,0.10138
695.44381,0.13349
693.95402,0.13749
692.46423,0.14151
690.97444,0.17710
689.48465,0.16873
687.99486,0.20948
686.50508,0.23832
685.01529,0.26718
683.52550,0.25141
682.03571,0.27419
680.54592,0.29392
679.05613,0.28845
677.56635,0.28301
676.07656,0.31611
674.58677,0.29912
673.09698,0.29068
671.60719,0.26607
670.11740,0.24149
668.62761,0.20585
667.13783,0.16784
665.64804,0.14759
664.15825,0.12737
662.66846,0.10717
661.17867,0.09245
659.68888,0.08218
658.19910,0.07364
656.70931,0.06513
655.21952,0.07676
653.72973,0.06864
652.23994,0.08815
650.75015,0.07769
649.26037,0.06726
647.77058,0.08651
646.28079,0.07510
644.79100,0.06337
643.30121,0.06395
641.81142,0.06454
640.32163,0.04369
638.83185,0.00274
637.34206,0.01152
635.85227,0.01845
634.36248,0.02541
632.87269,0.01961
631.38290,0.04246
629.89312,0.03841
628.40333,0.04291
626.91354,0.04743
625.42375,0.03732
623.93396,0.02416
622.44417,0.03404
620.95438,0.04394
619.46460,0.03836
617.97481,0.03382
616.48502,0.06954
614.99523,0.08431
613.50544,0.09911
612.01565,0.12229
610.52587,0.15708
609.03608,0.18133
607.54629,0.20492
606.05650,0.22853
604.56671,0.29035
603.07692,0.35936
601.58714,0.40044
600.09735,0.44154
598.60756,0.46425
597.11777,0.53438
595.62798,0.49884
594.13819,0.47612
592.64840,0.45342
591.15862,0.43023
589.66883,0.37604
588.17904,0.33620
586.68925,0.30900
585.19946,0.28182
583.70967,0.19739
582.21989,0.13548
580.73010,0.11025
579.24031,0.08504
577.75052,0.09412
576.26073,0.07459
574.77094,0.07997
573.28115,0.06730
571.79137,0.05466
570.30158,0.05704
568.81179,0.08843
567.32200,0.10825
565.83221,0.12809
564.34242,0.10501
562.85264,0.11058
561.36285,0.13868
559.87306,0.13749
558.38327,0.13631
556.89348,0.19142
555.40369,0.20019
553.91391,0.20949
552.42412,0.21881
550.93433,0.17344
549.44454,0.18640
547.95475,0.21301
546.46496,0.21340
544.97517,0.21382
543.48539,0.24392
541.99560,0.23517
540.50581,0.26089
539.01602,0.28663
537.52623,0.35058
536.03644,0.41114
534.54666,0.45366
533.05687,0.48290
531.56708,0.51217
530.07729,0.60863
528.58750,0.65807
527.09771,0.68622
525.60792,0.71439
524.11814,0.78402
522.62835,0.86764
521.13856,0.90595
519.64877,0.91837
518.15898,0.93081
516.66919,0.94431
515.17941,0.93464
513.68962,0.93506
512.19983,0.93550
510.71004,0.92489
509.22025,0.89282
507.73046,0.84032
506.24068,0.74932
504.75089,0.65835
503.26110,0.53194
501.77131,0.43727
500.28152,0.40023
498.79173,0.36322
497.30194,0.28431
495.81216,0.19109
494.32237,0.17325
492.83258,0.15543
491.34279,0.12127
489.85300,0.13179
488.36321,0.09597
486.87343,0.09428
485.38364,0.09260
483.89385,0.07186
482.40406,0.09103
480.91427,0.09147
479.42448,0.09194
477.93469,0.12857
476.44491,0.12977
474.95512,0.15810
473.46533,0.18645
471.97554,0.20477
470.48575,0.22107
468.99596,0.21898
467.50618,0.18930
466.01639,0.15965
464.52660,0.13309
463.03681,0.11098
461.54702,0.08515
460.05723,0.05935
458.56745,0.04448
457.07766,0.03543
455.58787,0.01907
454.09808,0.00274
452.60829,0.03379
451.11850,0.00384
449.62871,0.00681
448.13893,0.00981
446.64914,0.00925
445.15935,0.02065
443.66956,0.01946
442.17977,0.02528
440.68998,0.03113
439.20020,0.03478
437.71041,0.04119
436.22062,0.02836
434.73083,0.01555
433.24104,0.03703
431.75125,0.02956
430.26146,0.03796
428.77168,0.04639
427.28189,0.03797
425.79210,0.05821
424.30231,0.05683
422.81252,0.05547
421.32273,0.04714
419.83295,0.03032
418.34316,0.02102
416.85337,0.01175
415.36358,0.01171
413.87379,0.02123
412.38400,0.04084
410.89422,0.06047
409.40443,0.04825
407.91464,0.04560
406.42485,0.03037
404.93506,0.03169
403.44527,0.03303
401.95548,0.03764
400.46570,0.03750
398.97591,0.03295
397.48612,0.02843
395.99633,0.03995
394.50654,0.04946
393.01675,0.02609
391.52697,0.00274
390.03718,0.01640
388.54739,0.02702
387.05760,0.01772
385.56781,0.00844
384.07802,0.01572
382.58824,0.00019
381.09845,0.00121
379.60866,0.00226
378.11887,0.01510
376.62908,0.00000
375.13929,0.00317
373.64950,0.00636
372.15972,0.03327
370.66993,0.02066
369.18014,0.01216
367.69035,0.00369
366.20056,0.02573
364.71077,0.02393
363.22099,0.02642
361.73120,0.02893
360.24141,0.05209
358.75162,0.07221
357.26183,0.06473
355.77204,0.05728
354.28225,0.05395
352.79247,0.04280
351.30268,0.04037
349.81289,0.03796
348.32310,0.05041
346.83331,0.05743
345.34352,0.05049
343.85374,0.04358
342.36395,0.04044
340.87416,0.04210
339.38437,0.04566
337.89458,0.04925
336.40479,0.03325
334.91501,0.06194
333.42522,0.03799
331.93543,0.01405
330.44564,0.04452
328.95585,0.00274
327.46606,0.00937
325.97627,0.01602
324.48649,0.05166
322.99670,0.05391
321.50691,0.05807
320.01712,0.06224
318.52733,0.05571
317.03754,0.06352
315.54776,0.06368
314.05797,0.06386
312.56818,0.09083
311.07839,0.08885
309.58860,0.08263
308.09881,0.07644
306.60902,0.06771
305.11924,0.07197
303.62945,0.04334
302.13966,0.01475
300.64987,0.00274
299.16008,0.00274
