1778.52000,0.00516
1777.03021,0.02292
1775.54042,0.01745
1774.05063,0.01613
1772.56085,0.02308
1771.07106,0.02151
1769.58127,0.02674
1768.09148,0.01374
1766.60169,0.01931
1765.11190,0.01373
1763.62212,0.01464
1762.13233,0.01645
1760.64254,0.01682
1759.15275,0.01869
1757.66296,0.02705
1756.17317,0.01220
1754.68339,0.01826
1753.19360,0.01581
1751.70381,0.01838
1750.21402,0.01216
1748.72423,0.01331
1747.23444,0.01126
1745.74465,0.02075
1744.25487,0.02173
1742.76508,0.01303
1741.27529,0.01788
1739.78550,0.02482
1738.29571,0.01708
1736.80592,0.01406
1735.31614,0.02283
1733.82635,0.02662
1732.33656,0.01454
1730.84677,0.02515
1729.35698,0.01813
1727.86719,0.02084
1726.37740,0.01357
1724.88762,0.01633
1723.39783,0.00499
1721.90804,0.00427
1720.41825,0.01538
1718.92846,0.01857
1717.43867,0.00679
1715.94889,0.01268
1714.45910,0.00918
1712.96931,0.01629
1711.47952,0.00990
1709.98973,0.02471
1708.49994,0.01366
1707.01016,0.00940
1705.52037,0.00516
1704.03058,0.02139
1702.54079,0.00792
1701.05100,0.02184
1699.56121,0.01725
1698.07142,0.01092
1696.58164,0.02080
1695.09185,0.02776
1693.60206,0.03032
1692.11227,0.03262
1690.62248,0.02965
1689.13269,0.03965
1687.64291,0.03761
1686.15312,0.04030
1684.66333,0.04213
1683.17354,0.05517
1681.68375,0.05117
1680.19396,0.04689
1678.70417,0.06030
1677.21439,0.06196
1675.72460,0.08454
1674.23481,0.07624
1672.74502,0.08798
1671.25523,0.08445
1669.76544,0.07299
1668.27566,0.09333
1666.78587,0.11311
1665.29608,0.10438
1663.80629,0.11156
1662.31650,0.11817
1660.82671,0.11657
1659.33693,0.12176
1657.84714,0.11844
1656.35735,0.10044
1654.86756,0.10511
1653.37777,0.10658
1651.88798,0.09953
1650.39819,0.08604
1648.90841,0.10493
1647.41862,0.08855
1645.92883,0.09337
1644.43904,0.09822
1642.94925,0.08426
1641.45946,0.09445
1639.96968,0.08848
1638.47989,0.09666
1636.99010,0.10163
1635.50031,0.08544
1634.01052,0.06251
1632.52073,0.09374
1631.03094,0.09763
1629.54116,0.10125
1628.05137,0.09754
1626.56158,0.10033
1625.07179,0.08872
1623.58200,0.11392
1622.09221,0.10354
1620.60243,0.09465
1619.11264,0.08344
1617.62285,0.08872
1616.13306,0.09963
1614.64327,0.08849
1613.15348,0.08149
1611.66370,0.09011
1610.17391,0.10140
1608.68412,0.11155
1607.19433,0.11259
1605.70454,0.10042
1604.21475,0.09195
1602.72496,0.08351
1601.23518,0.07523
1599.74539,0.07493
1598.25560,0.08936
1596.76581,0.08793
1595.27602,0.09035
1593.78623,0.08661
1592.29645,0.08113
1590.80666,0.07627
1589.31687,0.07555
1587.82708,0.08456
1586.33729,0.09331
1584.84750,0.06735
1583.35771,0.07526
1581.86793,0.08437
1580.37814,0.07409
1578.88835,0.09119
1577.39856,0.07478
1575.90877,0.06928
1574.41898,0.04644
1572.92920,0.05393
1571.43941,0.05850
1569.94962,0.05839
1568.45983,0.05831
1566.97004,0.04118
1565.48025,0.04586
1563.99047,0.06321
1562.50068,0.06293
1561.01089,0.06326
1559.52110,0.04331
1558.03131,0.05134
1556.54152,0.04704
1555.05173,0.04306
1553.56195,0.03880
1552.07216,0.03958
1550.58237,0.01507
1549.09258,0.00000
1547.60279,0.00467
1546.11300,0.00025
1544.62322,0.00995
1543.13343,0.01880
1541.64364,0.00677
1540.15385,0.00743
1538.66406,0.00811
1537.17427,0.00381
1535.68448,0.02051
1534.19470,0.00516
1532.70491,0.01765
1531.21512,0.00780
1529.72533,0.01181
1528.23554,0.01231
1526.74575,0.01548
1525.25597,0.01897
1523.76618,0.02690
1522.27639,0.01573
1520.78660,0.03254
1519.29681,0.03789
1517.80702,0.04562
1516.31724,0.04426
1514.82745,0.06411
1513.33766,0.06397
1511.84787,0.06385
1510.35808,0.06818
1508.86829,0.04163
1507.37850,0.05336
1505.88872,0.04863
1504.39893,0.04894
1502.90914,0.05515
1501.41935,0.05668
1499.92956,0.06529
1498.43977,0.07835
1496.94999,0.08142
1495.46020,0.09070
1493.97041,0.10353
1492.48062,0.10285
1490.99083,0.09896
1489.50104,0.10245
1488.01125,0.10876
1486.52147,0.11509
1485.03168,0.16632
1483.54189,0.18845
1482.05210,0.18412
1480.56231,0.17422
1479.07252,0.20966
1477.58274,0.22541
1476.09295,0.23530
1474.60316,0.24639
1473.11337,0.23808
1471.62358,0.25834
1470.13379,0.25421
1468.64401,0.27628
1467.15422,0.30956
1465.66443,0.31580
1464.17464,0.32206
1462.68485,0.34894
1461.19506,0.38438
1459.70527,0.45192
1458.21549,0.49300
1456.72570,0.53469
1455.23591,0.57611
1453.74612,0.63904
1452.25633,0.67227
1450.76654,0.69817
1449.27676,0.72057
1447.78697,0.70149
1446.29718,0.69010
1444.80739,0.67784
1443.31760,0.66561
1441.82781,0.58955
1440.33802,0.53000
1438.84824,0.51254
1437.35845,0.49453
1435.86866,0.46182
1434.37887,0.51389
1432.88908,0.55921
1431.39929,0.61338
1429.90951,0.71319
1428.41972,0.75358
1426.92993,0.78781
1425.44014,0.78706
1423.95035,0.82532
1422.46056,0.86360
1420.97078,0.87351
1419.48099,0.88286
1417.99120,0.90371
1416.50141,0.87367
1415.01162,0.82630
1413.52183,0.79426
1412.03204,0.74076
1410.54226,0.68905
1409.05247,0.64648
1407.56268,0.55863
1406.07289,0.53259
1404.58310,0.50967
1403.09331,0.48677
1401.60353,0.43962
1400.11374,0.39750
1398.62395,0.32126
1397.13416,0.27801
1395.64437,0.23949
1394.15458,0.19158
1392.66479,0.15929
1391.17501,0.12997
1389.68522,0.09861
1388.19543,0.07257
1386.70564,0.07113
1385.21585,0.06971
1383.72606,0.03668
1382.23628,0.03781
1380.74649,0.01602
1379.25670,0.00808
1377.76691,0.00516
1376.27712,0.01474
1374.78733,0.00522
1373.29755,0.00573
1371.80776,0.01215
1370.31797,0.02477
1368.82818,0.01844
1367.33839,0.01213
1365.84860,0.02659
1364.35881,0.03195
1362.86903,0.05411
1361.37924,0.06806
1359.88945,0.09174
1358.39966,0.07837
1356.90987,0.11769
1355.42008,0.17705
1353.93030,0.22967
1352.44051,0.25700
1350.95072,0.28436
1349.46093,0.37530
1347.97114,0.45950
1346.48135,0.49547
1344.99156,0.58883
1343.50178,0.67252
1342.01199,0.68972
1340.52220,0.73726
1339.03241,0.75187
1337.54262,0.73972
1336.05283,0.78837
1334.56305,0.83703
1333.07326,0.85262
1331.58347,0.82821
1330.09368,0.84208
1328.60389,0.82744
1327.11410,0.75043
1325.62432,0.73466
1324.13453,0.72950
1322.64474,0.72113
1321.15495,0.70190
1319.66516,0.65797
1318.17537,0.61407
1316.68558,0.57990
1315.19580,0.53163
1313.70601,0.50075
1312.21622,0.47107
1310.72643,0.41523
1309.23664,0.40473
1307.74685,0.35599
1306.25707,0.35760
1304.76728,0.33040
1303.27749,0.30322
1301.78770,0.28107
1300.29791,0.22628
1298.80812,0.20830
1297.31834,0.19004
1295.82855,0.15651
1294.33876,0.12301
1292.84897,0.11895
1291.35918,0.09462
1289.86939,0.09473
1288.37960,0.09487
1286.88982,0.08620
1285.40003,0.07491
1283.91024,0.07571
1282.42045,0.05064
1280.93066,0.06856
1279.44087,0.04618
1277.95109,0.04943
1276.46130,0.04535
1274.97151,0.03732
1273.48172,0.02932
1271.99193,0.03061
1270.50214,0.04016
1269.01235,0.03650
1267.52257,0.02903
1266.03278,0.04072
1264.54299,0.04331
1263.05320,0.03945
1261.56341,0.03326
1260.07362,0.02709
1258.58384,0.02301
1257.09405,0.02631
1255.60426,0.01610
1254.11447,0.02327
1252.62468,0.00516
1251.13489,0.02454
1249.64511,0.02923
1248.15532,0.01541
1246.66553,0.01897
1245.17574,0.02256
1243.68595,0.04148
1242.19616,0.04511
1240.70637,0.03583
1239.21659,0.04245
1237.72680,0.02498
1236.23701,0.03577
1234.74722,0.01805
1233.25743,0.02522
1231.76764,0.03241
1230.27786,0.04066
1228.78807,0.03245
1227.29828,0.03751
1225.80849,0.03200
1224.31870,0.02298
1222.82891,0.00516
1221.33912,0.02528
1219.84934,0.03555
1218.35955,0.04586
1216.86976,0.06811
1215.37997,0.08273
1213.89018,0.07000
1212.40039,0.08644
1210.91061,0.06435
1209.42082,0.08025
1207.93103,0.07571
1206.44124,0.07121
1204.95145,0.05981
1203.46166,0.06050
1201.97188,0.04886
1200.48209,0.05372
1198.99230,0.03389
1197.50251,0.03850
1196.01272,0.04873
1194.52293,0.04104
1193.03314,0.03337
1191.54336,0.04897
1190.05357,0.04693
1188.56378,0.04375
1187.07399,0.03294
1185.58420,0.02834
1184.09441,0.00904
1182.60463,0.01272
1181.11484,0.01643
1179.62505,0.02222
1178.13526,0.01480
1176.64547,0.02387
1175.15568,0.00443
1173.66589,0.00789
1172.17611,0.01372
1170.68632,0.00943
1169.19653,0.00516
1167.70674,0.02590
1166.21695,0.02371
1164.72716,0.03714
1163.23738,0.03647
1161.74759,0.04319
1160.25780,0.04669
1158.76801,0.04933
1157.27822,0.05199
1155.78843,0.04968
1154.29865,0.06034
1152.80886,0.06632
1151.31907,0.08791
1149.82928,0.09776
1148.33949,0.09558
1146.84970,0.10577
1145.35991,0.11599
1143.87013,0.11063
1142.38034,0.13238
1140.89055,0.13002
1139.40076,0.14269
1137.91097,0.16362
1136.42118,0.19841
1134.93140,0.20070
1133.44161,0.20303
1131.95182,0.22582
1130.46203,0.21510
1128.97224,0.20381
1127.48245,0.21285
1125.99266,0.20868
1124.50288,0.19393
1123.01309,0.19495
1121.52330,0.19600
1120.03351,0.20075
1118.54372,0.20022
1117.05393,0.21002
1115.56415,0.22985
1114.07436,0.21469
1112.58457,0.21927
1111.09478,0.22387
1109.60499,0.23085
1108.11520,0.24609
1106.62542,0.24017
1105.13563,0.23663
1103.64584,0.20605
1102.15605,0.19137
1100.66626,0.18732
1099.17647,0.18329
1097.68668,0.19252
1096.19690,0.20208
1094.70711,0.18871
1093.21732,0.17124
1091.72753,0.14703
1090.23774,0.14726
1088.74795,0.14752
1087.25817,0.14751
1085.76838,0.16577
1084.27859,0.15639
1082.78880,0.15499
1081.29901,0.16714
1079.80922,0.17431
1078.31943,0.15871
1076.82965,0.14313
1075.33986,0.16273
1073.85007,0.17354
1072.36028,0.18290
1070.87049,0.20552
1069.38070,0.21757
1067.89092,0.23627
1066.40113,0.25500
1064.91134,0.30361
1063.42155,0.37844
1061.93176,0.46035
1060.44197,0.49757
1058.95219,0.56511
1057.46240,0.59708
1055.97261,0.62907
1054.48282,0.71964
1052.99303,0.77904
1051.50324,0.77197
1050.01345,0.75786
1048.52367,0.75054
1047.03388,0.73927
1045.54409,0.72803
1044.05430,0.67488
1042.56451,0.64000
1041.07472,0.62486
1039.58494,0.59680
1038.09515,0.54316
1036.60536,0.51161
1035.11557,0.48009
1033.62578,0.40034
1032.13599,0.38534
1030.64620,0.33712
1029.15642,0.28657
1027.66663,0.26297
1026.17684,0.23939
1024.68705,0.22334
1023.19726,0.17848
1021.70747,0.15836
1020.21769,0.14180
1018.72790,0.13821
1017.23811,0.13832
1015.74832,0.13845
1014.25853,0.13140
1012.76874,0.13585
1011.27896,0.13062
1009.78917,0.11981
1008.29938,0.08756
1006.80959,0.08195
1005.31980,0.07637
1003.83001,0.02241
1002.34022,0.00703
1000.85044,0.01314
999.36065,0.00516
997.87086,0.01581
996.38107,0.02648
994.89128,0.04218
993.40149,0.06231
991.91171,0.08807
990.42192,0.09265
988.93213,0.10433
987.44234,0.09279
985.95255,0.08126
984.46276,0.08831
982.97297,0.07036
981.48319,0.05685
979.99340,0.05514
978.50361,0.04286
977.01382,0.03060
975.52403,0.01101
974.03424,0.02117
972.54446,0.02193
971.05467,0.00624
969.56488,0.00612
968.07509,0.01015
966.58530,0.01419
965.09551,0.01238
963.60573,0.01825
962.11594,0.01413
960.62615,0.01563
959.13636,0.01038
957.64657,0.00516
956.15678,0.02163
954.66699,0.02459
953.17721,0.01521
951.68742,0.01939
950.19763,0.02375
948.70784,0.02813
947.21805,0.05710
945.72826,0.09552
944.23848,0.10806
942.74869,0.10856
941.25890,0.13293
939.76911,0.13790
938.27932,0.14289
936.78953,0.16379
935.29974,0.18884
933.80996,0.19038
932.32017,0.20135
930.83038,0.19793
929.34059,0.19454
927.85080,0.24384
926.36101,0.28375
924.87123,0.28455
923.38144,0.34098
921.89165,0.37155
920.40186,0.40214
918.91207,0.49573
917.42228,0.58522
915.93250,0.72711
914.44271,0.91935
912.95292,1.02480
911.46313,1.13028
909.97334,1.36172
908.48355,1.60231
906.99376,1.75642
905.50398,1.85346
904.01419,1.89315
902.52440,1.93286
901.03461,1.95965
899.54482,2.00000
898.05503,1.84322
896.56525,1.62909
895.07546,1.47737
893.58567,1.32567
892.09588,1.03834
890.60609,0.83431
889.11630,0.63119
887.62651,0.45958
886.13673,0.40216
884.64694,0.34477
883.15715,0.23443
881.66736,0.19769
880.17757,0.14096
878.68778,0.11633
877.19800,0.09172
875.70821,0.05860
874.21842,0.03816
872.72863,0.05041
871.23884,0.01972
869.74905,0.01583
868.25927,0.01197
866.76948,0.01902
865.27969,0.01403
863.78990,0.03407
862.30011,0.05297
860.81032,0.06085
859.32053,0.06875
857.83075,0.06653
856.34096,0.07258
854.85117,0.09306
853.36138,0.08591
851.87159,0.08968
850.38180,0.09346
848.89202,0.13582
847.40223,0.15555
845.91244,0.15764
844.42265,0.16226
842.93286,0.16691
841.44307,0.19556
839.95329,0.20717
838.46350,0.22527
836.97371,0.22869
835.48392,0.23669
833.99413,0.24472
832.50434,0.21997
831.01455,0.22142
829.52477,0.19260
828.03498,0.14673
826.54519,0.15973
825.05540,0.17276
823.56561,0.11108
822.07582,0.12092
820.58604,0.12873
819.09625,0.10993
817.60646,0.09115
816.11667,0.11139
814.62688,0.09870
813.13709,0.10280
811.64730,0.12400
810.15752,0.11947
808.66773,0.11497
807.17794,0.08886
805.68815,0.09897
804.19836,0.08439
802.70857,0.08160
801.21879,0.07884
799.72900,0.09052
798.23921,0.11047
796.74942,0.11690
795.25963,0.11321
793.76984,0.10954
792.28006,0.12605
790.79027,0.12640
789.30048,0.13089
787.81069,0.15925
786.32090,0.17041
784.83111,0.18160
783.34132,0.21180
781.85154,0.27350
780.36175,0.31169
778.87196,0.32445
777.38217,0.33723
775.89238,0.36813
774.40259,0.39524
772.91281,0.38441
771.42302,0.38110
769.93323,0.37782
768.44344,0.33264
766.95365,0.28512
765.46386,0.21821
763.97407,0.19429
762.48429,0.19113
760.99450,0.18800
759.50471,0.15650
758.01492,0.14238
756.52513,0.12505
755.03534,0.11966
753.54556,0.11430
752.05577,0.09998
750.56598,0.08893
749.07619,0.04730
747.58640,0.04645
746.09661,0.04562
744.60683,0.04761
743.11704,0.01609
741.62725,0.03314
740.13746,0.03123
738.64767,0.02935
737.15788,0.02057
735.66809,0.02065
734.17831,0.00516
732.68852,0.01496
731.19873,0.02479
729.70894,0.02552
728.21915,0.02274
726.72936,0.01057
725.23958,0.00932
723.74979,0.01500
722.26000,0.02070
720.77021,0.00628
719.28042,0.01542
717.79063,0.00516
716.30084,0.01803
714.81106,0.03092
713.32127,0.03133
711.83148,0.03500
710.34169,0.02899
708.85190,0.02550
707.36211,0.02203
705.87233,0.02580
704.38254,0.02813
702.89275,0.05813
701.40296,0.05418
699.91317,0.05025
698.42338,0.07385
696.93360,0.09719
695.44381,0.09760
693.95402,0.10671
692.46423,0.11585
690.97444,0.15135
689.48465,0.18158
687.99486,0.19212
686.50508,0.21621
685.01529,0.24033
683.52550,0.26418
682.03571,0.24892
680.54592,0.28607
679.05613,0.27968
677.56635,0.27332
676.07656,0.28141
674.58677,0.26391
673.09698,0.25998
671.60719,0.24622
670.11740,0.23248
668.62761,0.20361
667.13783,0.15740
665.64804,0.13608
664.15825,0.11479
662.66846,0.08366
661.17867,0.06963
659.68888,0.06562
658.19910,0.06664
656.70931,0.06769
655.21952,0.05670
653.72973,0.07309
652.23994,0.07568
650.75015,0.07800
649.26037,0.08035
647.77058,0.04652
646.28079,0.08481
644.79100,0.04810
643.30121,0.04304
641.81142,0.03800
640.32163,0.04432
638.83185,0.00770
637.34206,0.00656
635.85227,0.01573
634.36248,0.02493
632.87269,0.00516
631.38290,0.02890
629.89312,0.05120
628.40333,0.05616
626.91354,0.06114
625.42375,0.03613
623.93396,0.03440
622.44417,0.02283
620.95438,0.01129
619.46460,0.01256
617.97481,0.03506
616.48502,0.08288
614.99523,0.08438
613.50544,0.08590
612.01565,0.11850
610.52587,0.15700
609.03608,0.16757
607.54629,0.18714
606.05650,0.20674
604.56671,0.28065
603.07692,0.34782
601.58714,0.37750
600.09735,0.40719
598.60756,0.46914
597.11777,0.43577
595.62798,0.46157
594.13819,0.44267
592.64840,0.42379
591.15862,0.40553
589.66883,0.35256
588.17904,0.30581
586.68925,0.27084
585.19946,0.23590
583.70967,0.18628
582.21989,0.14580
580.73010,0.12402
579.24031,0.10228
577.75052,0.10630
576.26073,0.08181
574.77094,0.07294
573.28115,0.06909
571.79137,0.06527
570.30158,0.06882
568.81179,0.09271
567.32200,0.09352
565.83221,0.09436
564.34242,0.11185
562.85264,0.13201
561.36285,0.12453
559.87306,0.13076
558.38327,0.13702
556.89348,0.17228
555.40369,0.18874
553.91391,0.19374
552.42412,0.19877
550.93433,0.17675
549.44454,0.18772
547.95475,0.19605
546.46496,0.18941
544.97517,0.18279
543.48539,0.19621
541.99560,0.24878
540.50581,0.25592
539.01602,0.26308
537.52623,0.33133
536.03644,0.39253
534.54666,0.40521
533.05687,0.44484
531.56708,0.48449
530.07729,0.54374
528.58750,0.56063
527.09771,0.60021
525.60792,0.63982
524.11814,0.72270
522.62835,0.77118
521.13856,0.81674
519.64877,0.83452
518.15898,0.85232
516.66919,0.87854
515.17941,0.87005
513.68962,0.87116
512.19983,0.87229
510.71004,0.84740
509.22025,0.81959
507.73046,0.73384
506.24068,0.66386
504.75089,0.59390
503.26110,0.48968
501.77131,0.41727
500.28152,0.36445
498.79173,0.31166
497.30194,0.24697
495.81216,0.19761
494.32237,0.16829
492.83258,0.13898
491.34279,0.12677
489.85300,0.11370
488.36321,0.07211
486.87343,0.07277
485.38364,0.07346
483.89385,0.07873
482.40406,0.08727
480.91427,0.09582
479.42448,0.10441
477.93469,0.11036
476.44491,0.12400
474.95512,0.13824
473.46533,0.15251
471.97554,0.18593
470.48575,0.20290
468.99596,0.16811
467.50618,0.15687
466.01639,0.14567
464.52660,0.10771
463.03681,0.09625
461.54702,0.09027
460.05723,0.08431
458.56745,0.05792
457.07766,0.03362
455.58787,0.03200
454.09808,0.03041
452.60829,0.02825
451.11850,0.02376
449.62871,0.02327
448.13893,0.02280
446.64914,0.00838
445.15935,0.01487
443.66956,0.03434
442.17977,0.02367
440.68998,0.01303
439.20020,0.04758
437.71041,0.03507
436.22062,0.03833
434.73083,0.04161
433.24104,0.04448
431.75125,0.03913
430.26146,0.03425
428.77168,0.02939
427.28189,0.05413
425.79210,0.08184
424.30231,0.07146
422.81252,0.06111
421.32273,0.05799
419.83295,0.02253
418.34316,0.02226
416.85337,0.02201
415.36358,0.00516
413.87379,0.03691
412.38400,0.04513
410.89422,0.05339
409.40443,0.04371
407.91464,0.06143
406.42485,0.04474
404.93506,0.04015
403.44527,0.03558
401.95548,0.03220
400.46570,0.04033
398.97591,0.02804
397.48612,0.01576
395.99633,0.04721
394.50654,0.02454
393.01675,0.02161
391.52697,0.01871
390.03718,0.02260
388.54739,0.01356
387.05760,0.01192
385.56781,0.01031
384.07802,0.02637
382.58824,0.02952
381.09845,0.02342
379.60866,0.01734
378.11887,0.01085
376.62908,0.00909
375.13929,0.00647
373.64950,0.00387
372.15972,0.03519
370.66993,0.02122
369.18014,0.02166
367.69035,0.02213
366.20056,0.00894
364.71077,0.02508
363.22099,0.01844
361.73120,0.01182
360.24141,0.06981
358.75162,0.07074
357.26183,0.06611
355.77204,0.06150
354.28225,0.02838
352.79247,0.02294
351.30268,0.04165
349.81289,0.06038
348.32310,0.04619
346.83331,0.07851
345.34352,0.07304
343.85374,0.06760
342.36395,0.03437
340.87416,0.06679
339.38437,0.05245
337.89458,0.03813
336.40479,0.05797
334.91501,0.05135
333.42522,0.03313
331.93543,0.01494
330.44564,0.01310
328.95585,0.05042
327.46606,0.03186
325.97627,0.01332
324.48649,0.04852
322.99670,0.06637
321.50691,0.06498
320.01712,0.06362
318.52733,0.09891
317.03754,0.07214
315.54776,0.08144
314.05797,0.09077
312.56818,0.05318
311.07839,0.08330
309.58860,0.07504
308.09881,0.06681
306.60902,0.06463
305.11924,0.04159
303.62945,0.02858
302.13966,0.01559
300.64987,0.00516
299.16008,0.00516
