1778.52000,0.02044
1777.03021,0.01822
1775.54042,0.02235
1774.05063,0.02345
1772.56085,0.01373
1771.07106,0.01549
1769.58127,0.02258
1768.09148,0.01682
1766.60169,0.00516
1765.11190,0.01743
1763.62212,0.01890
1762.13233,0.01405
1760.64254,0.01352
1759.15275,0.01282
1757.66296,0.01540
1756.17317,0.01024
1754.68339,0.01369
1753.19360,0.01287
1751.70381,0.00983
1750.21402,0.00967
1748.72423,0.01138
1747.23444,0.00943
1745.74465,0.01221
1744.25487,0.00786
1742.76508,0.00516
1741.27529,0.01516
1739.78550,0.01762
1738.29571,0.01582
1736.80592,0.01404
1735.31614,0.01065
1733.82635,0.00810
1732.33656,0.00149
1730.84677,0.01165
1729.35698,0.01040
1727.86719,0.00447
1726.37740,0.00000
1724.88762,0.00168
1723.39783,0.01442
1721.90804,0.01124
1720.41825,0.00646
1718.92846,0.00354
1717.43867,0.01228
1715.94889,0.00512
1714.45910,0.00717
1712.96931,0.00516
1711.47952,0.00365
1709.98973,0.00278
1708.49994,0.00783
1707.01016,0.00750
1705.52037,0.00718
1704.03058,0.00250
1702.54079,0.01159
1701.05100,0.01110
1699.56121,0.00737
1698.07142,0.01367
1696.58164,0.01652
1695.09185,0.01143
1693.60206,0.00534
1692.11227,0.01583
1690.62248,0.01060
1689.13269,0.01746
1687.64291,0.02556
1686.15312,0.01673
1684.66333,0.01957
1683.17354,0.01897
1681.68375,0.03146
1680.19396,0.02599
1678.70417,0.02689
1677.21439,0.02842
1675.72460,0.04203
1674.23481,0.05157
1672.74502,0.04276
1671.25523,0.04418
1669.76544,0.05604
1668.27566,0.05772
1666.78587,0.05860
1665.29608,0.06482
1663.80629,0.06146
1662.31650,0.07733
1660.82671,0.06461
1659.33693,0.07318
1657.84714,0.07134
1656.35735,0.06810
1654.86756,0.06182
1653.37777,0.07477
1651.88798,0.07405
1650.39819,0.07806
1648.90841,0.07902
1647.41862,0.07266
1645.92883,0.07653
1644.43904,0.08043
1642.94925,0.06617
1641.45946,0.06214
1639.96968,0.06754
1638.47989,0.06990
1636.99010,0.08209
1635.50031,0.07429
1634.01052,0.06221
1632.52073,0.06446
1631.03094,0.07164
1629.54116,0.07149
1628.05137,0.08219
1626.56158,0.09169
1625.07179,0.09385
1623.58200,0.09748
1622.09221,0.09009
1620.60243,0.08661
1619.11264,0.07375
1617.62285,0.08135
1616.13306,0.08428
1614.64327,0.06741
1613.15348,0.06833
1611.66370,0.07583
1610.17391,0.07067
1608.68412,0.07985
1607.19433,0.08741
1605.70454,0.08131
1604.21475,0.08320
1602.72496,0.08511
1601.23518,0.07234
1599.74539,0.07410
1598.25560,0.07670
1596.76581,0.08280
1595.27602,0.07829
1593.78623,0.06646
1592.29645,0.06487
1590.80666,0.05390
1589.31687,0.06297
1587.82708,0.07432
1586.33729,0.06404
1584.84750,0.07400
1583.35771,0.06356
1581.86793,0.07317
1580.37814,0.08505
1578.88835,0.08285
1577.39856,0.06066
1575.90877,0.05851
1574.41898,0.05802
1572.92920,0.04182
1571.43941,0.04751
1569.94962,0.04740
1568.45983,0.04732
1566.97004,0.03285
1565.48025,0.03925
1563.99047,0.04608
1562.50068,0.03618
1561.01089,0.02140
1559.52110,0.02442
1558.03131,0.02583
1556.54152,0.02522
1555.05173,0.02136
1553.56195,0.02489
1552.07216,0.02619
1550.58237,0.02241
1549.09258,0.00516
1547.60279,0.00939
1546.11300,0.00648
1544.62322,0.01034
1543.13343,0.01157
1541.64364,0.00874
1540.15385,0.00879
1538.66406,0.00887
1537.17427,0.01217
1535.68448,0.02080
1534.19470,0.01045
1532.70491,0.02258
1531.21512,0.01798
1529.72533,0.01973
1528.23554,0.01763
1526.74575,0.01432
1525.25597,0.02105
1523.76618,0.02617
1522.27639,0.02865
1520.78660,0.04404
1519.29681,0.04105
1517.80702,0.03565
1516.31724,0.05355
1514.82745,0.04553
1513.33766,0.04755
1511.84787,0.04959
1510.35808,0.04022
1508.86829,0.03679
1507.37850,0.04524
1505.88872,0.04779
1504.39893,0.04607
1502.90914,0.06031
1501.41935,0.05966
1499.92956,0.06782
1498.43977,0.05761
1496.94999,0.08502
1495.46020,0.07895
1493.97041,0.09640
1492.48062,0.10243
1490.99083,0.11911
1489.50104,0.14297
1488.01125,0.14611
1486.52147,0.14928
1485.03168,0.17606
1483.54189,0.19409
1482.05210,0.20478
1480.56231,0.20120
1479.07252,0.21501
1477.58274,0.24049
1476.09295,0.25536
1474.60316,0.26025
1473.11337,0.25373
1471.62358,0.25887
1470.13379,0.29856
1468.64401,0.30334
1467.15422,0.31980
1465.66443,0.33494
1464.17464,0.35012
1462.68485,0.37767
1461.19506,0.41383
1459.70527,0.42142
1458.21549,0.49093
1456.72570,0.55372
1455.23591,0.60367
1453.74612,0.66140
1452.25633,0.71426
1450.76654,0.73138
1449.27676,0.73443
1447.78697,0.73689
1446.29718,0.69443
1444.80739,0.67723
1443.31760,0.66004
1441.82781,0.61173
1440.33802,0.56732
1438.84824,0.52763
1437.35845,0.51106
1435.86866,0.50575
1434.37887,0.50046
1432.88908,0.56792
1431.39929,0.64502
1429.90951,0.70171
1428.41972,0.74208
1426.92993,0.76102
1425.44014,0.81961
1423.95035,0.82716
1422.46056,0.83473
1420.97078,0.89054
1419.48099,0.92472
1417.99120,0.93379
1416.50141,0.91020
1415.01162,0.87294
1413.52183,0.80342
1412.03204,0.76969
1410.54226,0.72269
1409.05247,0.68696
1407.56268,0.64308
1406.07289,0.57634
1404.58310,0.54548
1403.09331,0.51465
1401.60353,0.46473
1400.11374,0.41791
1398.62395,0.35619
1397.13416,0.32004
1395.64437,0.26429
1394.15458,0.22574
1392.66479,0.17617
1391.17501,0.15380
1389.68522,0.13412
1388.19543,0.10628
1386.70564,0.09655
1385.21585,0.08684
1383.72606,0.05540
1382.23628,0.03195
1380.74649,0.03590
1379.25670,0.01945
1377.76691,0.01691
1376.27712,0.00663
1374.78733,0.00516
1373.29755,0.01247
1371.80776,0.00979
1370.31797,0.01919
1368.82818,0.02442
1367.33839,0.02968
1365.84860,0.02751
1364.35881,0.03639
1362.86903,0.05020
1361.37924,0.06628
1359.88945,0.07810
1358.39966,0.09708
1356.90987,0.12795
1355.42008,0.16762
1353.93030,0.22223
1352.44051,0.25164
1350.95072,0.28106
1349.46093,0.35291
1347.97114,0.45522
1346.48135,0.54366
1344.99156,0.58371
1343.50178,0.62991
1342.01199,0.70473
1340.52220,0.74996
1339.03241,0.78254
1337.54262,0.83721
1336.05283,0.85186
1334.56305,0.86654
1333.07326,0.90657
1331.58347,0.94561
1330.09368,0.94237
1328.60389,0.90586
1327.11410,0.88306
1325.62432,0.82985
1324.13453,0.85102
1322.64474,0.81134
1321.15495,0.77883
1319.66516,0.74011
1318.17537,0.70142
1316.68558,0.65632
1315.19580,0.60449
1313.70601,0.55372
1312.21622,0.52258
1310.72643,0.49412
1309.23664,0.46139
1307.74685,0.45484
1306.25707,0.38273
1304.76728,0.36540
1303.27749,0.34810
1301.78770,0.29077
1300.29791,0.25941
1298.80812,0.25015
1297.31834,0.20127
1295.82855,0.17530
1294.33876,0.12299
1292.84897,0.10810
1291.35918,0.09038
1289.86939,0.09525
1288.37960,0.10015
1286.88982,0.09271
1285.40003,0.08938
1283.91024,0.06850
1282.42045,0.06849
1280.93066,0.05522
1279.44087,0.05485
1277.95109,0.05940
1276.46130,0.05745
1274.97151,0.05234
1273.48172,0.04727
1271.99193,0.04926
1270.50214,0.03473
1269.01235,0.02165
1267.52257,0.02413
1266.03278,0.02418
1264.54299,0.01628
1263.05320,0.01025
1261.56341,0.01016
1260.07362,0.01010
1258.58384,0.00516
1257.09405,0.00990
1255.60426,0.01405
1254.11447,0.00984
1252.62468,0.01015
1251.13489,0.01192
1249.64511,0.01004
1248.15532,0.01573
1246.66553,0.01686
1245.17574,0.01801
1243.68595,0.02439
1242.19616,0.01935
1240.70637,0.02027
1239.21659,0.02325
1237.72680,0.01011
1236.23701,0.02295
1234.74722,0.00516
1233.25743,0.00884
1231.76764,0.01253
1230.27786,0.03005
1228.78807,0.02490
1227.29828,0.02898
1225.80849,0.01735
1224.31870,0.00921
1222.82891,0.01193
1221.33912,0.01937
1219.84934,0.02908
1218.35955,0.03882
1216.86976,0.05001
1215.37997,0.05468
1213.89018,0.06041
1212.40039,0.06717
1210.91061,0.07560
1209.42082,0.06873
1207.93103,0.07260
1206.44124,0.07650
1204.95145,0.07175
1203.46166,0.07192
1201.97188,0.06680
1200.48209,0.06089
1198.99230,0.03804
1197.50251,0.04423
1196.01272,0.04329
1194.52293,0.03697
1193.03314,0.03066
1191.54336,0.02490
1190.05357,0.01548
1188.56378,0.00669
1187.07399,0.02306
1185.58420,0.02250
1184.09441,0.02237
1182.60463,0.02430
1181.11484,0.02626
1179.62505,0.01946
1178.13526,0.01003
1176.64547,0.00940
1175.15568,0.01228
1173.66589,0.00516
1172.17611,0.01667
1170.68632,0.01339
1169.19653,0.01013
1167.70674,0.01169
1166.21695,0.02207
1164.72716,0.02368
1163.23738,0.02205
1161.74759,0.04926
1160.25780,0.06218
1158.76801,0.06471
1157.27822,0.06726
1155.78843,0.06452
1154.29865,0.07652
1152.80886,0.07955
1151.31907,0.09895
1149.82928,0.09877
1148.33949,0.12373
1146.84970,0.12329
1145.35991,0.12286
1143.87013,0.12645
1142.38034,0.13251
1140.89055,0.13798
1139.40076,0.14818
1137.91097,0.17556
1136.42118,0.18866
1134.93140,0.18493
1133.44161,0.18123
1131.95182,0.21709
1130.46203,0.22804
1128.97224,0.22594
1127.48245,0.21957
1125.99266,0.22631
1124.50288,0.22060
1123.01309,0.22330
1121.52330,0.22602
1120.03351,0.22508
1118.54372,0.21539
1117.05393,0.21859
1115.56415,0.22897
1114.07436,0.22282
1112.58457,0.21996
1111.09478,0.21713
1109.60499,0.23761
1108.11520,0.24218
1106.62542,0.22532
1105.13563,0.22361
1103.64584,0.21538
1102.15605,0.20145
1100.66626,0.20512
1099.17647,0.20882
1097.68668,0.19598
1096.19690,0.18706
1094.70711,0.18326
1093.21732,0.18419
1091.72753,0.17105
1090.23774,0.17345
1088.74795,0.17589
1087.25817,0.16976
1085.76838,0.16468
1084.27859,0.16677
1082.78880,0.17972
1081.29901,0.19290
1079.80922,0.20140
1078.31943,0.20390
1076.82965,0.20642
1075.33986,0.22337
1073.85007,0.21153
1072.36028,0.22996
1070.87049,0.23411
1069.38070,0.26076
1067.89092,0.27793
1066.40113,0.29512
1064.91134,0.35004
1063.42155,0.42909
1061.93176,0.52389
1060.44197,0.62158
1058.95219,0.70969
1057.46240,0.76105
1055.97261,0.81243
1054.48282,0.90102
1052.99303,0.92364
1051.50324,0.97428
1050.01345,0.96855
1048.52367,0.95549
1047.03388,0.94899
1045.54409,0.94251
1044.05430,0.89929
1042.56451,0.84444
1041.07472,0.77449
1039.58494,0.69926
1038.09515,0.59259
1036.60536,0.55326
1035.11557,0.51396
1033.62578,0.46294
1032.13599,0.39804
1030.64620,0.35299
1029.15642,0.28650
1027.66663,0.27419
1026.17684,0.26190
1024.68705,0.21837
1023.19726,0.18917
1021.70747,0.17388
1020.21769,0.14289
1018.72790,0.13910
1017.23811,0.13032
1015.74832,0.12157
1014.25853,0.11233
1012.76874,0.11047
1011.27896,0.10536
1009.78917,0.10192
1008.29938,0.07766
1006.80959,0.06895
1005.31980,0.06026
1003.83001,0.03811
1002.34022,0.01926
1000.85044,0.02719
999.36065,0.04128
997.87086,0.04201
996.38107,0.04277
994.89128,0.06204
993.40149,0.07091
991.91171,0.08103
990.42192,0.10732
988.93213,0.09256
987.44234,0.10531
985.95255,0.11808
984.46276,0.12526
982.97297,0.08915
981.48319,0.08391
979.99340,0.08667
978.50361,0.06973
977.01382,0.05282
975.52403,0.04257
974.03424,0.02662
972.54446,0.02255
971.05467,0.01339
969.56488,0.01141
968.07509,0.01027
966.58530,0.00916
965.09551,0.01563
963.60573,0.00516
962.11594,0.01415
960.62615,0.01518
959.13636,0.01001
957.64657,0.00487
956.15678,0.01313
954.66699,0.02264
953.17721,0.02319
951.68742,0.03315
950.19763,0.03313
948.70784,0.03314
947.21805,0.05973
945.72826,0.07899
944.23848,0.09071
942.74869,0.09183
941.25890,0.12996
939.76911,0.13470
938.27932,0.13947
936.78953,0.14743
935.29974,0.15971
933.80996,0.18263
932.32017,0.19659
930.83038,0.20996
929.34059,0.22335
927.85080,0.23207
926.36101,0.25715
924.87123,0.28696
923.38144,0.34683
921.89165,0.37209
920.40186,0.39738
918.91207,0.48796
917.42228,0.60513
915.93250,0.72212
914.44271,0.90023
912.95292,0.99551
911.46313,1.09081
909.97334,1.29657
908.48355,1.50705
906.99376,1.73880
905.50398,1.89457
904.01419,1.91645
902.52440,1.93834
901.03461,2.00000
899.54482,1.97260
898.05503,1.85492
896.56525,1.62122
895.07546,1.50093
893.58567,1.38067
892.09588,1.12763
890.60609,0.87277
889.11630,0.65921
887.62651,0.49941
886.13673,0.43433
884.64694,0.36927
883.15715,0.27083
881.66736,0.19244
880.17757,0.15494
878.68778,0.12399
877.19800,0.09307
875.70821,0.07260
874.21842,0.05010
872.72863,0.02682
871.23884,0.01581
869.74905,0.02567
868.25927,0.03555
866.76948,0.03157
865.27969,0.02331
863.78990,0.03695
862.30011,0.03508
860.81032,0.04641
859.32053,0.05776
857.83075,0.08171
856.34096,0.10036
854.85117,0.12088
853.36138,0.13959
851.87159,0.13686
850.38180,0.13416
848.89202,0.15130
847.40223,0.18584
845.91244,0.20323
844.42265,0.20859
842.93286,0.21398
841.44307,0.23186
839.95329,0.24424
838.46350,0.27095
836.97371,0.29441
835.48392,0.28204
833.99413,0.26970
832.50434,0.26626
831.01455,0.25918
829.52477,0.23352
828.03498,0.21954
826.54519,0.19944
825.05540,0.17938
823.56561,0.16117
822.07582,0.16669
820.58604,0.14404
819.09625,0.13613
817.60646,0.12823
816.11667,0.11669
814.62688,0.11988
813.13709,0.13371
811.64730,0.14328
810.15752,0.13684
808.66773,0.13042
807.17794,0.12555
805.68815,0.13175
804.19836,0.16289
802.70857,0.16351
801.21879,0.16416
799.72900,0.16064
798.23921,0.14039
796.74942,0.13039
795.25963,0.13205
793.76984,0.13373
792.28006,0.15363
790.79027,0.17232
789.30048,0.19063
787.81069,0.22408
786.32090,0.23763
784.83111,0.25121
783.34132,0.27043
781.85154,0.29131
780.36175,0.32896
778.87196,0.35061
777.38217,0.37227
775.89238,0.40306
774.40259,0.41159
772.91281,0.40810
771.42302,0.38716
769.93323,0.36624
768.44344,0.35036
766.95365,0.28138
765.46386,0.24940
763.97407,0.20784
762.48429,0.19532
760.99450,0.18283
759.50471,0.14523
758.01492,0.13033
756.52513,0.10830
755.03534,0.10009
753.54556,0.09190
752.05577,0.08793
750.56598,0.07294
749.07619,0.05798
747.58640,0.05275
746.09661,0.04755
744.60683,0.02326
743.11704,0.02842
741.62725,0.02584
740.13746,0.01919
738.64767,0.01258
737.15788,0.00516
735.66809,0.01590
734.17831,0.01971
732.68852,0.02385
731.19873,0.02801
729.70894,0.01167
728.21915,0.01332
726.72936,0.00847
725.23958,0.02032
723.74979,0.02402
722.26000,0.02775
720.77021,0.01720
719.28042,0.01567
717.79063,0.00516
716.30084,0.01436
714.81106,0.02359
713.32127,0.03038
711.83148,0.03332
710.34169,0.03097
708.85190,0.03784
707.36211,0.04474
705.87233,0.03592
704.38254,0.03551
702.89275,0.04533
701.40296,0.03986
699.91317,0.03441
698.42338,0.05656
696.93360,0.07139
695.44381,0.10728
693.95402,0.11388
692.46423,0.12050
690.97444,0.11540
689.48465,0.14158
687.99486,0.15144
686.50508,0.16950
685.01529,0.18758
683.52550,0.19752
682.03571,0.22545
680.54592,0.24831
679.05613,0.24901
677.56635,0.24975
676.07656,0.23161
674.58677,0.21226
673.09698,0.20786
671.60719,0.18703
670.11740,0.16623
668.62761,0.14841
667.13783,0.14533
665.64804,0.13645
664.15825,0.12759
662.66846,0.10864
661.17867,0.08522
659.68888,0.05693
658.19910,0.05389
656.70931,0.05087
655.21952,0.03736
653.72973,0.03735
652.23994,0.04002
650.75015,0.04466
649.26037,0.04933
647.77058,0.04104
646.28079,0.03441
644.79100,0.02495
643.30121,0.02756
641.81142,0.03020
640.32163,0.03286
638.83185,0.02226
637.34206,0.01496
635.85227,0.01433
634.36248,0.01371
632.87269,0.00996
631.38290,0.00961
629.89312,0.02951
628.40333,0.02369
626.91354,0.01790
625.42375,0.01193
623.93396,0.00516
622.44417,0.00605
620.95438,0.00696
619.46460,0.03629
617.97481,0.05114
616.48502,0.04435
614.99523,0.05118
613.50544,0.05803
612.01565,0.10444
610.52587,0.12595
609.03608,0.17874
607.54629,0.20101
606.05650,0.22330
604.56671,0.27494
603.07692,0.33334
601.58714,0.34590
600.09735,0.35849
598.60756,0.37201
597.11777,0.41131
595.62798,0.41140
594.13819,0.40600
592.64840,0.40062
591.15862,0.35870
589.66883,0.29023
588.17904,0.24590
586.68925,0.22009
585.19946,0.19430
583.70967,0.14759
582.21989,0.12093
580.73010,0.10216
579.24031,0.08341
577.75052,0.07766
576.26073,0.06560
574.77094,0.03088
573.28115,0.02919
571.79137,0.02752
570.30158,0.03496
568.81179,0.05020
567.32200,0.05882
565.83221,0.06746
564.34242,0.10176
562.85264,0.13221
561.36285,0.14123
559.87306,0.15937
558.38327,0.17753
556.89348,0.17130
555.40369,0.18082
553.91391,0.17464
552.42412,0.16848
550.93433,0.18298
549.44454,0.17952
547.95475,0.19469
546.46496,0.19118
544.97517,0.18769
543.48539,0.21048
541.99560,0.24924
540.50581,0.27647
539.01602,0.30373
537.52623,0.35767
536.03644,0.39244
534.54666,0.41067
533.05687,0.42465
531.56708,0.43864
530.07729,0.48862
528.58750,0.50634
527.09771,0.52756
525.60792,0.54880
524.11814,0.56823
522.62835,0.68350
521.13856,0.72852
519.64877,0.75016
518.15898,0.77183
516.66919,0.82407
515.17941,0.83874
513.68962,0.84086
512.19983,0.84301
510.71004,0.77051
509.22025,0.74196
507.73046,0.68259
506.24068,0.62252
504.75089,0.56248
503.26110,0.45577
501.77131,0.35236
500.28152,0.31068
498.79173,0.26901
497.30194,0.21839
495.81216,0.17453
494.32237,0.16082
492.83258,0.14715
491.34279,0.09784
489.85300,0.08145
488.36321,0.06448
486.87343,0.05468
485.38364,0.04490
483.89385,0.06825
482.40406,0.09999
480.91427,0.10949
479.42448,0.11902
477.93469,0.12713
476.44491,0.13548
474.95512,0.15693
473.46533,0.17840
471.97554,0.20398
470.48575,0.18647
468.99596,0.17471
467.50618,0.16543
466.01639,0.15617
464.52660,0.15347
463.03681,0.12158
461.54702,0.10187
460.05723,0.08218
458.56745,0.03953
457.07766,0.03226
455.58787,0.03522
454.09808,0.03821
452.60829,0.04183
451.11850,0.01748
449.62871,0.01778
448.13893,0.01811
446.64914,0.01325
445.15935,0.00657
443.66956,0.01504
442.17977,0.02475
440.68998,0.03449
439.20020,0.01790
437.71041,0.02033
436.22062,0.03352
434.73083,0.04673
433.24104,0.04392
431.75125,0.04195
430.26146,0.04042
428.77168,0.03891
427.28189,0.03211
425.79210,0.02861
424.30231,0.03596
422.81252,0.04333
421.32273,0.05318
419.83295,0.03077
418.34316,0.03311
416.85337,0.03547
415.36358,0.00516
413.87379,0.01473
412.38400,0.02024
410.89422,0.02577
409.40443,0.01865
407.91464,0.02566
406.42485,0.03575
404.93506,0.04404
403.44527,0.05234
401.95548,0.04841
400.46570,0.02714
398.97591,0.02561
397.48612,0.02410
395.99633,0.03048
394.50654,0.03362
393.01675,0.02739
391.52697,0.02117
390.03718,0.01752
388.54739,0.01757
387.05760,0.01775
385.56781,0.01795
384.07802,0.00826
382.58824,0.01719
381.09845,0.01123
379.60866,0.00530
378.11887,0.00449
376.62908,0.00974
375.13929,0.00887
373.64950,0.00804
372.15972,0.01907
370.66993,0.02972
369.18014,0.02616
367.69035,0.02261
366.20056,0.02502
364.71077,0.02725
363.22099,0.03185
361.73120,0.03647
360.24141,0.06002
358.75162,0.04742
357.26183,0.04568
355.77204,0.04397
354.28225,0.03553
352.79247,0.04490
351.30268,0.05040
349.81289,0.05594
348.32310,0.07497
346.83331,0.08975
345.34352,0.08054
343.85374,0.07135
342.36395,0.04350
340.87416,0.02384
339.38437,0.02358
337.89458,0.02334
336.40479,0.00913
334.91501,0.00516
333.42522,0.00610
331.93543,0.00706
330.44564,0.02204
328.95585,0.03071
327.46606,0.02633
325.97627,0.02197
324.48649,0.02765
322.99670,0.04643
321.50691,0.05206
320.01712,0.05771
318.52733,0.06410
317.03754,0.06704
315.54776,0.04875
314.05797,0.03049
312.56818,0.03575
311.07839,0.05738
309.58860,0.04481
308.09881,0.03226
306.60902,0.01146
305.11924,0.02195
303.62945,0.02102
302.13966,0.01492
300.64987,0.00516
299.16008,0.00516
