1778.52000,0.02646
1777.03021,0.02642
1775.54042,0.03020
1774.05063,0.02676
1772.56085,0.01714
1771.07106,0.01961
1769.58127,0.02348
1768.09148,0.02014
1766.60169,0.01234
1765.11190,0.02318
1763.62212,0.01198
1762.13233,0.02701
1760.64254,0.00551
1759.15275,0.02162
1757.66296,0.02396
1756.17317,0.01426
1754.68339,0.02045
1753.19360,0.00528
1751.70381,0.00530
1750.21402,0.01087
1748.72423,0.01301
1747.23444,0.00897
1745.74465,0.01805
1744.25487,0.01165
1742.76508,0.00561
1741.27529,0.01236
1739.78550,0.01533
1738.29571,0.01006
1736.80592,0.01446
1735.31614,0.00682
1733.82635,0.01196
1732.33656,0.01712
1730.84677,0.00507
1729.35698,0.00511
1727.86719,0.01380
1726.37740,0.01078
1724.88762,0.00124
1723.39783,0.00000
1721.90804,0.00701
1720.41825,0.01508
1718.92846,0.00249
1717.43867,0.01209
1715.94889,0.00861
1714.45910,0.01756
1712.96931,0.00551
1711.47952,0.01581
1709.98973,0.01269
1708.49994,0.00717
1707.01016,0.00840
1705.52037,0.00966
1704.03058,0.00594
1702.54079,0.01983
1701.05100,0.01996
1699.56121,0.01079
1698.07142,0.01751
1696.58164,0.01185
1695.09185,0.01689
1693.60206,0.01955
1692.11227,0.01844
1690.62248,0.02700
1689.13269,0.02973
1687.64291,0.03076
1686.15312,0.04078
1684.66333,0.02599
1683.17354,0.03916
1681.68375,0.04925
1680.19396,0.06592
1678.70417,0.03951
1677.21439,0.06311
1675.72460,0.07675
1674.23481,0.05731
1672.74502,0.06306
1671.25523,0.06814
1669.76544,0.06256
1668.27566,0.06390
1666.78587,0.07458
1665.29608,0.08562
1663.80629,0.10393
1662.31650,0.09675
1660.82671,0.08752
1659.33693,0.09245
1657.84714,0.10603
1656.35735,0.09515
1654.86756,0.09671
1653.37777,0.08622
1651.88798,0.07093
1650.39819,0.08774
1648.90841,0.10318
1647.41862,0.08038
1645.92883,0.08311
1644.43904,0.08587
1642.94925,0.09245
1641.45946,0.09422
1639.96968,0.09775
1638.47989,0.10233
1636.99010,0.09211
1635.50031,0.08742
1634.01052,0.08449
1632.52073,0.08538
1631.03094,0.08490
1629.54116,0.08411
1628.05137,0.09334
1626.56158,0.10743
1625.07179,0.10498
1623.58200,0.10808
1622.09221,0.10396
1620.60243,0.10469
1619.11264,0.10751
1617.62285,0.10243
1616.13306,0.10013
1614.64327,0.10234
1613.15348,0.10009
1611.66370,0.10613
1610.17391,0.10531
1608.68412,0.09830
1607.19433,0.11235
1605.70454,0.10712
1604.21475,0.09708
1602.72496,0.08707
1601.23518,0.09294
1599.74539,0.08332
1598.25560,0.08579
1596.76581,0.09828
1595.27602,0.08425
1593.78623,0.09542
1592.29645,0.10143
1590.80666,0.09816
1589.31687,0.08664
1587.82708,0.08583
1586.33729,0.08746
1584.84750,0.08015
1583.35771,0.09355
1581.86793,0.09318
1580.37814,0.09904
1578.88835,0.09666
1577.39856,0.08636
1575.90877,0.08471
1574.41898,0.06791
1572.92920,0.05631
1571.43941,0.06060
1569.94962,0.05749
1568.45983,0.05441
1566.97004,0.05635
1565.48025,0.06900
1563.99047,0.06306
1562.50068,0.06404
1561.01089,0.06194
1559.52110,0.05504
1558.03131,0.06023
1556.54152,0.04958
1555.05173,0.04517
1553.56195,0.04939
1552.07216,0.03192
1550.58237,0.03034
1549.09258,0.01257
1547.60279,0.00551
1546.11300,0.02654
1544.62322,0.00794
1543.13343,0.02763
1541.64364,0.01873
1540.15385,0.01503
1538.66406,0.01135
1537.17427,0.00908
1535.68448,0.01255
1534.19470,0.01776
1532.70491,0.01335
1531.21512,0.01413
1529.72533,0.02253
1528.23554,0.02060
1526.74575,0.02835
1525.25597,0.03233
1523.76618,0.02255
1522.27639,0.03623
1520.78660,0.04512
1519.29681,0.03678
1517.80702,0.05157
1516.31724,0.06225
1514.82745,0.06089
1513.33766,0.06334
1511.84787,0.06581
1510.35808,0.05521
1508.86829,0.07014
1507.37850,0.04683
1505.88872,0.02699
1504.39893,0.05165
1502.90914,0.06634
1501.41935,0.08588
1499.92956,0.09889
1498.43977,0.08365
1496.94999,0.08361
1495.46020,0.10497
1493.97041,0.11256
1492.48062,0.11638
1490.99083,0.12057
1489.50104,0.11927
1488.01125,0.12696
1486.52147,0.13467
1485.03168,0.18791
1483.54189,0.20809
1482.05210,0.19932
1480.56231,0.21678
1479.07252,0.23840
1477.58274,0.26177
1476.09295,0.24345
1474.60316,0.25204
1473.11337,0.26859
1471.62358,0.27516
1470.13379,0.29762
1468.64401,0.31803
1467.15422,0.34709
1465.66443,0.35703
1464.17464,0.36700
1462.68485,0.39026
1461.19506,0.45424
1459.70527,0.53307
1458.21549,0.53503
1456.72570,0.59632
1455.23591,0.64350
1453.74612,0.70656
1452.25633,0.80516
1450.76654,0.79276
1449.27676,0.84383
1447.78697,0.78665
1446.29718,0.76915
1444.80739,0.74616
1443.31760,0.72319
1441.82781,0.68163
1440.33802,0.60940
1438.84824,0.58823
1437.35845,0.56294
1435.86866,0.57940
1434.37887,0.57141
1432.88908,0.62722
1431.39929,0.71650
1429.90951,0.82236
1428.41972,0.90548
1426.92993,0.89726
1425.44014,0.95561
1423.95035,0.97984
1422.46056,1.00411
1420.97078,1.03460
1419.48099,1.06373
1417.99120,1.05841
1416.50141,1.04967
1415.01162,0.96923
1413.52183,0.95985
1412.03204,0.92256
1410.54226,0.84840
1409.05247,0.76461
1407.56268,0.71429
1406.07289,0.67986
1404.58310,0.64682
1403.09331,0.61382
1401.60353,0.53118
1400.11374,0.47271
1398.62395,0.42046
1397.13416,0.34618
1395.64437,0.30329
1394.15458,0.25526
1392.66479,0.21483
1391.17501,0.19857
1389.68522,0.15405
1388.19543,0.11335
1386.70564,0.10078
1385.21585,0.08823
1383.72606,0.08485
1382.23628,0.07424
1380.74649,0.04849
1379.25670,0.03690
1377.76691,0.02740
1376.27712,0.01724
1374.78733,0.01951
1373.29755,0.01905
1371.80776,0.00551
1370.31797,0.03479
1368.82818,0.03254
1367.33839,0.03032
1365.84860,0.04760
1364.35881,0.06594
1362.86903,0.07500
1361.37924,0.10683
1359.88945,0.09111
1358.39966,0.12955
1356.90987,0.16214
1355.42008,0.20821
1353.93030,0.27258
1352.44051,0.31369
1350.95072,0.35484
1349.46093,0.45617
1347.97114,0.53787
1346.48135,0.61546
1344.99156,0.69100
1343.50178,0.77554
1342.01199,0.84871
1340.52220,0.91261
1339.03241,0.94860
1337.54262,0.95841
1336.05283,1.00168
1334.56305,1.04498
1333.07326,1.08728
1331.58347,1.10787
1330.09368,1.06194
1328.60389,1.03604
1327.11410,1.00912
1325.62432,0.95016
1324.13453,0.96019
1322.64474,0.95472
1321.15495,0.90204
1319.66516,0.86093
1318.17537,0.81985
1316.68558,0.72553
1315.19580,0.67018
1313.70601,0.61831
1312.21622,0.59026
1310.72643,0.56637
1309.23664,0.47492
1307.74685,0.47659
1306.25707,0.40311
1304.76728,0.38535
1303.27749,0.36761
1301.78770,0.33110
1300.29791,0.27049
1298.80812,0.24472
1297.31834,0.20346
1295.82855,0.21911
1294.33876,0.15204
1292.84897,0.13015
1291.35918,0.12209
1289.86939,0.12250
1288.37960,0.12293
1286.88982,0.10597
1285.40003,0.10559
1283.91024,0.07592
1282.42045,0.06800
1280.93066,0.05803
1279.44087,0.06085
1277.95109,0.06024
1276.46130,0.04897
1274.97151,0.05048
1273.48172,0.05201
1271.99193,0.04150
1270.50214,0.02343
1269.01235,0.04227
1267.52257,0.05459
1266.03278,0.04521
1264.54299,0.04654
1263.05320,0.05583
1261.56341,0.04411
1260.07362,0.03241
1258.58384,0.03487
1257.09405,0.03667
1255.60426,0.01608
1254.11447,0.00551
1252.62468,0.01196
1251.13489,0.01635
1249.64511,0.01112
1248.15532,0.02074
1246.66553,0.02711
1245.17574,0.03350
1243.68595,0.03078
1242.19616,0.02774
1240.70637,0.04023
1239.21659,0.04793
1237.72680,0.02117
1236.23701,0.01960
1234.74722,0.01978
1233.25743,0.02067
1231.76764,0.02159
1230.27786,0.04839
1228.78807,0.02488
1227.29828,0.03966
1225.80849,0.01861
1224.31870,0.00551
1222.82891,0.01613
1221.33912,0.04608
1219.84934,0.04829
1218.35955,0.05053
1216.86976,0.05849
1215.37997,0.07715
1213.89018,0.08653
1212.40039,0.08525
1210.91061,0.08640
1209.42082,0.08345
1207.93103,0.08585
1206.44124,0.08829
1204.95145,0.07471
1203.46166,0.06254
1201.97188,0.08073
1200.48209,0.06688
1198.99230,0.03823
1197.50251,0.04374
1196.01272,0.04651
1194.52293,0.05586
1193.03314,0.06523
1191.54336,0.05567
1190.05357,0.06199
1188.56378,0.02730
1187.07399,0.03539
1185.58420,0.04281
1184.09441,0.02509
1182.60463,0.02273
1181.11484,0.02040
1179.62505,0.00551
1178.13526,0.01995
1176.64547,0.03166
1175.15568,0.03270
1173.66589,0.02067
1172.17611,0.02521
1170.68632,0.02270
1169.19653,0.02022
1167.70674,0.01242
1166.21695,0.02533
1164.72716,0.04757
1163.23738,0.04674
1161.74759,0.06593
1160.25780,0.07755
1158.76801,0.08127
1157.27822,0.08502
1155.78843,0.06707
1154.29865,0.06672
1152.80886,0.07916
1151.31907,0.11817
1149.82928,0.16065
1148.33949,0.12799
1146.84970,0.13828
1145.35991,0.14860
1143.87013,0.15394
1142.38034,0.17930
1140.89055,0.17124
1139.40076,0.16183
1137.91097,0.21243
1136.42118,0.22548
1134.93140,0.23579
1133.44161,0.24613
1131.95182,0.24407
1130.46203,0.27446
1128.97224,0.24452
1127.48245,0.23392
1125.99266,0.25472
1124.50288,0.23521
1123.01309,0.23209
1121.52330,0.22900
1120.03351,0.25127
1118.54372,0.26254
1117.05393,0.25797
1115.56415,0.26859
1114.07436,0.27855
1112.58457,0.27595
1111.09478,0.27337
1109.60499,0.26685
1108.11520,0.26553
1106.62542,0.28250
1105.13563,0.27813
1103.64584,0.26412
1102.15605,0.26668
1100.66626,0.26117
1099.17647,0.25568
1097.68668,0.24384
1096.19690,0.22409
1094.70711,0.23746
1093.21732,0.21983
1091.72753,0.19084
1090.23774,0.19636
1088.74795,0.20190
1087.25817,0.16953
1085.76838,0.18340
1084.27859,0.20522
1082.78880,0.18292
1081.29901,0.19617
1079.80922,0.17979
1078.31943,0.16843
1076.82965,0.15709
1075.33986,0.20388
1073.85007,0.22035
1072.36028,0.20168
1070.87049,0.20923
1069.38070,0.24646
1067.89092,0.27423
1066.40113,0.30203
1064.91134,0.31140
1063.42155,0.39631
1061.93176,0.48503
1060.44197,0.57550
1058.95219,0.61531
1057.46240,0.65653
1055.97261,0.69777
1054.48282,0.82316
1052.99303,0.89892
1051.50324,0.92437
1050.01345,0.88572
1048.52367,0.84984
1047.03388,0.85761
1045.54409,0.86540
1044.05430,0.78822
1042.56451,0.77588
1041.07472,0.73392
1039.58494,0.68440
1038.09515,0.62835
1036.60536,0.58232
1035.11557,0.53632
1033.62578,0.46827
1032.13599,0.48162
1030.64620,0.38673
1029.15642,0.30876
1027.66663,0.29356
1026.17684,0.27839
1024.68705,0.25118
1023.19726,0.19709
1021.70747,0.15061
1020.21769,0.15554
1018.72790,0.12704
1017.23811,0.12339
1015.74832,0.11976
1014.25853,0.11823
1012.76874,0.11569
1011.27896,0.11765
1009.78917,0.10998
1008.29938,0.09717
1006.80959,0.07507
1005.31980,0.05299
1003.83001,0.04198
1002.34022,0.00926
1000.85044,0.03173
999.36065,0.00941
997.87086,0.01935
996.38107,0.02931
994.89128,0.04705
993.40149,0.05310
991.91171,0.06951
990.42192,0.09870
988.93213,0.10413
987.44234,0.10338
985.95255,0.10265
984.46276,0.11090
982.97297,0.09746
981.48319,0.09439
979.99340,0.04824
978.50361,0.03694
977.01382,0.02567
975.52403,0.02511
974.03424,0.03491
972.54446,0.02854
971.05467,0.02598
969.56488,0.00551
968.07509,0.01229
966.58530,0.01910
965.09551,0.02507
963.60573,0.02831
962.11594,0.02122
960.62615,0.00485
959.13636,0.01840
957.64657,0.03198
956.15678,0.02334
954.66699,0.02782
953.17721,0.03268
951.68742,0.01859
950.19763,0.03832
948.70784,0.05808
947.21805,0.08096
945.72826,0.09593
944.23848,0.10783
942.74869,0.11044
941.25890,0.16065
939.76911,0.16555
938.27932,0.17047
936.78953,0.16353
935.29974,0.15970
933.80996,0.19935
932.32017,0.24350
930.83038,0.23855
929.34059,0.23362
927.85080,0.26819
926.36101,0.30209
924.87123,0.34120
923.38144,0.36619
921.89165,0.40396
920.40186,0.44175
918.91207,0.53405
917.42228,0.61947
915.93250,0.76285
914.44271,0.95348
912.95292,1.08018
911.46313,1.20691
909.97334,1.41727
908.48355,1.64489
906.99376,1.81048
905.50398,1.90230
904.01419,1.93071
902.52440,1.95913
901.03461,2.00000
899.54482,1.97228
898.05503,1.83459
896.56525,1.66692
895.07546,1.51876
893.58567,1.37063
892.09588,1.10719
890.60609,0.87893
889.11630,0.68967
887.62651,0.50284
886.13673,0.43206
884.64694,0.36131
883.15715,0.24868
881.66736,0.18056
880.17757,0.13108
878.68778,0.11524
877.19800,0.09943
875.70821,0.06451
874.21842,0.05443
872.72863,0.02162
871.23884,0.03987
869.74905,0.02848
868.25927,0.01712
866.76948,0.00993
865.27969,0.00551
863.78990,0.02610
862.30011,0.05844
860.81032,0.05873
859.32053,0.05905
857.83075,0.04664
856.34096,0.07976
854.85117,0.09187
853.36138,0.09642
851.87159,0.09738
850.38180,0.09836
848.89202,0.10160
847.40223,0.12728
845.91244,0.14023
844.42265,0.15562
842.93286,0.17103
841.44307,0.15439
839.95329,0.20329
838.46350,0.19292
836.97371,0.19360
835.48392,0.20447
833.99413,0.21537
832.50434,0.20784
831.01455,0.18828
829.52477,0.17287
828.03498,0.15439
826.54519,0.15110
825.05540,0.14783
823.56561,0.12493
822.07582,0.09723
820.58604,0.12025
819.09625,0.10949
817.60646,0.09876
816.11667,0.10667
814.62688,0.09150
813.13709,0.09188
811.64730,0.11090
810.15752,0.10442
808.66773,0.09797
807.17794,0.08500
805.68815,0.08342
804.19836,0.07946
802.70857,0.07862
801.21879,0.07781
799.72900,0.08116
798.23921,0.09763
796.74942,0.08758
795.25963,0.08566
793.76984,0.08376
792.28006,0.09619
790.79027,0.10313
789.30048,0.12699
787.81069,0.16295
786.32090,0.18237
784.83111,0.20182
783.34132,0.21888
781.85154,0.22735
780.36175,0.26549
778.87196,0.28814
777.38217,0.31081
775.89238,0.32489
774.40259,0.32796
772.91281,0.33622
771.42302,0.32141
769.93323,0.30662
768.44344,0.29254
766.95365,0.22436
765.46386,0.20412
763.97407,0.14702
762.48429,0.14649
760.99450,0.14598
759.50471,0.12826
758.01492,0.10987
756.52513,0.09909
755.03534,0.09298
753.54556,0.08691
752.05577,0.07172
750.56598,0.07862
749.07619,0.04624
747.58640,0.04077
746.09661,0.03533
744.60683,0.02750
743.11704,0.02866
741.62725,0.02536
740.13746,0.02192
738.64767,0.01849
737.15788,0.01871
735.66809,0.00551
734.17831,0.01006
732.68852,0.01738
731.19873,0.02473
729.70894,0.00866
728.21915,0.01192
726.72936,0.01038
725.23958,0.01031
723.74979,0.01216
722.26000,0.01404
720.77021,0.01612
719.28042,0.01270
717.79063,0.00551
716.30084,0.01489
714.81106,0.02429
713.32127,0.02612
711.83148,0.03109
710.34169,0.01435
708.85190,0.02609
707.36211,0.03785
705.87233,0.04567
704.38254,0.04006
702.89275,0.03655
701.40296,0.05306
699.91317,0.06960
698.42338,0.07926
696.93360,0.09826
695.44381,0.11590
693.95402,0.11891
692.46423,0.12195
690.97444,0.12932
689.48465,0.16843
687.99486,0.17240
686.50508,0.19467
685.01529,0.21696
683.52550,0.23273
682.03571,0.25231
680.54592,0.24571
679.05613,0.25259
677.56635,0.25948
676.07656,0.27399
674.58677,0.26749
673.09698,0.23515
671.60719,0.22783
670.11740,0.22054
668.62761,0.16517
667.13783,0.15638
665.64804,0.13209
664.15825,0.10783
662.66846,0.11324
661.17867,0.07799
659.68888,0.05725
658.19910,0.05532
656.70931,0.05342
655.21952,0.05240
653.72973,0.05278
652.23994,0.05181
650.75015,0.04639
649.26037,0.04098
647.77058,0.05250
646.28079,0.05404
644.79100,0.05698
643.30121,0.05288
641.81142,0.04880
640.32163,0.03216
638.83185,0.01831
637.34206,0.00551
635.85227,0.01492
634.36248,0.02436
632.87269,0.00641
631.38290,0.03813
629.89312,0.01850
628.40333,0.02165
626.91354,0.02483
625.42375,0.02079
623.93396,0.02677
622.44417,0.01692
620.95438,0.00709
619.46460,0.00832
617.97481,0.02405
616.48502,0.06084
614.99523,0.06852
613.50544,0.07623
612.01565,0.11378
610.52587,0.14997
609.03608,0.17344
607.54629,0.19296
606.05650,0.21251
604.56671,0.25880
603.07692,0.35235
601.58714,0.36249
600.09735,0.37265
598.60756,0.41283
597.11777,0.44855
595.62798,0.42569
594.13819,0.40922
592.64840,0.39278
591.15862,0.36826
589.66883,0.30687
588.17904,0.28619
586.68925,0.25209
585.19946,0.21802
583.70967,0.17707
582.21989,0.11614
580.73010,0.10455
579.24031,0.09298
577.75052,0.06316
576.26073,0.05026
574.77094,0.06290
573.28115,0.05039
571.79137,0.03790
570.30158,0.04268
568.81179,0.06990
567.32200,0.06887
565.83221,0.06786
564.34242,0.09515
562.85264,0.09970
561.36285,0.12324
559.87306,0.12250
558.38327,0.12179
556.89348,0.12230
555.40369,0.15387
553.91391,0.16512
552.42412,0.17640
550.93433,0.18494
549.44454,0.18247
547.95475,0.17864
546.46496,0.17984
544.97517,0.18107
543.48539,0.22903
541.99560,0.23220
540.50581,0.24160
539.01602,0.25102
537.52623,0.31426
536.03644,0.38476
534.54666,0.40529
533.05687,0.43428
531.56708,0.46331
530.07729,0.55149
528.58750,0.58280
527.09771,0.62379
525.60792,0.66481
524.11814,0.72860
522.62835,0.78311
521.13856,0.82386
519.64877,0.84290
518.15898,0.86197
516.66919,0.88761
515.17941,0.88915
513.68962,0.89087
512.19983,0.89263
510.71004,0.90699
509.22025,0.82966
507.73046,0.71339
506.24068,0.64904
504.75089,0.58471
503.26110,0.50713
501.77131,0.42889
500.28152,0.37239
498.79173,0.31592
497.30194,0.20878
495.81216,0.16718
494.32237,0.16509
492.83258,0.16301
491.34279,0.15424
489.85300,0.12619
488.36321,0.08436
486.87343,0.07652
485.38364,0.06871
483.89385,0.06558
482.40406,0.08315
480.91427,0.10317
479.42448,0.12320
477.93469,0.13327
476.44491,0.13646
474.95512,0.14123
473.46533,0.14602
471.97554,0.18307
470.48575,0.19567
468.99596,0.19484
467.50618,0.16922
466.01639,0.14361
464.52660,0.10907
463.03681,0.07627
461.54702,0.08350
460.05723,0.09075
458.56745,0.07458
457.07766,0.03601
455.58787,0.02075
454.09808,0.00551
452.60829,0.03111
451.11850,0.02019
449.62871,0.03136
448.13893,0.04255
446.64914,0.01894
445.15935,0.03846
443.66956,0.05006
442.17977,0.04032
440.68998,0.03060
439.20020,0.03400
437.71041,0.03881
436.22062,0.03210
434.73083,0.02540
433.24104,0.02890
431.75125,0.03898
430.26146,0.04943
428.77168,0.05990
427.28189,0.07453
425.79210,0.08298
424.30231,0.06973
422.81252,0.05650
421.32273,0.07192
419.83295,0.03047
418.34316,0.01818
416.85337,0.00591
415.36358,0.00557
413.87379,0.03465
412.38400,0.05169
410.89422,0.06876
409.40443,0.06792
407.91464,0.04469
406.42485,0.05114
404.93506,0.05486
403.44527,0.05860
401.95548,0.04857
400.46570,0.03167
398.97591,0.03669
397.48612,0.04173
395.99633,0.02214
394.50654,0.06154
393.01675,0.04441
391.52697,0.02731
390.03718,0.02958
388.54739,0.02395
387.05760,0.01472
385.56781,0.00551
384.07802,0.01499
382.58824,0.02484
381.09845,0.03712
379.60866,0.04943
378.11887,0.02694
376.62908,0.00068
375.13929,0.01340
373.64950,0.02615
372.15972,0.02375
370.66993,0.03896
369.18014,0.03649
367.69035,0.03404
366.20056,0.02178
364.71077,0.04955
363.22099,0.02752
361.73120,0.00551
360.24141,0.08869
358.75162,0.09327
357.26183,0.07012
355.77204,0.04700
354.28225,0.06234
352.79247,0.06392
351.30268,0.05276
349.81289,0.04163
348.32310,0.05225
346.83331,0.07875
345.34352,0.06406
343.85374,0.04941
342.36395,0.03426
340.87416,0.00879
339.38437,0.01179
337.89458,0.01481
336.40479,0.04665
334.91501,0.03507
333.42522,0.02420
331.93543,0.01336
330.44564,0.00289
328.95585,0.01224
327.46606,0.01799
325.97627,0.02377
324.48649,0.03353
322.99670,0.08814
321.50691,0.06693
320.01712,0.04573
318.52733,0.07594
317.03754,0.05272
315.54776,0.06815
314.05797,0.08360
312.56818,0.11942
311.07839,0.08837
309.58860,0.07338
308.09881,0.05841
306.60902,0.07640
305.11924,0.06476
303.62945,0.03745
302.13966,0.01016
300.64987,0.00551
299.16008,0.00551
