1778.52000,0.02185
1777.03021,0.02178
1775.54042,0.02154
1774.05063,0.02594
1772.56085,0.01949
1771.07106,0.02081
1769.58127,0.02251
1768.09148,0.01337
1766.60169,0.01881
1765.11190,0.01635
1763.62212,0.01797
1762.13233,0.00634
1760.64254,0.01096
1759.15275,0.01651
1757.66296,0.01491
1756.17317,0.01057
1754.68339,0.01122
1753.19360,0.01264
1751.70381,0.01813
1750.21402,0.00872
1748.72423,0.01113
1747.23444,0.00859
1745.74465,0.00644
1744.25487,0.00634
1742.76508,0.01238
1741.27529,0.01493
1739.78550,0.01788
1738.29571,0.01220
1736.80592,0.01851
1735.31614,0.01159
1733.82635,0.00690
1732.33656,0.01015
1730.84677,0.00882
1729.35698,0.00991
1727.86719,0.01232
1726.37740,0.00535
1724.88762,0.01020
1723.39783,0.01046
1721.90804,0.00725
1720.41825,0.00370
1718.92846,0.00791
1717.43867,0.01123
1715.94889,0.01108
1714.45910,0.01297
1712.96931,0.00734
1711.47952,0.01276
1709.98973,0.00898
1708.49994,0.02071
1707.01016,0.01828
1705.52037,0.01587
1704.03058,0.01127
1702.54079,0.00393
1701.05100,0.01239
1699.56121,0.01829
1698.07142,0.00634
1696.58164,0.01587
1695.09185,0.02044
1693.60206,0.01785
1692.11227,0.01326
1690.62248,0.01477
1689.13269,0.01170
1687.64291,0.01068
1686.15312,0.01798
1684.66333,0.01203
1683.17354,0.01993
1681.68375,0.02379
1680.19396,0.01810
1678.70417,0.02625
1677.21439,0.02135
1675.72460,0.04042
1674.23481,0.03777
1672.74502,0.03239
1671.25523,0.05245
1669.76544,0.03734
1668.27566,0.04751
1666.78587,0.05253
1665.29608,0.06145
1663.80629,0.05271
1662.31650,0.05541
1660.82671,0.06846
1659.33693,0.06126
1657.84714,0.05869
1656.35735,0.06610
1654.86756,0.06266
1653.37777,0.05629
1651.88798,0.06837
1650.39819,0.07035
1648.90841,0.06590
1647.41862,0.07068
1645.92883,0.06877
1644.43904,0.06687
1642.94925,0.05220
1641.45946,0.06132
1639.96968,0.06199
1638.47989,0.06949
1636.99010,0.06763
1635.50031,0.06045
1634.01052,0.07650
1632.52073,0.07268
1631.03094,0.06060
1629.54116,0.08170
1628.05137,0.08311
1626.56158,0.08399
1625.07179,0.07458
1623.58200,0.07588
1622.09221,0.07002
1620.60243,0.06676
1619.11264,0.09023
1617.62285,0.07800
1616.13306,0.07260
1614.64327,0.07791
1613.15348,0.07882
1611.66370,0.08860
1610.17391,0.09030
1608.68412,0.07452
1607.19433,0.06613
1605.70454,0.07490
1604.21475,0.07651
1602.72496,0.07815
1601.23518,0.07133
1599.74539,0.07614
1598.25560,0.06827
1596.76581,0.07497
1595.27602,0.07212
1593.78623,0.07684
1592.29645,0.05433
1590.80666,0.06721
1589.31687,0.06795
1587.82708,0.06282
1586.33729,0.07559
1584.84750,0.07916
1583.35771,0.08148
1581.86793,0.06631
1580.37814,0.07180
1578.88835,0.06958
1577.39856,0.06812
1575.90877,0.06761
1574.41898,0.05477
1572.92920,0.03846
1571.43941,0.03581
1569.94962,0.03806
1568.45983,0.04034
1566.97004,0.03241
1565.48025,0.03869
1563.99047,0.03616
1562.50068,0.03862
1561.01089,0.03043
1559.52110,0.02649
1558.03131,0.02552
1556.54152,0.02421
1555.05173,0.01980
1553.56195,0.01817
1552.07216,0.02098
1550.58237,0.00042
1549.09258,0.00642
1547.60279,0.00175
1546.11300,0.00319
1544.62322,0.01183
1543.13343,0.00687
1541.64364,0.00635
1540.15385,0.01009
1538.66406,0.01386
1537.17427,0.00660
1535.68448,0.01502
1534.19470,0.02015
1532.70491,0.01259
1531.21512,0.00634
1529.72533,0.02656
1528.23554,0.02174
1526.74575,0.01326
1525.25597,0.02396
1523.76618,0.03322
1522.27639,0.03808
1520.78660,0.04351
1519.29681,0.04915
1517.80702,0.05611
1516.31724,0.05590
1514.82745,0.03674
1513.33766,0.04543
1511.84787,0.05414
1510.35808,0.04298
1508.86829,0.05044
1507.37850,0.05425
1505.88872,0.05569
1504.39893,0.05457
1502.90914,0.06526
1501.41935,0.08372
1499.92956,0.06720
1498.43977,0.07594
1496.94999,0.08783
1495.46020,0.08999
1493.97041,0.08996
1492.48062,0.10100
1490.99083,0.12497
1489.50104,0.13035
1488.01125,0.13935
1486.52147,0.14838
1485.03168,0.14536
1483.54189,0.16815
1482.05210,0.17458
1480.56231,0.17789
1479.07252,0.19468
1477.58274,0.21647
1476.09295,0.21304
1474.60316,0.22050
1473.11337,0.22744
1471.62358,0.23808
1470.13379,0.25078
1468.64401,0.27824
1467.15422,0.28066
1465.66443,0.28938
1464.17464,0.29811
1462.68485,0.34022
1461.19506,0.35324
1459.70527,0.40240
1458.21549,0.45766
1456.72570,0.50391
1455.23591,0.55701
1453.74612,0.59944
1452.25633,0.64466
1450.76654,0.68069
1449.27676,0.69022
1447.78697,0.68928
1446.29718,0.65832
1444.80739,0.65006
1443.31760,0.64181
1441.82781,0.57629
1440.33802,0.54636
1438.84824,0.52603
1437.35845,0.47348
1435.86866,0.47641
1434.37887,0.52026
1432.88908,0.56137
1431.39929,0.61171
1429.90951,0.66595
1428.41972,0.71027
1426.92993,0.73729
1425.44014,0.78386
1423.95035,0.80181
1422.46056,0.81978
1420.97078,0.85906
1419.48099,0.89744
1417.99120,0.91115
1416.50141,0.84126
1415.01162,0.82923
1413.52183,0.77927
1412.03204,0.74095
1410.54226,0.70541
1409.05247,0.67635
1407.56268,0.63883
1406.07289,0.55326
1404.58310,0.51542
1403.09331,0.47761
1401.60353,0.43632
1400.11374,0.39248
1398.62395,0.34166
1397.13416,0.30044
1395.64437,0.24617
1394.15458,0.20057
1392.66479,0.16606
1391.17501,0.14060
1389.68522,0.11995
1388.19543,0.08938
1386.70564,0.08434
1385.21585,0.07934
1383.72606,0.05639
1382.23628,0.04028
1380.74649,0.03507
1379.25670,0.01864
1377.76691,0.01697
1376.27712,0.02104
1374.78733,0.00634
1373.29755,0.00671
1371.80776,0.01864
1370.31797,0.02286
1368.82818,0.01983
1367.33839,0.01682
1365.84860,0.02572
1364.35881,0.03482
1362.86903,0.04100
1361.37924,0.04260
1359.88945,0.06633
1358.39966,0.10225
1356.90987,0.13339
1355.42008,0.15793
1353.93030,0.20129
1352.44051,0.23960
1350.95072,0.27793
1349.46093,0.36097
1347.97114,0.43076
1346.48135,0.49174
1344.99156,0.56287
1343.50178,0.60915
1342.01199,0.66615
1340.52220,0.69590
1339.03241,0.76823
1337.54262,0.77703
1336.05283,0.80299
1334.56305,0.82897
1333.07326,0.85921
1331.58347,0.87602
1330.09368,0.85233
1328.60389,0.81448
1327.11410,0.78826
1325.62432,0.77201
1324.13453,0.73478
1322.64474,0.72669
1321.15495,0.67882
1319.66516,0.64894
1318.17537,0.61909
1316.68558,0.57480
1315.19580,0.53845
1313.70601,0.49531
1312.21622,0.46233
1310.72643,0.44153
1309.23664,0.41246
1307.74685,0.37992
1306.25707,0.33045
1304.76728,0.30560
1303.27749,0.28078
1301.78770,0.23488
1300.29791,0.22622
1298.80812,0.20561
1297.31834,0.16716
1295.82855,0.13352
1294.33876,0.11759
1292.84897,0.09044
1291.35918,0.09188
1289.86939,0.09398
1288.37960,0.09610
1286.88982,0.07734
1285.40003,0.06635
1283.91024,0.06237
1282.42045,0.04424
1280.93066,0.04473
1279.44087,0.04415
1277.95109,0.04451
1276.46130,0.03513
1274.97151,0.02927
1273.48172,0.02344
1271.99193,0.02334
1270.50214,0.02658
1269.01235,0.03151
1267.52257,0.02688
1266.03278,0.03885
1264.54299,0.02063
1263.05320,0.02418
1261.56341,0.01669
1260.07362,0.00923
1258.58384,0.01948
1257.09405,0.00913
1255.60426,0.00634
1254.11447,0.00780
1252.62468,0.00891
1251.13489,0.01612
1249.64511,0.01396
1248.15532,0.01957
1246.66553,0.02160
1245.17574,0.02366
1243.68595,0.01386
1242.19616,0.02509
1240.70637,0.01018
1239.21659,0.00634
1237.72680,0.01296
1236.23701,0.00984
1234.74722,0.02627
1233.25743,0.02707
1231.76764,0.02789
1230.27786,0.04126
1228.78807,0.02905
1227.29828,0.03676
1225.80849,0.01114
1224.31870,0.00914
1222.82891,0.01320
1221.33912,0.02964
1219.84934,0.03661
1218.35955,0.04360
1216.86976,0.04334
1215.37997,0.05324
1213.89018,0.05045
1212.40039,0.05413
1210.91061,0.05342
1209.42082,0.06396
1207.93103,0.06007
1206.44124,0.05620
1204.95145,0.05706
1203.46166,0.06033
1201.97188,0.05497
1200.48209,0.04502
1198.99230,0.03400
1197.50251,0.02576
1196.01272,0.03965
1194.52293,0.03718
1193.03314,0.03472
1191.54336,0.03303
1190.05357,0.01606
1188.56378,0.01626
1187.07399,0.03011
1185.58420,0.02022
1184.09441,0.00723
1182.60463,0.01756
1181.11484,0.02791
1179.62505,0.01241
1178.13526,0.01498
1176.64547,0.00634
1175.15568,0.00919
1173.66589,0.00634
1172.17611,0.01354
1170.68632,0.01182
1169.19653,0.01012
1167.70674,0.01278
1166.21695,0.03057
1164.72716,0.02885
1163.23738,0.02827
1161.74759,0.04705
1160.25780,0.03969
1158.76801,0.04774
1157.27822,0.05582
1155.78843,0.06254
1154.29865,0.07518
1152.80886,0.06647
1151.31907,0.08965
1149.82928,0.08468
1148.33949,0.11712
1146.84970,0.11532
1145.35991,0.11355
1143.87013,0.13170
1142.38034,0.13439
1140.89055,0.13822
1139.40076,0.13949
1137.91097,0.17026
1136.42118,0.17968
1134.93140,0.17928
1133.44161,0.17889
1131.95182,0.21381
1130.46203,0.21670
1128.97224,0.22864
1127.48245,0.21536
1125.99266,0.21740
1124.50288,0.22056
1123.01309,0.22514
1121.52330,0.22973
1120.03351,0.22284
1118.54372,0.21542
1117.05393,0.22884
1115.56415,0.23233
1114.07436,0.23898
1112.58457,0.23737
1111.09478,0.23578
1109.60499,0.23679
1108.11520,0.22769
1106.62542,0.22138
1105.13563,0.22652
1103.64584,0.21031
1102.15605,0.19633
1100.66626,0.19933
1099.17647,0.20235
1097.68668,0.18384
1096.19690,0.17936
1094.70711,0.17361
1093.21732,0.16936
1091.72753,0.16476
1090.23774,0.16019
1088.74795,0.15564
1087.25817,0.16419
1085.76838,0.16098
1084.27859,0.16332
1082.78880,0.16992
1081.29901,0.17286
1079.80922,0.16956
1078.31943,0.16803
1076.82965,0.16653
1075.33986,0.20070
1073.85007,0.20671
1072.36028,0.22250
1070.87049,0.22045
1069.38070,0.24072
1067.89092,0.24571
1066.40113,0.25073
1064.91134,0.33279
1063.42155,0.41652
1061.93176,0.48038
1060.44197,0.55698
1058.95219,0.64373
1057.46240,0.67828
1055.97261,0.71285
1054.48282,0.77149
1052.99303,0.80159
1051.50324,0.81183
1050.01345,0.85341
1048.52367,0.85521
1047.03388,0.84691
1045.54409,0.83864
1044.05430,0.81049
1042.56451,0.75381
1041.07472,0.68425
1039.58494,0.61473
1038.09515,0.55167
1036.60536,0.51866
1035.11557,0.48568
1033.62578,0.43578
1032.13599,0.41316
1030.64620,0.35704
1029.15642,0.30997
1027.66663,0.28172
1026.17684,0.25349
1024.68705,0.23026
1023.19726,0.19894
1021.70747,0.16857
1020.21769,0.15425
1018.72790,0.12798
1017.23811,0.11915
1015.74832,0.11034
1014.25853,0.09740
1012.76874,0.10034
1011.27896,0.08174
1009.78917,0.08417
1008.29938,0.06636
1006.80959,0.05640
1005.31980,0.04647
1003.83001,0.02025
1002.34022,0.01764
1000.85044,0.03551
999.36065,0.03774
997.87086,0.04828
996.38107,0.05885
994.89128,0.07478
993.40149,0.06329
991.91171,0.08406
990.42192,0.09122
988.93213,0.08109
987.44234,0.08737
985.95255,0.09369
984.46276,0.09984
982.97297,0.09846
981.48319,0.08034
979.99340,0.07754
978.50361,0.06656
977.01382,0.05561
975.52403,0.05675
974.03424,0.02788
972.54446,0.01525
971.05467,0.01425
969.56488,0.02524
968.07509,0.02401
966.58530,0.02281
965.09551,0.01361
963.60573,0.01402
962.11594,0.00634
960.62615,0.01463
959.13636,0.01169
957.64657,0.00879
956.15678,0.01585
954.66699,0.02902
953.17721,0.03392
951.68742,0.04732
950.19763,0.05375
948.70784,0.06019
947.21805,0.05782
945.72826,0.06358
944.23848,0.10345
942.74869,0.10207
941.25890,0.12208
939.76911,0.13070
938.27932,0.13934
936.78953,0.15280
935.29974,0.15651
933.80996,0.18678
932.32017,0.19810
930.83038,0.20815
929.34059,0.21822
927.85080,0.23440
926.36101,0.24673
924.87123,0.28580
923.38144,0.33429
921.89165,0.36521
920.40186,0.39616
918.91207,0.48322
917.42228,0.57841
915.93250,0.72706
914.44271,0.90704
912.95292,1.00830
911.46313,1.10957
909.97334,1.32224
908.48355,1.53640
906.99376,1.74248
905.50398,1.88466
904.01419,1.93438
902.52440,1.98413
901.03461,2.00000
899.54482,1.97758
898.05503,1.78274
896.56525,1.56509
895.07546,1.44823
893.58567,1.33139
892.09588,1.07751
890.60609,0.84448
889.11630,0.66084
887.62651,0.47262
886.13673,0.39782
884.64694,0.32303
883.15715,0.24211
881.66736,0.17686
880.17757,0.12067
878.68778,0.09701
877.19800,0.07338
875.70821,0.04821
874.21842,0.02877
872.72863,0.02207
871.23884,0.02828
869.74905,0.02789
868.25927,0.02753
866.76948,0.01466
865.27969,0.01839
863.78990,0.02012
862.30011,0.04490
860.81032,0.04291
859.32053,0.04093
857.83075,0.05602
856.34096,0.08146
854.85117,0.09144
853.36138,0.10697
851.87159,0.10180
850.38180,0.09665
848.89202,0.11870
847.40223,0.12236
845.91244,0.14980
844.42265,0.15764
842.93286,0.16551
841.44307,0.17350
839.95329,0.19440
838.46350,0.19617
836.97371,0.20625
835.48392,0.20826
833.99413,0.21028
832.50434,0.21657
831.01455,0.20759
829.52477,0.20139
828.03498,0.16004
826.54519,0.14532
825.05540,0.13064
823.56561,0.12104
822.07582,0.12197
820.58604,0.10597
819.09625,0.09773
817.60646,0.08952
816.11667,0.10362
814.62688,0.09454
813.13709,0.09413
811.64730,0.09652
810.15752,0.09607
808.66773,0.09565
807.17794,0.09147
805.68815,0.10961
804.19836,0.11524
802.70857,0.11823
801.21879,0.12124
799.72900,0.10153
798.23921,0.08220
796.74942,0.07967
795.25963,0.08987
793.76984,0.10009
792.28006,0.11955
790.79027,0.13885
789.30048,0.13846
787.81069,0.15560
786.32090,0.16659
784.83111,0.17760
783.34132,0.18044
781.85154,0.22604
780.36175,0.25619
778.87196,0.28204
777.38217,0.30791
775.89238,0.32210
774.40259,0.35051
772.91281,0.33436
771.42302,0.31970
769.93323,0.30507
768.44344,0.27646
766.95365,0.23129
765.46386,0.19352
763.97407,0.16627
762.48429,0.15673
760.99450,0.14722
759.50471,0.10015
758.01492,0.09105
756.52513,0.08529
755.03534,0.07458
753.54556,0.06390
752.05577,0.05287
750.56598,0.05365
749.07619,0.03309
747.58640,0.03116
746.09661,0.02925
744.60683,0.02442
743.11704,0.02736
741.62725,0.02036
740.13746,0.01984
738.64767,0.01934
737.15788,0.00634
735.66809,0.00845
734.17831,0.00672
732.68852,0.01339
731.19873,0.02008
729.70894,0.00515
728.21915,0.00704
726.72936,0.01797
725.23958,0.01567
723.74979,0.01063
722.26000,0.00561
720.77021,0.02534
719.28042,0.01213
717.79063,0.01422
716.30084,0.01377
714.81106,0.01333
713.32127,0.00721
711.83148,0.02249
710.34169,0.01641
708.85190,0.02381
707.36211,0.03124
705.87233,0.01695
704.38254,0.02884
702.89275,0.02454
701.40296,0.03409
699.91317,0.04366
698.42338,0.05639
696.93360,0.06435
695.44381,0.09444
693.95402,0.09618
692.46423,0.09795
690.97444,0.11024
689.48465,0.13306
687.99486,0.14632
686.50508,0.16532
685.01529,0.18434
683.52550,0.20043
682.03571,0.22411
680.54592,0.22035
679.05613,0.22022
677.56635,0.22011
676.07656,0.21974
674.58677,0.21166
673.09698,0.20472
671.60719,0.18969
670.11740,0.17468
668.62761,0.14680
667.13783,0.13608
665.64804,0.12409
664.15825,0.11213
662.66846,0.11069
661.17867,0.06561
659.68888,0.05170
658.19910,0.04591
656.70931,0.04014
655.21952,0.03827
653.72973,0.03403
652.23994,0.05192
650.75015,0.04376
649.26037,0.03563
647.77058,0.03719
646.28079,0.03215
644.79100,0.02934
643.30121,0.02794
641.81142,0.02656
640.32163,0.01774
638.83185,0.01318
637.34206,0.01744
635.85227,0.01712
634.36248,0.01683
632.87269,0.01600
631.38290,0.01833
629.89312,0.02658
628.40333,0.02270
626.91354,0.01884
625.42375,0.00634
623.93396,0.00941
622.44417,0.01748
620.95438,0.02557
619.46460,0.01803
617.97481,0.04311
616.48502,0.06712
614.99523,0.07733
613.50544,0.08757
612.01565,0.12491
610.52587,0.12838
609.03608,0.16761
607.54629,0.18845
606.05650,0.20931
604.56671,0.26759
603.07692,0.32515
601.58714,0.33401
600.09735,0.34290
598.60756,0.37935
597.11777,0.39962
595.62798,0.40959
594.13819,0.39324
592.64840,0.37691
591.15862,0.36080
589.66883,0.31412
588.17904,0.22786
586.68925,0.20666
585.19946,0.18548
583.70967,0.15161
582.21989,0.12901
580.73010,0.11444
579.24031,0.09990
577.75052,0.08510
576.26073,0.04859
574.77094,0.04489
573.28115,0.03662
571.79137,0.02836
570.30158,0.04648
568.81179,0.05743
567.32200,0.06675
565.83221,0.07610
564.34242,0.08197
562.85264,0.10020
561.36285,0.11441
559.87306,0.12606
558.38327,0.13773
556.89348,0.15883
555.40369,0.15065
553.91391,0.15429
552.42412,0.15796
550.93433,0.16791
549.44454,0.16186
547.95475,0.14957
546.46496,0.15609
544.97517,0.16264
543.48539,0.19740
541.99560,0.22868
540.50581,0.25455
539.01602,0.28044
537.52623,0.31419
536.03644,0.35294
534.54666,0.37365
533.05687,0.40038
531.56708,0.42713
530.07729,0.48163
528.58750,0.49471
527.09771,0.52945
525.60792,0.56422
524.11814,0.63724
522.62835,0.70328
521.13856,0.76622
519.64877,0.79104
518.15898,0.81589
516.66919,0.84868
515.17941,0.86252
513.68962,0.82665
512.19983,0.79080
510.71004,0.76713
509.22025,0.75804
507.73046,0.65280
506.24068,0.59890
504.75089,0.54502
503.26110,0.43913
501.77131,0.37083
500.28152,0.32329
498.79173,0.27577
497.30194,0.21621
495.81216,0.17639
494.32237,0.15740
492.83258,0.13844
491.34279,0.09961
489.85300,0.08365
488.36321,0.06513
486.87343,0.06367
485.38364,0.06224
483.89385,0.06442
482.40406,0.09298
480.91427,0.10240
479.42448,0.11184
477.93469,0.12996
476.44491,0.13558
474.95512,0.14325
473.46533,0.15095
471.97554,0.15277
470.48575,0.18447
468.99596,0.17971
467.50618,0.16373
466.01639,0.14778
464.52660,0.11859
463.03681,0.09624
461.54702,0.07732
460.05723,0.05843
458.56745,0.02896
457.07766,0.04005
455.58787,0.03265
454.09808,0.02528
452.60829,0.01451
451.11850,0.03252
449.62871,0.02107
448.13893,0.00964
446.64914,0.00634
445.15935,0.00804
443.66956,0.02874
442.17977,0.02773
440.68998,0.02673
439.20020,0.02134
437.71041,0.02058
436.22062,0.02832
434.73083,0.03608
433.24104,0.04148
431.75125,0.04744
430.26146,0.04257
428.77168,0.03771
427.28189,0.04080
425.79210,0.03692
424.30231,0.03665
422.81252,0.03641
421.32273,0.04217
419.83295,0.02807
418.34316,0.01813
416.85337,0.00822
415.36358,0.00634
413.87379,0.01905
412.38400,0.02993
410.89422,0.04084
409.40443,0.04975
407.91464,0.05278
406.42485,0.04681
404.93506,0.04511
403.44527,0.04342
401.95548,0.03200
400.46570,0.01747
398.97591,0.02166
397.48612,0.02588
395.99633,0.01013
394.50654,0.01688
393.01675,0.01730
391.52697,0.01342
390.03718,0.00689
388.54739,0.01162
387.05760,0.01287
385.56781,0.01415
384.07802,0.01286
382.58824,0.01345
381.09845,0.00798
379.60866,0.00253
378.11887,0.00964
376.62908,0.00000
375.13929,0.00502
373.64950,0.01007
372.15972,0.01486
370.66993,0.02410
369.18014,0.01699
367.69035,0.00990
366.20056,0.01662
364.71077,0.02447
363.22099,0.02681
361.73120,0.02918
360.24141,0.02752
358.75162,0.03675
357.26183,0.03154
355.77204,0.02636
354.28225,0.02314
352.79247,0.03339
351.30268,0.03970
349.81289,0.04604
348.32310,0.08381
346.83331,0.08439
345.34352,0.06344
343.85374,0.04251
342.36395,0.03782
340.87416,0.04071
339.38437,0.02575
337.89458,0.01081
336.40479,0.03422
334.91501,0.02191
333.42522,0.02004
331.93543,0.01818
330.44564,0.02806
328.95585,0.02174
327.46606,0.02972
325.97627,0.03773
324.48649,0.03941
322.99670,0.02950
321.50691,0.04246
320.01712,0.05545
318.52733,0.05464
317.03754,0.06896
315.54776,0.06535
314.05797,0.06176
312.56818,0.05110
311.07839,0.05023
309.58860,0.03915
308.09881,0.02810
306.60902,0.02638
305.11924,0.03592
303.62945,0.02596
302.13966,0.01602
300.64987,0.02287
299.16008,0.00634
