1778.52000,0.00798
1777.03021,0.00000
1775.54042,0.00826
1774.05063,0.00703
1772.56085,0.00714
1771.07106,0.00690
1769.58127,0.01544
1768.09148,0.00816
1766.60169,0.00985
1765.11190,0.00654
1763.62212,0.01927
1762.13233,0.01116
1760.64254,0.01016
1759.15275,0.01569
1757.66296,0.01418
1756.17317,0.01064
1754.68339,0.02407
1753.19360,0.01629
1751.70381,0.01934
1750.21402,0.01589
1748.72423,0.00688
1747.23444,0.01390
1745.74465,0.01329
1744.25487,0.02036
1742.76508,0.01664
1741.27529,0.02300
1739.78550,0.01374
1738.29571,0.02261
1736.80592,0.01771
1735.31614,0.02551
1733.82635,0.02662
1732.33656,0.02385
1730.84677,0.02315
1729.35698,0.02228
1727.86719,0.01921
1726.37740,0.01635
1724.88762,0.00754
1723.39783,0.01761
1721.90804,0.01317
1720.41825,0.02105
1718.92846,0.01032
1717.43867,0.01005
1715.94889,0.01763
1714.45910,0.01573
1712.96931,0.01795
1711.47952,0.01181
1709.98973,0.00421
1708.49994,0.01191
1707.01016,0.01320
1705.52037,0.01452
1704.03058,0.01074
1702.54079,0.00736
1701.05100,0.01070
1699.56121,0.01910
1698.07142,0.01188
1696.58164,0.00654
1695.09185,0.01856
1693.60206,0.01403
1692.11227,0.01380
1690.62248,0.01677
1689.13269,0.01454
1687.64291,0.02202
1686.15312,0.02524
1684.66333,0.01620
1683.17354,0.01835
1681.68375,0.02891
1680.19396,0.02440
1678.70417,0.02514
1677.21439,0.03000
1675.72460,0.04252
1674.23481,0.03233
1672.74502,0.03950
1671.25523,0.04054
1669.76544,0.03713
1668.27566,0.04567
1666.78587,0.06169
1665.29608,0.05165
1663.80629,0.06287
1662.31650,0.06629
1660.82671,0.07737
1659.33693,0.07693
1657.84714,0.07334
1656.35735,0.07723
1654.86756,0.06214
1653.37777,0.07390
1651.88798,0.06594
1650.39819,0.07458
1648.90841,0.07859
1647.41862,0.07181
1645.92883,0.07280
1644.43904,0.07380
1642.94925,0.08685
1641.45946,0.08129
1639.96968,0.09029
1638.47989,0.09353
1636.99010,0.10015
1635.50031,0.09003
1634.01052,0.08385
1632.52073,0.07880
1631.03094,0.08776
1629.54116,0.07140
1628.05137,0.07779
1626.56158,0.07955
1625.07179,0.08692
1623.58200,0.08817
1622.09221,0.08870
1620.60243,0.09410
1619.11264,0.09225
1617.62285,0.08316
1616.13306,0.08993
1614.64327,0.08145
1613.15348,0.07951
1611.66370,0.09269
1610.17391,0.09397
1608.68412,0.09434
1607.19433,0.09753
1605.70454,0.10112
1604.21475,0.09765
1602.72496,0.09420
1601.23518,0.08798
1599.74539,0.08775
1598.25560,0.08121
1596.76581,0.08662
1595.27602,0.09354
1593.78623,0.09117
1592.29645,0.08640
1590.80666,0.08333
1589.31687,0.08103
1587.82708,0.07634
1586.33729,0.07427
1584.84750,0.07242
1583.35771,0.07338
1581.86793,0.07381
1580.37814,0.07985
1578.88835,0.08648
1577.39856,0.08009
1575.90877,0.07987
1574.41898,0.05545
1572.92920,0.05714
1571.43941,0.04880
1569.94962,0.04420
1568.45983,0.03963
1566.97004,0.03453
1565.48025,0.04248
1563.99047,0.04339
1562.50068,0.03519
1561.01089,0.03632
1559.52110,0.03413
1558.03131,0.02675
1556.54152,0.03168
1555.05173,0.03049
1553.56195,0.02300
1552.07216,0.01981
1550.58237,0.00844
1549.09258,0.00586
1547.60279,0.01168
1546.11300,0.00654
1544.62322,0.01442
1543.13343,0.01860
1541.64364,0.01815
1540.15385,0.01372
1538.66406,0.00931
1537.17427,0.01245
1535.68448,0.02009
1534.19470,0.01452
1532.70491,0.02239
1531.21512,0.02936
1529.72533,0.01418
1528.23554,0.01467
1526.74575,0.02115
1525.25597,0.01964
1523.76618,0.01778
1522.27639,0.02396
1520.78660,0.02960
1519.29681,0.04048
1517.80702,0.04655
1516.31724,0.04425
1514.82745,0.05092
1513.33766,0.05296
1511.84787,0.05502
1510.35808,0.04965
1508.86829,0.04728
1507.37850,0.04699
1505.88872,0.04263
1504.39893,0.05431
1502.90914,0.04459
1501.41935,0.05874
1499.92956,0.06528
1498.43977,0.06066
1496.94999,0.06222
1495.46020,0.09211
1493.97041,0.10210
1492.48062,0.10056
1490.99083,0.11264
1489.50104,0.10295
1488.01125,0.11844
1486.52147,0.13395
1485.03168,0.17258
1483.54189,0.19093
1482.05210,0.20092
1480.56231,0.20628
1479.07252,0.20868
1477.58274,0.22452
1476.09295,0.24467
1474.60316,0.24938
1473.11337,0.25709
1471.62358,0.25421
1470.13379,0.26905
1468.64401,0.28298
1467.15422,0.30029
1465.66443,0.31017
1464.17464,0.32008
1462.68485,0.33895
1461.19506,0.37518
1459.70527,0.43527
1458.21549,0.48887
1456.72570,0.52330
1455.23591,0.56446
1453.74612,0.62018
1452.25633,0.66717
1450.76654,0.69163
1449.27676,0.69172
1447.78697,0.67804
1446.29718,0.64539
1444.80739,0.63595
1443.31760,0.62654
1441.82781,0.55427
1440.33802,0.52749
1438.84824,0.48806
1437.35845,0.49430
1435.86866,0.47150
1434.37887,0.49064
1432.88908,0.55154
1431.39929,0.61432
1429.90951,0.67862
1428.41972,0.74611
1426.92993,0.78959
1425.44014,0.79397
1423.95035,0.82456
1422.46056,0.85516
1420.97078,0.87303
1419.48099,0.89800
1417.99120,0.93156
1416.50141,0.90796
1415.01162,0.83724
1413.52183,0.80567
1412.03204,0.74488
1410.54226,0.71932
1409.05247,0.64683
1407.56268,0.59338
1406.07289,0.54926
1404.58310,0.51932
1403.09331,0.48941
1401.60353,0.43829
1400.11374,0.39147
1398.62395,0.35045
1397.13416,0.28841
1395.64437,0.24352
1394.15458,0.20556
1392.66479,0.15756
1391.17501,0.14200
1389.68522,0.12069
1388.19543,0.10834
1386.70564,0.09034
1385.21585,0.07236
1383.72606,0.05897
1382.23628,0.04783
1380.74649,0.04101
1379.25670,0.02117
1377.76691,0.01756
1376.27712,0.01715
1374.78733,0.01098
1373.29755,0.00688
1371.80776,0.00654
1370.31797,0.01256
1368.82818,0.01321
1367.33839,0.01388
1365.84860,0.03264
1364.35881,0.03597
1362.86903,0.04900
1361.37924,0.07250
1359.88945,0.08204
1358.39966,0.10092
1356.90987,0.11704
1355.42008,0.17882
1353.93030,0.23727
1352.44051,0.26035
1350.95072,0.28345
1349.46093,0.38352
1347.97114,0.44430
1346.48135,0.52616
1344.99156,0.59892
1343.50178,0.67169
1342.01199,0.75642
1340.52220,0.79478
1339.03241,0.82348
1337.54262,0.83096
1336.05283,0.85253
1334.56305,0.87413
1333.07326,0.92304
1331.58347,0.91720
1330.09368,0.92611
1328.60389,0.91008
1327.11410,0.87208
1325.62432,0.82610
1324.13453,0.82281
1322.64474,0.80277
1321.15495,0.75779
1319.66516,0.72485
1318.17537,0.69194
1316.68558,0.64387
1315.19580,0.59861
1313.70601,0.54761
1312.21622,0.52271
1310.72643,0.50323
1309.23664,0.44746
1307.74685,0.42654
1306.25707,0.37621
1304.76728,0.36345
1303.27749,0.35071
1301.78770,0.28723
1300.29791,0.25153
1298.80812,0.22778
1297.31834,0.20479
1295.82855,0.18630
1294.33876,0.15480
1292.84897,0.12444
1291.35918,0.11571
1289.86939,0.11762
1288.37960,0.11956
1286.88982,0.08706
1285.40003,0.09855
1283.91024,0.08677
1282.42045,0.07241
1280.93066,0.05640
1279.44087,0.06016
1277.95109,0.04680
1276.46130,0.04800
1274.97151,0.04773
1273.48172,0.04749
1271.99193,0.04075
1270.50214,0.03478
1269.01235,0.03330
1267.52257,0.04489
1266.03278,0.03825
1264.54299,0.03982
1263.05320,0.02857
1261.56341,0.02498
1260.07362,0.02141
1258.58384,0.01656
1257.09405,0.01435
1255.60426,0.01700
1254.11447,0.00626
1252.62468,0.00654
1251.13489,0.00702
1249.64511,0.00878
1248.15532,0.00778
1246.66553,0.01068
1245.17574,0.01360
1243.68595,0.03108
1242.19616,0.02697
1240.70637,0.01413
1239.21659,0.02590
1237.72680,0.01758
1236.23701,0.02791
1234.74722,0.01293
1233.25743,0.01949
1231.76764,0.02607
1230.27786,0.01992
1228.78807,0.02627
1227.29828,0.02147
1225.80849,0.00757
1224.31870,0.00654
1222.82891,0.00730
1221.33912,0.01833
1219.84934,0.02957
1218.35955,0.04083
1216.86976,0.05249
1215.37997,0.06771
1213.89018,0.07998
1212.40039,0.08146
1210.91061,0.07049
1209.42082,0.06326
1207.93103,0.06249
1206.44124,0.06174
1204.95145,0.06409
1203.46166,0.05734
1201.97188,0.05471
1200.48209,0.06011
1198.99230,0.04728
1197.50251,0.04229
1196.01272,0.05354
1194.52293,0.04619
1193.03314,0.03886
1191.54336,0.03993
1190.05357,0.02277
1188.56378,0.02091
1187.07399,0.03044
1185.58420,0.01913
1184.09441,0.00691
1182.60463,0.00850
1181.11484,0.01012
1179.62505,0.00952
1178.13526,0.01342
1176.64547,0.00654
1175.15568,0.01248
1173.66589,0.01453
1172.17611,0.00654
1170.68632,0.00847
1169.19653,0.01042
1167.70674,0.02702
1166.21695,0.02465
1164.72716,0.03832
1163.23738,0.05108
1161.74759,0.05269
1160.25780,0.06345
1158.76801,0.06445
1157.27822,0.06548
1155.78843,0.06755
1154.29865,0.05773
1152.80886,0.08556
1151.31907,0.11379
1149.82928,0.11950
1148.33949,0.12673
1146.84970,0.12867
1145.35991,0.13063
1143.87013,0.13588
1142.38034,0.14898
1140.89055,0.15800
1139.40076,0.14730
1137.91097,0.16196
1136.42118,0.20626
1134.93140,0.21203
1133.44161,0.21782
1131.95182,0.23183
1130.46203,0.23543
1128.97224,0.23831
1127.48245,0.24922
1125.99266,0.22700
1124.50288,0.22958
1123.01309,0.22519
1121.52330,0.22083
1120.03351,0.23168
1118.54372,0.21889
1117.05393,0.23072
1115.56415,0.22823
1114.07436,0.23712
1112.58457,0.23356
1111.09478,0.23002
1109.60499,0.23153
1108.11520,0.23605
1106.62542,0.24637
1105.13563,0.24181
1103.64584,0.23150
1102.15605,0.20593
1100.66626,0.20358
1099.17647,0.20126
1097.68668,0.21340
1096.19690,0.20488
1094.70711,0.21018
1093.21732,0.20339
1091.72753,0.19904
1090.23774,0.19034
1088.74795,0.18166
1087.25817,0.17050
1085.76838,0.18767
1084.27859,0.18270
1082.78880,0.18930
1081.29901,0.20245
1079.80922,0.19904
1078.31943,0.19976
1076.82965,0.20049
1075.33986,0.21523
1073.85007,0.22943
1072.36028,0.23508
1070.87049,0.26684
1069.38070,0.29341
1067.89092,0.31525
1066.40113,0.33711
1064.91134,0.36617
1063.42155,0.45544
1061.93176,0.56093
1060.44197,0.64297
1058.95219,0.73566
1057.46240,0.78468
1055.97261,0.83372
1054.48282,0.96393
1052.99303,1.03752
1051.50324,1.02339
1050.01345,1.00407
1048.52367,0.97359
1047.03388,0.94695
1045.54409,0.92034
1044.05430,0.87708
1042.56451,0.80478
1041.07472,0.74648
1039.58494,0.68037
1038.09515,0.59696
1036.60536,0.55205
1035.11557,0.50717
1033.62578,0.45178
1032.13599,0.40256
1030.64620,0.35895
1029.15642,0.31984
1027.66663,0.28402
1026.17684,0.24822
1024.68705,0.21216
1023.19726,0.17725
1021.70747,0.14608
1020.21769,0.13190
1018.72790,0.12015
1017.23811,0.11449
1015.74832,0.10885
1014.25853,0.09476
1012.76874,0.08218
1011.27896,0.07895
1009.78917,0.07592
1008.29938,0.06043
1006.80959,0.04888
1005.31980,0.03736
1003.83001,0.01617
1002.34022,0.02649
1000.85044,0.01354
999.36065,0.02112
997.87086,0.03067
996.38107,0.04025
994.89128,0.05721
993.40149,0.08909
991.91171,0.10890
990.42192,0.13412
988.93213,0.13479
987.44234,0.14181
985.95255,0.14885
984.46276,0.14772
982.97297,0.13506
981.48319,0.11386
979.99340,0.10125
978.50361,0.08587
977.01382,0.07052
975.52403,0.04922
974.03424,0.03969
972.54446,0.02534
971.05467,0.00654
969.56488,0.01033
968.07509,0.01592
966.58530,0.02153
965.09551,0.00584
963.60573,0.01156
962.11594,0.00874
960.62615,0.00520
959.13636,0.00697
957.64657,0.00877
956.15678,0.00611
954.66699,0.01485
953.17721,0.01969
951.68742,0.02270
950.19763,0.02340
948.70784,0.02413
947.21805,0.03690
945.72826,0.05956
944.23848,0.09268
942.74869,0.10068
941.25890,0.12565
939.76911,0.12941
938.27932,0.13319
936.78953,0.14613
935.29974,0.16654
933.80996,0.18287
932.32017,0.19514
930.83038,0.20081
929.34059,0.20650
927.85080,0.23374
926.36101,0.26715
924.87123,0.29444
923.38144,0.31634
921.89165,0.35793
920.40186,0.39954
918.91207,0.51374
917.42228,0.63187
915.93250,0.76158
914.44271,0.95056
912.95292,1.05684
911.46313,1.16315
909.97334,1.39765
908.48355,1.62380
906.99376,1.78719
905.50398,1.89061
904.01419,1.91367
902.52440,1.93675
901.03461,2.00000
899.54482,1.96398
898.05503,1.79608
896.56525,1.60901
895.07546,1.47805
893.58567,1.34711
892.09588,1.01834
890.60609,0.81441
889.11630,0.63846
887.62651,0.44874
886.13673,0.39254
884.64694,0.33635
883.15715,0.23930
881.66736,0.19779
880.17757,0.13507
878.68778,0.12071
877.19800,0.10638
875.70821,0.08061
874.21842,0.05040
872.72863,0.03866
871.23884,0.03253
869.74905,0.03247
868.25927,0.03245
866.76948,0.02564
865.27969,0.02519
863.78990,0.04135
862.30011,0.05232
860.81032,0.05688
859.32053,0.06147
857.83075,0.07791
856.34096,0.10425
854.85117,0.11272
853.36138,0.12067
851.87159,0.13115
850.38180,0.14165
848.89202,0.15954
847.40223,0.17671
845.91244,0.21887
844.42265,0.21801
842.93286,0.21718
841.44307,0.25233
839.95329,0.25545
838.46350,0.27109
836.97371,0.28097
835.48392,0.28119
833.99413,0.28143
832.50434,0.26791
831.01455,0.24622
829.52477,0.22008
828.03498,0.21483
826.54519,0.20271
825.05540,0.19062
823.56561,0.17351
822.07582,0.16296
820.58604,0.15354
819.09625,0.15114
817.60646,0.14876
816.11667,0.13066
814.62688,0.14369
813.13709,0.15713
811.64730,0.15289
810.15752,0.15342
808.66773,0.15398
807.17794,0.16397
805.68815,0.14976
804.19836,0.13931
802.70857,0.14052
801.21879,0.14175
799.72900,0.13417
798.23921,0.12511
796.74942,0.15054
795.25963,0.14964
793.76984,0.14876
792.28006,0.15526
790.79027,0.15099
789.30048,0.17188
787.81069,0.22596
786.32090,0.23862
784.83111,0.25130
783.34132,0.27471
781.85154,0.33261
780.36175,0.35198
778.87196,0.36913
777.38217,0.38631
775.89238,0.42195
774.40259,0.43470
772.91281,0.40854
771.42302,0.39274
769.93323,0.37697
768.44344,0.33914
766.95365,0.27023
765.46386,0.23059
763.97407,0.17830
762.48429,0.17141
760.99450,0.16453
759.50471,0.14027
758.01492,0.12273
756.52513,0.10745
755.03534,0.10105
753.54556,0.09467
752.05577,0.08766
750.56598,0.08440
749.07619,0.06086
747.58640,0.05308
746.09661,0.04533
744.60683,0.05130
743.11704,0.02953
741.62725,0.02231
740.13746,0.02230
738.64767,0.02230
737.15788,0.02988
735.66809,0.01140
734.17831,0.00654
732.68852,0.01470
731.19873,0.02289
729.70894,0.01741
728.21915,0.01810
726.72936,0.01975
725.23958,0.01266
723.74979,0.01864
722.26000,0.02464
720.77021,0.01111
719.28042,0.00654
717.79063,0.01949
716.30084,0.02081
714.81106,0.02216
713.32127,0.02586
711.83148,0.03145
710.34169,0.02067
708.85190,0.02119
707.36211,0.02172
705.87233,0.03430
704.38254,0.02548
702.89275,0.04500
701.40296,0.04861
699.91317,0.05225
698.42338,0.06607
696.93360,0.08308
695.44381,0.11427
693.95402,0.11632
692.46423,0.11841
690.97444,0.13160
689.48465,0.15059
687.99486,0.17593
686.50508,0.18547
685.01529,0.19503
683.52550,0.24448
682.03571,0.24068
680.54592,0.25925
679.05613,0.25382
677.56635,0.24841
676.07656,0.25998
674.58677,0.23617
673.09698,0.23903
671.60719,0.22012
670.11740,0.20123
668.62761,0.16950
667.13783,0.14470
665.64804,0.13054
664.15825,0.11640
662.66846,0.09204
661.17867,0.06324
659.68888,0.04545
658.19910,0.05050
656.70931,0.05558
655.21952,0.04997
653.72973,0.03265
652.23994,0.04329
650.75015,0.04446
649.26037,0.04566
647.77058,0.05004
646.28079,0.04923
644.79100,0.05851
643.30121,0.05113
641.81142,0.04378
640.32163,0.04661
638.83185,0.02953
637.34206,0.00912
635.85227,0.00830
634.36248,0.00750
632.87269,0.00654
631.38290,0.02083
629.89312,0.02621
628.40333,0.02732
626.91354,0.02846
625.42375,0.02496
623.93396,0.03471
622.44417,0.02260
620.95438,0.01051
619.46460,0.02146
617.97481,0.03205
616.48502,0.06801
614.99523,0.08033
613.50544,0.09267
612.01565,0.11622
610.52587,0.14650
609.03608,0.17363
607.54629,0.18765
606.05650,0.20170
604.56671,0.24176
603.07692,0.32563
601.58714,0.34180
600.09735,0.35799
598.60756,0.39926
597.11777,0.42473
595.62798,0.42730
594.13819,0.40521
592.64840,0.38314
591.15862,0.35672
589.66883,0.31356
588.17904,0.27172
586.68925,0.24286
585.19946,0.21402
583.70967,0.14878
582.21989,0.10798
580.73010,0.09067
579.24031,0.07338
577.75052,0.06581
576.26073,0.05155
574.77094,0.04048
573.28115,0.04602
571.79137,0.05159
570.30158,0.04097
568.81179,0.09241
567.32200,0.08388
565.83221,0.07538
564.34242,0.11646
562.85264,0.11118
561.36285,0.13777
559.87306,0.14204
558.38327,0.14633
556.89348,0.14505
555.40369,0.18721
553.91391,0.19166
552.42412,0.19614
550.93433,0.18918
549.44454,0.19641
547.95475,0.19378
546.46496,0.19463
544.97517,0.19550
543.48539,0.23468
541.99560,0.23420
540.50581,0.25778
539.01602,0.28139
537.52623,0.32513
536.03644,0.37934
534.54666,0.39984
533.05687,0.41851
531.56708,0.43721
530.07729,0.47641
528.58750,0.55403
527.09771,0.57642
525.60792,0.59884
524.11814,0.65939
522.62835,0.72797
521.13856,0.74180
519.64877,0.74932
518.15898,0.75686
516.66919,0.80933
515.17941,0.79866
513.68962,0.80516
512.19983,0.81168
510.71004,0.79047
509.22025,0.74934
507.73046,0.67881
506.24068,0.62702
504.75089,0.57526
503.26110,0.47070
501.77131,0.40548
500.28152,0.35127
498.79173,0.29708
497.30194,0.22839
495.81216,0.18041
494.32237,0.16467
492.83258,0.14896
491.34279,0.11949
489.85300,0.10290
488.36321,0.08018
486.87343,0.07491
485.38364,0.06966
483.89385,0.09098
482.40406,0.09742
480.91427,0.10733
479.42448,0.11727
477.93469,0.13329
476.44491,0.15417
474.95512,0.17340
473.46533,0.19265
471.97554,0.20728
470.48575,0.23422
468.99596,0.21479
467.50618,0.20638
466.01639,0.19800
464.52660,0.15145
463.03681,0.10902
461.54702,0.10266
460.05723,0.09633
458.56745,0.07223
457.07766,0.04200
455.58787,0.02764
454.09808,0.01329
452.60829,0.02711
451.11850,0.01412
449.62871,0.01215
448.13893,0.01020
446.64914,0.03007
445.15935,0.02146
443.66956,0.01865
442.17977,0.02360
440.68998,0.02857
439.20020,0.02490
437.71041,0.03970
436.22062,0.03124
434.73083,0.02280
433.24104,0.04177
431.75125,0.04642
430.26146,0.03833
428.77168,0.03026
427.28189,0.05659
425.79210,0.06301
424.30231,0.06257
422.81252,0.06214
421.32273,0.04945
419.83295,0.02746
418.34316,0.01761
416.85337,0.00778
415.36358,0.00654
413.87379,0.02528
412.38400,0.03520
410.89422,0.04514
409.40443,0.04476
407.91464,0.04124
406.42485,0.04352
404.93506,0.04107
403.44527,0.03865
401.95548,0.04212
400.46570,0.02084
398.97591,0.03032
397.48612,0.03982
395.99633,0.01376
394.50654,0.02648
393.01675,0.02497
391.52697,0.02348
390.03718,0.02286
388.54739,0.02450
387.05760,0.01666
385.56781,0.00884
384.07802,0.01420
382.58824,0.01940
381.09845,0.02388
379.60866,0.02838
378.11887,0.00514
376.62908,0.01353
375.13929,0.01504
373.64950,0.01658
372.15972,0.02149
370.66993,0.01935
369.18014,0.01293
367.69035,0.00654
366.20056,0.01436
364.71077,0.02424
363.22099,0.01963
361.73120,0.01503
360.24141,0.05331
358.75162,0.06106
357.26183,0.05914
355.77204,0.05725
354.28225,0.03843
352.79247,0.05336
351.30268,0.04073
349.81289,0.02813
348.32310,0.05039
346.83331,0.06206
345.34352,0.05847
343.85374,0.05491
342.36395,0.03237
340.87416,0.00836
339.38437,0.01587
337.89458,0.02341
336.40479,0.03721
334.91501,0.04339
333.42522,0.02631
331.93543,0.00926
330.44564,0.00900
328.95585,0.00335
327.46606,0.01792
325.97627,0.03251
324.48649,0.02020
322.99670,0.01108
321.50691,0.02407
320.01712,0.03708
318.52733,0.04871
317.03754,0.05590
315.54776,0.05445
314.05797,0.05302
312.56818,0.08282
311.07839,0.05769
309.58860,0.06332
308.09881,0.06897
306.60902,0.03981
305.11924,0.08259
303.62945,0.05711
302.13966,0.03166
300.64987,0.00707
299.16008,0.00654
