1778.52000,0.01710
1777.03021,0.01937
1775.54042,0.02017
1774.05063,0.01782
1772.56085,0.01506
1771.07106,0.01190
1769.58127,0.02343
1768.09148,0.01266
1766.60169,0.01340
1765.11190,0.01608
1763.62212,0.01707
1762.13233,0.01321
1760.64254,0.00597
1759.15275,0.01320
1757.66296,0.01748
1756.17317,0.00925
1754.68339,0.00869
1753.19360,0.00880
1751.70381,0.00829
1750.21402,0.00249
1748.72423,0.00288
1747.23444,0.00669
1745.74465,0.00946
1744.25487,0.01162
1742.76508,0.00913
1741.27529,0.01453
1739.78550,0.01336
1738.29571,0.00521
1736.80592,0.01301
1735.31614,0.00597
1733.82635,0.00350
1732.33656,0.00000
1730.84677,0.00417
1729.35698,0.00412
1727.86719,0.01556
1726.37740,0.00705
1724.88762,0.00579
1723.39783,0.01561
1721.90804,0.00399
1720.41825,0.01482
1718.92846,0.01251
1717.43867,0.00597
1715.94889,0.00696
1714.45910,0.01122
1712.96931,0.01380
1711.47952,0.00727
1709.98973,0.01414
1708.49994,0.01042
1707.01016,0.00789
1705.52037,0.00539
1704.03058,0.00662
1702.54079,0.00279
1701.05100,0.01087
1699.56121,0.00580
1698.07142,0.01627
1696.58164,0.00701
1695.09185,0.01922
1693.60206,0.00597
1692.11227,0.01846
1690.62248,0.02991
1689.13269,0.02119
1687.64291,0.01463
1686.15312,0.02913
1684.66333,0.02240
1683.17354,0.02589
1681.68375,0.02814
1680.19396,0.02637
1678.70417,0.02951
1677.21439,0.03799
1675.72460,0.05244
1674.23481,0.04779
1672.74502,0.04912
1671.25523,0.03793
1669.76544,0.04270
1668.27566,0.05494
1666.78587,0.04659
1665.29608,0.05866
1663.80629,0.06480
1662.31650,0.06183
1660.82671,0.07334
1659.33693,0.07616
1657.84714,0.08006
1656.35735,0.08250
1654.86756,0.07604
1653.37777,0.08405
1651.88798,0.07403
1650.39819,0.08761
1648.90841,0.08146
1647.41862,0.06003
1645.92883,0.06700
1644.43904,0.07399
1642.94925,0.08323
1641.45946,0.09143
1639.96968,0.09839
1638.47989,0.10197
1636.99010,0.09324
1635.50031,0.08370
1634.01052,0.07099
1632.52073,0.08337
1631.03094,0.09387
1629.54116,0.08867
1628.05137,0.09688
1626.56158,0.09704
1625.07179,0.10104
1623.58200,0.09466
1622.09221,0.09957
1620.60243,0.11129
1619.11264,0.10180
1617.62285,0.10359
1616.13306,0.10455
1614.64327,0.09534
1613.15348,0.08445
1611.66370,0.08804
1610.17391,0.08166
1608.68412,0.09379
1607.19433,0.09788
1605.70454,0.10347
1604.21475,0.10346
1602.72496,0.10347
1601.23518,0.09278
1599.74539,0.09974
1598.25560,0.09632
1596.76581,0.09249
1595.27602,0.09209
1593.78623,0.09448
1592.29645,0.09179
1590.80666,0.08551
1589.31687,0.07969
1587.82708,0.07686
1586.33729,0.08043
1584.84750,0.08636
1583.35771,0.08721
1581.86793,0.07917
1580.37814,0.08559
1578.88835,0.08142
1577.39856,0.07238
1575.90877,0.06550
1574.41898,0.06586
1572.92920,0.04287
1571.43941,0.04859
1569.94962,0.04488
1568.45983,0.04120
1566.97004,0.02935
1565.48025,0.04643
1563.99047,0.03549
1562.50068,0.03009
1561.01089,0.03152
1559.52110,0.02745
1558.03131,0.02807
1556.54152,0.02405
1555.05173,0.02217
1553.56195,0.02670
1552.07216,0.01531
1550.58237,0.00160
1549.09258,0.01576
1547.60279,0.01379
1546.11300,0.01461
1544.62322,0.01694
1543.13343,0.00335
1541.64364,0.00445
1540.15385,0.00631
1538.66406,0.00820
1537.17427,0.00597
1535.68448,0.01081
1534.19470,0.01335
1532.70491,0.00932
1531.21512,0.01551
1529.72533,0.01535
1528.23554,0.00821
1526.74575,0.02637
1525.25597,0.03203
1523.76618,0.02644
1522.27639,0.03554
1520.78660,0.03298
1519.29681,0.03745
1517.80702,0.02771
1516.31724,0.05561
1514.82745,0.03869
1513.33766,0.03859
1511.84787,0.03851
1510.35808,0.04929
1508.86829,0.04352
1507.37850,0.03352
1505.88872,0.03842
1504.39893,0.04080
1502.90914,0.04723
1501.41935,0.05476
1499.92956,0.06953
1498.43977,0.07179
1496.94999,0.06855
1495.46020,0.06023
1493.97041,0.09083
1492.48062,0.11677
1490.99083,0.10109
1489.50104,0.13303
1488.01125,0.12717
1486.52147,0.12133
1485.03168,0.15420
1483.54189,0.18496
1482.05210,0.19173
1480.56231,0.20937
1479.07252,0.23829
1477.58274,0.26086
1476.09295,0.25987
1474.60316,0.24402
1473.11337,0.26858
1471.62358,0.27701
1470.13379,0.27824
1468.64401,0.28820
1467.15422,0.30797
1465.66443,0.32202
1464.17464,0.33609
1462.68485,0.34934
1461.19506,0.39788
1459.70527,0.43158
1458.21549,0.49887
1456.72570,0.54600
1455.23591,0.62057
1453.74612,0.66775
1452.25633,0.70921
1450.76654,0.74985
1449.27676,0.72528
1447.78697,0.68650
1446.29718,0.67324
1444.80739,0.65533
1443.31760,0.63744
1441.82781,0.58473
1440.33802,0.55924
1438.84824,0.52548
1437.35845,0.52129
1435.86866,0.50097
1434.37887,0.50682
1432.88908,0.53967
1431.39929,0.57446
1429.90951,0.65453
1428.41972,0.75375
1426.92993,0.80158
1425.44014,0.86409
1423.95035,0.91100
1422.46056,0.95794
1420.97078,0.95635
1419.48099,0.94459
1417.99120,0.91521
1416.50141,0.93132
1415.01162,0.86056
1413.52183,0.82360
1412.03204,0.78412
1410.54226,0.71428
1409.05247,0.67442
1407.56268,0.61291
1406.07289,0.56715
1404.58310,0.53342
1403.09331,0.49971
1401.60353,0.42491
1400.11374,0.37159
1398.62395,0.34550
1397.13416,0.29882
1395.64437,0.25642
1394.15458,0.21106
1392.66479,0.20037
1391.17501,0.16398
1389.68522,0.12932
1388.19543,0.10659
1386.70564,0.09429
1385.21585,0.08201
1383.72606,0.05595
1382.23628,0.04096
1380.74649,0.03534
1379.25670,0.02401
1377.76691,0.02460
1376.27712,0.00673
1374.78733,0.00993
1373.29755,0.00592
1371.80776,0.00597
1370.31797,0.00636
1368.82818,0.00900
1367.33839,0.01167
1365.84860,0.02265
1364.35881,0.01389
1362.86903,0.04425
1361.37924,0.05360
1359.88945,0.09103
1358.39966,0.12444
1356.90987,0.15256
1355.42008,0.17710
1353.93030,0.26136
1352.44051,0.28372
1350.95072,0.30609
1349.46093,0.36642
1347.97114,0.45100
1346.48135,0.52561
1344.99156,0.58835
1343.50178,0.66641
1342.01199,0.71581
1340.52220,0.81835
1339.03241,0.86865
1337.54262,0.87626
1336.05283,0.90068
1334.56305,0.92513
1333.07326,0.94195
1331.58347,0.95582
1330.09368,0.90915
1328.60389,0.91670
1327.11410,0.89685
1325.62432,0.85259
1324.13453,0.82493
1322.64474,0.78561
1321.15495,0.77181
1319.66516,0.75698
1318.17537,0.74216
1316.68558,0.65215
1315.19580,0.60020
1313.70601,0.57420
1312.21622,0.54184
1310.72643,0.51355
1309.23664,0.47700
1307.74685,0.43282
1306.25707,0.41862
1304.76728,0.39467
1303.27749,0.37075
1301.78770,0.33984
1300.29791,0.29217
1298.80812,0.25897
1297.31834,0.21857
1295.82855,0.16948
1294.33876,0.13252
1292.84897,0.12471
1291.35918,0.12520
1289.86939,0.12412
1288.37960,0.12307
1286.88982,0.08666
1285.40003,0.08513
1283.91024,0.07342
1282.42045,0.06641
1280.93066,0.06537
1279.44087,0.04629
1277.95109,0.05019
1276.46130,0.05071
1274.97151,0.05285
1273.48172,0.05501
1271.99193,0.05199
1270.50214,0.04623
1269.01235,0.05708
1267.52257,0.04712
1266.03278,0.03909
1264.54299,0.03237
1263.05320,0.01993
1261.56341,0.01294
1260.07362,0.00597
1258.58384,0.01416
1257.09405,0.01580
1255.60426,0.00959
1254.11447,0.02126
1252.62468,0.02063
1251.13489,0.01662
1249.64511,0.00881
1248.15532,0.01367
1246.66553,0.01665
1245.17574,0.01965
1243.68595,0.02055
1242.19616,0.00872
1240.70637,0.00670
1239.21659,0.00406
1237.72680,0.01470
1236.23701,0.02622
1234.74722,0.01779
1233.25743,0.01788
1231.76764,0.01799
1230.27786,0.02514
1228.78807,0.03848
1227.29828,0.03357
1225.80849,0.00701
1224.31870,0.00597
1222.82891,0.00633
1221.33912,0.00651
1219.84934,0.01656
1218.35955,0.02663
1216.86976,0.03503
1215.37997,0.04877
1213.89018,0.06061
1212.40039,0.07525
1210.91061,0.06504
1209.42082,0.07037
1207.93103,0.06914
1206.44124,0.06793
1204.95145,0.06781
1203.46166,0.07197
1201.97188,0.06573
1200.48209,0.05739
1198.99230,0.06778
1197.50251,0.06714
1196.01272,0.05080
1194.52293,0.03768
1193.03314,0.02457
1191.54336,0.00597
1190.05357,0.02398
1188.56378,0.00674
1187.07399,0.01609
1185.58420,0.01844
1184.09441,0.01615
1182.60463,0.02058
1181.11484,0.02503
1179.62505,0.01112
1178.13526,0.01169
1176.64547,0.01036
1175.15568,0.00524
1173.66589,0.01490
1172.17611,0.01289
1170.68632,0.01230
1169.19653,0.01172
1167.70674,0.01829
1166.21695,0.00597
1164.72716,0.03119
1163.23738,0.03730
1161.74759,0.04706
1160.25780,0.07065
1158.76801,0.06313
1157.27822,0.05564
1155.78843,0.06825
1154.29865,0.07791
1152.80886,0.09376
1151.31907,0.11962
1149.82928,0.11767
1148.33949,0.12487
1146.84970,0.12435
1145.35991,0.12385
1143.87013,0.11774
1142.38034,0.15331
1140.89055,0.17849
1139.40076,0.18775
1137.91097,0.18408
1136.42118,0.20508
1134.93140,0.21537
1133.44161,0.22568
1131.95182,0.24123
1130.46203,0.24554
1128.97224,0.23585
1127.48245,0.22193
1125.99266,0.24246
1124.50288,0.24347
1123.01309,0.25140
1121.52330,0.25936
1120.03351,0.23876
1118.54372,0.24943
1117.05393,0.24800
1115.56415,0.25807
1114.07436,0.25479
1112.58457,0.25938
1111.09478,0.26400
1109.60499,0.24570
1108.11520,0.22848
1106.62542,0.23466
1105.13563,0.24066
1103.64584,0.24242
1102.15605,0.25229
1100.66626,0.24390
1099.17647,0.23554
1097.68668,0.22763
1096.19690,0.22845
1094.70711,0.22377
1093.21732,0.22337
1091.72753,0.19664
1090.23774,0.19608
1088.74795,0.19553
1087.25817,0.19480
1085.76838,0.19494
1084.27859,0.20935
1082.78880,0.21464
1081.29901,0.21613
1079.80922,0.21509
1078.31943,0.21301
1076.82965,0.21096
1075.33986,0.23677
1073.85007,0.23902
1072.36028,0.25701
1070.87049,0.26335
1069.38070,0.30476
1067.89092,0.32867
1066.40113,0.35261
1064.91134,0.40642
1063.42155,0.51976
1061.93176,0.60995
1060.44197,0.70655
1058.95219,0.77215
1057.46240,0.81567
1055.97261,0.85921
1054.48282,1.00775
1052.99303,1.08853
1051.50324,1.07924
1050.01345,1.02811
1048.52367,1.00378
1047.03388,0.99190
1045.54409,0.98005
1044.05430,0.95239
1042.56451,0.85570
1041.07472,0.77454
1039.58494,0.72443
1038.09515,0.62292
1036.60536,0.58869
1035.11557,0.55448
1033.62578,0.48300
1032.13599,0.40752
1030.64620,0.35500
1029.15642,0.28211
1027.66663,0.27734
1026.17684,0.27260
1024.68705,0.24228
1023.19726,0.21156
1021.70747,0.17215
1020.21769,0.15104
1018.72790,0.14567
1017.23811,0.13321
1015.74832,0.12078
1014.25853,0.11358
1012.76874,0.10746
1011.27896,0.11900
1009.78917,0.09423
1008.29938,0.06120
1006.80959,0.05157
1005.31980,0.04196
1003.83001,0.02451
1002.34022,0.03279
1000.85044,0.03877
999.36065,0.04625
997.87086,0.05164
996.38107,0.05705
994.89128,0.08309
993.40149,0.10193
991.91171,0.10316
990.42192,0.13056
988.93213,0.14373
987.44234,0.15630
985.95255,0.16889
984.46276,0.16663
982.97297,0.15483
981.48319,0.13583
979.99340,0.09156
978.50361,0.08759
977.01382,0.08364
975.52403,0.04859
974.03424,0.05330
972.54446,0.02637
971.05467,0.02177
969.56488,0.01508
968.07509,0.01531
966.58530,0.01557
965.09551,0.00597
963.60573,0.00892
962.11594,0.01402
960.62615,0.00555
959.13636,0.00730
957.64657,0.00908
956.15678,0.01704
954.66699,0.01971
953.17721,0.01815
951.68742,0.02449
950.19763,0.03701
948.70784,0.04955
947.21805,0.05149
945.72826,0.06770
944.23848,0.08180
942.74869,0.10761
941.25890,0.12707
939.76911,0.14029
938.27932,0.15354
936.78953,0.17010
935.29974,0.15757
933.80996,0.17545
932.32017,0.18401
930.83038,0.18940
929.34059,0.19482
927.85080,0.21004
926.36101,0.25120
924.87123,0.27645
923.38144,0.31915
921.89165,0.34711
920.40186,0.37509
918.91207,0.50987
917.42228,0.64574
915.93250,0.77398
914.44271,1.02103
912.95292,1.14443
911.46313,1.26785
909.97334,1.50520
908.48355,1.71324
906.99376,1.86012
905.50398,2.00000
904.01419,1.98968
902.52440,1.97938
901.03461,1.97633
899.54482,1.91657
898.05503,1.82113
896.56525,1.60673
895.07546,1.48680
893.58567,1.36689
892.09588,1.08817
890.60609,0.85240
889.11630,0.65597
887.62651,0.47145
886.13673,0.41690
884.64694,0.36238
883.15715,0.25188
881.66736,0.18094
880.17757,0.13700
878.68778,0.12932
877.19800,0.12166
875.70821,0.09118
874.21842,0.07177
872.72863,0.04751
871.23884,0.03984
869.74905,0.03697
868.25927,0.03413
866.76948,0.03206
865.27969,0.02938
863.78990,0.03819
862.30011,0.05552
860.81032,0.06353
859.32053,0.07157
857.83075,0.09408
856.34096,0.10280
854.85117,0.13428
853.36138,0.14411
851.87159,0.15396
850.38180,0.16384
848.89202,0.18968
847.40223,0.21385
845.91244,0.22550
844.42265,0.23356
842.93286,0.24165
841.44307,0.26187
839.95329,0.28318
838.46350,0.31747
836.97371,0.29888
835.48392,0.29710
833.99413,0.29534
832.50434,0.30211
831.01455,0.27979
829.52477,0.26897
828.03498,0.23586
826.54519,0.22275
825.05540,0.20966
823.56561,0.17429
822.07582,0.17761
820.58604,0.14930
819.09625,0.14821
817.60646,0.14714
816.11667,0.14567
814.62688,0.15677
813.13709,0.15577
811.64730,0.16457
810.15752,0.16150
808.66773,0.15845
807.17794,0.15543
805.68815,0.15604
804.19836,0.16242
802.70857,0.16255
801.21879,0.16270
799.72900,0.15980
798.23921,0.15160
796.74942,0.13642
795.25963,0.13561
793.76984,0.13482
792.28006,0.15669
790.79027,0.17093
789.30048,0.17393
787.81069,0.21350
786.32090,0.23164
784.83111,0.24980
783.34132,0.31388
781.85154,0.34123
780.36175,0.37773
778.87196,0.39408
777.38217,0.41045
775.89238,0.43364
774.40259,0.42413
772.91281,0.41444
771.42302,0.40051
769.93323,0.38662
768.44344,0.36573
766.95365,0.29005
765.46386,0.25051
763.97407,0.19336
762.48429,0.17809
760.99450,0.16285
759.50471,0.14530
758.01492,0.12416
756.52513,0.10984
755.03534,0.10266
753.54556,0.09551
752.05577,0.07446
750.56598,0.07150
749.07619,0.04774
747.58640,0.04770
746.09661,0.04768
744.60683,0.02314
743.11704,0.02221
741.62725,0.02449
740.13746,0.01522
738.64767,0.00597
737.15788,0.01266
735.66809,0.01491
734.17831,0.01464
732.68852,0.01418
731.19873,0.01374
729.70894,0.00737
728.21915,0.00656
726.72936,0.01018
725.23958,0.00597
723.74979,0.01055
722.26000,0.01516
720.77021,0.00460
719.28042,0.00617
717.79063,0.00565
716.30084,0.01003
714.81106,0.01444
713.32127,0.00400
711.83148,0.00187
710.34169,0.03210
708.85190,0.02485
707.36211,0.01763
705.87233,0.01394
704.38254,0.02599
702.89275,0.04147
701.40296,0.04752
699.91317,0.05359
698.42338,0.05320
696.93360,0.06452
695.44381,0.09223
693.95402,0.09883
692.46423,0.10544
690.97444,0.11495
689.48465,0.13447
687.99486,0.16442
686.50508,0.17857
685.01529,0.19274
683.52550,0.20917
682.03571,0.25431
680.54592,0.26165
679.05613,0.25478
677.56635,0.24793
676.07656,0.24832
674.58677,0.25895
673.09698,0.21668
671.60719,0.20037
670.11740,0.18407
668.62761,0.18034
667.13783,0.14880
665.64804,0.14491
664.15825,0.14103
662.66846,0.09809
661.17867,0.07705
659.68888,0.04946
658.19910,0.04919
656.70931,0.04894
655.21952,0.04776
653.72973,0.03535
652.23994,0.04718
650.75015,0.04395
649.26037,0.04075
647.77058,0.03841
646.28079,0.03079
644.79100,0.03340
643.30121,0.02975
641.81142,0.02614
640.32163,0.03752
638.83185,0.04107
637.34206,0.02234
635.85227,0.01414
634.36248,0.00597
632.87269,0.01438
631.38290,0.01941
629.89312,0.01001
628.40333,0.00819
626.91354,0.00638
625.42375,0.00365
623.93396,0.00243
622.44417,0.01546
620.95438,0.02852
619.46460,0.03821
617.97481,0.05833
616.48502,0.06445
614.99523,0.06507
613.50544,0.06572
612.01565,0.11654
610.52587,0.16164
609.03608,0.18934
607.54629,0.20963
606.05650,0.22995
604.56671,0.28258
603.07692,0.34247
601.58714,0.37125
600.09735,0.40005
598.60756,0.42898
597.11777,0.44774
595.62798,0.47842
594.13819,0.45813
592.64840,0.43787
591.15862,0.39085
589.66883,0.32515
588.17904,0.26267
586.68925,0.23028
585.19946,0.19792
583.70967,0.14337
582.21989,0.12540
580.73010,0.10043
579.24031,0.07549
577.75052,0.06928
576.26073,0.04205
574.77094,0.03737
573.28115,0.03101
571.79137,0.02468
570.30158,0.05768
568.81179,0.08030
567.32200,0.07978
565.83221,0.07928
564.34242,0.11046
562.85264,0.12935
561.36285,0.14571
559.87306,0.16018
558.38327,0.17468
556.89348,0.17007
555.40369,0.19630
553.91391,0.18176
552.42412,0.16724
550.93433,0.18015
549.44454,0.18863
547.95475,0.21711
546.46496,0.22107
544.97517,0.22505
543.48539,0.25083
541.99560,0.25964
540.50581,0.27974
539.01602,0.29986
537.52623,0.32765
536.03644,0.38819
534.54666,0.40159
533.05687,0.42170
531.56708,0.44183
530.07729,0.49460
528.58750,0.54443
527.09771,0.58312
525.60792,0.62184
524.11814,0.69043
522.62835,0.72187
521.13856,0.79306
519.64877,0.80988
518.15898,0.82673
516.66919,0.85443
515.17941,0.80758
513.68962,0.81812
512.19983,0.82868
510.71004,0.79359
509.22025,0.73854
507.73046,0.69542
506.24068,0.64967
504.75089,0.60393
503.26110,0.46675
501.77131,0.35998
500.28152,0.32378
498.79173,0.28760
497.30194,0.22424
495.81216,0.16623
494.32237,0.14563
492.83258,0.12506
491.34279,0.07923
489.85300,0.06147
488.36321,0.06137
486.87343,0.06246
485.38364,0.06358
483.89385,0.06483
482.40406,0.10137
480.91427,0.10681
479.42448,0.11227
477.93469,0.13550
476.44491,0.15812
474.95512,0.17205
473.46533,0.18600
471.97554,0.20741
470.48575,0.20590
468.99596,0.20675
467.50618,0.19520
466.01639,0.18367
464.52660,0.12509
463.03681,0.09608
461.54702,0.08791
460.05723,0.07977
458.56745,0.03977
457.07766,0.00597
455.58787,0.01444
454.09808,0.02293
452.60829,0.01710
451.11850,0.02533
449.62871,0.01880
448.13893,0.01231
446.64914,0.01954
445.15935,0.01426
443.66956,0.00050
442.17977,0.01434
440.68998,0.02821
439.20020,0.01490
437.71041,0.00990
436.22062,0.01937
434.73083,0.02887
433.24104,0.03457
431.75125,0.03222
430.26146,0.03106
428.77168,0.02992
427.28189,0.01957
425.79210,0.03410
424.30231,0.03166
422.81252,0.02924
421.32273,0.04681
419.83295,0.04338
418.34316,0.03476
416.85337,0.02617
415.36358,0.01303
413.87379,0.01330
412.38400,0.02178
410.89422,0.03028
409.40443,0.05570
407.91464,0.02229
406.42485,0.02736
404.93506,0.02437
403.44527,0.02142
401.95548,0.03442
400.46570,0.03873
398.97591,0.04031
397.48612,0.04191
395.99633,0.05246
394.50654,0.04943
393.01675,0.03835
391.52697,0.02730
390.03718,0.02732
388.54739,0.02715
387.05760,0.03020
385.56781,0.03326
384.07802,0.00597
382.58824,0.02351
381.09845,0.03608
379.60866,0.04868
378.11887,0.04611
376.62908,0.05143
375.13929,0.03509
373.64950,0.01878
372.15972,0.03670
370.66993,0.02554
369.18014,0.02226
367.69035,0.01901
366.20056,0.02088
364.71077,0.01852
363.22099,0.01556
361.73120,0.01261
360.24141,0.00778
358.75162,0.04844
357.26183,0.05726
355.77204,0.06610
354.28225,0.04393
352.79247,0.08108
351.30268,0.07331
349.81289,0.06557
348.32310,0.06305
346.83331,0.04866
345.34352,0.05097
343.85374,0.05331
342.36395,0.06321
340.87416,0.04318
339.38437,0.05016
337.89458,0.05716
336.40479,0.03614
334.91501,0.03469
333.42522,0.02296
331.93543,0.01125
330.44564,0.00775
328.95585,0.00597
327.46606,0.01456
325.97627,0.02318
324.48649,0.04642
322.99670,0.08328
321.50691,0.07161
320.01712,0.05997
318.52733,0.04697
317.03754,0.05822
315.54776,0.05525
314.05797,0.05231
312.56818,0.01391
311.07839,0.01761
309.58860,0.01708
308.09881,0.01657
306.60902,0.02543
305.11924,0.03581
303.62945,0.02167
302.13966,0.00755
300.64987,0.02747
299.16008,0.00597
