1778.52000,0.01713
1777.03021,0.01000
1775.54042,0.01830
1774.05063,0.01742
1772.56085,0.01296
1771.07106,0.01413
1769.58127,0.01933
1768.09148,0.00993
1766.60169,0.01098
1765.11190,0.01865
1763.62212,0.00933
1762.13233,0.00904
1760.64254,0.01358
1759.15275,0.00273
1757.66296,0.00652
1756.17317,0.00293
1754.68339,0.00096
1753.19360,0.00522
1751.70381,0.00771
1750.21402,0.00922
1748.72423,0.01015
1747.23444,0.00650
1745.74465,0.00127
1744.25487,0.00508
1742.76508,0.00310
1741.27529,0.00276
1739.78550,0.00243
1738.29571,0.00273
1736.80592,0.00839
1735.31614,0.00466
1733.82635,0.00316
1732.33656,0.00589
1730.84677,0.00644
1729.35698,0.00521
1727.86719,0.00000
1726.37740,0.00162
1724.88762,0.01509
1723.39783,0.00274
1721.90804,0.00003
1720.41825,0.00035
1718.92846,0.00550
1717.43867,0.00106
1715.94889,0.00260
1714.45910,0.00276
1712.96931,0.00335
1711.47952,0.00572
1709.98973,0.00051
1708.49994,0.00293
1707.01016,0.00748
1705.52037,0.01205
1704.03058,0.01415
1702.54079,0.00866
1701.05100,0.00599
1699.56121,0.00215
1698.07142,0.00654
1696.58164,0.00555
1695.09185,0.01160
1693.60206,0.01306
1692.11227,0.00273
1690.62248,0.01128
1689.13269,0.00583
1687.64291,0.01262
1686.15312,0.00761
1684.66333,0.02507
1683.17354,0.02011
1681.68375,0.01559
1680.19396,0.01869
1678.70417,0.02262
1677.21439,0.02738
1675.72460,0.03917
1674.23481,0.03937
1672.74502,0.03078
1671.25523,0.04445
1669.76544,0.05834
1668.27566,0.04642
1666.78587,0.04333
1665.29608,0.05449
1663.80629,0.05366
1662.31650,0.06026
1660.82671,0.06508
1659.33693,0.06092
1657.84714,0.05938
1656.35735,0.05867
1654.86756,0.06379
1653.37777,0.07253
1651.88798,0.07250
1650.39819,0.06667
1648.90841,0.06408
1647.41862,0.06351
1645.92883,0.06738
1644.43904,0.07126
1642.94925,0.07778
1641.45946,0.06870
1639.96968,0.07206
1638.47989,0.06763
1636.99010,0.07024
1635.50031,0.06966
1634.01052,0.05910
1632.52073,0.07339
1631.03094,0.07069
1629.54116,0.06901
1628.05137,0.06836
1626.56158,0.08175
1625.07179,0.09075
1623.58200,0.07035
1622.09221,0.08641
1620.60243,0.08408
1619.11264,0.07877
1617.62285,0.07908
1616.13306,0.07222
1614.64327,0.07158
1613.15348,0.07758
1611.66370,0.06918
1610.17391,0.06922
1608.68412,0.08690
1607.19433,0.07918
1605.70454,0.08910
1604.21475,0.08323
1602.72496,0.07738
1601.23518,0.07977
1599.74539,0.06455
1598.25560,0.07219
1596.76581,0.06584
1595.27602,0.06572
1593.78623,0.06803
1592.29645,0.06976
1590.80666,0.05769
1589.31687,0.05587
1587.82708,0.06588
1586.33729,0.05629
1584.84750,0.06976
1583.35771,0.06222
1581.86793,0.05751
1580.37814,0.06024
1578.88835,0.05357
1577.39856,0.04433
1575.90877,0.04553
1574.41898,0.05075
1572.92920,0.05019
1571.43941,0.04025
1569.94962,0.03263
1568.45983,0.02503
1566.97004,0.03698
1565.48025,0.02673
1563.99047,0.02892
1562.50068,0.02893
1561.01089,0.03618
1559.52110,0.03063
1558.03131,0.03172
1556.54152,0.02241
1555.05173,0.02675
1553.56195,0.02310
1552.07216,0.02068
1550.58237,0.01107
1549.09258,0.01430
1547.60279,0.00875
1546.11300,0.00161
1544.62322,0.00031
1543.13343,0.00119
1541.64364,0.01550
1540.15385,0.00910
1538.66406,0.00273
1537.17427,0.00914
1535.68448,0.01096
1534.19470,0.01542
1532.70491,0.01549
1531.21512,0.00878
1529.72533,0.02011
1528.23554,0.01084
1526.74575,0.01021
1525.25597,0.01140
1523.76618,0.01623
1522.27639,0.02027
1520.78660,0.02695
1519.29681,0.03425
1517.80702,0.03055
1516.31724,0.03810
1514.82745,0.03646
1513.33766,0.04005
1511.84787,0.04367
1510.35808,0.03369
1508.86829,0.04095
1507.37850,0.03303
1505.88872,0.04595
1504.39893,0.05009
1502.90914,0.05585
1501.41935,0.05603
1499.92956,0.07085
1498.43977,0.07168
1496.94999,0.06012
1495.46020,0.07561
1493.97041,0.09734
1492.48062,0.09846
1490.99083,0.10883
1489.50104,0.11421
1488.01125,0.12391
1486.52147,0.13365
1485.03168,0.15712
1483.54189,0.18102
1482.05210,0.18953
1480.56231,0.21568
1479.07252,0.21061
1477.58274,0.23040
1476.09295,0.23079
1474.60316,0.22360
1473.11337,0.24747
1471.62358,0.24853
1470.13379,0.26924
1468.64401,0.29138
1467.15422,0.30814
1465.66443,0.32512
1464.17464,0.34213
1462.68485,0.38218
1461.19506,0.41806
1459.70527,0.44635
1458.21549,0.50571
1456.72570,0.56449
1455.23591,0.59786
1453.74612,0.62204
1452.25633,0.64044
1450.76654,0.67930
1449.27676,0.68473
1447.78697,0.68197
1446.29718,0.65361
1444.80739,0.64419
1443.31760,0.63480
1441.82781,0.59730
1440.33802,0.57684
1438.84824,0.50274
1437.35845,0.48474
1435.86866,0.49239
1434.37887,0.51048
1432.88908,0.53680
1431.39929,0.60521
1429.90951,0.66943
1428.41972,0.72286
1426.92993,0.78112
1425.44014,0.84682
1423.95035,0.86117
1422.46056,0.87555
1420.97078,0.92530
1419.48099,0.89617
1417.99120,0.89250
1416.50141,0.91108
1415.01162,0.89183
1413.52183,0.85499
1412.03204,0.81176
1410.54226,0.72550
1409.05247,0.66350
1407.56268,0.64117
1406.07289,0.54838
1404.58310,0.53231
1403.09331,0.51626
1401.60353,0.43455
1400.11374,0.40213
1398.62395,0.36853
1397.13416,0.31293
1395.64437,0.25335
1394.15458,0.21722
1392.66479,0.17611
1391.17501,0.16226
1389.68522,0.12581
1388.19543,0.10920
1386.70564,0.10393
1385.21585,0.09869
1383.72606,0.07595
1382.23628,0.05503
1380.74649,0.03034
1379.25670,0.02129
1377.76691,0.01126
1376.27712,0.01006
1374.78733,0.00990
1373.29755,0.00675
1371.80776,0.00583
1370.31797,0.00273
1368.82818,0.00308
1367.33839,0.00345
1365.84860,0.01226
1364.35881,0.02189
1362.86903,0.03696
1361.37924,0.06426
1359.88945,0.06896
1358.39966,0.10693
1356.90987,0.13891
1355.42008,0.16831
1353.93030,0.20956
1352.44051,0.24361
1350.95072,0.27770
1349.46093,0.34625
1347.97114,0.41502
1346.48135,0.48442
1344.99156,0.55365
1343.50178,0.61488
1342.01199,0.68576
1340.52220,0.73703
1339.03241,0.82758
1337.54262,0.84145
1336.05283,0.84994
1334.56305,0.85846
1333.07326,0.88843
1331.58347,0.91521
1330.09368,0.94042
1328.60389,0.92540
1327.11410,0.86555
1325.62432,0.83195
1324.13453,0.79518
1322.64474,0.79167
1321.15495,0.73452
1319.66516,0.71584
1318.17537,0.69719
1316.68558,0.64391
1315.19580,0.58205
1313.70601,0.52382
1312.21622,0.50145
1310.72643,0.47051
1309.23664,0.45860
1307.74685,0.43631
1306.25707,0.38922
1304.76728,0.36637
1303.27749,0.34356
1301.78770,0.30414
1300.29791,0.25494
1298.80812,0.21777
1297.31834,0.18203
1295.82855,0.15033
1294.33876,0.13266
1292.84897,0.12002
1291.35918,0.10361
1289.86939,0.10023
1288.37960,0.09688
1286.88982,0.08634
1285.40003,0.08224
1283.91024,0.07936
1282.42045,0.05988
1280.93066,0.04804
1279.44087,0.03983
1277.95109,0.04005
1276.46130,0.04210
1274.97151,0.04087
1273.48172,0.03966
1271.99193,0.02817
1270.50214,0.02430
1269.01235,0.03048
1267.52257,0.02827
1266.03278,0.02488
1264.54299,0.02692
1263.05320,0.02298
1261.56341,0.01205
1260.07362,0.00115
1258.58384,0.00990
1257.09405,0.01346
1255.60426,0.01425
1254.11447,0.01446
1252.62468,0.01269
1251.13489,0.00273
1249.64511,0.01963
1248.15532,0.01612
1246.66553,0.02025
1245.17574,0.02440
1243.68595,0.00474
1242.19616,0.00668
1240.70637,0.00764
1239.21659,0.01663
1237.72680,0.01163
1236.23701,0.02267
1234.74722,0.03134
1233.25743,0.02341
1231.76764,0.01550
1230.27786,0.01803
1228.78807,0.02639
1227.29828,0.01094
1225.80849,0.00273
1224.31870,0.01179
1222.82891,0.00665
1221.33912,0.01796
1219.84934,0.02208
1218.35955,0.02622
1216.86976,0.05202
1215.37997,0.05682
1213.89018,0.07626
1212.40039,0.07910
1210.91061,0.06795
1209.42082,0.06863
1207.93103,0.06494
1206.44124,0.06127
1204.95145,0.05341
1203.46166,0.05820
1201.97188,0.04720
1200.48209,0.05223
1198.99230,0.03647
1197.50251,0.04276
1196.01272,0.03325
1194.52293,0.02436
1193.03314,0.01550
1191.54336,0.01608
1190.05357,0.00326
1188.56378,0.00529
1187.07399,0.02116
1185.58420,0.01442
1184.09441,0.02273
1182.60463,0.01704
1181.11484,0.01138
1179.62505,0.01135
1178.13526,0.00273
1176.64547,0.00905
1175.15568,0.01920
1173.66589,0.02638
1172.17611,0.00273
1170.68632,0.00486
1169.19653,0.00702
1167.70674,0.00770
1166.21695,0.02463
1164.72716,0.02936
1163.23738,0.03472
1161.74759,0.04751
1160.25780,0.05512
1158.76801,0.05214
1157.27822,0.04918
1155.78843,0.08270
1154.29865,0.07078
1152.80886,0.07731
1151.31907,0.08787
1149.82928,0.09444
1148.33949,0.10305
1146.84970,0.10086
1145.35991,0.09870
1143.87013,0.13862
1142.38034,0.13730
1140.89055,0.15744
1139.40076,0.15358
1137.91097,0.16996
1136.42118,0.18617
1134.93140,0.19569
1133.44161,0.20524
1131.95182,0.20510
1130.46203,0.23201
1128.97224,0.23012
1127.48245,0.22404
1125.99266,0.23922
1124.50288,0.22458
1123.01309,0.21347
1121.52330,0.20238
1120.03351,0.21405
1118.54372,0.22193
1117.05393,0.21923
1115.56415,0.23097
1114.07436,0.22931
1112.58457,0.22959
1111.09478,0.22989
1109.60499,0.20788
1108.11520,0.21593
1106.62542,0.21961
1105.13563,0.21269
1103.64584,0.22503
1102.15605,0.20594
1100.66626,0.20030
1099.17647,0.19468
1097.68668,0.19750
1096.19690,0.19614
1094.70711,0.21563
1093.21732,0.22172
1091.72753,0.18599
1090.23774,0.18702
1088.74795,0.18808
1087.25817,0.18226
1085.76838,0.16945
1084.27859,0.18150
1082.78880,0.17615
1081.29901,0.20426
1079.80922,0.21038
1078.31943,0.20380
1076.82965,0.19724
1075.33986,0.19822
1073.85007,0.20823
1072.36028,0.22127
1070.87049,0.25176
1069.38070,0.27387
1067.89092,0.29279
1066.40113,0.31173
1064.91134,0.34753
1063.42155,0.41518
1061.93176,0.52692
1060.44197,0.61425
1058.95219,0.73906
1057.46240,0.78799
1055.97261,0.83694
1054.48282,0.91676
1052.99303,0.98659
1051.50324,0.98174
1050.01345,1.00736
1048.52367,0.96973
1047.03388,0.95905
1045.54409,0.94840
1044.05430,0.91424
1042.56451,0.82203
1041.07472,0.77690
1039.58494,0.66351
1038.09515,0.59781
1036.60536,0.57388
1035.11557,0.54998
1033.62578,0.49456
1032.13599,0.42975
1030.64620,0.36117
1029.15642,0.31644
1027.66663,0.29225
1026.17684,0.26810
1024.68705,0.23345
1023.19726,0.20003
1021.70747,0.17464
1020.21769,0.15128
1018.72790,0.14858
1017.23811,0.13618
1015.74832,0.12381
1014.25853,0.10054
1012.76874,0.10634
1011.27896,0.11297
1009.78917,0.10480
1008.29938,0.08103
1006.80959,0.07381
1005.31980,0.06661
1003.83001,0.02489
1002.34022,0.02425
1000.85044,0.01863
999.36065,0.04528
997.87086,0.04361
996.38107,0.04196
994.89128,0.06027
993.40149,0.09061
991.91171,0.08794
990.42192,0.11252
988.93213,0.13853
987.44234,0.14034
985.95255,0.14217
984.46276,0.14142
982.97297,0.13088
981.48319,0.10454
979.99340,0.07923
978.50361,0.07818
977.01382,0.07715
975.52403,0.04571
974.03424,0.02790
972.54446,0.02474
971.05467,0.00899
969.56488,0.00748
968.07509,0.00509
966.58530,0.00273
965.09551,0.01945
963.60573,0.02318
962.11594,0.01792
960.62615,0.01209
959.13636,0.01398
957.64657,0.01591
956.15678,0.01715
954.66699,0.02944
953.17721,0.03414
951.68742,0.02764
950.19763,0.03690
948.70784,0.04617
947.21805,0.05938
945.72826,0.07261
944.23848,0.08046
942.74869,0.11116
941.25890,0.13147
939.76911,0.14060
938.27932,0.14974
936.78953,0.17714
935.29974,0.18693
933.80996,0.18353
932.32017,0.19298
930.83038,0.19764
929.34059,0.20232
927.85080,0.21825
926.36101,0.24461
924.87123,0.29482
923.38144,0.35508
921.89165,0.39072
920.40186,0.42639
918.91207,0.49373
917.42228,0.61236
915.93250,0.76505
914.44271,0.97344
912.95292,1.08863
911.46313,1.20385
909.97334,1.37366
908.48355,1.58716
906.99376,1.79527
905.50398,1.91008
904.01419,1.95503
902.52440,2.00000
901.03461,1.95949
899.54482,1.88195
898.05503,1.76539
896.56525,1.59077
895.07546,1.49088
893.58567,1.39101
892.09588,1.13116
890.60609,0.84770
889.11630,0.65017
887.62651,0.49253
886.13673,0.43303
884.64694,0.37356
883.15715,0.26665
881.66736,0.18920
880.17757,0.11638
878.68778,0.10937
877.19800,0.10239
875.70821,0.08772
874.21842,0.06146
872.72863,0.05004
871.23884,0.03945
869.74905,0.03069
868.25927,0.02194
866.76948,0.00582
865.27969,0.00273
863.78990,0.03044
862.30011,0.03535
860.81032,0.04649
859.32053,0.05766
857.83075,0.05503
856.34096,0.07986
854.85117,0.11953
853.36138,0.11657
851.87159,0.12976
850.38180,0.14297
848.89202,0.15871
847.40223,0.16787
845.91244,0.18986
844.42265,0.19496
842.93286,0.20009
841.44307,0.21555
839.95329,0.23844
838.46350,0.25174
836.97371,0.25686
835.48392,0.26962
833.99413,0.28239
832.50434,0.26716
831.01455,0.25175
829.52477,0.21614
828.03498,0.16473
826.54519,0.16421
825.05540,0.16371
823.56561,0.16504
822.07582,0.14257
820.58604,0.13734
819.09625,0.12473
817.60646,0.11214
816.11667,0.11399
814.62688,0.11587
813.13709,0.13739
811.64730,0.14693
810.15752,0.14838
808.66773,0.14985
807.17794,0.14384
805.68815,0.13465
804.19836,0.12828
802.70857,0.13366
801.21879,0.13906
799.72900,0.13998
798.23921,0.11268
796.74942,0.10844
795.25963,0.11113
793.76984,0.11385
792.28006,0.14112
790.79027,0.13818
789.30048,0.15609
787.81069,0.17362
786.32090,0.19408
784.83111,0.21456
783.34132,0.24999
781.85154,0.27543
780.36175,0.33214
778.87196,0.34601
777.38217,0.35991
775.89238,0.34959
774.40259,0.37095
772.91281,0.38412
771.42302,0.37178
769.93323,0.35946
768.44344,0.32885
766.95365,0.25059
765.46386,0.21542
763.97407,0.16145
762.48429,0.15105
760.99450,0.14068
759.50471,0.12283
758.01492,0.11181
756.52513,0.11343
755.03534,0.10135
753.54556,0.08930
752.05577,0.08439
750.56598,0.07008
749.07619,0.05380
747.58640,0.05046
746.09661,0.04714
744.60683,0.02392
743.11704,0.02455
741.62725,0.01841
740.13746,0.02610
738.64767,0.03382
737.15788,0.02353
735.66809,0.00987
734.17831,0.00785
732.68852,0.00585
731.19873,0.00387
729.70894,0.01373
728.21915,0.00938
726.72936,0.00426
725.23958,0.02337
723.74979,0.02158
722.26000,0.01981
720.77021,0.01697
719.28042,0.00273
717.79063,0.00660
716.30084,0.00598
714.81106,0.00539
713.32127,0.01513
711.83148,0.02470
710.34169,0.03289
708.85190,0.03160
707.36211,0.03033
705.87233,0.01256
704.38254,0.02024
702.89275,0.02595
701.40296,0.02478
699.91317,0.02363
698.42338,0.05244
696.93360,0.08228
695.44381,0.10753
693.95402,0.10708
692.46423,0.10665
690.97444,0.12937
689.48465,0.14792
687.99486,0.15347
686.50508,0.16265
685.01529,0.17185
683.52550,0.20190
682.03571,0.25061
680.54592,0.24847
679.05613,0.25366
677.56635,0.25888
676.07656,0.24921
674.58677,0.24236
673.09698,0.21952
671.60719,0.21432
670.11740,0.20915
668.62761,0.18157
667.13783,0.16683
665.64804,0.15923
664.15825,0.15165
662.66846,0.09553
661.17867,0.07748
659.68888,0.05225
658.19910,0.04267
656.70931,0.03311
655.21952,0.02217
653.72973,0.03008
652.23994,0.03481
650.75015,0.04246
649.26037,0.05015
647.77058,0.05415
646.28079,0.04956
644.79100,0.04440
643.30121,0.04637
641.81142,0.04836
640.32163,0.05950
638.83185,0.03901
637.34206,0.01575
635.85227,0.00923
634.36248,0.00273
632.87269,0.00362
631.38290,0.01195
629.89312,0.02310
628.40333,0.01976
626.91354,0.01644
625.42375,0.01985
623.93396,0.03250
622.44417,0.03346
620.95438,0.03445
619.46460,0.03776
617.97481,0.06492
616.48502,0.08570
614.99523,0.08749
613.50544,0.08929
612.01565,0.11395
610.52587,0.15746
609.03608,0.19879
607.54629,0.20840
606.05650,0.21804
604.56671,0.25303
603.07692,0.31368
601.58714,0.36114
600.09735,0.40862
598.60756,0.43470
597.11777,0.44338
595.62798,0.43206
594.13819,0.41245
592.64840,0.39287
591.15862,0.36980
589.66883,0.34636
588.17904,0.29291
586.68925,0.26091
585.19946,0.22893
583.70967,0.17154
582.21989,0.12860
580.73010,0.11211
579.24031,0.09565
577.75052,0.06299
576.26073,0.06840
574.77094,0.06623
573.28115,0.05918
571.79137,0.05215
570.30158,0.05846
568.81179,0.05378
567.32200,0.07276
565.83221,0.09176
564.34242,0.10859
562.85264,0.13524
561.36285,0.15692
559.87306,0.16050
558.38327,0.16410
556.89348,0.16482
555.40369,0.18860
553.91391,0.20629
552.42412,0.22401
550.93433,0.21882
549.44454,0.20845
547.95475,0.22294
546.46496,0.22513
544.97517,0.22735
543.48539,0.25232
541.99560,0.27131
540.50581,0.28832
539.01602,0.30535
537.52623,0.35124
536.03644,0.40337
534.54666,0.41968
533.05687,0.43390
531.56708,0.44815
530.07729,0.53062
528.58750,0.60009
527.09771,0.60730
525.60792,0.61454
524.11814,0.67988
522.62835,0.73402
521.13856,0.78839
519.64877,0.80744
518.15898,0.82652
516.66919,0.87275
515.17941,0.85032
513.68962,0.85575
512.19983,0.86120
510.71004,0.84666
509.22025,0.79048
507.73046,0.75575
506.24068,0.69111
504.75089,0.62650
503.26110,0.46388
501.77131,0.38960
500.28152,0.34648
498.79173,0.30339
497.30194,0.24140
495.81216,0.20226
494.32237,0.17396
492.83258,0.14568
491.34279,0.14146
489.85300,0.13566
488.36321,0.11026
486.87343,0.09160
485.38364,0.07295
483.89385,0.08127
482.40406,0.09862
480.91427,0.11189
479.42448,0.12519
477.93469,0.14822
476.44491,0.17088
474.95512,0.19195
473.46533,0.21306
471.97554,0.19313
470.48575,0.19525
468.99596,0.20642
467.50618,0.19507
466.01639,0.18375
464.52660,0.15073
463.03681,0.10572
461.54702,0.09767
460.05723,0.08965
458.56745,0.04832
457.07766,0.03284
455.58787,0.03631
454.09808,0.03980
452.60829,0.06064
451.11850,0.04406
449.62871,0.03601
448.13893,0.02798
446.64914,0.02088
445.15935,0.02021
443.66956,0.01156
442.17977,0.02005
440.68998,0.02857
439.20020,0.02640
437.71041,0.02125
436.22062,0.02493
434.73083,0.02864
433.24104,0.00273
431.75125,0.03747
430.26146,0.04820
428.77168,0.05896
427.28189,0.05772
425.79210,0.06192
424.30231,0.05853
422.81252,0.05516
421.32273,0.04962
419.83295,0.05151
418.34316,0.03690
416.85337,0.02232
415.36358,0.01747
413.87379,0.02306
412.38400,0.02978
410.89422,0.03652
409.40443,0.06181
407.91464,0.03105
406.42485,0.04898
404.93506,0.05111
403.44527,0.05327
401.95548,0.05364
400.46570,0.03242
398.97591,0.03875
397.48612,0.04511
395.99633,0.04799
394.50654,0.06551
393.01675,0.05441
391.52697,0.04335
390.03718,0.04732
388.54739,0.03931
387.05760,0.03292
385.56781,0.02655
384.07802,0.04109
382.58824,0.03382
381.09845,0.04209
379.60866,0.05039
378.11887,0.02918
376.62908,0.00899
375.13929,0.00585
373.64950,0.00273
372.15972,0.02272
370.66993,0.03973
369.18014,0.03062
367.69035,0.02153
366.20056,0.03030
364.71077,0.05130
363.22099,0.03968
361.73120,0.02809
360.24141,0.04376
358.75162,0.05905
357.26183,0.06316
355.77204,0.06728
354.28225,0.05501
352.79247,0.06119
351.30268,0.06288
349.81289,0.06460
348.32310,0.06184
346.83331,0.05029
345.34352,0.05449
343.85374,0.05871
342.36395,0.07306
340.87416,0.02837
339.38437,0.01554
337.89458,0.00273
336.40479,0.00237
334.91501,0.00264
333.42522,0.01075
331.93543,0.01887
330.44564,0.01821
328.95585,0.03700
327.46606,0.03098
325.97627,0.02499
324.48649,0.02062
322.99670,0.01948
321.50691,0.02397
320.01712,0.02849
318.52733,0.06467
317.03754,0.04680
315.54776,0.05550
314.05797,0.06422
312.56818,0.08027
311.07839,0.05629
309.58860,0.05136
308.09881,0.04646
306.60902,0.03497
305.11924,0.00909
303.62945,0.02469
302.13966,0.04031
300.64987,0.01750
299.16008,0.00273
