1778.52000,0.02082
1777.03021,0.01298
1775.54042,0.01510
1774.05063,0.01909
1772.56085,0.01895
1771.07106,0.01374
1769.58127,0.01850
1768.09148,0.02097
1766.60169,0.01122
1765.11190,0.01305
1763.62212,0.00219
1762.13233,0.01146
1760.64254,0.00805
1759.15275,0.00951
1757.66296,0.01422
1756.17317,0.01527
1754.68339,0.00248
1753.19360,0.01120
1751.70381,0.00955
1750.21402,0.00746
1748.72423,0.01163
1747.23444,0.00589
1745.74465,0.00873
1744.25487,0.01366
1742.76508,0.00615
1741.27529,0.00421
1739.78550,0.00852
1738.29571,0.00755
1736.80592,0.01654
1735.31614,0.00522
1733.82635,0.01617
1732.33656,0.01006
1730.84677,0.00489
1729.35698,0.00483
1727.86719,0.01056
1726.37740,0.00755
1724.88762,0.00433
1723.39783,0.01106
1721.90804,0.00511
1720.41825,0.00219
1718.92846,0.00329
1717.43867,0.00696
1715.94889,0.00718
1714.45910,0.00813
1712.96931,0.00840
1711.47952,0.00084
1709.98973,0.01664
1708.49994,0.01121
1707.01016,0.01331
1705.52037,0.01544
1704.03058,0.00108
1702.54079,0.01097
1701.05100,0.01188
1699.56121,0.01351
1698.07142,0.02140
1696.58164,0.00436
1695.09185,0.01438
1693.60206,0.02072
1692.11227,0.01670
1690.62248,0.01085
1689.13269,0.00710
1687.64291,0.01793
1686.15312,0.02509
1684.66333,0.02118
1683.17354,0.02770
1681.68375,0.03447
1680.19396,0.03017
1678.70417,0.02429
1677.21439,0.02928
1675.72460,0.03730
1674.23481,0.04119
1672.74502,0.03932
1671.25523,0.03725
1669.76544,0.05068
1668.27566,0.05906
1666.78587,0.05452
1665.29608,0.05370
1663.80629,0.07416
1662.31650,0.08101
1660.82671,0.07195
1659.33693,0.07331
1657.84714,0.07354
1656.35735,0.07748
1654.86756,0.06921
1653.37777,0.07760
1651.88798,0.09363
1650.39819,0.09074
1648.90841,0.08511
1647.41862,0.07627
1645.92883,0.07877
1644.43904,0.08129
1642.94925,0.08084
1641.45946,0.08688
1639.96968,0.08924
1638.47989,0.09279
1636.99010,0.07950
1635.50031,0.09025
1634.01052,0.09017
1632.52073,0.09197
1631.03094,0.09817
1629.54116,0.10140
1628.05137,0.09287
1626.56158,0.10655
1625.07179,0.10846
1623.58200,0.11248
1622.09221,0.10359
1620.60243,0.09333
1619.11264,0.10158
1617.62285,0.10870
1616.13306,0.09182
1614.64327,0.09922
1613.15348,0.10618
1611.66370,0.08960
1610.17391,0.09546
1608.68412,0.10134
1607.19433,0.10909
1605.70454,0.09746
1604.21475,0.10502
1602.72496,0.11262
1601.23518,0.10222
1599.74539,0.10200
1598.25560,0.08195
1596.76581,0.08941
1595.27602,0.08742
1593.78623,0.08546
1592.29645,0.09137
1590.80666,0.09015
1589.31687,0.08479
1587.82708,0.06676
1586.33729,0.07900
1584.84750,0.07603
1583.35771,0.08024
1581.86793,0.08448
1580.37814,0.07950
1578.88835,0.06692
1577.39856,0.06199
1575.90877,0.06794
1574.41898,0.04943
1572.92920,0.04526
1571.43941,0.05475
1569.94962,0.04613
1568.45983,0.03753
1566.97004,0.03970
1565.48025,0.03820
1563.99047,0.03695
1562.50068,0.03457
1561.01089,0.02344
1559.52110,0.02804
1558.03131,0.03035
1556.54152,0.01075
1555.05173,0.01796
1553.56195,0.00926
1552.07216,0.01144
1550.58237,0.01780
1549.09258,0.01956
1547.60279,0.01396
1546.11300,0.00123
1544.62322,0.00699
1543.13343,0.00446
1541.64364,0.00219
1540.15385,0.00541
1538.66406,0.00865
1537.17427,0.01953
1535.68448,0.01427
1534.19470,0.01735
1532.70491,0.02438
1531.21512,0.01042
1529.72533,0.01264
1528.23554,0.02621
1526.74575,0.02156
1525.25597,0.02455
1523.76618,0.02526
1522.27639,0.03062
1520.78660,0.02837
1519.29681,0.02915
1517.80702,0.04428
1516.31724,0.04164
1514.82745,0.04781
1513.33766,0.04222
1511.84787,0.03665
1510.35808,0.03296
1508.86829,0.05170
1507.37850,0.04297
1505.88872,0.03358
1504.39893,0.05516
1502.90914,0.06498
1501.41935,0.06767
1499.92956,0.07893
1498.43977,0.06596
1496.94999,0.07634
1495.46020,0.07821
1493.97041,0.10388
1492.48062,0.10325
1490.99083,0.11835
1489.50104,0.13994
1488.01125,0.13661
1486.52147,0.13331
1485.03168,0.16513
1483.54189,0.19467
1482.05210,0.20576
1480.56231,0.21064
1479.07252,0.24349
1477.58274,0.26181
1476.09295,0.27114
1474.60316,0.25279
1473.11337,0.27326
1471.62358,0.25865
1470.13379,0.27524
1468.64401,0.30041
1467.15422,0.32744
1465.66443,0.34607
1464.17464,0.36473
1462.68485,0.40500
1461.19506,0.44461
1459.70527,0.46045
1458.21549,0.51511
1456.72570,0.57881
1455.23591,0.61551
1453.74612,0.66609
1452.25633,0.69176
1450.76654,0.73176
1449.27676,0.72583
1447.78697,0.73170
1446.29718,0.70803
1444.80739,0.68589
1443.31760,0.66377
1441.82781,0.63186
1440.33802,0.57942
1438.84824,0.53023
1437.35845,0.49770
1435.86866,0.50954
1434.37887,0.52071
1432.88908,0.55731
1431.39929,0.60941
1429.90951,0.68948
1428.41972,0.76796
1426.92993,0.82083
1425.44014,0.86517
1423.95035,0.88183
1422.46056,0.89850
1420.97078,0.94523
1419.48099,0.93354
1417.99120,0.92835
1416.50141,0.94004
1415.01162,0.92774
1413.52183,0.88867
1412.03204,0.82675
1410.54226,0.73391
1409.05247,0.67020
1407.56268,0.63307
1406.07289,0.56756
1404.58310,0.54746
1403.09331,0.52738
1401.60353,0.45085
1400.11374,0.40692
1398.62395,0.37086
1397.13416,0.31311
1395.64437,0.26024
1394.15458,0.22680
1392.66479,0.18368
1391.17501,0.15952
1389.68522,0.14370
1388.19543,0.11844
1386.70564,0.10509
1385.21585,0.09177
1383.72606,0.07605
1382.23628,0.05135
1380.74649,0.03059
1379.25670,0.01956
1377.76691,0.02519
1376.27712,0.00912
1374.78733,0.00833
1373.29755,0.01587
1371.80776,0.00219
1370.31797,0.00862
1368.82818,0.01264
1367.33839,0.01668
1365.84860,0.02364
1364.35881,0.02323
1362.86903,0.04825
1361.37924,0.05966
1359.88945,0.08797
1358.39966,0.10705
1356.90987,0.12224
1355.42008,0.16470
1353.93030,0.22636
1352.44051,0.25871
1350.95072,0.29109
1349.46093,0.35975
1347.97114,0.43420
1346.48135,0.50638
1344.99156,0.56449
1343.50178,0.63024
1342.01199,0.71427
1340.52220,0.74566
1339.03241,0.83504
1337.54262,0.87364
1336.05283,0.87900
1334.56305,0.88439
1333.07326,0.95632
1331.58347,0.97053
1330.09368,0.98107
1328.60389,0.96276
1327.11410,0.92693
1325.62432,0.87125
1324.13453,0.84771
1322.64474,0.79000
1321.15495,0.75911
1319.66516,0.75458
1318.17537,0.75007
1316.68558,0.68923
1315.19580,0.60739
1313.70601,0.57316
1312.21622,0.51701
1310.72643,0.50616
1309.23664,0.45398
1307.74685,0.43624
1306.25707,0.41923
1304.76728,0.39576
1303.27749,0.37233
1301.78770,0.32582
1300.29791,0.26155
1298.80812,0.23703
1297.31834,0.20422
1295.82855,0.16958
1294.33876,0.15160
1292.84897,0.13064
1291.35918,0.09747
1289.86939,0.10035
1288.37960,0.10325
1286.88982,0.09417
1285.40003,0.08142
1283.91024,0.08901
1282.42045,0.07238
1280.93066,0.05739
1279.44087,0.04936
1277.95109,0.04920
1276.46130,0.05714
1274.97151,0.05033
1273.48172,0.04355
1271.99193,0.04233
1270.50214,0.05084
1269.01235,0.04043
1267.52257,0.03051
1266.03278,0.03886
1264.54299,0.03799
1263.05320,0.02560
1261.56341,0.02121
1260.07362,0.01683
1258.58384,0.00752
1257.09405,0.00701
1255.60426,0.00906
1254.11447,0.00906
1252.62468,0.01277
1251.13489,0.00219
1249.64511,0.01088
1248.15532,0.01797
1246.66553,0.01828
1245.17574,0.01861
1243.68595,0.01192
1242.19616,0.02326
1240.70637,0.02239
1239.21659,0.00169
1237.72680,0.01957
1236.23701,0.02109
1234.74722,0.04041
1233.25743,0.03146
1231.76764,0.02254
1230.27786,0.02300
1228.78807,0.02948
1227.29828,0.01959
1225.80849,0.01227
1224.31870,0.00219
1222.82891,0.01220
1221.33912,0.01691
1219.84934,0.02638
1218.35955,0.03588
1216.86976,0.05267
1215.37997,0.07273
1213.89018,0.08819
1212.40039,0.08866
1210.91061,0.09331
1209.42082,0.08851
1207.93103,0.08109
1206.44124,0.07369
1204.95145,0.07843
1203.46166,0.05572
1201.97188,0.06445
1200.48209,0.04848
1198.99230,0.05563
1197.50251,0.04826
1196.01272,0.05223
1194.52293,0.05034
1193.03314,0.04847
1191.54336,0.03588
1190.05357,0.02886
1188.56378,0.01609
1187.07399,0.01259
1185.58420,0.03035
1184.09441,0.02020
1182.60463,0.01399
1181.11484,0.00781
1179.62505,0.02105
1178.13526,0.01354
1176.64547,0.01112
1175.15568,0.01035
1173.66589,0.01492
1172.17611,0.01558
1170.68632,0.00887
1169.19653,0.00219
1167.70674,0.02144
1166.21695,0.02386
1164.72716,0.05286
1163.23738,0.06178
1161.74759,0.07790
1160.25780,0.08803
1158.76801,0.07590
1157.27822,0.06379
1155.78843,0.08092
1154.29865,0.09577
1152.80886,0.11064
1151.31907,0.12046
1149.82928,0.11090
1148.33949,0.13831
1146.84970,0.14624
1145.35991,0.15419
1143.87013,0.15396
1142.38034,0.16369
1140.89055,0.17737
1139.40076,0.18600
1137.91097,0.18818
1136.42118,0.21810
1134.93140,0.22829
1133.44161,0.23852
1131.95182,0.24888
1130.46203,0.26203
1128.97224,0.27937
1127.48245,0.28242
1125.99266,0.27555
1124.50288,0.25070
1123.01309,0.25139
1121.52330,0.25210
1120.03351,0.24372
1118.54372,0.23790
1117.05393,0.24804
1115.56415,0.26675
1114.07436,0.26285
1112.58457,0.26464
1111.09478,0.26645
1109.60499,0.24391
1108.11520,0.25466
1106.62542,0.25019
1105.13563,0.25868
1103.64584,0.23601
1102.15605,0.22468
1100.66626,0.22712
1099.17647,0.22959
1097.68668,0.19755
1096.19690,0.21657
1094.70711,0.21877
1093.21732,0.22537
1091.72753,0.21444
1090.23774,0.21659
1088.74795,0.21876
1087.25817,0.21530
1085.76838,0.20101
1084.27859,0.19690
1082.78880,0.20506
1081.29901,0.20839
1079.80922,0.21868
1078.31943,0.23187
1076.82965,0.24510
1075.33986,0.23906
1073.85007,0.25013
1072.36028,0.25453
1070.87049,0.28136
1069.38070,0.30521
1067.89092,0.32678
1066.40113,0.34837
1064.91134,0.38731
1063.42155,0.48332
1061.93176,0.56065
1060.44197,0.71583
1058.95219,0.83548
1057.46240,0.87546
1055.97261,0.91547
1054.48282,0.98945
1052.99303,1.04914
1051.50324,1.07443
1050.01345,1.07296
1048.52367,1.05050
1047.03388,1.03764
1045.54409,1.02481
1044.05430,0.99203
1042.56451,0.89413
1041.07472,0.79557
1039.58494,0.74092
1038.09515,0.66319
1036.60536,0.61378
1035.11557,0.56439
1033.62578,0.49852
1032.13599,0.43659
1030.64620,0.36846
1029.15642,0.33129
1027.66663,0.30501
1026.17684,0.27875
1024.68705,0.24490
1023.19726,0.22816
1021.70747,0.17518
1020.21769,0.16819
1018.72790,0.14806
1017.23811,0.13961
1015.74832,0.13119
1014.25853,0.10051
1012.76874,0.09433
1011.27896,0.10412
1009.78917,0.09175
1008.29938,0.08172
1006.80959,0.07010
1005.31980,0.05850
1003.83001,0.04092
1002.34022,0.03976
1000.85044,0.04279
999.36065,0.04930
997.87086,0.05387
996.38107,0.05847
994.89128,0.08469
993.40149,0.09962
991.91171,0.10394
990.42192,0.12584
988.93213,0.15516
987.44234,0.15459
985.95255,0.15405
984.46276,0.15503
982.97297,0.13617
981.48319,0.12843
979.99340,0.09322
978.50361,0.08795
977.01382,0.08270
975.52403,0.05911
974.03424,0.04848
972.54446,0.02933
971.05467,0.02314
969.56488,0.00219
968.07509,0.00550
966.58530,0.00882
965.09551,0.01806
963.60573,0.00608
962.11594,0.00289
960.62615,0.00089
959.13636,0.00364
957.64657,0.00642
956.15678,0.00403
954.66699,0.00859
953.17721,0.02449
951.68742,0.01893
950.19763,0.02483
948.70784,0.03076
947.21805,0.03798
945.72826,0.07294
944.23848,0.07883
942.74869,0.09859
941.25890,0.11954
939.76911,0.12307
938.27932,0.12663
936.78953,0.15065
935.29974,0.17538
933.80996,0.17220
932.32017,0.16580
930.83038,0.17375
929.34059,0.18173
927.85080,0.20335
926.36101,0.23309
924.87123,0.27416
923.38144,0.34852
921.89165,0.37313
920.40186,0.39776
918.91207,0.49599
917.42228,0.64389
915.93250,0.75856
914.44271,0.97996
912.95292,1.09525
911.46313,1.21057
909.97334,1.42396
908.48355,1.59164
906.99376,1.81155
905.50398,1.91391
904.01419,1.95694
902.52440,2.00000
901.03461,1.97795
899.54482,1.92797
898.05503,1.77501
896.56525,1.63246
895.07546,1.49421
893.58567,1.35599
892.09588,1.13914
890.60609,0.87058
889.11630,0.64686
887.62651,0.49799
886.13673,0.43137
884.64694,0.36477
883.15715,0.27257
881.66736,0.18108
880.17757,0.12448
878.68778,0.11573
877.19800,0.10700
875.70821,0.07750
874.21842,0.07575
872.72863,0.03984
871.23884,0.03790
869.74905,0.02502
868.25927,0.01216
866.76948,0.00360
865.27969,0.01400
863.78990,0.03366
862.30011,0.03672
860.81032,0.04893
859.32053,0.06116
857.83075,0.07053
856.34096,0.10025
854.85117,0.13345
853.36138,0.15375
851.87159,0.15467
850.38180,0.15561
848.89202,0.18407
847.40223,0.18737
845.91244,0.21218
844.42265,0.21760
842.93286,0.22306
841.44307,0.25694
839.95329,0.27515
838.46350,0.29361
836.97371,0.30747
835.48392,0.31501
833.99413,0.32257
832.50434,0.32496
831.01455,0.28465
829.52477,0.24805
828.03498,0.22973
826.54519,0.21893
825.05540,0.20816
823.56561,0.19707
822.07582,0.18577
820.58604,0.16641
819.09625,0.15701
817.60646,0.14763
816.11667,0.15537
814.62688,0.14142
813.13709,0.16861
811.64730,0.18335
810.15752,0.17467
808.66773,0.16601
807.17794,0.16881
805.68815,0.16863
804.19836,0.18234
802.70857,0.17621
801.21879,0.17010
799.72900,0.16193
798.23921,0.15033
796.74942,0.16346
795.25963,0.16103
793.76984,0.15862
792.28006,0.16906
790.79027,0.18437
789.30048,0.18884
787.81069,0.22638
786.32090,0.24742
784.83111,0.26848
783.34132,0.30077
781.85154,0.33424
780.36175,0.38183
778.87196,0.40241
777.38217,0.42302
775.89238,0.45243
774.40259,0.42874
772.91281,0.44850
771.42302,0.44519
769.93323,0.44189
768.44344,0.35917
766.95365,0.31690
765.46386,0.27788
763.97407,0.19593
762.48429,0.18652
760.99450,0.17714
759.50471,0.15716
758.01492,0.13304
756.52513,0.11473
755.03534,0.11041
753.54556,0.10611
752.05577,0.09849
750.56598,0.08559
749.07619,0.05607
747.58640,0.05014
746.09661,0.04424
744.60683,0.04159
743.11704,0.03019
741.62725,0.01166
740.13746,0.02201
738.64767,0.03240
737.15788,0.00285
735.66809,0.00219
734.17831,0.00496
732.68852,0.00475
731.19873,0.00457
729.70894,0.00556
728.21915,0.00219
726.72936,0.00759
725.23958,0.02271
723.74979,0.01406
722.26000,0.00544
720.77021,0.00031
719.28042,0.00967
717.79063,0.01675
716.30084,0.01022
714.81106,0.00372
713.32127,0.02103
711.83148,0.01735
710.34169,0.01393
708.85190,0.01503
707.36211,0.01615
705.87233,0.03289
704.38254,0.03211
702.89275,0.04058
701.40296,0.03880
699.91317,0.03705
698.42338,0.05160
696.93360,0.07472
695.44381,0.09209
693.95402,0.10025
692.46423,0.10843
690.97444,0.14274
689.48465,0.15351
687.99486,0.17562
686.50508,0.17940
685.01529,0.18320
683.52550,0.21554
682.03571,0.23267
680.54592,0.25675
679.05613,0.25672
677.56635,0.25672
676.07656,0.24900
674.58677,0.25216
673.09698,0.22971
671.60719,0.22102
670.11740,0.21236
668.62761,0.18051
667.13783,0.15769
665.64804,0.15522
664.15825,0.15278
662.66846,0.10786
661.17867,0.07683
659.68888,0.05921
658.19910,0.04947
656.70931,0.03976
655.21952,0.03861
653.72973,0.02317
652.23994,0.02393
650.75015,0.03233
649.26037,0.04075
647.77058,0.04181
646.28079,0.03780
644.79100,0.02875
643.30121,0.02433
641.81142,0.01994
640.32163,0.03890
638.83185,0.03433
637.34206,0.01500
635.85227,0.01244
634.36248,0.00990
632.87269,0.00219
631.38290,0.01154
629.89312,0.00636
628.40333,0.00317
626.91354,0.00000
625.42375,0.01314
623.93396,0.00644
622.44417,0.01304
620.95438,0.01967
619.46460,0.01697
617.97481,0.03462
616.48502,0.05945
614.99523,0.06988
613.50544,0.08032
612.01565,0.10430
610.52587,0.14633
609.03608,0.18745
607.54629,0.20007
606.05650,0.21271
604.56671,0.23474
603.07692,0.29859
601.58714,0.33279
600.09735,0.36701
598.60756,0.39491
597.11777,0.42930
595.62798,0.41936
594.13819,0.42031
592.64840,0.42128
591.15862,0.35229
589.66883,0.32097
588.17904,0.28390
586.68925,0.25205
585.19946,0.22023
583.70967,0.16129
582.21989,0.10099
580.73010,0.08564
579.24031,0.07032
577.75052,0.06621
576.26073,0.04759
574.77094,0.03129
573.28115,0.04424
571.79137,0.05721
570.30158,0.02182
568.81179,0.04374
567.32200,0.04835
565.83221,0.05299
564.34242,0.08699
562.85264,0.11431
561.36285,0.13727
559.87306,0.14223
558.38327,0.14722
556.89348,0.16171
555.40369,0.18107
553.91391,0.19768
552.42412,0.21432
550.93433,0.23398
549.44454,0.20332
547.95475,0.19947
546.46496,0.20650
544.97517,0.21356
543.48539,0.22919
541.99560,0.26909
540.50581,0.27495
539.01602,0.28083
537.52623,0.34829
536.03644,0.38645
534.54666,0.42763
533.05687,0.44365
531.56708,0.45971
530.07729,0.48248
528.58750,0.56487
527.09771,0.56332
525.60792,0.56180
524.11814,0.64380
522.62835,0.69534
521.13856,0.76976
519.64877,0.78024
518.15898,0.79073
516.66919,0.83336
515.17941,0.84113
513.68962,0.85124
512.19983,0.86137
510.71004,0.81401
509.22025,0.74797
507.73046,0.70551
506.24068,0.66412
504.75089,0.62275
503.26110,0.48313
501.77131,0.37333
500.28152,0.32614
498.79173,0.27898
497.30194,0.21683
495.81216,0.19050
494.32237,0.16154
492.83258,0.13261
491.34279,0.12668
489.85300,0.11246
488.36321,0.09988
486.87343,0.08698
485.38364,0.07410
483.89385,0.05467
482.40406,0.08399
480.91427,0.09406
479.42448,0.10414
477.93469,0.12269
476.44491,0.16065
474.95512,0.17197
473.46533,0.18331
471.97554,0.20980
470.48575,0.20605
468.99596,0.20719
467.50618,0.19737
466.01639,0.18759
464.52660,0.13267
463.03681,0.10918
461.54702,0.09762
460.05723,0.08608
458.56745,0.05320
457.07766,0.04759
455.58787,0.03370
454.09808,0.01983
452.60829,0.02146
451.11850,0.04160
449.62871,0.03000
448.13893,0.01842
446.64914,0.00814
445.15935,0.01174
443.66956,0.00219
442.17977,0.00855
440.68998,0.01494
439.20020,0.00206
437.71041,0.02316
436.22062,0.02604
434.73083,0.02894
433.24104,0.01315
431.75125,0.02835
430.26146,0.03859
428.77168,0.04887
427.28189,0.05027
425.79210,0.04731
424.30231,0.05131
422.81252,0.05533
421.32273,0.03905
419.83295,0.02625
418.34316,0.02584
416.85337,0.02545
415.36358,0.02266
413.87379,0.02660
412.38400,0.04176
410.89422,0.05694
409.40443,0.04062
407.91464,0.03841
406.42485,0.04501
404.93506,0.04562
403.44527,0.04626
401.95548,0.04161
400.46570,0.03537
398.97591,0.03100
397.48612,0.02665
395.99633,0.04751
394.50654,0.02843
393.01675,0.02519
391.52697,0.02198
390.03718,0.01360
388.54739,0.02324
387.05760,0.01765
385.56781,0.01209
384.07802,0.00909
382.58824,0.02806
381.09845,0.03008
379.60866,0.03212
378.11887,0.01929
376.62908,0.01619
375.13929,0.00918
373.64950,0.00219
372.15972,0.03915
370.66993,0.02647
369.18014,0.02954
367.69035,0.03263
366.20056,0.03690
364.71077,0.03935
363.22099,0.04263
361.73120,0.04594
360.24141,0.07433
358.75162,0.09535
357.26183,0.07852
355.77204,0.06172
354.28225,0.06757
352.79247,0.05358
351.30268,0.06029
349.81289,0.06702
348.32310,0.07159
346.83331,0.07456
345.34352,0.06555
343.85374,0.05655
342.36395,0.09956
340.87416,0.06243
339.38437,0.04566
337.89458,0.02892
336.40479,0.01982
334.91501,0.00219
333.42522,0.00925
331.93543,0.01633
330.44564,0.02413
328.95585,0.02618
327.46606,0.02628
325.97627,0.02642
324.48649,0.03408
322.99670,0.04662
321.50691,0.04093
320.01712,0.03527
318.52733,0.06475
317.03754,0.07854
315.54776,0.08888
314.05797,0.09926
312.56818,0.07709
311.07839,0.09167
309.58860,0.07532
308.09881,0.05900
306.60902,0.04594
305.11924,0.02297
303.62945,0.01573
302.13966,0.00802
300.64987,0.00219
299.16008,0.00219
