1778.52000,0.01282
1777.03021,0.01352
1775.54042,0.01446
1774.05063,0.01247
1772.56085,0.00818
1771.07106,0.01130
1769.58127,0.00960
1768.09148,0.00960
1766.60169,0.00963
1765.11190,0.00715
1763.62212,0.00913
1762.13233,0.01155
1760.64254,0.00936
1759.15275,0.01162
1757.66296,0.00442
1756.17317,0.00019
1754.68339,0.00652
1753.19360,0.01752
1751.70381,0.00220
1750.21402,0.00650
1748.72423,0.00935
1747.23444,0.00864
1745.74465,0.01281
1744.25487,0.00835
1742.76508,0.00266
1741.27529,0.00669
1739.78550,0.00442
1738.29571,0.01024
1736.80592,0.01777
1735.31614,0.00826
1733.82635,0.01010
1732.33656,0.00775
1730.84677,0.01617
1729.35698,0.00607
1727.86719,0.00991
1726.37740,0.00997
1724.88762,0.00332
1723.39783,0.00903
1721.90804,0.00550
1720.41825,0.00916
1718.92846,0.00968
1717.43867,0.00748
1715.94889,0.00805
1714.45910,0.01665
1712.96931,0.01074
1711.47952,-0.00000
1709.98973,0.00412
1708.49994,0.00784
1707.01016,0.00894
1705.52037,0.01008
1704.03058,0.01176
1702.54079,0.00399
1701.05100,0.00593
1699.56121,0.00959
1698.07142,0.00442
1696.58164,0.00525
1695.09185,0.01771
1693.60206,0.01311
1692.11227,0.01150
1690.62248,0.01243
1689.13269,0.01360
1687.64291,0.01543
1686.15312,0.02466
1684.66333,0.01937
1683.17354,0.02506
1681.68375,0.01834
1680.19396,0.02198
1678.70417,0.02353
1677.21439,0.01984
1675.72460,0.02776
1674.23481,0.02812
1672.74502,0.04494
1671.25523,0.03756
1669.76544,0.04768
1668.27566,0.04751
1666.78587,0.06633
1665.29608,0.05566
1663.80629,0.06231
1662.31650,0.05612
1660.82671,0.06344
1659.33693,0.06678
1657.84714,0.07078
1656.35735,0.07249
1654.86756,0.07654
1653.37777,0.07787
1651.88798,0.08555
1650.39819,0.07008
1648.90841,0.06432
1647.41862,0.06680
1645.92883,0.07426
1644.43904,0.08175
1642.94925,0.08178
1641.45946,0.08036
1639.96968,0.08655
1638.47989,0.08623
1636.99010,0.10216
1635.50031,0.08545
1634.01052,0.07425
1632.52073,0.07845
1631.03094,0.08162
1629.54116,0.07239
1628.05137,0.07287
1626.56158,0.07844
1625.07179,0.08529
1623.58200,0.08290
1622.09221,0.09043
1620.60243,0.08682
1619.11264,0.09567
1617.62285,0.07989
1616.13306,0.08689
1614.64327,0.09117
1613.15348,0.07926
1611.66370,0.09244
1610.17391,0.08795
1608.68412,0.09233
1607.19433,0.08831
1605.70454,0.09906
1604.21475,0.09435
1602.72496,0.08966
1601.23518,0.09564
1599.74539,0.07868
1598.25560,0.08344
1596.76581,0.08022
1595.27602,0.08714
1593.78623,0.07638
1592.29645,0.08546
1590.80666,0.07559
1589.31687,0.06807
1587.82708,0.06773
1586.33729,0.07965
1584.84750,0.06440
1583.35771,0.06793
1581.86793,0.07570
1580.37814,0.07022
1578.88835,0.07256
1577.39856,0.05912
1575.90877,0.06046
1574.41898,0.05571
1572.92920,0.05246
1571.43941,0.04712
1569.94962,0.04455
1568.45983,0.04200
1566.97004,0.04833
1565.48025,0.04078
1563.99047,0.03240
1562.50068,0.03101
1561.01089,0.02964
1559.52110,0.02998
1558.03131,0.02339
1556.54152,0.02546
1555.05173,0.02777
1553.56195,0.02189
1552.07216,0.02193
1550.58237,0.02157
1549.09258,0.00606
1547.60279,0.01503
1546.11300,0.00442
1544.62322,0.01229
1543.13343,0.01240
1541.64364,0.00705
1540.15385,0.00710
1538.66406,0.00717
1537.17427,0.01211
1535.68448,0.01074
1534.19470,0.00919
1532.70491,0.00851
1531.21512,0.01354
1529.72533,0.00617
1528.23554,0.01108
1526.74575,0.02066
1525.25597,0.03005
1523.76618,0.02430
1522.27639,0.02299
1520.78660,0.02150
1519.29681,0.03563
1517.80702,0.04914
1516.31724,0.04730
1514.82745,0.05455
1513.33766,0.05455
1511.84787,0.05457
1510.35808,0.04924
1508.86829,0.04816
1507.37850,0.04688
1505.88872,0.05027
1504.39893,0.04947
1502.90914,0.05838
1501.41935,0.07090
1499.92956,0.06596
1498.43977,0.07853
1496.94999,0.07132
1495.46020,0.09911
1493.97041,0.10522
1492.48062,0.11515
1490.99083,0.11583
1489.50104,0.12412
1488.01125,0.12769
1486.52147,0.13129
1485.03168,0.17421
1483.54189,0.19988
1482.05210,0.21841
1480.56231,0.24581
1479.07252,0.25638
1477.58274,0.24401
1476.09295,0.27528
1474.60316,0.27580
1473.11337,0.29722
1471.62358,0.30180
1470.13379,0.30682
1468.64401,0.31714
1467.15422,0.34666
1465.66443,0.35998
1464.17464,0.37332
1462.68485,0.38584
1461.19506,0.41862
1459.70527,0.45606
1458.21549,0.54030
1456.72570,0.58453
1455.23591,0.63258
1453.74612,0.69203
1452.25633,0.72790
1450.76654,0.74737
1449.27676,0.76053
1447.78697,0.74948
1446.29718,0.72582
1444.80739,0.70333
1443.31760,0.68088
1441.82781,0.64759
1440.33802,0.56164
1438.84824,0.52672
1437.35845,0.51943
1435.86866,0.53407
1434.37887,0.53800
1432.88908,0.58873
1431.39929,0.66414
1429.90951,0.72862
1428.41972,0.81588
1426.92993,0.83425
1425.44014,0.86909
1423.95035,0.89384
1422.46056,0.91861
1420.97078,0.94319
1419.48099,0.96042
1417.99120,0.96209
1416.50141,0.94839
1415.01162,0.90395
1413.52183,0.85680
1412.03204,0.80546
1410.54226,0.74255
1409.05247,0.69167
1407.56268,0.63787
1406.07289,0.58178
1404.58310,0.55616
1403.09331,0.53057
1401.60353,0.47433
1400.11374,0.44004
1398.62395,0.36890
1397.13416,0.31506
1395.64437,0.25092
1394.15458,0.20998
1392.66479,0.17623
1391.17501,0.14799
1389.68522,0.12925
1388.19543,0.11644
1386.70564,0.10608
1385.21585,0.09574
1383.72606,0.06698
1382.23628,0.04310
1380.74649,0.03926
1379.25670,0.03545
1377.76691,0.02807
1376.27712,0.01440
1374.78733,0.01783
1373.29755,0.00442
1371.80776,0.01533
1370.31797,0.00541
1368.82818,0.00879
1367.33839,0.01219
1365.84860,0.02995
1364.35881,0.03298
1362.86903,0.04362
1361.37924,0.06103
1359.88945,0.08331
1358.39966,0.10772
1356.90987,0.12563
1355.42008,0.15725
1353.93030,0.22831
1352.44051,0.26304
1350.95072,0.29779
1349.46093,0.38241
1347.97114,0.44008
1346.48135,0.49672
1344.99156,0.58309
1343.50178,0.66001
1342.01199,0.74412
1340.52220,0.80675
1339.03241,0.82938
1337.54262,0.83748
1336.05283,0.85804
1334.56305,0.87863
1333.07326,0.90261
1331.58347,0.93421
1330.09368,0.92452
1328.60389,0.89526
1327.11410,0.87066
1325.62432,0.80774
1324.13453,0.78066
1322.64474,0.77636
1321.15495,0.75270
1319.66516,0.72707
1318.17537,0.70146
1316.68558,0.64605
1315.19580,0.58013
1313.70601,0.53594
1312.21622,0.52550
1310.72643,0.49843
1309.23664,0.46822
1307.74685,0.43150
1306.25707,0.39439
1304.76728,0.37195
1303.27749,0.34953
1301.78770,0.30385
1300.29791,0.25925
1298.80812,0.21784
1297.31834,0.18508
1295.82855,0.17343
1294.33876,0.15190
1292.84897,0.12027
1291.35918,0.11944
1289.86939,0.11051
1288.37960,0.10162
1286.88982,0.09074
1285.40003,0.08979
1283.91024,0.09583
1282.42045,0.07175
1280.93066,0.06287
1279.44087,0.06181
1277.95109,0.06140
1276.46130,0.06313
1274.97151,0.05403
1273.48172,0.04495
1271.99193,0.04128
1270.50214,0.03067
1269.01235,0.02704
1267.52257,0.03481
1266.03278,0.03987
1264.54299,0.04369
1263.05320,0.03763
1261.56341,0.03086
1260.07362,0.02411
1258.58384,0.01876
1257.09405,0.02206
1255.60426,0.02961
1254.11447,0.02096
1252.62468,0.01254
1251.13489,0.00899
1249.64511,0.00442
1248.15532,0.02948
1246.66553,0.01896
1245.17574,0.00846
1243.68595,0.01905
1242.19616,0.03326
1240.70637,0.02979
1239.21659,0.02360
1237.72680,0.02881
1236.23701,0.04586
1234.74722,0.02478
1233.25743,0.02080
1231.76764,0.01684
1230.27786,0.03440
1228.78807,0.03639
1227.29828,0.01417
1225.80849,0.00841
1224.31870,0.00963
1222.82891,0.00729
1221.33912,0.02121
1219.84934,0.03852
1218.35955,0.05585
1216.86976,0.07763
1215.37997,0.08300
1213.89018,0.09535
1212.40039,0.10119
1210.91061,0.08809
1209.42082,0.07881
1207.93103,0.08378
1206.44124,0.08877
1204.95145,0.08251
1203.46166,0.07775
1201.97188,0.08355
1200.48209,0.06872
1198.99230,0.07246
1197.50251,0.07117
1196.01272,0.05726
1194.52293,0.06434
1193.03314,0.07145
1191.54336,0.05908
1190.05357,0.04106
1188.56378,0.05087
1187.07399,0.04933
1185.58420,0.05771
1184.09441,0.02693
1182.60463,0.01566
1181.11484,0.00442
1179.62505,0.01618
1178.13526,0.01490
1176.64547,0.02904
1175.15568,0.03076
1173.66589,0.02408
1172.17611,0.02142
1170.68632,0.01858
1169.19653,0.01577
1167.70674,0.02583
1166.21695,0.03676
1164.72716,0.04139
1163.23738,0.01908
1161.74759,0.05621
1160.25780,0.06071
1158.76801,0.07081
1157.27822,0.08094
1155.78843,0.08087
1154.29865,0.08926
1152.80886,0.09661
1151.31907,0.12170
1149.82928,0.10381
1148.33949,0.12157
1146.84970,0.12344
1145.35991,0.12533
1143.87013,0.13789
1142.38034,0.16881
1140.89055,0.16435
1139.40076,0.16835
1137.91097,0.19112
1136.42118,0.19073
1134.93140,0.19912
1133.44161,0.20753
1131.95182,0.24368
1130.46203,0.23096
1128.97224,0.24018
1127.48245,0.22920
1125.99266,0.25849
1124.50288,0.22500
1123.01309,0.22853
1121.52330,0.23207
1120.03351,0.21679
1118.54372,0.21374
1117.05393,0.22379
1115.56415,0.22312
1114.07436,0.24354
1112.58457,0.23164
1111.09478,0.21977
1109.60499,0.21603
1108.11520,0.22685
1106.62542,0.25035
1105.13563,0.25216
1103.64584,0.22092
1102.15605,0.19791
1100.66626,0.20022
1099.17647,0.20255
1097.68668,0.20955
1096.19690,0.20476
1094.70711,0.22782
1093.21732,0.21339
1091.72753,0.20658
1090.23774,0.19947
1088.74795,0.19238
1087.25817,0.19048
1085.76838,0.18229
1084.27859,0.18887
1082.78880,0.19779
1081.29901,0.21138
1079.80922,0.21677
1078.31943,0.22123
1076.82965,0.22572
1075.33986,0.23329
1073.85007,0.24278
1072.36028,0.24197
1070.87049,0.26563
1069.38070,0.32239
1067.89092,0.33557
1066.40113,0.34876
1064.91134,0.39759
1063.42155,0.47659
1061.93176,0.59859
1060.44197,0.68754
1058.95219,0.76723
1057.46240,0.81482
1055.97261,0.86243
1054.48282,1.00879
1052.99303,1.11640
1051.50324,1.10413
1050.01345,1.10938
1048.52367,1.03604
1047.03388,1.01162
1045.54409,0.98722
1044.05430,0.94262
1042.56451,0.85948
1041.07472,0.79491
1039.58494,0.73267
1038.09515,0.65487
1036.60536,0.60038
1035.11557,0.54592
1033.62578,0.49854
1032.13599,0.41514
1030.64620,0.36928
1029.15642,0.31818
1027.66663,0.29914
1026.17684,0.28011
1024.68705,0.25437
1023.19726,0.19663
1021.70747,0.16250
1020.21769,0.15011
1018.72790,0.14554
1017.23811,0.13246
1015.74832,0.11940
1014.25853,0.11701
1012.76874,0.10601
1011.27896,0.09924
1009.78917,0.09629
1008.29938,0.07609
1006.80959,0.07003
1005.31980,0.06399
1003.83001,0.03480
1002.34022,0.03134
1000.85044,0.02875
999.36065,0.04514
997.87086,0.05219
996.38107,0.05926
994.89128,0.07172
993.40149,0.08696
991.91171,0.11422
990.42192,0.14489
988.93213,0.15408
987.44234,0.16182
985.95255,0.16959
984.46276,0.17000
982.97297,0.16496
981.48319,0.14204
979.99340,0.10628
978.50361,0.09309
977.01382,0.07993
975.52403,0.06427
974.03424,0.03893
972.54446,0.02816
971.05467,0.01426
969.56488,0.00501
968.07509,0.00701
966.58530,0.00902
965.09551,0.00517
963.60573,0.00723
962.11594,0.00996
960.62615,0.00470
959.13636,0.00454
957.64657,0.00442
956.15678,0.01269
954.66699,0.02795
953.17721,0.01667
951.68742,0.03725
950.19763,0.03287
948.70784,0.02852
947.21805,0.05528
945.72826,0.06794
944.23848,0.08674
942.74869,0.08596
941.25890,0.10565
939.76911,0.12125
938.27932,0.13688
936.78953,0.15369
935.29974,0.17580
933.80996,0.18423
932.32017,0.18952
930.83038,0.19558
929.34059,0.20166
927.85080,0.23253
926.36101,0.25857
924.87123,0.29391
923.38144,0.34740
921.89165,0.38026
920.40186,0.41315
918.91207,0.50632
917.42228,0.65053
915.93250,0.76693
914.44271,0.96365
912.95292,1.06926
911.46313,1.17489
909.97334,1.38201
908.48355,1.61739
906.99376,1.77146
905.50398,1.88740
904.01419,1.93636
902.52440,1.98534
901.03461,2.00000
899.54482,1.97064
898.05503,1.82477
896.56525,1.62729
895.07546,1.47609
893.58567,1.32492
892.09588,1.04448
890.60609,0.78894
889.11630,0.62488
887.62651,0.45916
886.13673,0.39682
884.64694,0.33451
883.15715,0.23398
881.66736,0.15897
880.17757,0.13456
878.68778,0.12008
877.19800,0.10563
875.70821,0.07539
874.21842,0.04117
872.72863,0.04112
871.23884,0.02866
869.74905,0.02623
868.25927,0.02383
866.76948,0.01502
865.27969,0.01572
863.78990,0.04532
862.30011,0.04544
860.81032,0.05222
859.32053,0.05902
857.83075,0.06701
856.34096,0.10494
854.85117,0.10308
853.36138,0.12420
851.87159,0.13977
850.38180,0.15536
848.89202,0.15633
847.40223,0.19905
845.91244,0.22303
844.42265,0.22882
842.93286,0.23462
841.44307,0.25426
839.95329,0.27160
838.46350,0.27801
836.97371,0.28549
835.48392,0.28963
833.99413,0.29380
832.50434,0.30831
831.01455,0.27585
829.52477,0.24869
828.03498,0.22113
826.54519,0.20624
825.05540,0.19137
823.56561,0.17421
822.07582,0.15812
820.58604,0.15956
819.09625,0.15290
817.60646,0.14627
816.11667,0.14039
814.62688,0.15625
813.13709,0.17150
811.64730,0.16950
810.15752,0.17785
808.66773,0.18622
807.17794,0.15963
805.68815,0.15435
804.19836,0.17417
802.70857,0.15704
801.21879,0.13992
799.72900,0.14591
798.23921,0.13633
796.74942,0.15648
795.25963,0.15791
793.76984,0.15936
792.28006,0.18169
790.79027,0.15959
789.30048,0.17312
787.81069,0.22377
786.32090,0.23608
784.83111,0.24843
783.34132,0.28503
781.85154,0.34778
780.36175,0.37917
778.87196,0.40973
777.38217,0.44031
775.89238,0.44669
774.40259,0.46890
772.91281,0.47406
771.42302,0.44922
769.93323,0.42440
768.44344,0.38011
766.95365,0.31393
765.46386,0.24798
763.97407,0.19344
762.48429,0.17349
760.99450,0.15356
759.50471,0.13639
758.01492,0.12810
756.52513,0.12762
755.03534,0.11348
753.54556,0.09936
752.05577,0.10528
750.56598,0.09964
749.07619,0.06452
747.58640,0.06283
746.09661,0.06116
744.60683,0.04065
743.11704,0.02038
741.62725,0.01088
740.13746,0.02016
738.64767,0.02946
737.15788,0.01708
735.66809,0.01274
734.17831,0.00442
732.68852,0.01240
731.19873,0.02040
729.70894,0.01094
728.21915,0.00551
726.72936,0.02272
725.23958,0.01510
723.74979,0.01983
722.26000,0.02458
720.77021,0.01661
719.28042,0.00381
717.79063,0.01390
716.30084,0.00927
714.81106,0.00466
713.32127,0.02894
711.83148,0.03702
710.34169,0.04133
708.85190,0.03892
707.36211,0.03654
705.87233,0.04156
704.38254,0.03480
702.89275,0.05925
701.40296,0.05159
699.91317,0.04396
698.42338,0.06448
696.93360,0.07723
695.44381,0.11045
693.95402,0.11903
692.46423,0.12764
690.97444,0.13459
689.48465,0.15378
687.99486,0.16920
686.50508,0.17190
685.01529,0.17463
683.52550,0.22932
682.03571,0.24569
680.54592,0.26102
679.05613,0.25784
677.56635,0.25468
676.07656,0.26461
674.58677,0.24464
673.09698,0.24176
671.60719,0.22995
670.11740,0.21817
668.62761,0.19493
667.13783,0.15295
665.64804,0.14272
664.15825,0.13250
662.66846,0.10851
661.17867,0.09509
659.68888,0.06061
658.19910,0.05239
656.70931,0.04420
655.21952,0.04794
653.72973,0.04453
652.23994,0.05633
650.75015,0.05930
649.26037,0.06229
647.77058,0.05308
646.28079,0.04622
644.79100,0.04760
643.30121,0.04816
641.81142,0.04875
640.32163,0.05758
638.83185,0.03039
637.34206,0.01230
635.85227,0.00834
634.36248,0.00442
632.87269,0.02199
631.38290,0.03960
629.89312,0.03468
628.40333,0.02788
626.91354,0.02112
625.42375,0.02849
623.93396,0.03146
622.44417,0.03668
620.95438,0.04191
619.46460,0.02957
617.97481,0.02000
616.48502,0.05134
614.99523,0.06689
613.50544,0.08247
612.01565,0.12336
610.52587,0.16259
609.03608,0.18372
607.54629,0.19170
606.05650,0.19971
604.56671,0.26559
603.07692,0.32222
601.58714,0.35358
600.09735,0.38497
598.60756,0.40606
597.11777,0.41327
595.62798,0.41102
594.13819,0.40636
592.64840,0.40174
591.15862,0.38839
589.66883,0.30931
588.17904,0.26377
586.68925,0.23754
585.19946,0.21132
583.70967,0.14647
582.21989,0.11240
580.73010,0.09996
579.24031,0.08755
577.75052,0.08495
576.26073,0.07627
574.77094,0.06130
573.28115,0.05287
571.79137,0.04448
570.30158,0.06708
568.81179,0.07876
567.32200,0.10120
565.83221,0.12367
564.34242,0.11118
562.85264,0.11874
561.36285,0.15919
559.87306,0.15963
558.38327,0.16009
556.89348,0.21558
555.40369,0.21967
553.91391,0.21579
552.42412,0.21192
550.93433,0.20829
549.44454,0.21269
547.95475,0.21248
546.46496,0.21272
544.97517,0.21298
543.48539,0.23097
541.99560,0.25193
540.50581,0.27197
539.01602,0.29203
537.52623,0.36912
536.03644,0.39798
534.54666,0.44414
533.05687,0.45755
531.56708,0.47099
530.07729,0.51301
528.58750,0.53651
527.09771,0.57795
525.60792,0.61941
524.11814,0.67796
522.62835,0.74728
521.13856,0.77364
519.64877,0.77917
518.15898,0.78471
516.66919,0.84781
515.17941,0.84013
513.68962,0.84617
512.19983,0.85224
510.71004,0.82503
509.22025,0.80228
507.73046,0.73993
506.24068,0.68066
504.75089,0.62141
503.26110,0.45967
501.77131,0.38330
500.28152,0.34119
498.79173,0.29911
497.30194,0.22071
495.81216,0.19606
494.32237,0.16270
492.83258,0.12936
491.34279,0.13639
489.85300,0.11606
488.36321,0.09112
486.87343,0.09370
485.38364,0.09630
483.89385,0.09166
482.40406,0.12456
480.91427,0.12492
479.42448,0.12530
477.93469,0.15279
476.44491,0.16260
474.95512,0.18129
473.46533,0.20000
471.97554,0.22990
470.48575,0.22969
468.99596,0.22551
467.50618,0.21376
466.01639,0.20203
464.52660,0.17116
463.03681,0.12218
461.54702,0.12180
460.05723,0.12145
458.56745,0.06939
457.07766,0.06245
455.58787,0.05342
454.09808,0.04442
452.60829,0.04682
451.11850,0.00879
449.62871,0.01187
448.13893,0.01498
446.64914,0.03097
445.15935,0.00442
443.66956,0.01746
442.17977,0.03011
440.68998,0.04278
439.20020,0.03841
437.71041,0.03617
436.22062,0.03343
434.73083,0.03071
433.24104,0.02918
431.75125,0.04031
430.26146,0.03619
428.77168,0.03209
427.28189,0.04836
425.79210,0.05432
424.30231,0.04903
422.81252,0.04377
421.32273,0.04854
419.83295,0.02004
418.34316,0.01222
416.85337,0.00442
415.36358,0.00913
413.87379,0.02968
412.38400,0.03360
410.89422,0.03755
409.40443,0.04890
407.91464,0.03709
406.42485,0.04701
404.93506,0.05179
403.44527,0.05660
401.95548,0.04931
400.46570,0.02393
398.97591,0.02733
397.48612,0.03076
395.99633,0.02673
394.50654,0.02020
393.01675,0.02096
391.52697,0.01964
390.03718,0.03742
388.54739,0.01939
387.05760,0.01488
385.56781,0.01039
384.07802,0.00698
382.58824,0.02071
381.09845,0.02805
379.60866,0.03540
378.11887,0.01929
376.62908,0.00404
375.13929,0.00315
373.64950,0.00228
372.15972,0.01582
370.66993,0.03255
369.18014,0.02769
367.69035,0.02286
366.20056,0.03291
364.71077,0.03751
363.22099,0.03802
361.73120,0.03855
360.24141,0.07925
358.75162,0.10502
357.26183,0.09414
355.77204,0.08329
354.28225,0.08173
352.79247,0.09832
351.30268,0.08649
349.81289,0.07468
348.32310,0.06500
346.83331,0.06230
345.34352,0.07027
343.85374,0.07826
342.36395,0.06573
340.87416,0.03004
339.38437,0.03083
337.89458,0.03165
336.40479,0.00826
334.91501,0.05697
333.42522,0.03763
331.93543,0.01831
330.44564,0.00724
328.95585,0.02275
327.46606,0.02468
325.97627,0.02665
324.48649,0.03107
322.99670,0.03320
321.50691,0.04789
320.01712,0.06261
318.52733,0.08905
317.03754,0.05545
315.54776,0.06318
314.05797,0.07093
312.56818,0.09473
311.07839,0.08146
309.58860,0.06674
308.09881,0.05204
306.60902,0.06456
305.11924,0.03811
303.62945,0.03065
302.13966,0.01288
300.64987,0.00442
299.16008,0.00442
