1778.52000,0.02178
1777.03021,0.01449
1775.54042,0.01585
1774.05063,0.01908
1772.56085,0.01159
1771.07106,0.01774
1769.58127,0.02392
1768.09148,0.01624
1766.60169,0.01095
1765.11190,0.02191
1763.62212,0.02216
1762.13233,0.00647
1760.64254,0.01070
1759.15275,0.01521
1757.66296,0.01975
1756.17317,0.01462
1754.68339,0.00979
1753.19360,0.02016
1751.70381,0.01720
1750.21402,0.01296
1748.72423,0.01188
1747.23444,0.00874
1745.74465,0.01138
1744.25487,0.01587
1742.76508,0.01908
1741.27529,0.01970
1739.78550,0.00647
1738.29571,0.01425
1736.80592,0.01761
1735.31614,0.01314
1733.82635,0.01315
1732.33656,0.00978
1730.84677,0.00957
1729.35698,0.01252
1727.86719,0.01996
1726.37740,0.01171
1724.88762,0.01500
1723.39783,0.00915
1721.90804,0.00726
1720.41825,0.01350
1718.92846,0.01506
1717.43867,0.01874
1715.94889,0.00647
1714.45910,0.00980
1712.96931,0.01446
1711.47952,0.01287
1709.98973,0.00711
1708.49994,0.00818
1707.01016,0.00731
1705.52037,0.00647
1704.03058,0.02711
1702.54079,0.01454
1701.05100,0.00879
1699.56121,0.01406
1698.07142,0.01412
1696.58164,0.02442
1695.09185,0.02453
1693.60206,0.02309
1692.11227,0.02796
1690.62248,0.01689
1689.13269,0.02207
1687.64291,0.02518
1686.15312,0.03617
1684.66333,0.02336
1683.17354,0.02969
1681.68375,0.03263
1680.19396,0.03011
1678.70417,0.04279
1677.21439,0.03639
1675.72460,0.04440
1674.23481,0.05244
1672.74502,0.04402
1671.25523,0.05499
1669.76544,0.07645
1668.27566,0.06496
1666.78587,0.06920
1665.29608,0.07032
1663.80629,0.07147
1662.31650,0.07630
1660.82671,0.08430
1659.33693,0.08578
1657.84714,0.07734
1656.35735,0.08331
1654.86756,0.08251
1653.37777,0.10241
1651.88798,0.08386
1650.39819,0.09831
1648.90841,0.07850
1647.41862,0.09745
1645.92883,0.09980
1644.43904,0.10218
1642.94925,0.10236
1641.45946,0.09288
1639.96968,0.08237
1638.47989,0.10356
1636.99010,0.08578
1635.50031,0.09602
1634.01052,0.09190
1632.52073,0.09041
1631.03094,0.09602
1629.54116,0.09563
1628.05137,0.11961
1626.56158,0.09624
1625.07179,0.11058
1623.58200,0.10270
1622.09221,0.10557
1620.60243,0.10009
1619.11264,0.10956
1617.62285,0.11015
1616.13306,0.10527
1614.64327,0.10382
1613.15348,0.08904
1611.66370,0.08868
1610.17391,0.09385
1608.68412,0.09302
1607.19433,0.10660
1605.70454,0.10922
1604.21475,0.10768
1602.72496,0.10616
1601.23518,0.11042
1599.74539,0.09429
1598.25560,0.09886
1596.76581,0.06158
1595.27602,0.08557
1593.78623,0.08786
1592.29645,0.08521
1590.80666,0.08885
1589.31687,0.08494
1587.82708,0.06979
1586.33729,0.07063
1584.84750,0.07909
1583.35771,0.08233
1581.86793,0.08403
1580.37814,0.08968
1578.88835,0.07808
1577.39856,0.06598
1575.90877,0.05234
1574.41898,0.04866
1572.92920,0.06124
1571.43941,0.04898
1569.94962,0.04551
1568.45983,0.04206
1566.97004,0.03982
1565.48025,0.03943
1563.99047,0.03043
1562.50068,0.03611
1561.01089,0.03527
1559.52110,0.04519
1558.03131,0.03158
1556.54152,0.01223
1555.05173,0.02353
1553.56195,0.02019
1552.07216,0.01976
1550.58237,0.00182
1549.09258,0.01765
1547.60279,0.01440
1546.11300,0.00725
1544.62322,0.00614
1543.13343,0.00506
1541.64364,0.01144
1540.15385,0.00894
1538.66406,0.00647
1537.17427,0.01716
1535.68448,0.01479
1534.19470,0.01872
1532.70491,0.01509
1531.21512,0.01175
1529.72533,0.01313
1528.23554,0.01664
1526.74575,0.02515
1525.25597,0.02478
1523.76618,0.02731
1522.27639,0.02202
1520.78660,0.02696
1519.29681,0.03899
1517.80702,0.03351
1516.31724,0.04480
1514.82745,0.04172
1513.33766,0.04678
1511.84787,0.05187
1510.35808,0.04703
1508.86829,0.04065
1507.37850,0.04319
1505.88872,0.03371
1504.39893,0.03604
1502.90914,0.05698
1501.41935,0.06904
1499.92956,0.08060
1498.43977,0.07098
1496.94999,0.06192
1495.46020,0.07303
1493.97041,0.09777
1492.48062,0.10448
1490.99083,0.10441
1489.50104,0.12661
1488.01125,0.12947
1486.52147,0.13235
1485.03168,0.15881
1483.54189,0.17195
1482.05210,0.20265
1480.56231,0.23887
1479.07252,0.23481
1477.58274,0.25511
1476.09295,0.25162
1474.60316,0.24710
1473.11337,0.25178
1471.62358,0.25647
1470.13379,0.25543
1468.64401,0.28792
1467.15422,0.32907
1465.66443,0.33831
1464.17464,0.34758
1462.68485,0.38592
1461.19506,0.41199
1459.70527,0.45510
1458.21549,0.52204
1456.72570,0.57802
1455.23591,0.62748
1453.74612,0.67905
1452.25633,0.69584
1450.76654,0.74093
1449.27676,0.74075
1447.78697,0.71993
1446.29718,0.69625
1444.80739,0.67861
1443.31760,0.66100
1441.82781,0.60441
1440.33802,0.57114
1438.84824,0.52979
1437.35845,0.48453
1435.86866,0.48902
1434.37887,0.52207
1432.88908,0.54939
1431.39929,0.61468
1429.90951,0.69936
1428.41972,0.77124
1426.92993,0.80468
1425.44014,0.83839
1423.95035,0.86402
1422.46056,0.88968
1420.97078,0.96430
1419.48099,0.94106
1417.99120,0.93407
1416.50141,0.95013
1415.01162,0.94555
1413.52183,0.92292
1412.03204,0.84327
1410.54226,0.74401
1409.05247,0.69005
1407.56268,0.64973
1406.07289,0.60524
1404.58310,0.56340
1403.09331,0.52158
1401.60353,0.44079
1400.11374,0.40896
1398.62395,0.35989
1397.13416,0.31843
1395.64437,0.25632
1394.15458,0.19920
1392.66479,0.17038
1391.17501,0.16697
1389.68522,0.14159
1388.19543,0.10787
1386.70564,0.10296
1385.21585,0.09808
1383.72606,0.08772
1382.23628,0.05828
1380.74649,0.03934
1379.25670,0.02487
1377.76691,0.02639
1376.27712,0.00647
1374.78733,0.01253
1373.29755,0.01913
1371.80776,0.01450
1370.31797,0.00859
1368.82818,0.01082
1367.33839,0.01307
1365.84860,0.01508
1364.35881,0.03151
1362.86903,0.03646
1361.37924,0.05765
1359.88945,0.08515
1358.39966,0.11032
1356.90987,0.15200
1355.42008,0.17905
1353.93030,0.22915
1352.44051,0.25547
1350.95072,0.28180
1349.46093,0.35606
1347.97114,0.43296
1346.48135,0.51695
1344.99156,0.60359
1343.50178,0.64627
1342.01199,0.69213
1340.52220,0.76522
1339.03241,0.85980
1337.54262,0.89160
1336.05283,0.90444
1334.56305,0.91730
1333.07326,0.94445
1331.58347,0.99152
1330.09368,1.00590
1328.60389,0.95434
1327.11410,0.93081
1325.62432,0.87460
1324.13453,0.85400
1322.64474,0.82165
1321.15495,0.78304
1319.66516,0.76892
1318.17537,0.75483
1316.68558,0.68096
1315.19580,0.64167
1313.70601,0.57282
1312.21622,0.53488
1310.72643,0.48754
1309.23664,0.47818
1307.74685,0.44345
1306.25707,0.43126
1304.76728,0.40051
1303.27749,0.36978
1301.78770,0.34301
1300.29791,0.26260
1298.80812,0.21703
1297.31834,0.20105
1295.82855,0.16076
1294.33876,0.15924
1292.84897,0.13993
1291.35918,0.10783
1289.86939,0.11240
1288.37960,0.11699
1286.88982,0.08967
1285.40003,0.09509
1283.91024,0.09688
1282.42045,0.07513
1280.93066,0.05785
1279.44087,0.03563
1277.95109,0.04772
1276.46130,0.04936
1274.97151,0.05365
1273.48172,0.05796
1271.99193,0.04789
1270.50214,0.04937
1269.01235,0.03805
1267.52257,0.03801
1266.03278,0.03564
1264.54299,0.03172
1263.05320,0.03253
1261.56341,0.02709
1260.07362,0.02167
1258.58384,0.01707
1257.09405,0.01196
1255.60426,0.01656
1254.11447,0.00784
1252.62468,0.00647
1251.13489,0.01409
1249.64511,0.02880
1248.15532,0.02024
1246.66553,0.02113
1245.17574,0.02204
1243.68595,0.01669
1242.19616,0.03440
1240.70637,0.00869
1239.21659,0.01572
1237.72680,0.03193
1236.23701,0.04372
1234.74722,0.03878
1233.25743,0.04054
1231.76764,0.04233
1230.27786,0.03275
1228.78807,0.02974
1227.29828,0.01917
1225.80849,0.01490
1224.31870,0.00647
1222.82891,0.02916
1221.33912,0.03304
1219.84934,0.04020
1218.35955,0.04740
1216.86976,0.06077
1215.37997,0.08777
1213.89018,0.10590
1212.40039,0.09500
1210.91061,0.10820
1209.42082,0.10389
1207.93103,0.09359
1206.44124,0.08331
1204.95145,0.09713
1203.46166,0.08847
1201.97188,0.08717
1200.48209,0.06180
1198.99230,0.04877
1197.50251,0.04989
1196.01272,0.04371
1194.52293,0.04134
1193.03314,0.03901
1191.54336,0.02452
1190.05357,0.02838
1188.56378,0.01525
1187.07399,0.01524
1185.58420,0.02702
1184.09441,0.02208
1182.60463,0.02567
1181.11484,0.02929
1179.62505,0.02625
1178.13526,0.02926
1176.64547,0.03570
1175.15568,0.02253
1173.66589,0.00964
1172.17611,0.01092
1170.68632,0.00868
1169.19653,0.00647
1167.70674,0.03149
1166.21695,0.02958
1164.72716,0.04942
1163.23738,0.06902
1161.74759,0.05959
1160.25780,0.06485
1158.76801,0.06528
1157.27822,0.06574
1155.78843,0.09279
1154.29865,0.09867
1152.80886,0.10012
1151.31907,0.11546
1149.82928,0.10963
1148.33949,0.14440
1146.84970,0.13626
1145.35991,0.12815
1143.87013,0.15120
1142.38034,0.16382
1140.89055,0.16546
1139.40076,0.18493
1137.91097,0.19473
1136.42118,0.20404
1134.93140,0.21298
1133.44161,0.22194
1131.95182,0.25698
1130.46203,0.25565
1128.97224,0.26717
1127.48245,0.24051
1125.99266,0.25862
1124.50288,0.24117
1123.01309,0.24232
1121.52330,0.24349
1120.03351,0.23370
1118.54372,0.23781
1117.05393,0.24638
1115.56415,0.24975
1114.07436,0.24712
1112.58457,0.25041
1111.09478,0.25372
1109.60499,0.24828
1108.11520,0.24444
1106.62542,0.23173
1105.13563,0.25071
1103.64584,0.22993
1102.15605,0.21389
1100.66626,0.20624
1099.17647,0.19862
1097.68668,0.20542
1096.19690,0.21408
1094.70711,0.20470
1093.21732,0.21184
1091.72753,0.21638
1090.23774,0.21335
1088.74795,0.21036
1087.25817,0.20345
1085.76838,0.19998
1084.27859,0.20255
1082.78880,0.18368
1081.29901,0.19887
1079.80922,0.21433
1078.31943,0.21595
1076.82965,0.21760
1075.33986,0.22372
1073.85007,0.23300
1072.36028,0.27084
1070.87049,0.25819
1069.38070,0.28508
1067.89092,0.30362
1066.40113,0.32219
1064.91134,0.37638
1063.42155,0.45755
1061.93176,0.54450
1060.44197,0.66576
1058.95219,0.79438
1057.46240,0.82330
1055.97261,0.85225
1054.48282,0.95476
1052.99303,1.00653
1051.50324,1.03005
1050.01345,1.00648
1048.52367,0.97928
1047.03388,0.96557
1045.54409,0.95189
1044.05430,0.93000
1042.56451,0.84714
1041.07472,0.78760
1039.58494,0.69798
1038.09515,0.62986
1036.60536,0.59421
1035.11557,0.55858
1033.62578,0.46776
1032.13599,0.40182
1030.64620,0.35109
1029.15642,0.31111
1027.66663,0.29092
1026.17684,0.27076
1024.68705,0.22666
1023.19726,0.20982
1021.70747,0.17834
1020.21769,0.15369
1018.72790,0.13561
1017.23811,0.12763
1015.74832,0.11967
1014.25853,0.10716
1012.76874,0.09101
1011.27896,0.09896
1009.78917,0.09647
1008.29938,0.07306
1006.80959,0.06656
1005.31980,0.06008
1003.83001,0.04355
1002.34022,0.01867
1000.85044,0.01842
999.36065,0.04986
997.87086,0.04651
996.38107,0.04319
994.89128,0.09224
993.40149,0.07405
991.91171,0.12760
990.42192,0.13851
988.93213,0.14761
987.44234,0.15373
985.95255,0.15987
984.46276,0.15439
982.97297,0.13009
981.48319,0.11680
979.99340,0.09281
978.50361,0.08088
977.01382,0.06898
975.52403,0.06312
974.03424,0.04577
972.54446,0.02530
971.05467,0.02318
969.56488,0.00695
968.07509,0.00720
966.58530,0.00747
965.09551,0.02282
963.60573,0.00914
962.11594,0.00647
960.62615,0.02410
959.13636,0.02749
957.64657,0.03090
956.15678,0.02321
954.66699,0.02549
953.17721,0.04036
951.68742,0.02594
950.19763,0.03550
948.70784,0.04508
947.21805,0.05272
945.72826,0.07347
944.23848,0.08639
942.74869,0.09384
941.25890,0.13272
939.76911,0.13067
938.27932,0.12864
936.78953,0.16053
935.29974,0.18538
933.80996,0.17465
932.32017,0.18280
930.83038,0.20157
929.34059,0.22036
927.85080,0.20816
926.36101,0.26456
924.87123,0.32780
923.38144,0.38241
921.89165,0.42711
920.40186,0.47183
918.91207,0.55662
917.42228,0.72833
915.93250,0.85165
914.44271,1.04120
912.95292,1.16561
911.46313,1.29005
909.97334,1.47287
908.48355,1.65127
906.99376,1.80928
905.50398,1.93722
904.01419,1.96860
902.52440,2.00000
901.03461,1.99348
899.54482,1.91081
898.05503,1.80671
896.56525,1.58354
895.07546,1.48891
893.58567,1.39430
892.09588,1.14216
890.60609,0.88454
889.11630,0.65547
887.62651,0.51071
886.13673,0.44960
884.64694,0.38851
883.15715,0.27496
881.66736,0.20358
880.17757,0.13118
878.68778,0.12228
877.19800,0.11339
875.70821,0.10179
874.21842,0.08863
872.72863,0.05980
871.23884,0.06031
869.74905,0.05351
868.25927,0.04674
866.76948,0.03109
865.27969,0.03667
863.78990,0.05588
862.30011,0.05234
860.81032,0.06336
859.32053,0.07440
857.83075,0.09004
856.34096,0.12037
854.85117,0.12952
853.36138,0.13869
851.87159,0.15090
850.38180,0.16314
848.89202,0.18783
847.40223,0.20102
845.91244,0.18284
844.42265,0.20642
842.93286,0.23003
841.44307,0.24438
839.95329,0.28335
838.46350,0.28936
836.97371,0.30796
835.48392,0.32358
833.99413,0.33922
832.50434,0.30686
831.01455,0.28840
829.52477,0.24640
828.03498,0.20992
826.54519,0.19938
825.05540,0.18887
823.56561,0.19669
822.07582,0.17183
820.58604,0.16479
819.09625,0.15228
817.60646,0.13979
816.11667,0.14303
814.62688,0.14525
813.13709,0.14513
811.64730,0.15473
810.15752,0.15375
808.66773,0.15279
807.17794,0.15932
805.68815,0.15697
804.19836,0.16198
802.70857,0.15562
801.21879,0.14929
799.72900,0.16065
798.23921,0.15450
796.74942,0.14131
795.25963,0.14724
793.76984,0.15320
792.28006,0.15317
790.79027,0.16913
789.30048,0.19086
787.81069,0.22885
786.32090,0.23913
784.83111,0.24942
783.34132,0.28434
781.85154,0.30830
780.36175,0.37468
778.87196,0.37997
777.38217,0.38528
775.89238,0.40148
774.40259,0.42555
772.91281,0.43212
771.42302,0.42693
769.93323,0.42176
768.44344,0.37920
766.95365,0.29320
765.46386,0.25435
763.97407,0.18777
762.48429,0.17344
760.99450,0.15913
759.50471,0.15570
758.01492,0.13529
756.52513,0.10993
755.03534,0.10946
753.54556,0.10901
752.05577,0.09942
750.56598,0.08725
749.07619,0.05520
747.58640,0.05917
746.09661,0.06316
744.60683,0.05292
743.11704,0.03353
741.62725,0.01522
740.13746,0.02258
738.64767,0.02997
737.15788,0.00990
735.66809,0.01262
734.17831,0.00647
732.68852,0.00709
731.19873,0.00773
729.70894,0.00984
728.21915,0.00647
726.72936,0.02078
725.23958,0.00658
723.74979,0.01570
722.26000,0.02484
720.77021,0.01307
719.28042,0.00421
717.79063,0.01790
716.30084,0.01290
714.81106,0.00793
713.32127,0.01646
711.83148,0.01245
710.34169,0.01396
708.85190,0.02152
707.36211,0.02910
705.87233,0.02257
704.38254,0.02706
702.89275,0.01848
701.40296,0.02826
699.91317,0.03805
698.42338,0.03740
696.93360,0.07578
695.44381,0.08984
693.95402,0.10038
692.46423,0.11096
690.97444,0.12404
689.48465,0.14343
687.99486,0.16808
686.50508,0.17443
685.01529,0.18081
683.52550,0.22045
682.03571,0.22164
680.54592,0.23672
679.05613,0.24935
677.56635,0.26200
676.07656,0.25700
674.58677,0.25465
673.09698,0.23688
671.60719,0.22293
670.11740,0.20900
668.62761,0.18267
667.13783,0.17415
665.64804,0.16488
664.15825,0.15563
662.66846,0.13698
661.17867,0.08015
659.68888,0.07647
658.19910,0.05541
656.70931,0.03437
655.21952,0.04542
653.72973,0.04210
652.23994,0.03724
650.75015,0.04038
649.26037,0.04354
647.77058,0.05760
646.28079,0.03869
644.79100,0.04154
643.30121,0.03826
641.81142,0.03500
640.32163,0.04473
638.83185,0.03694
637.34206,0.00798
635.85227,0.00721
634.36248,0.00647
632.87269,0.01959
631.38290,0.01180
629.89312,0.00875
628.40333,0.01868
626.91354,0.02863
625.42375,0.00889
623.93396,0.02269
622.44417,0.02303
620.95438,0.02339
619.46460,0.03909
617.97481,0.02314
616.48502,0.07841
614.99523,0.09274
613.50544,0.10710
612.01565,0.10329
610.52587,0.15316
609.03608,0.18971
607.54629,0.20704
606.05650,0.22440
604.56671,0.23432
603.07692,0.30342
601.58714,0.33224
600.09735,0.36108
598.60756,0.38497
597.11777,0.41674
595.62798,0.46083
594.13819,0.42997
592.64840,0.39912
591.15862,0.36896
589.66883,0.32809
588.17904,0.27415
586.68925,0.25924
585.19946,0.24435
583.70967,0.18552
582.21989,0.11729
580.73010,0.10535
579.24031,0.09344
577.75052,0.09281
576.26073,0.06734
574.77094,0.06833
573.28115,0.05455
571.79137,0.04080
570.30158,0.04840
568.81179,0.05368
567.32200,0.06185
565.83221,0.07005
564.34242,0.09922
562.85264,0.12814
561.36285,0.16338
559.87306,0.17024
558.38327,0.17712
556.89348,0.16322
555.40369,0.20640
553.91391,0.20119
552.42412,0.19600
550.93433,0.21072
549.44454,0.21736
547.95475,0.24313
546.46496,0.25086
544.97517,0.25861
543.48539,0.26221
541.99560,0.29121
540.50581,0.30048
539.01602,0.30978
537.52623,0.35142
536.03644,0.39753
534.54666,0.44708
533.05687,0.45765
531.56708,0.46824
530.07729,0.54167
528.58750,0.56828
527.09771,0.58785
525.60792,0.60744
524.11814,0.64590
522.62835,0.69171
521.13856,0.75351
519.64877,0.80552
518.15898,0.85756
516.66919,0.88855
515.17941,0.85596
513.68962,0.85939
512.19983,0.86284
510.71004,0.81959
509.22025,0.78292
507.73046,0.72532
506.24068,0.67927
504.75089,0.63325
503.26110,0.49381
501.77131,0.35360
500.28152,0.33723
498.79173,0.32087
497.30194,0.25691
495.81216,0.21155
494.32237,0.17682
492.83258,0.14211
491.34279,0.14002
489.85300,0.12302
488.36321,0.11417
486.87343,0.09566
485.38364,0.07717
483.89385,0.07990
482.40406,0.11172
480.91427,0.11463
479.42448,0.11757
477.93469,0.13009
476.44491,0.17666
474.95512,0.19315
473.46533,0.20966
471.97554,0.20631
470.48575,0.22471
468.99596,0.22376
467.50618,0.21892
466.01639,0.21409
464.52660,0.13967
463.03681,0.11082
461.54702,0.10986
460.05723,0.10893
458.56745,0.06497
457.07766,0.04040
455.58787,0.03928
454.09808,0.03818
452.60829,0.04954
451.11850,0.03920
449.62871,0.03831
448.13893,0.03745
446.64914,0.02456
445.15935,0.00647
443.66956,0.00763
442.17977,0.01065
440.68998,0.01369
439.20020,0.03272
437.71041,0.02455
436.22062,0.02126
434.73083,0.01798
433.24104,0.01905
431.75125,0.02041
430.26146,0.02898
428.77168,0.03758
427.28189,0.06100
425.79210,0.05224
424.30231,0.04966
422.81252,0.04711
421.32273,0.04811
419.83295,0.03893
418.34316,0.02925
416.85337,0.01959
415.36358,0.01834
413.87379,0.03176
412.38400,0.03880
410.89422,0.04586
409.40443,0.03554
407.91464,0.03755
406.42485,0.02859
404.93506,0.02986
403.44527,0.03115
401.95548,0.03221
400.46570,0.01811
398.97591,0.01660
397.48612,0.01511
395.99633,0.03249
394.50654,0.02844
393.01675,0.01865
391.52697,0.00888
390.03718,0.00647
388.54739,0.02278
387.05760,0.01805
385.56781,0.01334
384.07802,0.00643
382.58824,0.00609
381.09845,0.00983
379.60866,0.01360
378.11887,0.02694
376.62908,0.00000
375.13929,0.00331
373.64950,0.00665
372.15972,0.00989
370.66993,0.01654
369.18014,0.02727
367.69035,0.03802
366.20056,0.01450
364.71077,0.01221
363.22099,0.03049
361.73120,0.04880
360.24141,0.04292
358.75162,0.07396
357.26183,0.07925
355.77204,0.08457
354.28225,0.07774
352.79247,0.08978
351.30268,0.08509
349.81289,0.08043
348.32310,0.08416
346.83331,0.05992
345.34352,0.07483
343.85374,0.08976
342.36395,0.09909
340.87416,0.07677
339.38437,0.05867
337.89458,0.04059
336.40479,0.01756
334.91501,0.02204
333.42522,0.01424
331.93543,0.00647
330.44564,0.06482
328.95585,0.07268
327.46606,0.05583
325.97627,0.03901
324.48649,0.03560
322.99670,0.05394
321.50691,0.04796
320.01712,0.04200
318.52733,0.05465
317.03754,0.07335
315.54776,0.08069
314.05797,0.08805
312.56818,0.09137
311.07839,0.05730
309.58860,0.06159
308.09881,0.06591
306.60902,0.03060
305.11924,0.03169
303.62945,0.03006
302.13966,0.02845
300.64987,0.01182
299.16008,0.00647
