1778.52000,0.01111
1777.03021,0.00799
1775.54042,0.01025
1774.05063,0.00857
1772.56085,0.00869
1771.07106,0.01181
1769.58127,0.01021
1768.09148,0.01179
1766.60169,0.00785
1765.11190,0.00949
1763.62212,0.00342
1762.13233,0.01085
1760.64254,0.01137
1759.15275,0.00735
1757.66296,0.01109
1756.17317,0.01505
1754.68339,0.01606
1753.19360,0.00759
1751.70381,0.00865
1750.21402,0.00775
1748.72423,0.00648
1747.23444,0.00484
1745.74465,0.00778
1744.25487,0.00342
1742.76508,0.01084
1741.27529,0.01690
1739.78550,0.01546
1738.29571,0.01959
1736.80592,0.01304
1735.31614,0.01068
1733.82635,0.01330
1732.33656,0.01911
1730.84677,0.01920
1729.35698,0.00822
1727.86719,0.01668
1726.37740,0.00000
1724.88762,0.00497
1723.39783,0.00243
1721.90804,0.00685
1720.41825,0.01011
1718.92846,0.01676
1717.43867,0.00342
1715.94889,0.01129
1714.45910,0.00849
1712.96931,0.00868
1711.47952,0.01424
1709.98973,0.01211
1708.49994,0.01158
1707.01016,0.00979
1705.52037,0.00802
1704.03058,0.00915
1702.54079,0.00654
1701.05100,0.00871
1699.56121,0.01130
1698.07142,0.00342
1696.58164,0.00531
1695.09185,0.01020
1693.60206,0.00976
1692.11227,0.01132
1690.62248,0.00737
1689.13269,0.01869
1687.64291,0.01122
1686.15312,0.02002
1684.66333,0.01398
1683.17354,0.01351
1681.68375,0.01901
1680.19396,0.02038
1678.70417,0.03187
1677.21439,0.02853
1675.72460,0.04324
1674.23481,0.03718
1672.74502,0.04124
1671.25523,0.04632
1669.76544,0.05162
1668.27566,0.06249
1666.78587,0.05873
1665.29608,0.05578
1663.80629,0.06078
1662.31650,0.07076
1660.82671,0.07383
1659.33693,0.07276
1657.84714,0.07271
1656.35735,0.07882
1654.86756,0.07505
1653.37777,0.08002
1651.88798,0.07314
1650.39819,0.07400
1648.90841,0.08122
1647.41862,0.07718
1645.92883,0.07871
1644.43904,0.08026
1642.94925,0.08580
1641.45946,0.08047
1639.96968,0.08745
1638.47989,0.09643
1636.99010,0.09632
1635.50031,0.10079
1634.01052,0.07478
1632.52073,0.08029
1631.03094,0.07751
1629.54116,0.09357
1628.05137,0.09380
1626.56158,0.08891
1625.07179,0.10247
1623.58200,0.10595
1622.09221,0.09479
1620.60243,0.08663
1619.11264,0.10366
1617.62285,0.09832
1616.13306,0.07993
1614.64327,0.08533
1613.15348,0.08502
1611.66370,0.08572
1610.17391,0.09180
1608.68412,0.10146
1607.19433,0.10937
1605.70454,0.10284
1604.21475,0.10020
1602.72496,0.09758
1601.23518,0.09746
1599.74539,0.09221
1598.25560,0.08997
1596.76581,0.08992
1595.27602,0.08633
1593.78623,0.08693
1592.29645,0.08636
1590.80666,0.08978
1589.31687,0.07679
1587.82708,0.06738
1586.33729,0.08216
1584.84750,0.08508
1583.35771,0.07733
1581.86793,0.08684
1580.37814,0.07894
1578.88835,0.07840
1577.39856,0.07986
1575.90877,0.07718
1574.41898,0.06858
1572.92920,0.06754
1571.43941,0.05642
1569.94962,0.04968
1568.45983,0.04297
1566.97004,0.04975
1565.48025,0.03436
1563.99047,0.04298
1562.50068,0.03735
1561.01089,0.04502
1559.52110,0.04122
1558.03131,0.02101
1556.54152,0.02994
1555.05173,0.02998
1553.56195,0.02331
1552.07216,0.02836
1550.58237,0.01005
1549.09258,0.00662
1547.60279,0.00758
1546.11300,0.01430
1544.62322,0.00342
1543.13343,0.01153
1541.64364,0.00678
1540.15385,0.00909
1538.66406,0.01143
1537.17427,0.00656
1535.68448,0.02082
1534.19470,0.02044
1532.70491,0.02444
1531.21512,0.02490
1529.72533,0.02974
1528.23554,0.01956
1526.74575,0.02247
1525.25597,0.01946
1523.76618,0.02579
1522.27639,0.02878
1520.78660,0.03357
1519.29681,0.03561
1517.80702,0.05571
1516.31724,0.05621
1514.82745,0.05853
1513.33766,0.06156
1511.84787,0.06461
1510.35808,0.06046
1508.86829,0.04366
1507.37850,0.06016
1505.88872,0.05509
1504.39893,0.05342
1502.90914,0.04899
1501.41935,0.07034
1499.92956,0.08994
1498.43977,0.06934
1496.94999,0.08086
1495.46020,0.09934
1493.97041,0.10675
1492.48062,0.12924
1490.99083,0.12164
1489.50104,0.13249
1488.01125,0.13584
1486.52147,0.13921
1485.03168,0.17074
1483.54189,0.20387
1482.05210,0.21207
1480.56231,0.22624
1479.07252,0.23032
1477.58274,0.25068
1476.09295,0.23738
1474.60316,0.25521
1473.11337,0.25543
1471.62358,0.28322
1470.13379,0.28408
1468.64401,0.28517
1467.15422,0.33066
1465.66443,0.32377
1464.17464,0.31691
1462.68485,0.35098
1461.19506,0.39617
1459.70527,0.45089
1458.21549,0.51257
1456.72570,0.57804
1455.23591,0.62590
1453.74612,0.67419
1452.25633,0.70466
1450.76654,0.72427
1449.27676,0.74905
1447.78697,0.73027
1446.29718,0.73311
1444.80739,0.71240
1443.31760,0.69171
1441.82781,0.61558
1440.33802,0.57414
1438.84824,0.52460
1437.35845,0.53372
1435.86866,0.50979
1434.37887,0.53184
1432.88908,0.60087
1431.39929,0.68974
1429.90951,0.77486
1428.41972,0.83723
1426.92993,0.86673
1425.44014,0.89210
1423.95035,0.92403
1422.46056,0.95598
1420.97078,0.98004
1419.48099,0.96925
1417.99120,0.98622
1416.50141,0.95369
1415.01162,0.91543
1413.52183,0.86631
1412.03204,0.78571
1410.54226,0.73346
1409.05247,0.68223
1407.56268,0.61458
1406.07289,0.58301
1404.58310,0.55008
1403.09331,0.51717
1401.60353,0.44883
1400.11374,0.41399
1398.62395,0.36035
1397.13416,0.29466
1395.64437,0.24464
1394.15458,0.21306
1392.66479,0.16864
1391.17501,0.13731
1389.68522,0.12107
1388.19543,0.10861
1386.70564,0.09182
1385.21585,0.07505
1383.72606,0.04821
1382.23628,0.04397
1380.74649,0.03401
1379.25670,0.02309
1377.76691,0.02645
1376.27712,0.00567
1374.78733,0.02691
1373.29755,0.00380
1371.80776,0.00330
1370.31797,0.00342
1368.82818,0.00643
1367.33839,0.00946
1365.84860,0.03044
1364.35881,0.03382
1362.86903,0.04692
1361.37924,0.07551
1359.88945,0.08351
1358.39966,0.10680
1356.90987,0.11961
1355.42008,0.16889
1353.93030,0.22533
1352.44051,0.25931
1350.95072,0.29332
1349.46093,0.37440
1347.97114,0.45570
1346.48135,0.55228
1344.99156,0.61818
1343.50178,0.69421
1342.01199,0.76194
1340.52220,0.81761
1339.03241,0.83626
1337.54262,0.82898
1336.05283,0.84797
1334.56305,0.86699
1333.07326,0.90773
1331.58347,0.90015
1330.09368,0.89180
1328.60389,0.85416
1327.11410,0.82843
1325.62432,0.78628
1324.13453,0.74831
1322.64474,0.72939
1321.15495,0.70771
1319.66516,0.67864
1318.17537,0.64958
1316.68558,0.60520
1315.19580,0.56421
1313.70601,0.51512
1312.21622,0.49538
1310.72643,0.47091
1309.23664,0.42328
1307.74685,0.40440
1306.25707,0.36039
1304.76728,0.33789
1303.27749,0.31542
1301.78770,0.27009
1300.29791,0.21845
1298.80812,0.19477
1297.31834,0.17963
1295.82855,0.16431
1294.33876,0.14486
1292.84897,0.11156
1291.35918,0.09513
1289.86939,0.09220
1288.37960,0.08929
1286.88982,0.09115
1285.40003,0.08274
1283.91024,0.06980
1282.42045,0.05233
1280.93066,0.04459
1279.44087,0.04460
1277.95109,0.03571
1276.46130,0.03696
1274.97151,0.03417
1273.48172,0.03140
1271.99193,0.03213
1270.50214,0.03525
1269.01235,0.01621
1267.52257,0.02256
1266.03278,0.02913
1264.54299,0.02106
1263.05320,0.03203
1261.56341,0.02064
1260.07362,0.00928
1258.58384,0.00983
1257.09405,0.01832
1255.60426,0.01456
1254.11447,0.00864
1252.62468,0.00592
1251.13489,0.00342
1249.64511,0.01320
1248.15532,0.01330
1246.66553,0.00876
1245.17574,0.00425
1243.68595,0.02349
1242.19616,0.01541
1240.70637,0.01984
1239.21659,0.02192
1237.72680,0.03630
1236.23701,0.02099
1234.74722,0.01958
1233.25743,0.02472
1231.76764,0.02989
1230.27786,0.02062
1228.78807,0.01950
1227.29828,0.01801
1225.80849,0.01158
1224.31870,0.00578
1222.82891,0.00357
1221.33912,0.01596
1219.84934,0.02868
1218.35955,0.04142
1216.86976,0.05349
1215.37997,0.07094
1213.89018,0.05096
1212.40039,0.08767
1210.91061,0.07488
1209.42082,0.06429
1207.93103,0.06333
1206.44124,0.06240
1204.95145,0.07804
1203.46166,0.08973
1201.97188,0.06579
1200.48209,0.05931
1198.99230,0.05464
1197.50251,0.04523
1196.01272,0.04655
1194.52293,0.04145
1193.03314,0.03638
1191.54336,0.02945
1190.05357,0.02195
1188.56378,0.04003
1187.07399,0.02605
1185.58420,0.03387
1184.09441,0.01122
1182.60463,0.00731
1181.11484,0.00342
1179.62505,0.02186
1178.13526,0.01833
1176.64547,0.02018
1175.15568,0.01808
1173.66589,0.02275
1172.17611,0.02744
1170.68632,0.01542
1169.19653,0.00342
1167.70674,0.02437
1166.21695,0.02078
1164.72716,0.03901
1163.23738,0.04834
1161.74759,0.04542
1160.25780,0.06768
1158.76801,0.07174
1157.27822,0.07583
1155.78843,0.08073
1154.29865,0.06505
1152.80886,0.08189
1151.31907,0.10568
1149.82928,0.09622
1148.33949,0.12323
1146.84970,0.13165
1145.35991,0.14009
1143.87013,0.13765
1142.38034,0.16437
1140.89055,0.16555
1139.40076,0.16715
1137.91097,0.18047
1136.42118,0.19104
1134.93140,0.20242
1133.44161,0.21383
1131.95182,0.22982
1130.46203,0.24206
1128.97224,0.23235
1127.48245,0.24326
1125.99266,0.24766
1124.50288,0.21582
1123.01309,0.21849
1121.52330,0.22117
1120.03351,0.22587
1118.54372,0.23474
1117.05393,0.23235
1115.56415,0.23078
1114.07436,0.24191
1112.58457,0.23603
1111.09478,0.23017
1109.60499,0.22354
1108.11520,0.23179
1106.62542,0.22462
1105.13563,0.24600
1103.64584,0.23907
1102.15605,0.22742
1100.66626,0.21816
1099.17647,0.20893
1097.68668,0.20072
1096.19690,0.19807
1094.70711,0.20774
1093.21732,0.19484
1091.72753,0.18098
1090.23774,0.16961
1088.74795,0.15827
1087.25817,0.17182
1085.76838,0.16242
1084.27859,0.18671
1082.78880,0.19340
1081.29901,0.19952
1079.80922,0.18644
1078.31943,0.19231
1076.82965,0.19821
1075.33986,0.20363
1073.85007,0.22691
1072.36028,0.23119
1070.87049,0.25293
1069.38070,0.28440
1067.89092,0.30639
1066.40113,0.32840
1064.91134,0.38312
1063.42155,0.46442
1061.93176,0.55049
1060.44197,0.63818
1058.95219,0.69855
1057.46240,0.73328
1055.97261,0.76805
1054.48282,0.90139
1052.99303,0.96741
1051.50324,0.95618
1050.01345,0.93963
1048.52367,0.91300
1047.03388,0.89204
1045.54409,0.87111
1044.05430,0.80770
1042.56451,0.74472
1041.07472,0.71544
1039.58494,0.65884
1038.09515,0.58900
1036.60536,0.56098
1035.11557,0.53298
1033.62578,0.46698
1032.13599,0.39743
1030.64620,0.35583
1029.15642,0.31090
1027.66663,0.28867
1026.17684,0.26647
1024.68705,0.23567
1023.19726,0.20094
1021.70747,0.15811
1020.21769,0.14026
1018.72790,0.11352
1017.23811,0.11365
1015.74832,0.11381
1014.25853,0.10200
1012.76874,0.10033
1011.27896,0.09075
1009.78917,0.08516
1008.29938,0.06612
1006.80959,0.06127
1005.31980,0.05645
1003.83001,0.03926
1002.34022,0.03122
1000.85044,0.04717
999.36065,0.04650
997.87086,0.05230
996.38107,0.05812
994.89128,0.06941
993.40149,0.09519
991.91171,0.13427
990.42192,0.14999
988.93213,0.18139
987.44234,0.18063
985.95255,0.17988
984.46276,0.17490
982.97297,0.16697
981.48319,0.13352
979.99340,0.10147
978.50361,0.08569
977.01382,0.06994
975.52403,0.05460
974.03424,0.04227
972.54446,0.02500
971.05467,0.01667
969.56488,0.00342
968.07509,0.00459
966.58530,0.00578
965.09551,0.00710
963.60573,0.01181
962.11594,0.00229
960.62615,0.00517
959.13636,0.00916
957.64657,0.01318
956.15678,0.02307
954.66699,0.01436
953.17721,0.01894
951.68742,0.02435
950.19763,0.02482
948.70784,0.02532
947.21805,0.04467
945.72826,0.06324
944.23848,0.07392
942.74869,0.09512
941.25890,0.09416
939.76911,0.10837
938.27932,0.12261
936.78953,0.14708
935.29974,0.16365
933.80996,0.19530
932.32017,0.19290
930.83038,0.19815
929.34059,0.20342
927.85080,0.23239
926.36101,0.26258
924.87123,0.27535
923.38144,0.35888
921.89165,0.38884
920.40186,0.41882
918.91207,0.53214
917.42228,0.64409
915.93250,0.78598
914.44271,0.98218
912.95292,1.10183
911.46313,1.22151
909.97334,1.44908
908.48355,1.67093
906.99376,1.85200
905.50398,1.94612
904.01419,1.97280
902.52440,1.99951
901.03461,2.00000
899.54482,1.96386
898.05503,1.82928
896.56525,1.63391
895.07546,1.48165
893.58567,1.32942
892.09588,1.01288
890.60609,0.77699
889.11630,0.59680
887.62651,0.43228
886.13673,0.37803
884.64694,0.32381
883.15715,0.21880
881.66736,0.15284
880.17757,0.10790
878.68778,0.09954
877.19800,0.09121
875.70821,0.05169
874.21842,0.03360
872.72863,0.02900
871.23884,0.01531
869.74905,0.01106
868.25927,0.00683
866.76948,0.01560
865.27969,0.00756
863.78990,0.01281
862.30011,0.03453
860.81032,0.04420
859.32053,0.05388
857.83075,0.05904
856.34096,0.06699
854.85117,0.08943
853.36138,0.09822
851.87159,0.11229
850.38180,0.12638
848.89202,0.12890
847.40223,0.15820
845.91244,0.18296
844.42265,0.19497
842.93286,0.20701
841.44307,0.21164
839.95329,0.22085
838.46350,0.24177
836.97371,0.25083
835.48392,0.25447
833.99413,0.25813
832.50434,0.25954
831.01455,0.25225
829.52477,0.20695
828.03498,0.17693
826.54519,0.17051
825.05540,0.16412
823.56561,0.13457
822.07582,0.10484
820.58604,0.10189
819.09625,0.10718
817.60646,0.11250
816.11667,0.11061
814.62688,0.12419
813.13709,0.12294
811.64730,0.13262
810.15752,0.13062
808.66773,0.12866
807.17794,0.11126
805.68815,0.12737
804.19836,0.13360
802.70857,0.12202
801.21879,0.11047
799.72900,0.10310
798.23921,0.11022
796.74942,0.12053
795.25963,0.12641
793.76984,0.13231
792.28006,0.14567
790.79027,0.14023
789.30048,0.13798
787.81069,0.18014
786.32090,0.19983
784.83111,0.21955
783.34132,0.26118
781.85154,0.28858
780.36175,0.34096
778.87196,0.36395
777.38217,0.38696
775.89238,0.40811
774.40259,0.40908
772.91281,0.41205
771.42302,0.40663
769.93323,0.40124
768.44344,0.35495
766.95365,0.30058
765.46386,0.20739
763.97407,0.17743
762.48429,0.17275
760.99450,0.16809
759.50471,0.13622
758.01492,0.13825
756.52513,0.11197
755.03534,0.10652
753.54556,0.10110
752.05577,0.10402
750.56598,0.07665
749.07619,0.06397
747.58640,0.05210
746.09661,0.04026
744.60683,0.03122
743.11704,0.03389
741.62725,0.03381
740.13746,0.02989
738.64767,0.02599
737.15788,0.02262
735.66809,0.00342
734.17831,0.01880
732.68852,0.02143
731.19873,0.02408
729.70894,0.01636
728.21915,0.00885
726.72936,0.00514
725.23958,0.00809
723.74979,0.01165
722.26000,0.01524
720.77021,0.01054
719.28042,0.00605
717.79063,0.00278
716.30084,0.00871
714.81106,0.01466
713.32127,0.02173
711.83148,0.03219
710.34169,0.02425
708.85190,0.02674
707.36211,0.02925
705.87233,0.02297
704.38254,0.03652
702.89275,0.02871
701.40296,0.03448
699.91317,0.04029
698.42338,0.06444
696.93360,0.07574
695.44381,0.10410
693.95402,0.10980
692.46423,0.11552
690.97444,0.12731
689.48465,0.14171
687.99486,0.17375
686.50508,0.18463
685.01529,0.19553
683.52550,0.23022
682.03571,0.25445
680.54592,0.25908
679.05613,0.25977
677.56635,0.26049
676.07656,0.24241
674.58677,0.25388
673.09698,0.22595
671.60719,0.21121
670.11740,0.19650
668.62761,0.18033
667.13783,0.15526
665.64804,0.13607
664.15825,0.11690
662.66846,0.08438
661.17867,0.07843
659.68888,0.04675
658.19910,0.03967
656.70931,0.03260
655.21952,0.03428
653.72973,0.03876
652.23994,0.04187
650.75015,0.04699
649.26037,0.05213
647.77058,0.04423
646.28079,0.03436
644.79100,0.04909
643.30121,0.04294
641.81142,0.03681
640.32163,0.03834
638.83185,0.02582
637.34206,0.00778
635.85227,0.01013
634.36248,0.01251
632.87269,0.00342
631.38290,0.01161
629.89312,0.02023
628.40333,0.02966
626.91354,0.03911
625.42375,0.01650
623.93396,0.03353
622.44417,0.02632
620.95438,0.01913
619.46460,0.03326
617.97481,0.03454
616.48502,0.03981
614.99523,0.05827
613.50544,0.07676
612.01565,0.12252
610.52587,0.13878
609.03608,0.16833
607.54629,0.18187
606.05650,0.19543
604.56671,0.23853
603.07692,0.31019
601.58714,0.34739
600.09735,0.38463
598.60756,0.41198
597.11777,0.40409
595.62798,0.40811
594.13819,0.39036
592.64840,0.37264
591.15862,0.35495
589.66883,0.32083
588.17904,0.26574
586.68925,0.24257
585.19946,0.21942
583.70967,0.14380
582.21989,0.13616
580.73010,0.11645
579.24031,0.09677
577.75052,0.07177
576.26073,0.06699
574.77094,0.06105
573.28115,0.06078
571.79137,0.06054
570.30158,0.06022
568.81179,0.09915
567.32200,0.10295
565.83221,0.10676
564.34242,0.13031
562.85264,0.13249
561.36285,0.14322
559.87306,0.14802
558.38327,0.15285
556.89348,0.16602
555.40369,0.19626
553.91391,0.19740
552.42412,0.19856
550.93433,0.20569
549.44454,0.21205
547.95475,0.23270
546.46496,0.22247
544.97517,0.21226
543.48539,0.22229
541.99560,0.25552
540.50581,0.27510
539.01602,0.29471
537.52623,0.34406
536.03644,0.39462
534.54666,0.43886
533.05687,0.45867
531.56708,0.47849
530.07729,0.51350
528.58750,0.55527
527.09771,0.59577
525.60792,0.63630
524.11814,0.72609
522.62835,0.79133
521.13856,0.80746
519.64877,0.81758
518.15898,0.82772
516.66919,0.89564
515.17941,0.88413
513.68962,0.88127
512.19983,0.87844
510.71004,0.85453
509.22025,0.83004
507.73046,0.75507
506.24068,0.68666
504.75089,0.61827
503.26110,0.51127
501.77131,0.41718
500.28152,0.36610
498.79173,0.31505
497.30194,0.26897
495.81216,0.20013
494.32237,0.18372
492.83258,0.16733
491.34279,0.12769
489.85300,0.12968
488.36321,0.11009
486.87343,0.10163
485.38364,0.09319
483.89385,0.09289
482.40406,0.12749
480.91427,0.12556
479.42448,0.12366
477.93469,0.15734
476.44491,0.16509
474.95512,0.18158
473.46533,0.19810
471.97554,0.20236
470.48575,0.20585
468.99596,0.21293
467.50618,0.19745
466.01639,0.18200
464.52660,0.12635
463.03681,0.11055
461.54702,0.09616
460.05723,0.08179
458.56745,0.07201
457.07766,0.05293
455.58787,0.05112
454.09808,0.04933
452.60829,0.02895
451.11850,0.02047
449.62871,0.01935
448.13893,0.01825
446.64914,0.03521
445.15935,0.01970
443.66956,0.02343
442.17977,0.03897
440.68998,0.05454
439.20020,0.05399
437.71041,0.04910
436.22062,0.03532
434.73083,0.02156
433.24104,0.02467
431.75125,0.05237
430.26146,0.04542
428.77168,0.03850
427.28189,0.06033
425.79210,0.05762
424.30231,0.06394
422.81252,0.07029
421.32273,0.06647
419.83295,0.04325
418.34316,0.02332
416.85337,0.00342
415.36358,0.00648
413.87379,0.02758
412.38400,0.04327
410.89422,0.05898
409.40443,0.05658
407.91464,0.03737
406.42485,0.03998
404.93506,0.04875
403.44527,0.05755
401.95548,0.03943
400.46570,0.02114
398.97591,0.02129
397.48612,0.02147
395.99633,0.03336
394.50654,0.02824
393.01675,0.02770
391.52697,0.02718
390.03718,0.02312
388.54739,0.02760
387.05760,0.01914
385.56781,0.01069
384.07802,0.00968
382.58824,0.02673
381.09845,0.03122
379.60866,0.03573
378.11887,0.01718
376.62908,0.00342
375.13929,0.00535
373.64950,0.00731
372.15972,0.01682
370.66993,0.01664
369.18014,0.01002
367.69035,0.00342
366.20056,0.02565
364.71077,0.03621
363.22099,0.02887
361.73120,0.02156
360.24141,0.04408
358.75162,0.09793
357.26183,0.07831
355.77204,0.05871
354.28225,0.06786
352.79247,0.06832
351.30268,0.05780
349.81289,0.04732
348.32310,0.04151
346.83331,0.04563
345.34352,0.04254
343.85374,0.03948
342.36395,0.03813
340.87416,0.02650
339.38437,0.02549
337.89458,0.02451
336.40479,0.02048
334.91501,0.05669
333.42522,0.04191
331.93543,0.02716
330.44564,0.00342
328.95585,0.02285
327.46606,0.03071
325.97627,0.03860
324.48649,0.02601
322.99670,0.02634
321.50691,0.03104
320.01712,0.03577
318.52733,0.05023
317.03754,0.07185
315.54776,0.07477
314.05797,0.07772
312.56818,0.07861
311.07839,0.09557
309.58860,0.07135
308.09881,0.04715
306.60902,0.04913
305.11924,0.04281
303.62945,0.03374
302.13966,0.02470
300.64987,0.00458
299.16008,0.00342
