1778.52000,0.01063
1777.03021,0.01629
1775.54042,0.01460
1774.05063,0.02100
1772.56085,0.00000
1771.07106,0.00576
1769.58127,0.01177
1768.09148,0.01411
1766.60169,0.01210
1765.11190,0.01542
1763.62212,0.01530
1762.13233,0.01775
1760.64254,0.00938
1759.15275,0.00865
1757.66296,0.01876
1756.17317,0.00932
1754.68339,0.01395
1753.19360,0.01493
1751.70381,0.01293
1750.21402,0.01418
1748.72423,0.01315
1747.23444,0.01214
1745.74465,0.01231
1744.25487,0.00698
1742.76508,0.01765
1741.27529,0.01152
1739.78550,0.01163
1738.29571,0.02007
1736.80592,0.01148
1735.31614,0.01236
1733.82635,0.01234
1732.33656,0.01235
1730.84677,0.01491
1729.35698,0.01519
1727.86719,0.00674
1726.37740,0.01284
1724.88762,0.01388
1723.39783,0.02025
1721.90804,0.01490
1720.41825,0.01878
1718.92846,0.00794
1717.43867,0.00865
1715.94889,0.02141
1714.45910,0.01600
1712.96931,0.02167
1711.47952,0.00686
1709.98973,0.01545
1708.49994,0.02015
1707.01016,0.01438
1705.52037,0.00865
1704.03058,0.02118
1702.54079,0.02037
1701.05100,0.01843
1699.56121,0.01744
1698.07142,0.01878
1696.58164,0.01853
1695.09185,0.02705
1693.60206,0.02639
1692.11227,0.02713
1690.62248,0.02767
1689.13269,0.02292
1687.64291,0.02835
1686.15312,0.02688
1684.66333,0.03419
1683.17354,0.04061
1681.68375,0.03345
1680.19396,0.03254
1678.70417,0.03787
1677.21439,0.04139
1675.72460,0.05645
1674.23481,0.05863
1672.74502,0.04263
1671.25523,0.04578
1669.76544,0.06393
1668.27566,0.05330
1666.78587,0.06090
1665.29608,0.06737
1663.80629,0.06926
1662.31650,0.07531
1660.82671,0.08854
1659.33693,0.09879
1657.84714,0.07819
1656.35735,0.07858
1654.86756,0.07785
1653.37777,0.07783
1651.88798,0.08152
1650.39819,0.07187
1648.90841,0.07376
1647.41862,0.07038
1645.92883,0.07578
1644.43904,0.08120
1642.94925,0.08296
1641.45946,0.07783
1639.96968,0.08471
1638.47989,0.08493
1636.99010,0.07918
1635.50031,0.08521
1634.01052,0.07167
1632.52073,0.07844
1631.03094,0.07670
1629.54116,0.07983
1628.05137,0.08298
1626.56158,0.07924
1625.07179,0.08797
1623.58200,0.09373
1622.09221,0.08407
1620.60243,0.08457
1619.11264,0.10239
1617.62285,0.09211
1616.13306,0.09130
1614.64327,0.06379
1613.15348,0.07709
1611.66370,0.08050
1610.17391,0.07449
1608.68412,0.08602
1607.19433,0.07130
1605.70454,0.09025
1604.21475,0.09182
1602.72496,0.09342
1601.23518,0.08433
1599.74539,0.08355
1598.25560,0.08488
1596.76581,0.07793
1595.27602,0.07907
1593.78623,0.07402
1592.29645,0.08327
1590.80666,0.08333
1589.31687,0.07904
1587.82708,0.07615
1586.33729,0.08781
1584.84750,0.08934
1583.35771,0.08215
1581.86793,0.06968
1580.37814,0.08258
1578.88835,0.07638
1577.39856,0.06652
1575.90877,0.06959
1574.41898,0.06622
1572.92920,0.05090
1571.43941,0.05058
1569.94962,0.04533
1568.45983,0.04011
1566.97004,0.04953
1565.48025,0.04562
1563.99047,0.04773
1562.50068,0.04732
1561.01089,0.03864
1559.52110,0.03667
1558.03131,0.04394
1556.54152,0.04340
1555.05173,0.05071
1553.56195,0.03801
1552.07216,0.02532
1550.58237,0.02050
1549.09258,0.00740
1547.60279,0.00908
1546.11300,0.02115
1544.62322,0.02471
1543.13343,0.01955
1541.64364,0.00865
1540.15385,0.00977
1538.66406,0.01092
1537.17427,0.01981
1535.68448,0.01858
1534.19470,0.01323
1532.70491,0.02358
1531.21512,0.01850
1529.72533,0.02037
1528.23554,0.02526
1526.74575,0.02533
1525.25597,0.02934
1523.76618,0.03614
1522.27639,0.02822
1520.78660,0.03022
1519.29681,0.05415
1517.80702,0.03962
1516.31724,0.05460
1514.82745,0.04910
1513.33766,0.04950
1511.84787,0.04993
1510.35808,0.05279
1508.86829,0.05384
1507.37850,0.05814
1505.88872,0.05486
1504.39893,0.05114
1502.90914,0.06450
1501.41935,0.08387
1499.92956,0.07884
1498.43977,0.05977
1496.94999,0.07484
1495.46020,0.08808
1493.97041,0.09191
1492.48062,0.10797
1490.99083,0.10815
1489.50104,0.12425
1488.01125,0.12506
1486.52147,0.12589
1485.03168,0.14783
1483.54189,0.18961
1482.05210,0.19754
1480.56231,0.20319
1479.07252,0.24089
1477.58274,0.24267
1476.09295,0.24194
1474.60316,0.24653
1473.11337,0.23548
1471.62358,0.25556
1470.13379,0.26691
1468.64401,0.28358
1467.15422,0.30857
1465.66443,0.31377
1464.17464,0.31899
1462.68485,0.34106
1461.19506,0.37974
1459.70527,0.44148
1458.21549,0.47929
1456.72570,0.56160
1455.23591,0.61719
1453.74612,0.65415
1452.25633,0.69067
1450.76654,0.72583
1449.27676,0.69558
1447.78697,0.69299
1446.29718,0.67869
1444.80739,0.66233
1443.31760,0.64599
1441.82781,0.62300
1440.33802,0.56754
1438.84824,0.53722
1437.35845,0.50139
1435.86866,0.51767
1434.37887,0.49203
1432.88908,0.53623
1431.39929,0.61525
1429.90951,0.70605
1428.41972,0.77591
1426.92993,0.82528
1425.44014,0.87628
1423.95035,0.90012
1422.46056,0.92398
1420.97078,0.94810
1419.48099,0.92385
1417.99120,0.94203
1416.50141,0.92543
1415.01162,0.88213
1413.52183,0.84692
1412.03204,0.79283
1410.54226,0.76642
1409.05247,0.69787
1407.56268,0.67128
1406.07289,0.61475
1404.58310,0.58141
1403.09331,0.54809
1401.60353,0.45915
1400.11374,0.41125
1398.62395,0.38365
1397.13416,0.29731
1395.64437,0.28082
1394.15458,0.23739
1392.66479,0.20781
1391.17501,0.17503
1389.68522,0.14066
1388.19543,0.13004
1386.70564,0.11750
1385.21585,0.10497
1383.72606,0.06862
1382.23628,0.04036
1380.74649,0.06098
1379.25670,0.03830
1377.76691,0.02509
1376.27712,0.01881
1374.78733,0.00865
1373.29755,0.02520
1371.80776,0.01045
1370.31797,0.02959
1368.82818,0.02352
1367.33839,0.01747
1365.84860,0.02194
1364.35881,0.04417
1362.86903,0.05536
1361.37924,0.08271
1359.88945,0.10109
1358.39966,0.10913
1356.90987,0.14393
1355.42008,0.18704
1353.93030,0.25184
1352.44051,0.28866
1350.95072,0.32551
1349.46093,0.38922
1347.97114,0.44674
1346.48135,0.53770
1344.99156,0.58190
1343.50178,0.67267
1342.01199,0.72130
1340.52220,0.80613
1339.03241,0.82254
1337.54262,0.84912
1336.05283,0.87388
1334.56305,0.89866
1333.07326,0.94628
1331.58347,0.91742
1330.09368,0.91900
1328.60389,0.91646
1327.11410,0.86670
1325.62432,0.85614
1324.13453,0.83247
1322.64474,0.79016
1321.15495,0.76999
1319.66516,0.74316
1318.17537,0.71636
1316.68558,0.66792
1315.19580,0.59716
1313.70601,0.55591
1312.21622,0.52091
1310.72643,0.50851
1309.23664,0.47103
1307.74685,0.44278
1306.25707,0.42469
1304.76728,0.39603
1303.27749,0.36740
1301.78770,0.32035
1300.29791,0.27310
1298.80812,0.24384
1297.31834,0.18765
1295.82855,0.17572
1294.33876,0.13939
1292.84897,0.11945
1291.35918,0.10967
1289.86939,0.10533
1288.37960,0.10101
1286.88982,0.08485
1285.40003,0.07470
1283.91024,0.08901
1282.42045,0.08167
1280.93066,0.07367
1279.44087,0.06339
1277.95109,0.05913
1276.46130,0.04981
1274.97151,0.04514
1273.48172,0.04048
1271.99193,0.04599
1270.50214,0.04438
1269.01235,0.04002
1267.52257,0.03224
1266.03278,0.01825
1264.54299,0.03079
1263.05320,0.03414
1261.56341,0.02138
1260.07362,0.00865
1258.58384,0.01368
1257.09405,0.01620
1255.60426,0.03027
1254.11447,0.01856
1252.62468,0.02208
1251.13489,0.02009
1249.64511,0.02112
1248.15532,0.01203
1246.66553,0.01519
1245.17574,0.01836
1243.68595,0.01949
1242.19616,0.01004
1240.70637,0.01789
1239.21659,0.01840
1237.72680,0.03160
1236.23701,0.02271
1234.74722,0.01891
1233.25743,0.01836
1231.76764,0.01783
1230.27786,0.02977
1228.78807,0.03298
1227.29828,0.02654
1225.80849,0.01620
1224.31870,0.00865
1222.82891,0.01127
1221.33912,0.02797
1219.84934,0.03214
1218.35955,0.03633
1216.86976,0.04619
1215.37997,0.05884
1213.89018,0.06622
1212.40039,0.08514
1210.91061,0.07505
1209.42082,0.06936
1207.93103,0.06300
1206.44124,0.05667
1204.95145,0.06465
1203.46166,0.06551
1201.97188,0.04819
1200.48209,0.05785
1198.99230,0.05625
1197.50251,0.03185
1196.01272,0.03283
1194.52293,0.02876
1193.03314,0.02472
1191.54336,0.02278
1190.05357,0.02016
1188.56378,0.03048
1187.07399,0.02676
1185.58420,0.02952
1184.09441,0.02792
1182.60463,0.02243
1181.11484,0.01697
1179.62505,0.01199
1178.13526,0.00865
1176.64547,0.01841
1175.15568,0.01713
1173.66589,0.02072
1172.17611,0.02756
1170.68632,0.02025
1169.19653,0.01296
1167.70674,0.02240
1166.21695,0.02404
1164.72716,0.02915
1163.23738,0.03360
1161.74759,0.03876
1160.25780,0.04855
1158.76801,0.05388
1157.27822,0.05922
1155.78843,0.06932
1154.29865,0.08474
1152.80886,0.08198
1151.31907,0.09215
1149.82928,0.11179
1148.33949,0.10449
1146.84970,0.10079
1145.35991,0.09711
1143.87013,0.11730
1142.38034,0.15089
1140.89055,0.15362
1139.40076,0.16167
1137.91097,0.17851
1136.42118,0.18223
1134.93140,0.18736
1133.44161,0.19251
1131.95182,0.20944
1130.46203,0.20428
1128.97224,0.19360
1127.48245,0.20139
1125.99266,0.22348
1124.50288,0.21634
1123.01309,0.22581
1121.52330,0.23530
1120.03351,0.22892
1118.54372,0.21956
1117.05393,0.23765
1115.56415,0.22881
1114.07436,0.23012
1112.58457,0.21556
1111.09478,0.20103
1109.60499,0.20564
1108.11520,0.21996
1106.62542,0.22163
1105.13563,0.23323
1103.64584,0.22595
1102.15605,0.20972
1100.66626,0.20180
1099.17647,0.19391
1097.68668,0.17936
1096.19690,0.17866
1094.70711,0.17568
1093.21732,0.18678
1091.72753,0.15896
1090.23774,0.15858
1088.74795,0.15823
1087.25817,0.16482
1085.76838,0.16728
1084.27859,0.15709
1082.78880,0.17435
1081.29901,0.17527
1079.80922,0.16377
1078.31943,0.16889
1076.82965,0.17403
1075.33986,0.17504
1073.85007,0.19406
1072.36028,0.21056
1070.87049,0.18837
1069.38070,0.21207
1067.89092,0.23682
1066.40113,0.26160
1064.91134,0.30403
1063.42155,0.38312
1061.93176,0.45763
1060.44197,0.53931
1058.95219,0.61225
1057.46240,0.65848
1055.97261,0.70474
1054.48282,0.79458
1052.99303,0.87914
1051.50324,0.85335
1050.01345,0.84578
1048.52367,0.85990
1047.03388,0.84282
1045.54409,0.82577
1044.05430,0.79249
1042.56451,0.69817
1041.07472,0.68660
1039.58494,0.62828
1038.09515,0.56238
1036.60536,0.53118
1035.11557,0.50001
1033.62578,0.45238
1032.13599,0.37205
1030.64620,0.34199
1029.15642,0.28752
1027.66663,0.26994
1026.17684,0.25239
1024.68705,0.23486
1023.19726,0.19317
1021.70747,0.15356
1020.21769,0.13818
1018.72790,0.14103
1017.23811,0.13376
1015.74832,0.12651
1014.25853,0.11929
1012.76874,0.09619
1011.27896,0.09478
1009.78917,0.09546
1008.29938,0.07083
1006.80959,0.05474
1005.31980,0.03867
1003.83001,0.03300
1002.34022,0.02758
1000.85044,0.02541
999.36065,0.02742
997.87086,0.02783
996.38107,0.02827
994.89128,0.03403
993.40149,0.06471
991.91171,0.04724
990.42192,0.09778
988.93213,0.11931
987.44234,0.12680
985.95255,0.13432
984.46276,0.10776
982.97297,0.09850
981.48319,0.08881
979.99340,0.06970
978.50361,0.05556
977.01382,0.04145
975.52403,0.03300
974.03424,0.02642
972.54446,0.01803
971.05467,0.01657
969.56488,0.01398
968.07509,0.01130
966.58530,0.00865
965.09551,0.02463
963.60573,0.02544
962.11594,0.01520
960.62615,0.02758
959.13636,0.02304
957.64657,0.01852
956.15678,0.03097
954.66699,0.02754
953.17721,0.02851
951.68742,0.04102
950.19763,0.04780
948.70784,0.05461
947.21805,0.07364
945.72826,0.07980
944.23848,0.10097
942.74869,0.12768
941.25890,0.13737
939.76911,0.14581
938.27932,0.15428
936.78953,0.17556
935.29974,0.18558
933.80996,0.20414
932.32017,0.20498
930.83038,0.21069
929.34059,0.21642
927.85080,0.22955
926.36101,0.27566
924.87123,0.30058
923.38144,0.35918
921.89165,0.38427
920.40186,0.40939
918.91207,0.51276
917.42228,0.65048
915.93250,0.81519
914.44271,1.00067
912.95292,1.12199
911.46313,1.24334
909.97334,1.46253
908.48355,1.63289
906.99376,1.82263
905.50398,1.91239
904.01419,1.94514
902.52440,1.97792
901.03461,2.00000
899.54482,1.96796
898.05503,1.88686
896.56525,1.68227
895.07546,1.53497
893.58567,1.38770
892.09588,1.15207
890.60609,0.90288
889.11630,0.66754
887.62651,0.51886
886.13673,0.44336
884.64694,0.36789
883.15715,0.27620
881.66736,0.17924
880.17757,0.15142
878.68778,0.12778
877.19800,0.10416
875.70821,0.07918
874.21842,0.07428
872.72863,0.05257
871.23884,0.03297
869.74905,0.02951
868.25927,0.02608
866.76948,0.01853
865.27969,0.01653
863.78990,0.05097
862.30011,0.04303
860.81032,0.05216
859.32053,0.06132
857.83075,0.07234
856.34096,0.09584
854.85117,0.11359
853.36138,0.10902
851.87159,0.12440
850.38180,0.13981
848.89202,0.15328
847.40223,0.17208
845.91244,0.17569
844.42265,0.18785
842.93286,0.20004
841.44307,0.21225
839.95329,0.22379
838.46350,0.24780
836.97371,0.23381
835.48392,0.23702
833.99413,0.24024
832.50434,0.24799
831.01455,0.23847
829.52477,0.22922
828.03498,0.19210
826.54519,0.18024
825.05540,0.16840
823.56561,0.16131
822.07582,0.13143
820.58604,0.10157
819.09625,0.11161
817.60646,0.12167
816.11667,0.11608
814.62688,0.11812
813.13709,0.12779
811.64730,0.11996
810.15752,0.12611
808.66773,0.13228
807.17794,0.12384
805.68815,0.13593
804.19836,0.14367
802.70857,0.14048
801.21879,0.13732
799.72900,0.12785
798.23921,0.12024
796.74942,0.10713
795.25963,0.11190
793.76984,0.11669
792.28006,0.12117
790.79027,0.14018
789.30048,0.14585
787.81069,0.20201
786.32090,0.20957
784.83111,0.21716
783.34132,0.24021
781.85154,0.26006
780.36175,0.32187
778.87196,0.33796
777.38217,0.35408
775.89238,0.36941
774.40259,0.36864
772.91281,0.38103
771.42302,0.37454
769.93323,0.36808
768.44344,0.33031
766.95365,0.29993
765.46386,0.24953
763.97407,0.19823
762.48429,0.17276
760.99450,0.14732
759.50471,0.14679
758.01492,0.11609
756.52513,0.09948
755.03534,0.10086
753.54556,0.10226
752.05577,0.07789
750.56598,0.07681
749.07619,0.06238
747.58640,0.05432
746.09661,0.04628
744.60683,0.03562
743.11704,0.02406
741.62725,0.02174
740.13746,0.01518
738.64767,0.00865
737.15788,0.02376
735.66809,0.02093
734.17831,0.02872
732.68852,0.02916
731.19873,0.02962
729.70894,0.01836
728.21915,0.02394
726.72936,0.02494
725.23958,0.01006
723.74979,0.01817
722.26000,0.02630
720.77021,0.00865
719.28042,0.01114
717.79063,0.01065
716.30084,0.01987
714.81106,0.02912
713.32127,0.01257
711.83148,0.02578
710.34169,0.02542
708.85190,0.02197
707.36211,0.01854
705.87233,0.03646
704.38254,0.05416
702.89275,0.04009
701.40296,0.04045
699.91317,0.04083
698.42338,0.04826
696.93360,0.08452
695.44381,0.10974
693.95402,0.10446
692.46423,0.09920
690.97444,0.13325
689.48465,0.14820
687.99486,0.16133
686.50508,0.17413
685.01529,0.18697
683.52550,0.22736
682.03571,0.25833
680.54592,0.24715
679.05613,0.24948
677.56635,0.25183
676.07656,0.25824
674.58677,0.26421
673.09698,0.21905
671.60719,0.20905
670.11740,0.19908
668.62761,0.19086
667.13783,0.17068
665.64804,0.15502
664.15825,0.13938
662.66846,0.11259
661.17867,0.08836
659.68888,0.05447
658.19910,0.05967
656.70931,0.06489
655.21952,0.04559
653.72973,0.04407
652.23994,0.04394
650.75015,0.04511
649.26037,0.04630
647.77058,0.03081
646.28079,0.02111
644.79100,0.02940
643.30121,0.03322
641.81142,0.03707
640.32163,0.04543
638.83185,0.03677
637.34206,0.02836
635.85227,0.02020
634.36248,0.01207
632.87269,0.01807
631.38290,0.01095
629.89312,0.02137
628.40333,0.01500
626.91354,0.00865
625.42375,0.01550
623.93396,0.01985
622.44417,0.03113
620.95438,0.04243
619.46460,0.05007
617.97481,0.05221
616.48502,0.07234
614.99523,0.07983
613.50544,0.08733
612.01565,0.10915
610.52587,0.15749
609.03608,0.18120
607.54629,0.19364
606.05650,0.20611
604.56671,0.26745
603.07692,0.32098
601.58714,0.33087
600.09735,0.34078
598.60756,0.37295
597.11777,0.39892
595.62798,0.41801
594.13819,0.40831
592.64840,0.39864
591.15862,0.34729
589.66883,0.29135
588.17904,0.24350
586.68925,0.21872
585.19946,0.19396
583.70967,0.14963
582.21989,0.12054
580.73010,0.08825
579.24031,0.05598
577.75052,0.05715
576.26073,0.04659
574.77094,0.04804
573.28115,0.05227
571.79137,0.05653
570.30158,0.05160
568.81179,0.04576
567.32200,0.05309
565.83221,0.06044
564.34242,0.07979
562.85264,0.09503
561.36285,0.11236
559.87306,0.11888
558.38327,0.12543
556.89348,0.14698
555.40369,0.14044
553.91391,0.15535
552.42412,0.17029
550.93433,0.14723
549.44454,0.15738
547.95475,0.16963
546.46496,0.16749
544.97517,0.16538
543.48539,0.19798
541.99560,0.23382
540.50581,0.23282
539.01602,0.23185
537.52623,0.27675
536.03644,0.33412
534.54666,0.36939
533.05687,0.38890
531.56708,0.40844
530.07729,0.46729
528.58750,0.52247
527.09771,0.54865
525.60792,0.57484
524.11814,0.65591
522.62835,0.70243
521.13856,0.74276
519.64877,0.76007
518.15898,0.77740
516.66919,0.77632
515.17941,0.79646
513.68962,0.79509
512.19983,0.79373
510.71004,0.75266
509.22025,0.71344
507.73046,0.68324
506.24068,0.62311
504.75089,0.56300
503.26110,0.45568
501.77131,0.35507
500.28152,0.31796
498.79173,0.28087
497.30194,0.21051
495.81216,0.15239
494.32237,0.13727
492.83258,0.12217
491.34279,0.08094
489.85300,0.06232
488.36321,0.06745
486.87343,0.05833
485.38364,0.04922
483.89385,0.06710
482.40406,0.10045
480.91427,0.09602
479.42448,0.09163
477.93469,0.11859
476.44491,0.14166
474.95512,0.15173
473.46533,0.16183
471.97554,0.16354
470.48575,0.17542
468.99596,0.15851
467.50618,0.15361
466.01639,0.14873
464.52660,0.10655
463.03681,0.08836
461.54702,0.06973
460.05723,0.05112
458.56745,0.04752
457.07766,0.03910
455.58787,0.03900
454.09808,0.03893
452.60829,0.03841
451.11850,0.02940
449.62871,0.02329
448.13893,0.01720
446.64914,0.02277
445.15935,0.02123
443.66956,0.00865
442.17977,0.01882
440.68998,0.02902
439.20020,0.02990
437.71041,0.02805
436.22062,0.01839
434.73083,0.00875
433.24104,0.02540
431.75125,0.03355
430.26146,0.02214
428.77168,0.01075
427.28189,0.03741
425.79210,0.03851
424.30231,0.03595
422.81252,0.03341
421.32273,0.04980
419.83295,0.02288
418.34316,0.01305
416.85337,0.00323
415.36358,0.01556
413.87379,0.01248
412.38400,0.02475
410.89422,0.03705
409.40443,0.03820
407.91464,0.02209
406.42485,0.04034
404.93506,0.03407
403.44527,0.02782
401.95548,0.04499
400.46570,0.03568
398.97591,0.04322
397.48612,0.05078
395.99633,0.03809
394.50654,0.02957
393.01675,0.02579
391.52697,0.02204
390.03718,0.01775
388.54739,0.02339
387.05760,0.02075
385.56781,0.01814
384.07802,0.00865
382.58824,0.02664
381.09845,0.03417
379.60866,0.04172
378.11887,0.02545
376.62908,0.01381
375.13929,0.01164
373.64950,0.00949
372.15972,0.04747
370.66993,0.02717
369.18014,0.01887
367.69035,0.01060
366.20056,0.02436
364.71077,0.01003
363.22099,0.01531
361.73120,0.02061
360.24141,0.03631
358.75162,0.06401
357.26183,0.06547
355.77204,0.06695
354.28225,0.07583
352.79247,0.09095
351.30268,0.08640
349.81289,0.08187
348.32310,0.07195
346.83331,0.06689
345.34352,0.06463
343.85374,0.06238
342.36395,0.04518
340.87416,0.03930
339.38437,0.04565
337.89458,0.05203
336.40479,0.01234
334.91501,0.01347
333.42522,0.01105
331.93543,0.00865
330.44564,0.03425
328.95585,0.04329
327.46606,0.04751
325.97627,0.05175
324.48649,0.07169
322.99670,0.05962
321.50691,0.04539
320.01712,0.03118
318.52733,0.03739
317.03754,0.03901
315.54776,0.03236
314.05797,0.02573
312.56818,0.04563
311.07839,0.05588
309.58860,0.05439
308.09881,0.05293
306.60902,0.03675
305.11924,0.05170
303.62945,0.04547
302.13966,0.03927
300.64987,0.00982
299.16008,0.00865
