1778.52000,0.01621
1777.03021,0.02027
1775.54042,0.01055
1774.05063,0.02799
1772.56085,0.01487
1771.07106,0.01787
1769.58127,0.01630
1768.09148,0.01820
1766.60169,0.01092
1765.11190,0.00528
1763.62212,0.01369
1762.13233,0.00948
1760.64254,0.00506
1759.15275,0.01101
1757.66296,0.01078
1756.17317,0.00414
1754.68339,0.00878
1753.19360,0.00264
1751.70381,0.00665
1750.21402,0.00378
1748.72423,0.00898
1747.23444,0.01145
1745.74465,0.00727
1744.25487,0.01140
1742.76508,0.00336
1741.27529,0.01420
1739.78550,0.00506
1738.29571,0.00636
1736.80592,0.01284
1735.31614,0.01474
1733.82635,0.00862
1732.33656,-0.00000
1730.84677,0.01164
1729.35698,0.00674
1727.86719,0.01130
1726.37740,0.00507
1724.88762,0.00737
1723.39783,0.00786
1721.90804,0.00332
1720.41825,0.00247
1718.92846,0.00234
1717.43867,0.00845
1715.94889,0.00653
1714.45910,0.01314
1712.96931,0.00506
1711.47952,0.00091
1709.98973,0.01143
1708.49994,0.01669
1707.01016,0.01646
1705.52037,0.01625
1704.03058,0.00917
1702.54079,0.01062
1701.05100,0.01600
1699.56121,0.01727
1698.07142,0.01350
1696.58164,0.00516
1695.09185,0.01179
1693.60206,0.01039
1692.11227,0.02466
1690.62248,0.01871
1689.13269,0.01463
1687.64291,0.01977
1686.15312,0.02240
1684.66333,0.01655
1683.17354,0.01832
1681.68375,0.02654
1680.19396,0.02030
1678.70417,0.02007
1677.21439,0.02860
1675.72460,0.03784
1674.23481,0.04274
1672.74502,0.03754
1671.25523,0.04892
1669.76544,0.04768
1668.27566,0.04762
1666.78587,0.05861
1665.29608,0.05791
1663.80629,0.05860
1662.31650,0.06392
1660.82671,0.06996
1659.33693,0.07671
1657.84714,0.07083
1656.35735,0.06935
1654.86756,0.06214
1653.37777,0.06024
1651.88798,0.07447
1650.39819,0.07562
1648.90841,0.06368
1647.41862,0.08349
1645.92883,0.08390
1644.43904,0.08434
1642.94925,0.07687
1641.45946,0.07332
1639.96968,0.07924
1638.47989,0.08356
1636.99010,0.07480
1635.50031,0.07849
1634.01052,0.07829
1632.52073,0.06799
1631.03094,0.08256
1629.54116,0.07852
1628.05137,0.08324
1626.56158,0.08914
1625.07179,0.09644
1623.58200,0.10193
1622.09221,0.08422
1620.60243,0.07687
1619.11264,0.08312
1617.62285,0.09376
1616.13306,0.06764
1614.64327,0.08960
1613.15348,0.10146
1611.66370,0.08552
1610.17391,0.08157
1608.68412,0.08362
1607.19433,0.09558
1605.70454,0.09354
1604.21475,0.09232
1602.72496,0.09113
1601.23518,0.08456
1599.74539,0.08331
1598.25560,0.07955
1596.76581,0.07535
1595.27602,0.08888
1593.78623,0.06771
1592.29645,0.07348
1590.80666,0.06846
1589.31687,0.05380
1587.82708,0.05987
1586.33729,0.07999
1584.84750,0.07805
1583.35771,0.08695
1581.86793,0.06781
1580.37814,0.07883
1578.88835,0.06710
1577.39856,0.06621
1575.90877,0.05729
1574.41898,0.05598
1572.92920,0.05470
1571.43941,0.05919
1569.94962,0.05635
1568.45983,0.05353
1566.97004,0.04613
1565.48025,0.04037
1563.99047,0.04061
1562.50068,0.03881
1561.01089,0.03588
1559.52110,0.03160
1558.03131,0.03171
1556.54152,0.02425
1555.05173,0.03568
1553.56195,0.01493
1552.07216,0.02158
1550.58237,0.01583
1549.09258,0.02160
1547.60279,0.02831
1546.11300,0.01965
1544.62322,0.00917
1543.13343,0.01113
1541.64364,0.00506
1540.15385,0.00995
1538.66406,0.01486
1537.17427,0.02107
1535.68448,0.03005
1534.19470,0.03286
1532.70491,0.02280
1531.21512,0.01232
1529.72533,0.02393
1528.23554,0.02959
1526.74575,0.03182
1525.25597,0.03178
1523.76618,0.02532
1522.27639,0.02716
1520.78660,0.02673
1519.29681,0.02862
1517.80702,0.03698
1516.31724,0.04237
1514.82745,0.05308
1513.33766,0.04483
1511.84787,0.03661
1510.35808,0.04969
1508.86829,0.04853
1507.37850,0.04280
1505.88872,0.04008
1504.39893,0.05394
1502.90914,0.06277
1501.41935,0.06955
1499.92956,0.07682
1498.43977,0.07790
1496.94999,0.06267
1495.46020,0.07967
1493.97041,0.10290
1492.48062,0.10454
1490.99083,0.11793
1489.50104,0.12260
1488.01125,0.12592
1486.52147,0.12927
1485.03168,0.14183
1483.54189,0.17650
1482.05210,0.18819
1480.56231,0.20060
1479.07252,0.22338
1477.58274,0.22664
1476.09295,0.20831
1474.60316,0.21920
1473.11337,0.23426
1471.62358,0.22957
1470.13379,0.24283
1468.64401,0.26877
1467.15422,0.28416
1465.66443,0.30808
1464.17464,0.33202
1462.68485,0.37254
1461.19506,0.40849
1459.70527,0.41549
1458.21549,0.47011
1456.72570,0.51579
1455.23591,0.57737
1453.74612,0.60125
1452.25633,0.60146
1450.76654,0.62562
1449.27676,0.63854
1447.78697,0.65654
1446.29718,0.64167
1444.80739,0.62431
1443.31760,0.60696
1441.82781,0.58964
1440.33802,0.53394
1438.84824,0.49482
1437.35845,0.48171
1435.86866,0.47990
1434.37887,0.47995
1432.88908,0.50164
1431.39929,0.55715
1429.90951,0.61960
1428.41972,0.70069
1426.92993,0.75007
1425.44014,0.79028
1423.95035,0.81660
1422.46056,0.84294
1420.97078,0.88184
1419.48099,0.89271
1417.99120,0.86473
1416.50141,0.87312
1415.01162,0.87118
1413.52183,0.83868
1412.03204,0.75814
1410.54226,0.69464
1409.05247,0.63485
1407.56268,0.59831
1406.07289,0.55236
1404.58310,0.50931
1403.09331,0.46629
1401.60353,0.42110
1400.11374,0.38836
1398.62395,0.34023
1397.13416,0.29581
1395.64437,0.23716
1394.15458,0.20635
1392.66479,0.18017
1391.17501,0.15953
1389.68522,0.13040
1388.19543,0.11648
1386.70564,0.11626
1385.21585,0.11607
1383.72606,0.08084
1382.23628,0.05137
1380.74649,0.04171
1379.25670,0.03000
1377.76691,0.02591
1376.27712,0.00505
1374.78733,0.00813
1373.29755,0.00319
1371.80776,0.01546
1370.31797,0.01373
1368.82818,0.00939
1367.33839,0.00506
1365.84860,0.01527
1364.35881,0.03724
1362.86903,0.04612
1361.37924,0.06722
1359.88945,0.09892
1358.39966,0.11040
1356.90987,0.13042
1355.42008,0.15322
1353.93030,0.20847
1352.44051,0.23431
1350.95072,0.26017
1349.46093,0.33228
1347.97114,0.39361
1346.48135,0.46370
1344.99156,0.52875
1343.50178,0.59705
1342.01199,0.63985
1340.52220,0.71463
1339.03241,0.78277
1337.54262,0.79137
1336.05283,0.80886
1334.56305,0.82636
1333.07326,0.86355
1331.58347,0.89985
1330.09368,0.89937
1328.60389,0.87201
1327.11410,0.84376
1325.62432,0.78012
1324.13453,0.76824
1322.64474,0.74052
1321.15495,0.69672
1319.66516,0.68308
1318.17537,0.66946
1316.68558,0.63907
1315.19580,0.54915
1313.70601,0.50364
1312.21622,0.47586
1310.72643,0.45845
1309.23664,0.42933
1307.74685,0.37863
1306.25707,0.34611
1304.76728,0.33466
1303.27749,0.32324
1301.78770,0.27424
1300.29791,0.23262
1298.80812,0.19103
1297.31834,0.17176
1295.82855,0.14632
1294.33876,0.14274
1292.84897,0.10515
1291.35918,0.09427
1289.86939,0.09099
1288.37960,0.08774
1286.88982,0.07739
1285.40003,0.07741
1283.91024,0.07308
1282.42045,0.06234
1280.93066,0.05254
1279.44087,0.04966
1277.95109,0.04957
1276.46130,0.03709
1274.97151,0.04325
1273.48172,0.04944
1271.99193,0.04324
1270.50214,0.04120
1269.01235,0.03021
1267.52257,0.03167
1266.03278,0.02096
1264.54299,0.02247
1263.05320,0.03159
1261.56341,0.02923
1260.07362,0.02690
1258.58384,0.00734
1257.09405,0.00506
1255.60426,0.01509
1254.11447,0.00928
1252.62468,0.00625
1251.13489,0.01282
1249.64511,0.01390
1248.15532,0.01639
1246.66553,0.01602
1245.17574,0.01568
1243.68595,0.00881
1242.19616,0.01691
1240.70637,0.02205
1239.21659,0.01111
1237.72680,0.00985
1236.23701,0.02541
1234.74722,0.02650
1233.25743,0.02359
1231.76764,0.02071
1230.27786,0.03153
1228.78807,0.02651
1227.29828,0.02772
1225.80849,0.02068
1224.31870,0.01182
1222.82891,0.00506
1221.33912,0.03241
1219.84934,0.03471
1218.35955,0.03704
1216.86976,0.05158
1215.37997,0.06729
1213.89018,0.07107
1212.40039,0.06820
1210.91061,0.07088
1209.42082,0.06186
1207.93103,0.06194
1206.44124,0.06204
1204.95145,0.06275
1203.46166,0.05704
1201.97188,0.05388
1200.48209,0.03948
1198.99230,0.04718
1197.50251,0.04065
1196.01272,0.02402
1194.52293,0.03110
1193.03314,0.03821
1191.54336,0.02556
1190.05357,0.02145
1188.56378,0.02334
1187.07399,0.03215
1185.58420,0.03823
1184.09441,0.03881
1182.60463,0.03102
1181.11484,0.02326
1179.62505,0.01426
1178.13526,0.01034
1176.64547,0.00506
1175.15568,0.02520
1173.66589,0.01984
1172.17611,0.00968
1170.68632,0.00736
1169.19653,0.00506
1167.70674,0.01383
1166.21695,0.02055
1164.72716,0.04178
1163.23738,0.04280
1161.74759,0.04729
1160.25780,0.06170
1158.76801,0.06060
1157.27822,0.05953
1155.78843,0.05768
1154.29865,0.07771
1152.80886,0.07200
1151.31907,0.08678
1149.82928,0.09675
1148.33949,0.09847
1146.84970,0.09907
1145.35991,0.09968
1143.87013,0.11780
1142.38034,0.13319
1140.89055,0.14193
1139.40076,0.15460
1137.91097,0.14637
1136.42118,0.18324
1134.93140,0.18851
1133.44161,0.19381
1131.95182,0.20545
1130.46203,0.21206
1128.97224,0.23916
1127.48245,0.20627
1125.99266,0.21571
1124.50288,0.21069
1123.01309,0.20557
1121.52330,0.20048
1120.03351,0.19392
1118.54372,0.18670
1117.05393,0.19766
1115.56415,0.21095
1114.07436,0.21783
1112.58457,0.20955
1111.09478,0.20129
1109.60499,0.19513
1108.11520,0.21176
1106.62542,0.20404
1105.13563,0.21956
1103.64584,0.19878
1102.15605,0.19734
1100.66626,0.18419
1099.17647,0.17107
1097.68668,0.17821
1096.19690,0.18262
1094.70711,0.18382
1093.21732,0.17701
1091.72753,0.17551
1090.23774,0.17288
1088.74795,0.17027
1087.25817,0.18057
1085.76838,0.15870
1084.27859,0.16352
1082.78880,0.17251
1081.29901,0.16934
1079.80922,0.17148
1078.31943,0.17836
1076.82965,0.18526
1075.33986,0.17483
1073.85007,0.18281
1072.36028,0.19933
1070.87049,0.20345
1069.38070,0.23658
1067.89092,0.25282
1066.40113,0.26909
1064.91134,0.30045
1063.42155,0.35690
1061.93176,0.45821
1060.44197,0.54828
1058.95219,0.65700
1057.46240,0.70021
1055.97261,0.74344
1054.48282,0.77727
1052.99303,0.86815
1051.50324,0.88316
1050.01345,0.89797
1048.52367,0.86957
1047.03388,0.85879
1045.54409,0.84803
1044.05430,0.81787
1042.56451,0.72770
1041.07472,0.69597
1039.58494,0.60770
1038.09515,0.55762
1036.60536,0.53160
1035.11557,0.50560
1033.62578,0.44410
1032.13599,0.39319
1030.64620,0.32990
1029.15642,0.29055
1027.66663,0.27617
1026.17684,0.26181
1024.68705,0.22437
1023.19726,0.20305
1021.70747,0.16588
1020.21769,0.13840
1018.72790,0.13946
1017.23811,0.12882
1015.74832,0.11820
1014.25853,0.09035
1012.76874,0.08967
1011.27896,0.09130
1009.78917,0.08860
1008.29938,0.07005
1006.80959,0.05923
1005.31980,0.04843
1003.83001,0.03018
1002.34022,0.00506
1000.85044,0.01716
999.36065,0.03228
997.87086,0.03742
996.38107,0.04258
994.89128,0.04788
993.40149,0.07528
991.91171,0.08339
990.42192,0.09796
988.93213,0.11899
987.44234,0.11498
985.95255,0.11100
984.46276,0.10175
982.97297,0.11046
981.48319,0.09298
979.99340,0.06380
978.50361,0.05683
977.01382,0.04989
975.52403,0.03112
974.03424,0.02250
972.54446,0.01966
971.05467,0.00649
969.56488,0.01312
968.07509,0.00908
966.58530,0.00506
965.09551,0.02035
963.60573,0.02370
962.11594,0.01443
960.62615,0.01622
959.13636,0.01987
957.64657,0.02355
956.15678,0.01736
954.66699,0.03672
953.17721,0.03174
951.68742,0.04080
950.19763,0.04575
948.70784,0.05072
947.21805,0.05848
945.72826,0.08627
944.23848,0.09016
942.74869,0.11455
941.25890,0.11987
939.76911,0.13120
938.27932,0.14255
936.78953,0.16243
935.29974,0.17935
933.80996,0.18456
932.32017,0.18313
930.83038,0.18575
929.34059,0.18839
927.85080,0.20957
926.36101,0.24825
924.87123,0.31754
923.38144,0.34477
921.89165,0.37087
920.40186,0.39700
918.91207,0.49145
917.42228,0.61927
915.93250,0.75402
914.44271,0.95157
912.95292,1.04979
911.46313,1.14805
909.97334,1.33946
908.48355,1.54562
906.99376,1.76145
905.50398,1.90350
904.01419,1.95174
902.52440,2.00000
901.03461,1.97010
899.54482,1.90136
898.05503,1.75468
896.56525,1.62114
895.07546,1.49268
893.58567,1.36424
892.09588,1.13441
890.60609,0.90093
889.11630,0.67115
887.62651,0.50855
886.13673,0.44520
884.64694,0.38187
883.15715,0.25268
881.66736,0.18193
880.17757,0.11328
878.68778,0.10489
877.19800,0.09654
875.70821,0.08107
874.21842,0.04816
872.72863,0.04700
871.23884,0.02816
869.74905,0.02027
868.25927,0.01240
866.76948,0.01801
865.27969,0.02249
863.78990,0.02585
862.30011,0.04234
860.81032,0.04827
859.32053,0.05423
857.83075,0.08413
856.34096,0.08324
854.85117,0.10215
853.36138,0.12753
851.87159,0.12245
850.38180,0.11740
848.89202,0.15205
847.40223,0.15360
845.91244,0.16438
844.42265,0.16379
842.93286,0.16323
841.44307,0.20996
839.95329,0.23647
838.46350,0.22920
836.97371,0.25805
835.48392,0.26049
833.99413,0.26295
832.50434,0.25785
831.01455,0.22885
829.52477,0.19964
828.03498,0.15575
826.54519,0.15775
825.05540,0.15978
823.56561,0.15045
822.07582,0.13402
820.58604,0.12819
819.09625,0.12146
817.60646,0.11476
816.11667,0.09865
814.62688,0.10349
813.13709,0.12285
811.64730,0.13119
810.15752,0.12943
808.66773,0.12771
807.17794,0.13313
805.68815,0.11535
804.19836,0.13071
802.70857,0.13655
801.21879,0.14242
799.72900,0.11071
798.23921,0.11306
796.74942,0.13107
795.25963,0.12622
793.76984,0.12140
792.28006,0.12039
790.79027,0.13321
789.30048,0.14007
787.81069,0.15570
786.32090,0.18250
784.83111,0.20933
783.34132,0.24641
781.85154,0.26674
780.36175,0.29122
778.87196,0.29940
777.38217,0.30761
775.89238,0.33838
774.40259,0.33306
772.91281,0.35698
771.42302,0.34585
769.93323,0.33474
768.44344,0.30400
766.95365,0.23257
765.46386,0.22027
763.97407,0.16913
762.48429,0.15723
760.99450,0.14535
759.50471,0.14303
758.01492,0.10487
756.52513,0.09111
755.03534,0.08783
753.54556,0.08458
752.05577,0.07986
750.56598,0.06458
749.07619,0.04243
747.58640,0.04594
746.09661,0.04948
744.60683,0.03614
743.11704,0.04421
741.62725,0.02218
740.13746,0.03007
738.64767,0.03798
737.15788,0.01119
735.66809,0.00650
734.17831,0.00506
732.68852,0.00940
731.19873,0.01376
729.70894,0.01906
728.21915,0.00668
726.72936,0.01135
725.23958,0.01054
723.74979,0.00779
722.26000,0.00506
720.77021,0.00616
719.28042,0.00958
717.79063,0.00544
716.30084,0.00925
714.81106,0.01309
713.32127,0.02351
711.83148,0.01188
710.34169,0.01337
708.85190,0.01685
707.36211,0.02035
705.87233,0.00812
704.38254,0.04398
702.89275,0.02812
701.40296,0.02562
699.91317,0.02315
698.42338,0.05704
696.93360,0.07485
695.44381,0.10165
693.95402,0.10031
692.46423,0.09899
690.97444,0.13231
689.48465,0.13483
687.99486,0.15371
686.50508,0.16088
685.01529,0.16808
683.52550,0.20359
682.03571,0.22026
680.54592,0.22615
679.05613,0.23264
677.56635,0.23915
676.07656,0.24695
674.58677,0.23063
673.09698,0.22215
671.60719,0.20645
670.11740,0.19078
668.62761,0.18214
667.13783,0.14892
665.64804,0.14447
664.15825,0.14005
662.66846,0.09173
661.17867,0.06550
659.68888,0.05425
658.19910,0.04268
656.70931,0.03113
655.21952,0.03053
653.72973,0.02260
652.23994,0.05148
650.75015,0.04693
649.26037,0.04240
647.77058,0.03847
646.28079,0.03779
644.79100,0.03437
643.30121,0.03269
641.81142,0.03105
640.32163,0.03897
638.83185,0.02667
637.34206,0.00658
635.85227,0.00581
634.36248,0.00506
632.87269,0.00723
631.38290,0.00966
629.89312,0.01648
628.40333,0.01355
626.91354,0.01065
625.42375,0.02375
623.93396,0.02584
622.44417,0.02370
620.95438,0.02158
619.46460,0.01845
617.97481,0.02730
616.48502,0.05481
614.99523,0.05647
613.50544,0.05815
612.01565,0.09584
610.52587,0.12874
609.03608,0.17246
607.54629,0.19229
606.05650,0.21215
604.56671,0.22099
603.07692,0.27469
601.58714,0.30072
600.09735,0.32676
598.60756,0.36398
597.11777,0.36306
595.62798,0.34951
594.13819,0.35001
592.64840,0.35053
591.15862,0.32210
589.66883,0.28105
588.17904,0.23773
586.68925,0.20972
585.19946,0.18173
583.70967,0.12031
582.21989,0.08766
580.73010,0.06986
579.24031,0.05209
577.75052,0.03607
576.26073,0.05388
574.77094,0.04020
573.28115,0.03644
571.79137,0.03271
570.30158,0.02968
568.81179,0.02921
567.32200,0.03785
565.83221,0.04652
564.34242,0.06751
562.85264,0.08944
561.36285,0.11094
559.87306,0.11590
558.38327,0.12089
556.89348,0.13303
555.40369,0.14474
553.91391,0.15256
552.42412,0.16041
550.93433,0.18598
549.44454,0.13914
547.95475,0.14660
546.46496,0.15719
544.97517,0.16780
543.48539,0.18705
541.99560,0.20887
540.50581,0.22139
539.01602,0.23393
537.52623,0.28296
536.03644,0.31590
534.54666,0.38245
533.05687,0.38796
531.56708,0.39350
530.07729,0.44632
528.58750,0.52170
527.09771,0.51754
525.60792,0.51340
524.11814,0.57551
522.62835,0.61880
521.13856,0.66739
519.64877,0.70060
518.15898,0.73384
516.66919,0.75330
515.17941,0.73576
513.68962,0.74562
512.19983,0.75549
510.71004,0.73963
509.22025,0.69943
507.73046,0.65464
506.24068,0.60022
504.75089,0.54583
503.26110,0.41304
501.77131,0.31822
500.28152,0.29483
498.79173,0.27146
497.30194,0.19465
495.81216,0.14730
494.32237,0.12998
492.83258,0.11269
491.34279,0.09071
489.85300,0.09359
488.36321,0.06935
486.87343,0.05825
485.38364,0.04718
483.89385,0.04831
482.40406,0.07178
480.91427,0.07572
479.42448,0.07969
477.93469,0.10070
476.44491,0.10517
474.95512,0.12197
473.46533,0.13880
471.97554,0.14910
470.48575,0.16586
468.99596,0.16218
467.50618,0.16162
466.01639,0.16109
464.52660,0.11655
463.03681,0.09617
461.54702,0.08479
460.05723,0.07343
458.56745,0.04807
457.07766,0.03033
455.58787,0.03180
454.09808,0.03331
452.60829,0.03564
451.11850,0.01500
449.62871,0.01565
448.13893,0.01633
446.64914,0.02221
445.15935,0.00902
443.66956,0.00506
442.17977,0.00464
440.68998,0.00425
439.20020,0.02297
437.71041,0.01366
436.22062,0.02105
434.73083,0.02845
433.24104,0.02128
431.75125,0.01391
430.26146,0.03231
428.77168,0.05074
427.28189,0.05494
425.79210,0.04927
424.30231,0.04822
422.81252,0.04720
421.32273,0.04643
419.83295,0.03373
418.34316,0.02622
416.85337,0.01874
415.36358,0.02888
413.87379,0.02502
412.38400,0.03417
410.89422,0.04334
409.40443,0.04713
407.91464,0.02980
406.42485,0.02030
404.93506,0.02773
403.44527,0.03519
401.95548,0.04025
400.46570,0.03499
398.97591,0.02838
397.48612,0.02178
395.99633,0.01545
394.50654,0.02592
393.01675,0.03102
391.52697,0.03613
390.03718,0.03679
388.54739,0.04207
387.05760,0.03105
385.56781,0.02006
384.07802,0.01994
382.58824,0.03180
381.09845,0.03713
379.60866,0.04249
378.11887,0.00820
376.62908,0.01832
375.13929,0.01168
373.64950,0.00506
372.15972,0.00614
370.66993,0.02587
369.18014,0.02910
367.69035,0.03235
366.20056,0.00826
364.71077,0.02628
363.22099,0.02398
361.73120,0.02169
360.24141,0.05105
358.75162,0.06940
357.26183,0.05339
355.77204,0.03740
354.28225,0.03374
352.79247,0.06506
351.30268,0.06053
349.81289,0.05603
348.32310,0.05707
346.83331,0.08250
345.34352,0.06485
343.85374,0.04721
342.36395,0.06100
340.87416,0.04284
339.38437,0.02792
337.89458,0.01303
336.40479,0.00506
334.91501,0.00833
333.42522,0.01243
331.93543,0.01655
330.44564,0.00725
328.95585,0.03453
327.46606,0.02976
325.97627,0.02501
324.48649,0.02799
322.99670,0.04157
321.50691,0.04264
320.01712,0.04374
318.52733,0.04705
317.03754,0.07498
315.54776,0.06810
314.05797,0.06125
312.56818,0.03338
311.07839,0.03611
309.58860,0.03255
308.09881,0.02901
306.60902,0.02170
305.11924,0.01326
303.62945,0.01244
302.13966,0.01164
300.64987,0.01363
299.16008,0.00506
