1778.52000,0.03268
1777.03021,0.02430
1775.54042,0.02562
1774.05063,0.02644
1772.56085,0.02938
1771.07106,0.01535
1769.58127,0.02121
1768.09148,0.02344
1766.60169,0.01968
1765.11190,0.02796
1763.62212,0.01196
1762.13233,0.00828
1760.64254,0.00644
1759.15275,0.02084
1757.66296,0.01697
1756.17317,0.02122
1754.68339,0.00746
1753.19360,0.00941
1751.70381,0.00981
1750.21402,0.00868
1748.72423,0.01279
1747.23444,0.01327
1745.74465,0.01403
1744.25487,0.00907
1742.76508,0.01329
1741.27529,0.01308
1739.78550,0.01368
1738.29571,0.00960
1736.80592,0.01025
1735.31614,0.00727
1733.82635,0.01081
1732.33656,-0.00000
1730.84677,0.01300
1729.35698,0.01139
1727.86719,0.00954
1726.37740,0.01269
1724.88762,0.00540
1723.39783,0.00728
1721.90804,0.00867
1720.41825,0.01871
1718.92846,0.00734
1717.43867,0.00644
1715.94889,0.01005
1714.45910,0.00792
1712.96931,0.01220
1711.47952,0.00917
1709.98973,0.00591
1708.49994,0.00738
1707.01016,0.00953
1705.52037,0.01171
1704.03058,0.02266
1702.54079,0.00698
1701.05100,0.01180
1699.56121,0.01481
1698.07142,0.01550
1696.58164,0.01647
1695.09185,0.02191
1693.60206,0.03261
1692.11227,0.02555
1690.62248,0.01904
1689.13269,0.03033
1687.64291,0.03616
1686.15312,0.04619
1684.66333,0.03873
1683.17354,0.03679
1681.68375,0.04846
1680.19396,0.03559
1678.70417,0.05254
1677.21439,0.04782
1675.72460,0.06744
1674.23481,0.06643
1672.74502,0.05812
1671.25523,0.06840
1669.76544,0.07844
1668.27566,0.08380
1666.78587,0.08709
1665.29608,0.08910
1663.80629,0.08905
1662.31650,0.10000
1660.82671,0.11097
1659.33693,0.09818
1657.84714,0.10502
1656.35735,0.09750
1654.86756,0.10282
1653.37777,0.09274
1651.88798,0.08478
1650.39819,0.07762
1648.90841,0.08513
1647.41862,0.08195
1645.92883,0.08624
1644.43904,0.09056
1642.94925,0.08771
1641.45946,0.08750
1639.96968,0.08757
1638.47989,0.10885
1636.99010,0.08178
1635.50031,0.08690
1634.01052,0.07139
1632.52073,0.08962
1631.03094,0.09089
1629.54116,0.09192
1628.05137,0.10265
1626.56158,0.08360
1625.07179,0.10771
1623.58200,0.09996
1622.09221,0.09745
1620.60243,0.10203
1619.11264,0.09957
1617.62285,0.09975
1616.13306,0.08610
1614.64327,0.08712
1613.15348,0.09286
1611.66370,0.08975
1610.17391,0.09293
1608.68412,0.09979
1607.19433,0.09178
1605.70454,0.09843
1604.21475,0.09962
1602.72496,0.10083
1601.23518,0.08665
1599.74539,0.09470
1598.25560,0.08998
1596.76581,0.08946
1595.27602,0.07850
1593.78623,0.08509
1592.29645,0.08909
1590.80666,0.08266
1589.31687,0.07128
1587.82708,0.06489
1586.33729,0.09200
1584.84750,0.08880
1583.35771,0.08327
1581.86793,0.07489
1580.37814,0.08640
1578.88835,0.09585
1577.39856,0.08180
1575.90877,0.06724
1574.41898,0.06840
1572.92920,0.05990
1571.43941,0.05039
1569.94962,0.05162
1568.45983,0.05287
1566.97004,0.03951
1565.48025,0.02670
1563.99047,0.03456
1562.50068,0.03853
1561.01089,0.04199
1559.52110,0.04313
1558.03131,0.03541
1556.54152,0.04287
1555.05173,0.03180
1553.56195,0.02859
1552.07216,0.02515
1550.58237,0.02068
1549.09258,0.00526
1547.60279,0.01627
1546.11300,0.01319
1544.62322,0.02242
1543.13343,0.01494
1541.64364,0.00356
1540.15385,0.00692
1538.66406,0.01031
1537.17427,0.02470
1535.68448,0.00644
1534.19470,0.00882
1532.70491,0.00678
1531.21512,0.01444
1529.72533,0.01793
1528.23554,0.02172
1526.74575,0.01167
1525.25597,0.02413
1523.76618,0.01309
1522.27639,0.02586
1520.78660,0.02140
1519.29681,0.02742
1517.80702,0.03948
1516.31724,0.04451
1514.82745,0.03962
1513.33766,0.03293
1511.84787,0.02627
1510.35808,0.02643
1508.86829,0.04700
1507.37850,0.04956
1505.88872,0.04404
1504.39893,0.04926
1502.90914,0.05137
1501.41935,0.05873
1499.92956,0.07501
1498.43977,0.05131
1496.94999,0.05169
1495.46020,0.07562
1493.97041,0.08180
1492.48062,0.08800
1490.99083,0.10678
1489.50104,0.11172
1488.01125,0.11552
1486.52147,0.11933
1485.03168,0.13612
1483.54189,0.16704
1482.05210,0.19799
1480.56231,0.19812
1479.07252,0.22938
1477.58274,0.24890
1476.09295,0.24099
1474.60316,0.23756
1473.11337,0.25140
1471.62358,0.23991
1470.13379,0.26060
1468.64401,0.28863
1467.15422,0.29342
1465.66443,0.30778
1464.17464,0.32216
1462.68485,0.35317
1461.19506,0.38080
1459.70527,0.43879
1458.21549,0.49732
1456.72570,0.53496
1455.23591,0.63616
1453.74612,0.68483
1452.25633,0.68437
1450.76654,0.72708
1449.27676,0.70027
1447.78697,0.69126
1446.29718,0.68463
1444.80739,0.66979
1443.31760,0.65497
1441.82781,0.63587
1440.33802,0.56345
1438.84824,0.53237
1437.35845,0.49530
1435.86866,0.50008
1434.37887,0.49286
1432.88908,0.54319
1431.39929,0.61576
1429.90951,0.70848
1428.41972,0.77639
1426.92993,0.81453
1425.44014,0.85608
1423.95035,0.87701
1422.46056,0.89796
1420.97078,0.91763
1419.48099,0.93811
1417.99120,0.95652
1416.50141,0.92580
1415.01162,0.88492
1413.52183,0.84379
1412.03204,0.79538
1410.54226,0.73548
1409.05247,0.68240
1407.56268,0.65837
1406.07289,0.58887
1404.58310,0.55770
1403.09331,0.52656
1401.60353,0.46707
1400.11374,0.40603
1398.62395,0.36646
1397.13416,0.33424
1395.64437,0.27537
1394.15458,0.21025
1392.66479,0.17993
1391.17501,0.16140
1389.68522,0.14315
1388.19543,0.10323
1386.70564,0.09013
1385.21585,0.07706
1383.72606,0.05551
1382.23628,0.04575
1380.74649,0.04203
1379.25670,0.02945
1377.76691,0.01715
1376.27712,0.00644
1374.78733,0.01369
1373.29755,0.01940
1371.80776,0.01807
1370.31797,0.01520
1368.82818,0.01405
1367.33839,0.01292
1365.84860,0.01169
1364.35881,0.02722
1362.86903,0.04303
1361.37924,0.06593
1359.88945,0.10166
1358.39966,0.12120
1356.90987,0.14182
1355.42008,0.18181
1353.93030,0.25842
1352.44051,0.28630
1350.95072,0.31420
1349.46093,0.39193
1347.97114,0.46316
1346.48135,0.54773
1344.99156,0.62345
1343.50178,0.71069
1342.01199,0.75430
1340.52220,0.83871
1339.03241,0.88132
1337.54262,0.91794
1336.05283,0.92256
1334.56305,0.92721
1333.07326,0.97358
1331.58347,0.96089
1330.09368,0.94822
1328.60389,0.94499
1327.11410,0.88583
1325.62432,0.85677
1324.13453,0.84237
1322.64474,0.82930
1321.15495,0.78358
1319.66516,0.76742
1318.17537,0.75129
1316.68558,0.67061
1315.19580,0.63780
1313.70601,0.57599
1312.21622,0.55551
1310.72643,0.49741
1309.23664,0.48613
1307.74685,0.47148
1306.25707,0.43228
1304.76728,0.42800
1303.27749,0.42375
1301.78770,0.34698
1300.29791,0.27885
1298.80812,0.23585
1297.31834,0.18660
1295.82855,0.15489
1294.33876,0.13784
1292.84897,0.12161
1291.35918,0.11951
1289.86939,0.10594
1288.37960,0.09239
1286.88982,0.09325
1285.40003,0.09203
1283.91024,0.08379
1282.42045,0.06903
1280.93066,0.07417
1279.44087,0.04900
1277.95109,0.05209
1276.46130,0.05678
1274.97151,0.05496
1273.48172,0.05316
1271.99193,0.04615
1270.50214,0.04336
1269.01235,0.02071
1267.52257,0.03391
1266.03278,0.02413
1264.54299,0.03242
1263.05320,0.02425
1261.56341,0.02134
1260.07362,0.01845
1258.58384,0.00644
1257.09405,0.03194
1255.60426,0.04805
1254.11447,0.05216
1252.62468,0.01630
1251.13489,0.01758
1249.64511,0.01157
1248.15532,0.01839
1246.66553,0.01360
1245.17574,0.00884
1243.68595,0.02959
1242.19616,0.01011
1240.70637,0.00607
1239.21659,0.02219
1237.72680,0.03442
1236.23701,0.04117
1234.74722,0.03253
1233.25743,0.03267
1231.76764,0.03283
1230.27786,0.03629
1228.78807,0.04709
1227.29828,0.02785
1225.80849,0.01831
1224.31870,0.00644
1222.82891,0.02251
1221.33912,0.01323
1219.84934,0.02725
1218.35955,0.04130
1216.86976,0.05432
1215.37997,0.06214
1213.89018,0.08698
1212.40039,0.09301
1210.91061,0.09934
1209.42082,0.08373
1207.93103,0.07899
1206.44124,0.07428
1204.95145,0.07495
1203.46166,0.07433
1201.97188,0.07714
1200.48209,0.07527
1198.99230,0.05905
1197.50251,0.04390
1196.01272,0.04419
1194.52293,0.03431
1193.03314,0.02446
1191.54336,0.01333
1190.05357,0.03438
1188.56378,0.01885
1187.07399,0.02582
1185.58420,0.03021
1184.09441,0.03698
1182.60463,0.03436
1181.11484,0.03176
1179.62505,0.00644
1178.13526,0.01021
1176.64547,0.02158
1175.15568,0.02932
1173.66589,0.01774
1172.17611,0.00644
1170.68632,0.01337
1169.19653,0.02032
1167.70674,0.02755
1166.21695,0.01364
1164.72716,0.02955
1163.23738,0.03817
1161.74759,0.04158
1160.25780,0.06097
1158.76801,0.05881
1157.27822,0.05667
1155.78843,0.06411
1154.29865,0.08646
1152.80886,0.09133
1151.31907,0.10851
1149.82928,0.10375
1148.33949,0.12830
1146.84970,0.11967
1145.35991,0.11107
1143.87013,0.12916
1142.38034,0.16217
1140.89055,0.18475
1139.40076,0.17389
1137.91097,0.18920
1136.42118,0.21447
1134.93140,0.22237
1133.44161,0.23030
1131.95182,0.23630
1130.46203,0.23892
1128.97224,0.25490
1127.48245,0.24894
1125.99266,0.27490
1124.50288,0.26952
1123.01309,0.27096
1121.52330,0.27242
1120.03351,0.26162
1118.54372,0.26731
1117.05393,0.27486
1115.56415,0.27798
1114.07436,0.26231
1112.58457,0.26196
1111.09478,0.26163
1109.60499,0.21283
1108.11520,0.24510
1106.62542,0.25570
1105.13563,0.25508
1103.64584,0.25579
1102.15605,0.23195
1100.66626,0.23088
1099.17647,0.22983
1097.68668,0.22070
1096.19690,0.24010
1094.70711,0.21638
1093.21732,0.22851
1091.72753,0.21137
1090.23774,0.19753
1088.74795,0.18372
1087.25817,0.19777
1085.76838,0.18544
1084.27859,0.20738
1082.78880,0.17890
1081.29901,0.18912
1079.80922,0.19598
1078.31943,0.20247
1076.82965,0.20898
1075.33986,0.22296
1073.85007,0.20194
1072.36028,0.22304
1070.87049,0.23292
1069.38070,0.24857
1067.89092,0.27327
1066.40113,0.29799
1064.91134,0.37698
1063.42155,0.43953
1061.93176,0.50969
1060.44197,0.61386
1058.95219,0.72145
1057.46240,0.76292
1055.97261,0.80441
1054.48282,0.89378
1052.99303,0.95990
1051.50324,0.94473
1050.01345,0.93639
1048.52367,0.93069
1047.03388,0.90998
1045.54409,0.88930
1044.05430,0.84314
1042.56451,0.77532
1041.07472,0.72503
1039.58494,0.68758
1038.09515,0.61225
1036.60536,0.58661
1035.11557,0.56100
1033.62578,0.49594
1032.13599,0.42593
1030.64620,0.34052
1029.15642,0.32390
1027.66663,0.30273
1026.17684,0.28157
1024.68705,0.24986
1023.19726,0.21399
1021.70747,0.18258
1020.21769,0.14075
1018.72790,0.13658
1017.23811,0.13270
1015.74832,0.12885
1014.25853,0.12005
1012.76874,0.10056
1011.27896,0.11299
1009.78917,0.10740
1008.29938,0.08459
1006.80959,0.07852
1005.31980,0.07249
1003.83001,0.03275
1002.34022,0.03513
1000.85044,0.03544
999.36065,0.03291
997.87086,0.03405
996.38107,0.03522
994.89128,0.03250
993.40149,0.04104
991.91171,0.04254
990.42192,0.08041
988.93213,0.11203
987.44234,0.11740
985.95255,0.12280
984.46276,0.09933
982.97297,0.10778
981.48319,0.08514
979.99340,0.06540
978.50361,0.05876
977.01382,0.05215
975.52403,0.02281
974.03424,0.03533
972.54446,0.02356
971.05467,0.01548
969.56488,0.01082
968.07509,0.00866
966.58530,0.00653
965.09551,0.02347
963.60573,0.02344
962.11594,0.00644
960.62615,0.00910
959.13636,0.01074
957.64657,0.01241
956.15678,0.02168
954.66699,0.01477
953.17721,0.02775
951.68742,0.03526
950.19763,0.04097
948.70784,0.04670
947.21805,0.06396
945.72826,0.08622
944.23848,0.10562
942.74869,0.12374
941.25890,0.11757
939.76911,0.12711
938.27932,0.13667
936.78953,0.15568
935.29974,0.16738
933.80996,0.19114
932.32017,0.20708
930.83038,0.20748
929.34059,0.20792
927.85080,0.22706
926.36101,0.27264
924.87123,0.31250
923.38144,0.35342
921.89165,0.39711
920.40186,0.44082
918.91207,0.54091
917.42228,0.66192
915.93250,0.81722
914.44271,1.03031
912.95292,1.14513
911.46313,1.25997
909.97334,1.47367
908.48355,1.63588
906.99376,1.82740
905.50398,1.90887
904.01419,1.92515
902.52440,1.94145
901.03461,1.98614
899.54482,2.00000
898.05503,1.83533
896.56525,1.65525
895.07546,1.52056
893.58567,1.38590
892.09588,1.11178
890.60609,0.86043
889.11630,0.65225
887.62651,0.48252
886.13673,0.41425
884.64694,0.34601
883.15715,0.26602
881.66736,0.18214
880.17757,0.12208
878.68778,0.10727
877.19800,0.09248
875.70821,0.05549
874.21842,0.03422
872.72863,0.01924
871.23884,0.03044
869.74905,0.01852
868.25927,0.00662
866.76948,0.00691
865.27969,0.00853
863.78990,0.02141
862.30011,0.03144
860.81032,0.03471
859.32053,0.03799
857.83075,0.06614
856.34096,0.09378
854.85117,0.09087
853.36138,0.10523
851.87159,0.11243
850.38180,0.11965
848.89202,0.13043
847.40223,0.14907
845.91244,0.17010
844.42265,0.16735
842.93286,0.16463
841.44307,0.18834
839.95329,0.21025
838.46350,0.22564
836.97371,0.22406
835.48392,0.23376
833.99413,0.24347
832.50434,0.23962
831.01455,0.22742
829.52477,0.20557
828.03498,0.16232
826.54519,0.16065
825.05540,0.15901
823.56561,0.15086
822.07582,0.11606
820.58604,0.09855
819.09625,0.09609
817.60646,0.09366
816.11667,0.08511
814.62688,0.09200
813.13709,0.11540
811.64730,0.11058
810.15752,0.11441
808.66773,0.11827
807.17794,0.12738
805.68815,0.10358
804.19836,0.12293
802.70857,0.11748
801.21879,0.11205
799.72900,0.09984
798.23921,0.09629
796.74942,0.10714
795.25963,0.09619
793.76984,0.08526
792.28006,0.11684
790.79027,0.13249
789.30048,0.14295
787.81069,0.17931
786.32090,0.19334
784.83111,0.20739
783.34132,0.22814
781.85154,0.26773
780.36175,0.31624
778.87196,0.32751
777.38217,0.33882
775.89238,0.36125
774.40259,0.38659
772.91281,0.37222
771.42302,0.37303
769.93323,0.37386
768.44344,0.33054
766.95365,0.29535
765.46386,0.26096
763.97407,0.21327
762.48429,0.19018
760.99450,0.16711
759.50471,0.13648
758.01492,0.12680
756.52513,0.09674
755.03534,0.09325
753.54556,0.08978
752.05577,0.08046
750.56598,0.07063
749.07619,0.05691
747.58640,0.05432
746.09661,0.05176
744.60683,0.05040
743.11704,0.03468
741.62725,0.01220
740.13746,0.01888
738.64767,0.02559
737.15788,0.02828
735.66809,0.02680
734.17831,0.02326
732.68852,0.02053
731.19873,0.01782
729.70894,0.01697
728.21915,0.02241
726.72936,0.00644
725.23958,0.00941
723.74979,0.01228
722.26000,0.01517
720.77021,0.00828
719.28042,0.00952
717.79063,0.02124
716.30084,0.01507
714.81106,0.00894
713.32127,0.00295
711.83148,0.02523
710.34169,0.03891
708.85190,0.03105
707.36211,0.02320
705.87233,0.03486
704.38254,0.05413
702.89275,0.04283
701.40296,0.05457
699.91317,0.06633
698.42338,0.08255
696.93360,0.08835
695.44381,0.10802
693.95402,0.11648
692.46423,0.12497
690.97444,0.13687
689.48465,0.18619
687.99486,0.17252
686.50508,0.18489
685.01529,0.19729
683.52550,0.25481
682.03571,0.26660
680.54592,0.27815
679.05613,0.28398
677.56635,0.28984
676.07656,0.28996
674.58677,0.26684
673.09698,0.25421
671.60719,0.23558
670.11740,0.21698
668.62761,0.19187
667.13783,0.17986
665.64804,0.17270
664.15825,0.16557
662.66846,0.13062
661.17867,0.08603
659.68888,0.07518
658.19910,0.05586
656.70931,0.03657
655.21952,0.03756
653.72973,0.06132
652.23994,0.05609
650.75015,0.05415
649.26037,0.05223
647.77058,0.04707
646.28079,0.02468
644.79100,0.03447
643.30121,0.03239
641.81142,0.03034
640.32163,0.03811
638.83185,0.03441
637.34206,0.02785
635.85227,0.01713
634.36248,0.00644
632.87269,0.00792
631.38290,0.01124
629.89312,0.02558
628.40333,0.02020
626.91354,0.01484
625.42375,0.02192
623.93396,0.01073
622.44417,0.01839
620.95438,0.02608
619.46460,0.04346
617.97481,0.04361
616.48502,0.03254
614.99523,0.06045
613.50544,0.08839
612.01565,0.11661
610.52587,0.15871
609.03608,0.21626
607.54629,0.21567
606.05650,0.21510
604.56671,0.27874
603.07692,0.34633
601.58714,0.37446
600.09735,0.40261
598.60756,0.41459
597.11777,0.48227
595.62798,0.47495
594.13819,0.46398
592.64840,0.45305
591.15862,0.38959
589.66883,0.34341
588.17904,0.28000
586.68925,0.25426
585.19946,0.22854
583.70967,0.18089
582.21989,0.14712
580.73010,0.11664
579.24031,0.08619
577.75052,0.07184
576.26073,0.06248
574.77094,0.04086
573.28115,0.04841
571.79137,0.05599
570.30158,0.05353
568.81179,0.04325
567.32200,0.06711
565.83221,0.09099
564.34242,0.11059
562.85264,0.11504
561.36285,0.14070
559.87306,0.15331
558.38327,0.16595
556.89348,0.16815
555.40369,0.17953
553.91391,0.17733
552.42412,0.17517
550.93433,0.21093
549.44454,0.21587
547.95475,0.20985
546.46496,0.20582
544.97517,0.20182
543.48539,0.22908
541.99560,0.26499
540.50581,0.28641
539.01602,0.30786
537.52623,0.33548
536.03644,0.39921
534.54666,0.42086
533.05687,0.44947
531.56708,0.47810
530.07729,0.51656
528.58750,0.57257
527.09771,0.62376
525.60792,0.67497
524.11814,0.72843
522.62835,0.77146
521.13856,0.83543
519.64877,0.82517
518.15898,0.81494
516.66919,0.87218
515.17941,0.85468
513.68962,0.87381
512.19983,0.89295
510.71004,0.83343
509.22025,0.81498
507.73046,0.74715
506.24068,0.67554
504.75089,0.60396
503.26110,0.49908
501.77131,0.41382
500.28152,0.35539
498.79173,0.29698
497.30194,0.22958
495.81216,0.18024
494.32237,0.15367
492.83258,0.12712
491.34279,0.09171
489.85300,0.09815
488.36321,0.08266
486.87343,0.07086
485.38364,0.05907
483.89385,0.06797
482.40406,0.10774
480.91427,0.10453
479.42448,0.10134
477.93469,0.13517
476.44491,0.13347
474.95512,0.15388
473.46533,0.17432
471.97554,0.17662
470.48575,0.18050
468.99596,0.20115
467.50618,0.18770
466.01639,0.17428
464.52660,0.11525
463.03681,0.08815
461.54702,0.07101
460.05723,0.05390
458.56745,0.04726
457.07766,0.03333
455.58787,0.02740
454.09808,0.02149
452.60829,0.03404
451.11850,0.02805
449.62871,0.03594
448.13893,0.04386
446.64914,0.04735
445.15935,0.02839
443.66956,0.01024
442.17977,0.00923
440.68998,0.00825
439.20020,0.02023
437.71041,0.04061
436.22062,0.03657
434.73083,0.03255
433.24104,0.04777
431.75125,0.02746
430.26146,0.02848
428.77168,0.02952
427.28189,0.03151
425.79210,0.03901
424.30231,0.03516
422.81252,0.03134
421.32273,0.06453
419.83295,0.04468
418.34316,0.02707
416.85337,0.00949
415.36358,0.00644
413.87379,0.03558
412.38400,0.04435
410.89422,0.05314
409.40443,0.03660
407.91464,0.02584
406.42485,0.03444
404.93506,0.03549
403.44527,0.03657
401.95548,0.06015
400.46570,0.03565
398.97591,0.04386
397.48612,0.05209
395.99633,0.05485
394.50654,0.03542
393.01675,0.03261
391.52697,0.02983
390.03718,0.03662
388.54739,0.01990
387.05760,0.01455
385.56781,0.00922
384.07802,0.00863
382.58824,0.03707
381.09845,0.03235
379.60866,0.02764
378.11887,0.04649
376.62908,0.00497
375.13929,0.00433
373.64950,0.00372
372.15972,0.03940
370.66993,0.03015
369.18014,0.02871
367.69035,0.02729
366.20056,0.02629
364.71077,0.00832
363.22099,0.00737
361.73120,0.00644
360.24141,0.04033
358.75162,0.07503
357.26183,0.07119
355.77204,0.06737
354.28225,0.09273
352.79247,0.08465
351.30268,0.07150
349.81289,0.05837
348.32310,0.06631
346.83331,0.06722
345.34352,0.06750
343.85374,0.06780
342.36395,0.07244
340.87416,0.05462
339.38437,0.03408
337.89458,0.01357
336.40479,0.01835
334.91501,0.02970
333.42522,0.01806
331.93543,0.00644
330.44564,0.03402
328.95585,0.04593
327.46606,0.04362
325.97627,0.04133
324.48649,0.06639
322.99670,0.07866
321.50691,0.04952
320.01712,0.02040
318.52733,0.04059
317.03754,0.04251
315.54776,0.04327
314.05797,0.04405
312.56818,0.05963
311.07839,0.07001
309.58860,0.07518
308.09881,0.08038
306.60902,0.05998
305.11924,0.08850
303.62945,0.05704
302.13966,0.02560
300.64987,0.00765
299.16008,0.00644
