1778.52000,0.02227
1777.03021,0.00831
1775.54042,0.01475
1774.05063,0.01514
1772.56085,0.01361
1771.07106,0.01817
1769.58127,0.02644
1768.09148,0.01588
1766.60169,0.01965
1765.11190,0.02474
1763.62212,0.01273
1762.13233,0.01570
1760.64254,0.00634
1759.15275,0.01153
1757.66296,0.00916
1756.17317,0.00897
1754.68339,0.01402
1753.19360,0.00803
1751.70381,0.01681
1750.21402,0.01238
1748.72423,0.01341
1747.23444,0.00622
1745.74465,0.00620
1744.25487,0.00448
1742.76508,0.00906
1741.27529,0.01259
1739.78550,0.01137
1738.29571,0.00953
1736.80592,0.00576
1735.31614,0.00634
1733.82635,0.00918
1732.33656,0.00488
1730.84677,0.01361
1729.35698,0.00459
1727.86719,0.00817
1726.37740,0.00939
1724.88762,0.01041
1723.39783,0.00561
1721.90804,0.01535
1720.41825,0.00756
1718.92846,0.00543
1717.43867,0.00875
1715.94889,0.00623
1714.45910,0.00634
1712.96931,0.01400
1711.47952,0.00000
1709.98973,0.01357
1708.49994,0.00440
1707.01016,0.00490
1705.52037,0.00542
1704.03058,0.00976
1702.54079,0.01456
1701.05100,0.01591
1699.56121,0.00537
1698.07142,0.01675
1696.58164,0.01471
1695.09185,0.01486
1693.60206,0.01742
1692.11227,0.00634
1690.62248,0.02818
1689.13269,0.02316
1687.64291,0.02294
1686.15312,0.02642
1684.66333,0.02668
1683.17354,0.03108
1681.68375,0.02792
1680.19396,0.01849
1678.70417,0.02795
1677.21439,0.04155
1675.72460,0.03718
1674.23481,0.04498
1672.74502,0.04044
1671.25523,0.04785
1669.76544,0.05008
1668.27566,0.04931
1666.78587,0.04552
1665.29608,0.06213
1663.80629,0.05687
1662.31650,0.05966
1660.82671,0.07612
1659.33693,0.08459
1657.84714,0.07726
1656.35735,0.06952
1654.86756,0.07893
1653.37777,0.06756
1651.88798,0.08200
1650.39819,0.07328
1648.90841,0.07346
1647.41862,0.07324
1645.92883,0.07607
1644.43904,0.07893
1642.94925,0.07466
1641.45946,0.08082
1639.96968,0.07118
1638.47989,0.08562
1636.99010,0.07560
1635.50031,0.08099
1634.01052,0.07187
1632.52073,0.07514
1631.03094,0.08624
1629.54116,0.07937
1628.05137,0.08271
1626.56158,0.08976
1625.07179,0.09011
1623.58200,0.10111
1622.09221,0.08916
1620.60243,0.08157
1619.11264,0.08375
1617.62285,0.08943
1616.13306,0.08906
1614.64327,0.09175
1613.15348,0.08797
1611.66370,0.08897
1610.17391,0.08285
1608.68412,0.08975
1607.19433,0.08801
1605.70454,0.08651
1604.21475,0.08959
1602.72496,0.09269
1601.23518,0.08498
1599.74539,0.08314
1598.25560,0.08436
1596.76581,0.07911
1595.27602,0.08059
1593.78623,0.07777
1592.29645,0.07779
1590.80666,0.07696
1589.31687,0.07855
1587.82708,0.07018
1586.33729,0.07745
1584.84750,0.07195
1583.35771,0.08447
1581.86793,0.08249
1580.37814,0.07338
1578.88835,0.08272
1577.39856,0.07019
1575.90877,0.06614
1574.41898,0.05951
1572.92920,0.05485
1571.43941,0.05543
1569.94962,0.04887
1568.45983,0.04234
1566.97004,0.04732
1565.48025,0.03780
1563.99047,0.03264
1562.50068,0.03639
1561.01089,0.03345
1559.52110,0.03811
1558.03131,0.02568
1556.54152,0.02238
1555.05173,0.01736
1553.56195,0.02798
1552.07216,0.02149
1550.58237,0.02089
1549.09258,0.02074
1547.60279,0.02581
1546.11300,0.01813
1544.62322,0.00634
1543.13343,0.00698
1541.64364,0.02272
1540.15385,0.02038
1538.66406,0.01807
1537.17427,0.01416
1535.68448,0.01287
1534.19470,0.01355
1532.70491,0.01036
1531.21512,0.01175
1529.72533,0.01446
1528.23554,0.02174
1526.74575,0.02862
1525.25597,0.02815
1523.76618,0.03031
1522.27639,0.03336
1520.78660,0.02667
1519.29681,0.02977
1517.80702,0.04849
1516.31724,0.03907
1514.82745,0.05806
1513.33766,0.05485
1511.84787,0.05168
1510.35808,0.05232
1508.86829,0.05103
1507.37850,0.05128
1505.88872,0.05308
1504.39893,0.06075
1502.90914,0.06433
1501.41935,0.06554
1499.92956,0.07025
1498.43977,0.06458
1496.94999,0.06999
1495.46020,0.08973
1493.97041,0.09778
1492.48062,0.11085
1490.99083,0.11094
1489.50104,0.12752
1488.01125,0.13177
1486.52147,0.13605
1485.03168,0.17590
1483.54189,0.20146
1482.05210,0.21925
1480.56231,0.23749
1479.07252,0.24687
1477.58274,0.25758
1476.09295,0.27243
1474.60316,0.26324
1473.11337,0.29201
1471.62358,0.28396
1470.13379,0.28677
1468.64401,0.29242
1467.15422,0.34902
1465.66443,0.34757
1464.17464,0.34614
1462.68485,0.39198
1461.19506,0.41726
1459.70527,0.45838
1458.21549,0.53703
1456.72570,0.60595
1455.23591,0.65798
1453.74612,0.69790
1452.25633,0.73329
1450.76654,0.77174
1449.27676,0.75365
1447.78697,0.73991
1446.29718,0.74397
1444.80739,0.73028
1443.31760,0.71662
1441.82781,0.64359
1440.33802,0.59724
1438.84824,0.54311
1437.35845,0.52088
1435.86866,0.53312
1434.37887,0.53543
1432.88908,0.59129
1431.39929,0.65325
1429.90951,0.74427
1428.41972,0.80281
1426.92993,0.85985
1425.44014,0.89503
1423.95035,0.94150
1422.46056,0.98800
1420.97078,1.01587
1419.48099,0.97854
1417.99120,0.98631
1416.50141,0.96224
1415.01162,0.91869
1413.52183,0.87082
1412.03204,0.81431
1410.54226,0.75393
1409.05247,0.71784
1407.56268,0.65859
1406.07289,0.61280
1404.58310,0.57386
1403.09331,0.53494
1401.60353,0.46148
1400.11374,0.44179
1398.62395,0.38312
1397.13416,0.33357
1395.64437,0.28101
1394.15458,0.22977
1392.66479,0.18745
1391.17501,0.16379
1389.68522,0.12585
1388.19543,0.11134
1386.70564,0.09935
1385.21585,0.08739
1383.72606,0.07100
1382.23628,0.05551
1380.74649,0.05261
1379.25670,0.03240
1377.76691,0.01134
1376.27712,0.00634
1374.78733,0.01630
1373.29755,0.01869
1371.80776,0.01764
1370.31797,0.01033
1368.82818,0.01518
1367.33839,0.02005
1365.84860,0.00891
1364.35881,0.03404
1362.86903,0.04207
1361.37924,0.08047
1359.88945,0.09657
1358.39966,0.13351
1356.90987,0.16960
1355.42008,0.19531
1353.93030,0.25875
1352.44051,0.28668
1350.95072,0.31463
1349.46093,0.39874
1347.97114,0.48461
1346.48135,0.54276
1344.99156,0.62109
1343.50178,0.70574
1342.01199,0.76071
1340.52220,0.84475
1339.03241,0.86444
1337.54262,0.88610
1336.05283,0.89121
1334.56305,0.89634
1333.07326,0.95492
1331.58347,0.93051
1330.09368,0.94536
1328.60389,0.91970
1327.11410,0.88648
1325.62432,0.83920
1324.13453,0.82553
1322.64474,0.78523
1321.15495,0.75059
1319.66516,0.73981
1318.17537,0.72906
1316.68558,0.66133
1315.19580,0.61074
1313.70601,0.55086
1312.21622,0.53045
1310.72643,0.51245
1309.23664,0.47800
1307.74685,0.46308
1306.25707,0.41286
1304.76728,0.39875
1303.27749,0.38466
1301.78770,0.32410
1300.29791,0.26249
1298.80812,0.22539
1297.31834,0.20045
1295.82855,0.18421
1294.33876,0.15044
1292.84897,0.13728
1291.35918,0.11439
1289.86939,0.10713
1288.37960,0.09989
1286.88982,0.08857
1285.40003,0.07271
1283.91024,0.07725
1282.42045,0.06881
1280.93066,0.07449
1279.44087,0.05417
1277.95109,0.05578
1276.46130,0.06022
1274.97151,0.05060
1273.48172,0.04101
1271.99193,0.03881
1270.50214,0.04985
1269.01235,0.03816
1267.52257,0.02866
1266.03278,0.03501
1264.54299,0.01884
1263.05320,0.01830
1261.56341,0.01486
1260.07362,0.01145
1258.58384,0.01011
1257.09405,0.01379
1255.60426,0.02377
1254.11447,0.02923
1252.62468,0.01152
1251.13489,0.01377
1249.64511,0.02602
1248.15532,0.01272
1246.66553,0.00952
1245.17574,0.00634
1243.68595,0.02987
1242.19616,0.02764
1240.70637,0.02477
1239.21659,0.02020
1237.72680,0.02887
1236.23701,0.02218
1234.74722,0.02699
1233.25743,0.02555
1231.76764,0.02413
1230.27786,0.04289
1228.78807,0.02917
1227.29828,0.01915
1225.80849,0.01003
1224.31870,0.01111
1222.82891,0.01244
1221.33912,0.01227
1219.84934,0.01939
1218.35955,0.02653
1216.86976,0.05353
1215.37997,0.06582
1213.89018,0.08614
1212.40039,0.07594
1210.91061,0.07009
1209.42082,0.07965
1207.93103,0.07959
1206.44124,0.07956
1204.95145,0.07272
1203.46166,0.07176
1201.97188,0.07299
1200.48209,0.06102
1198.99230,0.04669
1197.50251,0.03803
1196.01272,0.04434
1194.52293,0.03810
1193.03314,0.03189
1191.54336,0.03633
1190.05357,0.04165
1188.56378,0.02207
1187.07399,0.03373
1185.58420,0.03956
1184.09441,0.03025
1182.60463,0.01824
1181.11484,0.00626
1179.62505,0.01002
1178.13526,0.00644
1176.64547,0.00634
1175.15568,0.01392
1173.66589,0.01502
1172.17611,0.01506
1170.68632,0.01502
1169.19653,0.01500
1167.70674,0.01663
1166.21695,0.02219
1164.72716,0.03124
1163.23738,0.03099
1161.74759,0.04420
1160.25780,0.06048
1158.76801,0.06312
1157.27822,0.06578
1155.78843,0.08321
1154.29865,0.08484
1152.80886,0.10622
1151.31907,0.11787
1149.82928,0.12088
1148.33949,0.12629
1146.84970,0.12826
1145.35991,0.13025
1143.87013,0.15069
1142.38034,0.16682
1140.89055,0.16563
1139.40076,0.17097
1137.91097,0.17135
1136.42118,0.21012
1134.93140,0.21618
1133.44161,0.22227
1131.95182,0.22231
1130.46203,0.23950
1128.97224,0.23417
1127.48245,0.24967
1125.99266,0.25133
1124.50288,0.26688
1123.01309,0.26208
1121.52330,0.25730
1120.03351,0.24063
1118.54372,0.24804
1117.05393,0.23814
1115.56415,0.25557
1114.07436,0.24485
1112.58457,0.23729
1111.09478,0.22976
1109.60499,0.22778
1108.11520,0.23232
1106.62542,0.24253
1105.13563,0.24019
1103.64584,0.24654
1102.15605,0.24728
1100.66626,0.23460
1099.17647,0.22195
1097.68668,0.21626
1096.19690,0.21862
1094.70711,0.20778
1093.21732,0.20541
1091.72753,0.18486
1090.23774,0.18840
1088.74795,0.19195
1087.25817,0.17776
1085.76838,0.18896
1084.27859,0.19671
1082.78880,0.19017
1081.29901,0.19797
1079.80922,0.23050
1078.31943,0.22838
1076.82965,0.22628
1075.33986,0.22485
1073.85007,0.26051
1072.36028,0.26477
1070.87049,0.28075
1069.38070,0.30110
1067.89092,0.31507
1066.40113,0.32907
1064.91134,0.41148
1063.42155,0.47982
1061.93176,0.57940
1060.44197,0.70870
1058.95219,0.78470
1057.46240,0.83244
1055.97261,0.88021
1054.48282,0.97926
1052.99303,1.03542
1051.50324,1.06017
1050.01345,1.05568
1048.52367,1.02261
1047.03388,1.01243
1045.54409,1.00228
1044.05430,0.93069
1042.56451,0.82446
1041.07472,0.76398
1039.58494,0.70981
1038.09515,0.65458
1036.60536,0.61217
1035.11557,0.56978
1033.62578,0.50335
1032.13599,0.42546
1030.64620,0.36645
1029.15642,0.32741
1027.66663,0.31006
1026.17684,0.29274
1024.68705,0.26829
1023.19726,0.21526
1021.70747,0.17633
1020.21769,0.16280
1018.72790,0.13909
1017.23811,0.13438
1015.74832,0.12969
1014.25853,0.11907
1012.76874,0.09459
1011.27896,0.10049
1009.78917,0.08690
1008.29938,0.08634
1006.80959,0.07150
1005.31980,0.05669
1003.83001,0.03865
1002.34022,0.02886
1000.85044,0.04837
999.36065,0.04362
997.87086,0.04832
996.38107,0.05305
994.89128,0.07157
993.40149,0.07624
991.91171,0.10369
990.42192,0.13225
988.93213,0.15606
987.44234,0.16267
985.95255,0.16930
984.46276,0.14919
982.97297,0.14340
981.48319,0.13244
979.99340,0.09939
978.50361,0.09325
977.01382,0.08713
975.52403,0.06781
974.03424,0.04743
972.54446,0.03445
971.05467,0.01780
969.56488,0.01072
968.07509,0.00951
966.58530,0.00833
965.09551,0.01259
963.60573,0.00647
962.11594,0.00943
960.62615,0.00679
959.13636,0.00655
957.64657,0.00634
956.15678,0.02849
954.66699,0.01186
953.17721,0.02365
951.68742,0.02593
950.19763,0.02954
948.70784,0.03316
947.21805,0.05936
945.72826,0.07083
944.23848,0.09057
942.74869,0.09018
941.25890,0.11192
939.76911,0.12100
938.27932,0.13011
936.78953,0.15994
935.29974,0.17137
933.80996,0.18629
932.32017,0.18259
930.83038,0.19009
929.34059,0.19760
927.85080,0.23473
926.36101,0.26061
924.87123,0.29714
923.38144,0.34127
921.89165,0.38261
920.40186,0.42398
918.91207,0.53321
917.42228,0.66133
915.93250,0.80377
914.44271,1.02926
912.95292,1.14921
911.46313,1.26918
909.97334,1.44879
908.48355,1.67653
906.99376,1.83559
905.50398,1.92749
904.01419,1.95351
902.52440,1.97956
901.03461,2.00000
899.54482,1.95284
898.05503,1.83720
896.56525,1.61517
895.07546,1.48496
893.58567,1.35476
892.09588,1.07753
890.60609,0.83349
889.11630,0.62632
887.62651,0.47162
886.13673,0.42695
884.64694,0.38230
883.15715,0.26258
881.66736,0.18817
880.17757,0.13981
878.68778,0.11596
877.19800,0.09213
875.70821,0.08155
874.21842,0.03935
872.72863,0.04009
871.23884,0.02698
869.74905,0.02354
868.25927,0.02012
866.76948,0.01359
865.27969,0.01509
863.78990,0.03570
862.30011,0.03813
860.81032,0.04123
859.32053,0.04435
857.83075,0.07177
856.34096,0.09423
854.85117,0.09895
853.36138,0.12037
851.87159,0.13055
850.38180,0.14076
848.89202,0.14903
847.40223,0.17142
845.91244,0.19362
844.42265,0.20316
842.93286,0.21273
841.44307,0.23153
839.95329,0.23648
838.46350,0.25598
836.97371,0.26055
835.48392,0.26742
833.99413,0.27431
832.50434,0.26335
831.01455,0.24504
829.52477,0.23347
828.03498,0.17164
826.54519,0.17497
825.05540,0.17832
823.56561,0.14777
822.07582,0.13221
820.58604,0.11125
819.09625,0.11091
817.60646,0.11059
816.11667,0.10119
814.62688,0.11955
813.13709,0.12819
811.64730,0.13122
810.15752,0.13211
808.66773,0.13301
807.17794,0.13200
805.68815,0.15376
804.19836,0.14043
802.70857,0.14708
801.21879,0.15374
799.72900,0.12358
798.23921,0.11967
796.74942,0.11666
795.25963,0.11778
793.76984,0.11893
792.28006,0.14026
790.79027,0.16942
789.30048,0.15937
787.81069,0.19378
786.32090,0.21130
784.83111,0.22885
783.34132,0.25011
781.85154,0.28180
780.36175,0.32543
778.87196,0.35273
777.38217,0.38004
775.89238,0.38972
774.40259,0.40874
772.91281,0.39809
771.42302,0.40133
769.93323,0.40460
768.44344,0.33962
766.95365,0.26946
765.46386,0.23096
763.97407,0.18188
762.48429,0.16738
760.99450,0.15292
759.50471,0.11669
758.01492,0.11040
756.52513,0.10630
755.03534,0.09550
753.54556,0.08473
752.05577,0.07767
750.56598,0.07020
749.07619,0.05906
747.58640,0.05370
746.09661,0.04836
744.60683,0.03730
743.11704,0.01456
741.62725,0.01439
740.13746,0.01662
738.64767,0.01888
737.15788,0.01444
735.66809,0.00634
734.17831,0.02081
732.68852,0.01644
731.19873,0.01209
729.70894,0.01059
728.21915,0.00673
726.72936,0.01457
725.23958,0.01181
723.74979,0.01342
722.26000,0.01505
720.77021,0.00933
719.28042,0.00450
717.79063,0.01336
716.30084,0.00836
714.81106,0.00339
713.32127,0.00997
711.83148,0.02828
710.34169,0.02169
708.85190,0.01859
707.36211,0.01551
705.87233,0.02416
704.38254,0.03479
702.89275,0.04176
701.40296,0.04853
699.91317,0.05533
698.42338,0.06605
696.93360,0.07051
695.44381,0.10296
693.95402,0.11018
692.46423,0.11742
690.97444,0.12935
689.48465,0.15604
687.99486,0.17452
686.50508,0.18326
685.01529,0.19204
683.52550,0.23031
682.03571,0.25257
680.54592,0.26380
679.05613,0.26487
677.56635,0.26596
676.07656,0.28853
674.58677,0.26713
673.09698,0.24856
671.60719,0.23198
670.11740,0.21541
668.62761,0.18175
667.13783,0.17477
665.64804,0.15807
664.15825,0.14138
662.66846,0.11671
661.17867,0.08663
659.68888,0.06981
658.19910,0.06276
656.70931,0.05573
655.21952,0.03897
653.72973,0.04760
652.23994,0.05626
650.75015,0.05485
649.26037,0.05348
647.77058,0.05331
646.28079,0.04863
644.79100,0.04699
643.30121,0.05146
641.81142,0.05594
640.32163,0.06782
638.83185,0.04765
637.34206,0.04441
635.85227,0.02536
634.36248,0.00634
632.87269,0.03113
631.38290,0.03102
629.89312,0.03094
628.40333,0.03369
626.91354,0.03647
625.42375,0.03342
623.93396,0.04578
622.44417,0.04527
620.95438,0.04479
619.46460,0.05636
617.97481,0.07120
616.48502,0.09366
614.99523,0.09717
613.50544,0.10071
612.01565,0.14903
610.52587,0.17678
609.03608,0.21713
607.54629,0.22076
606.05650,0.22442
604.56671,0.28262
603.07692,0.35297
601.58714,0.37784
600.09735,0.40272
598.60756,0.46730
597.11777,0.49094
595.62798,0.48382
594.13819,0.46545
592.64840,0.44711
591.15862,0.41774
589.66883,0.33333
588.17904,0.27063
586.68925,0.25856
585.19946,0.24652
583.70967,0.19191
582.21989,0.14339
580.73010,0.12253
579.24031,0.10170
577.75052,0.07969
576.26073,0.09240
574.77094,0.07781
573.28115,0.08319
571.79137,0.08860
570.30158,0.07408
568.81179,0.10663
567.32200,0.10810
565.83221,0.10959
564.34242,0.13961
562.85264,0.14255
561.36285,0.17609
559.87306,0.17226
558.38327,0.16845
556.89348,0.18125
555.40369,0.21184
553.91391,0.21678
552.42412,0.22174
550.93433,0.22553
549.44454,0.23607
547.95475,0.23058
546.46496,0.23705
544.97517,0.24354
543.48539,0.26262
541.99560,0.28368
540.50581,0.30477
539.01602,0.32587
537.52623,0.36911
536.03644,0.41281
534.54666,0.45458
533.05687,0.45845
531.56708,0.46233
530.07729,0.50071
528.58750,0.55016
527.09771,0.59877
525.60792,0.64741
524.11814,0.71709
522.62835,0.76794
521.13856,0.79996
519.64877,0.81293
518.15898,0.82592
516.66919,0.86126
515.17941,0.86043
513.68962,0.86493
512.19983,0.86946
510.71004,0.84096
509.22025,0.79037
507.73046,0.73135
506.24068,0.67084
504.75089,0.61035
503.26110,0.53320
501.77131,0.43202
500.28152,0.36152
498.79173,0.29105
497.30194,0.24218
495.81216,0.17035
494.32237,0.14872
492.83258,0.12712
491.34279,0.12494
489.85300,0.11433
488.36321,0.08272
486.87343,0.07747
485.38364,0.07224
483.89385,0.08145
482.40406,0.11410
480.91427,0.12606
479.42448,0.13806
477.93469,0.15083
476.44491,0.16428
474.95512,0.17722
473.46533,0.19017
471.97554,0.20976
470.48575,0.20380
468.99596,0.20935
467.50618,0.19282
466.01639,0.17631
464.52660,0.12471
463.03681,0.10803
461.54702,0.08997
460.05723,0.07193
458.56745,0.06942
457.07766,0.03615
455.58787,0.03801
454.09808,0.03990
452.60829,0.03662
451.11850,0.03942
449.62871,0.03401
448.13893,0.02863
446.64914,0.03650
445.15935,0.02856
443.66956,0.00634
442.17977,0.01168
440.68998,0.01704
439.20020,0.05233
437.71041,0.03541
436.22062,0.04410
434.73083,0.05280
433.24104,0.03661
431.75125,0.03387
430.26146,0.03247
428.77168,0.03108
427.28189,0.04533
425.79210,0.04247
424.30231,0.04160
422.81252,0.04074
421.32273,0.05443
419.83295,0.02653
418.34316,0.03063
416.85337,0.03475
415.36358,0.01060
413.87379,0.02227
412.38400,0.02831
410.89422,0.03439
409.40443,0.03593
407.91464,0.03295
406.42485,0.02782
404.93506,0.02706
403.44527,0.02632
401.95548,0.04684
400.46570,0.03379
398.97591,0.04081
397.48612,0.04786
395.99633,0.03554
394.50654,0.02258
393.01675,0.02450
391.52697,0.02505
390.03718,0.03786
388.54739,0.03466
387.05760,0.02617
385.56781,0.01771
384.07802,0.00634
382.58824,0.02583
381.09845,0.02182
379.60866,0.01783
378.11887,0.02655
376.62908,0.01448
375.13929,0.01468
373.64950,0.01491
372.15972,0.02719
370.66993,0.02780
369.18014,0.02807
367.69035,0.02836
366.20056,0.03150
364.71077,0.03792
363.22099,0.03319
361.73120,0.02849
360.24141,0.07269
358.75162,0.07638
357.26183,0.07208
355.77204,0.06780
354.28225,0.07850
352.79247,0.08814
351.30268,0.08914
349.81289,0.09016
348.32310,0.06085
346.83331,0.07731
345.34352,0.06984
343.85374,0.06239
342.36395,0.08022
340.87416,0.05104
339.38437,0.04562
337.89458,0.04022
336.40479,0.00634
334.91501,0.01744
333.42522,0.01892
331.93543,0.02042
330.44564,0.01923
328.95585,0.01742
327.46606,0.02474
325.97627,0.03208
324.48649,0.05440
322.99670,0.04337
321.50691,0.04298
320.01712,0.04261
318.52733,0.03989
317.03754,0.04867
315.54776,0.05185
314.05797,0.05505
312.56818,0.07583
311.07839,0.10248
309.58860,0.08625
308.09881,0.07004
306.60902,0.05168
305.11924,0.07453
303.62945,0.05362
302.13966,0.03274
300.64987,0.00689
299.16008,0.00634
