1778.52000,0.00017
1777.03021,0.00000
1775.54042,0.01065
1774.05063,0.00873
1772.56085,0.01246
1771.07106,0.01823
1769.58127,0.01683
1768.09148,0.01299
1766.60169,0.01074
1765.11190,0.01414
1763.62212,0.01036
1762.13233,0.00886
1760.64254,0.00941
1759.15275,0.01200
1757.66296,0.02541
1756.17317,0.01299
1754.68339,0.02600
1753.19360,0.01700
1751.70381,0.03050
1750.21402,0.00941
1748.72423,0.02379
1747.23444,0.01594
1745.74465,0.02138
1744.25487,0.02774
1742.76508,0.01884
1741.27529,0.01468
1739.78550,0.02737
1738.29571,0.02097
1736.80592,0.02674
1735.31614,0.02287
1733.82635,0.02531
1732.33656,0.02036
1730.84677,0.01746
1729.35698,0.02200
1727.86719,0.02162
1726.37740,0.02036
1724.88762,0.01530
1723.39783,0.01836
1721.90804,0.01178
1720.41825,0.00793
1718.92846,0.01669
1717.43867,0.02076
1715.94889,0.01721
1714.45910,0.00941
1712.96931,0.01599
1711.47952,0.01247
1709.98973,0.01078
1708.49994,0.01158
1707.01016,0.01218
1705.52037,0.01281
1704.03058,0.01683
1702.54079,0.02020
1701.05100,0.01326
1699.56121,0.01780
1698.07142,0.01788
1696.58164,0.01325
1695.09185,0.02326
1693.60206,0.02116
1692.11227,0.02312
1690.62248,0.02039
1689.13269,0.01701
1687.64291,0.02647
1686.15312,0.03528
1684.66333,0.02657
1683.17354,0.03543
1681.68375,0.03779
1680.19396,0.02668
1678.70417,0.04483
1677.21439,0.03827
1675.72460,0.05826
1674.23481,0.05332
1672.74502,0.05200
1671.25523,0.05498
1669.76544,0.07057
1668.27566,0.05358
1666.78587,0.06090
1665.29608,0.07050
1663.80629,0.07427
1662.31650,0.08930
1660.82671,0.08211
1659.33693,0.08573
1657.84714,0.09184
1656.35735,0.07415
1654.86756,0.07694
1653.37777,0.08583
1651.88798,0.08260
1650.39819,0.07669
1648.90841,0.08138
1647.41862,0.07552
1645.92883,0.07565
1644.43904,0.07580
1642.94925,0.06305
1641.45946,0.07999
1639.96968,0.07920
1638.47989,0.07641
1636.99010,0.07724
1635.50031,0.07405
1634.01052,0.06864
1632.52073,0.07808
1631.03094,0.08171
1629.54116,0.08491
1628.05137,0.09443
1626.56158,0.08598
1625.07179,0.10117
1623.58200,0.09412
1622.09221,0.09048
1620.60243,0.07044
1619.11264,0.07965
1617.62285,0.09069
1616.13306,0.07724
1614.64327,0.08338
1613.15348,0.08145
1611.66370,0.08696
1610.17391,0.07631
1608.68412,0.09356
1607.19433,0.10521
1605.70454,0.09530
1604.21475,0.09363
1602.72496,0.09198
1601.23518,0.09001
1599.74539,0.08402
1598.25560,0.06974
1596.76581,0.07347
1595.27602,0.07295
1593.78623,0.08302
1592.29645,0.08300
1590.80666,0.08210
1589.31687,0.06999
1587.82708,0.07521
1586.33729,0.06944
1584.84750,0.07898
1583.35771,0.08697
1581.86793,0.08284
1580.37814,0.07267
1578.88835,0.06702
1577.39856,0.05622
1575.90877,0.05174
1574.41898,0.05426
1572.92920,0.04443
1571.43941,0.05733
1569.94962,0.04902
1568.45983,0.04072
1566.97004,0.03819
1565.48025,0.04602
1563.99047,0.03768
1562.50068,0.04264
1561.01089,0.04986
1559.52110,0.04385
1558.03131,0.03426
1556.54152,0.02965
1555.05173,0.03944
1553.56195,0.02273
1552.07216,0.02808
1550.58237,0.03300
1549.09258,0.02581
1547.60279,0.02336
1546.11300,0.01396
1544.62322,0.01404
1543.13343,0.00941
1541.64364,0.01835
1540.15385,0.01754
1538.66406,0.01676
1537.17427,0.02060
1535.68448,0.01840
1534.19470,0.03219
1532.70491,0.01610
1531.21512,0.02139
1529.72533,0.02423
1528.23554,0.01361
1526.74575,0.02369
1525.25597,0.02998
1523.76618,0.02460
1522.27639,0.03790
1520.78660,0.03257
1519.29681,0.02569
1517.80702,0.03682
1516.31724,0.04190
1514.82745,0.04183
1513.33766,0.04764
1511.84787,0.05347
1510.35808,0.05752
1508.86829,0.04811
1507.37850,0.04277
1505.88872,0.03565
1504.39893,0.04227
1502.90914,0.05814
1501.41935,0.06593
1499.92956,0.08477
1498.43977,0.07305
1496.94999,0.05956
1495.46020,0.08364
1493.97041,0.10774
1492.48062,0.10691
1490.99083,0.10633
1489.50104,0.12218
1488.01125,0.13120
1486.52147,0.14025
1485.03168,0.15460
1483.54189,0.17010
1482.05210,0.20316
1480.56231,0.21871
1479.07252,0.22349
1477.58274,0.24224
1476.09295,0.22976
1474.60316,0.23394
1473.11337,0.26692
1471.62358,0.25271
1470.13379,0.26281
1468.64401,0.28867
1467.15422,0.31972
1465.66443,0.33877
1464.17464,0.35784
1462.68485,0.37817
1461.19506,0.40999
1459.70527,0.46837
1458.21549,0.49282
1456.72570,0.58002
1455.23591,0.61688
1453.74612,0.63129
1452.25633,0.68214
1450.76654,0.70469
1449.27676,0.73423
1447.78697,0.71659
1446.29718,0.67536
1444.80739,0.66237
1443.31760,0.64941
1441.82781,0.60466
1440.33802,0.59321
1438.84824,0.54176
1437.35845,0.52091
1435.86866,0.53201
1434.37887,0.52784
1432.88908,0.55068
1431.39929,0.62075
1429.90951,0.69332
1428.41972,0.77715
1426.92993,0.82279
1425.44014,0.84710
1423.95035,0.86816
1422.46056,0.88926
1420.97078,0.93567
1419.48099,0.94726
1417.99120,0.93661
1416.50141,0.93049
1415.01162,0.93068
1413.52183,0.90460
1412.03204,0.84661
1410.54226,0.76662
1409.05247,0.70217
1407.56268,0.64965
1406.07289,0.60705
1404.58310,0.56627
1403.09331,0.52552
1401.60353,0.45309
1400.11374,0.40519
1398.62395,0.38699
1397.13416,0.33509
1395.64437,0.27760
1394.15458,0.21293
1392.66479,0.20607
1391.17501,0.16213
1389.68522,0.14880
1388.19543,0.11435
1386.70564,0.10466
1385.21585,0.09500
1383.72606,0.09592
1382.23628,0.06000
1380.74649,0.02950
1379.25670,0.02330
1377.76691,0.02409
1376.27712,0.00760
1374.78733,0.00709
1373.29755,0.01870
1371.80776,0.01573
1370.31797,0.02266
1368.82818,0.01603
1367.33839,0.00941
1365.84860,0.02468
1364.35881,0.03727
1362.86903,0.06607
1361.37924,0.07714
1359.88945,0.10621
1358.39966,0.12452
1356.90987,0.15229
1355.42008,0.19695
1353.93030,0.23579
1352.44051,0.26611
1350.95072,0.29645
1349.46093,0.36526
1347.97114,0.44286
1346.48135,0.51711
1344.99156,0.59993
1343.50178,0.67963
1342.01199,0.72135
1340.52220,0.78042
1339.03241,0.85771
1337.54262,0.87411
1336.05283,0.87917
1334.56305,0.88426
1333.07326,0.94974
1331.58347,0.97118
1330.09368,0.98117
1328.60389,0.96197
1327.11410,0.88636
1325.62432,0.88024
1324.13453,0.82806
1322.64474,0.77613
1321.15495,0.76447
1319.66516,0.75193
1318.17537,0.73941
1316.68558,0.68510
1315.19580,0.60789
1313.70601,0.55026
1312.21622,0.52682
1310.72643,0.51082
1309.23664,0.47687
1307.74685,0.43912
1306.25707,0.40004
1304.76728,0.38650
1303.27749,0.37299
1301.78770,0.32994
1300.29791,0.26285
1298.80812,0.21243
1297.31834,0.18878
1295.82855,0.15909
1294.33876,0.15100
1292.84897,0.12653
1291.35918,0.11782
1289.86939,0.10969
1288.37960,0.10159
1286.88982,0.10374
1285.40003,0.08118
1283.91024,0.09440
1282.42045,0.06380
1280.93066,0.05008
1279.44087,0.06202
1277.95109,0.05037
1276.46130,0.04752
1274.97151,0.04705
1273.48172,0.04661
1271.99193,0.05079
1270.50214,0.04354
1269.01235,0.02350
1267.52257,0.02079
1266.03278,0.01990
1264.54299,0.03950
1263.05320,0.03934
1261.56341,0.04212
1260.07362,0.04492
1258.58384,0.01538
1257.09405,0.01666
1255.60426,0.02426
1254.11447,0.01278
1252.62468,0.00941
1251.13489,0.02348
1249.64511,0.01959
1248.15532,0.01999
1246.66553,0.02402
1245.17574,0.02807
1243.68595,0.01708
1242.19616,0.01106
1240.70637,0.01248
1239.21659,0.01011
1237.72680,0.01878
1236.23701,0.03196
1234.74722,0.02719
1233.25743,0.02210
1231.76764,0.01703
1230.27786,0.02627
1228.78807,0.01597
1227.29828,0.01851
1225.80849,0.01208
1224.31870,0.01894
1222.82891,0.00941
1221.33912,0.02912
1219.84934,0.02828
1218.35955,0.02747
1216.86976,0.05534
1215.37997,0.07245
1213.89018,0.07609
1212.40039,0.06941
1210.91061,0.07423
1209.42082,0.06445
1207.93103,0.05987
1206.44124,0.05532
1204.95145,0.06202
1203.46166,0.04987
1201.97188,0.05146
1200.48209,0.04273
1198.99230,0.04661
1197.50251,0.02219
1196.01272,0.03848
1194.52293,0.03389
1193.03314,0.02933
1191.54336,0.02838
1190.05357,0.01892
1188.56378,0.01173
1187.07399,0.02660
1185.58420,0.02193
1184.09441,0.01953
1182.60463,0.01446
1181.11484,0.00941
1179.62505,0.01148
1178.13526,0.02233
1176.64547,0.01523
1175.15568,0.01669
1173.66589,0.00941
1172.17611,0.02038
1170.68632,0.01946
1169.19653,0.01856
1167.70674,0.01476
1166.21695,0.03145
1164.72716,0.04793
1163.23738,0.04308
1161.74759,0.05287
1160.25780,0.05863
1158.76801,0.05678
1157.27822,0.05495
1155.78843,0.07270
1154.29865,0.06710
1152.80886,0.08265
1151.31907,0.10474
1149.82928,0.11135
1148.33949,0.11821
1146.84970,0.11745
1145.35991,0.11671
1143.87013,0.13105
1142.38034,0.15104
1140.89055,0.15105
1139.40076,0.15401
1137.91097,0.19318
1136.42118,0.19326
1134.93140,0.20067
1133.44161,0.20810
1131.95182,0.23141
1130.46203,0.23900
1128.97224,0.24325
1127.48245,0.25314
1125.99266,0.22978
1124.50288,0.23432
1123.01309,0.22945
1121.52330,0.22460
1120.03351,0.20358
1118.54372,0.19541
1117.05393,0.21378
1115.56415,0.23376
1114.07436,0.23847
1112.58457,0.23320
1111.09478,0.22795
1109.60499,0.22779
1108.11520,0.23170
1106.62542,0.22259
1105.13563,0.22452
1103.64584,0.20085
1102.15605,0.20238
1100.66626,0.19697
1099.17647,0.19158
1097.68668,0.18644
1096.19690,0.19054
1094.70711,0.20095
1093.21732,0.19858
1091.72753,0.17915
1090.23774,0.18042
1088.74795,0.18172
1087.25817,0.17944
1085.76838,0.16932
1084.27859,0.16822
1082.78880,0.17591
1081.29901,0.18317
1079.80922,0.17180
1078.31943,0.18012
1076.82965,0.18846
1075.33986,0.18615
1073.85007,0.20972
1072.36028,0.20364
1070.87049,0.21759
1069.38070,0.24505
1067.89092,0.26512
1066.40113,0.28521
1064.91134,0.29858
1063.42155,0.38572
1061.93176,0.47490
1060.44197,0.56815
1058.95219,0.66457
1057.46240,0.70481
1055.97261,0.74508
1054.48282,0.82561
1052.99303,0.87222
1051.50324,0.88558
1050.01345,0.89807
1048.52367,0.87956
1047.03388,0.86422
1045.54409,0.84890
1044.05430,0.81337
1042.56451,0.73606
1041.07472,0.68417
1039.58494,0.64017
1038.09515,0.57080
1036.60536,0.53157
1035.11557,0.49237
1033.62578,0.46263
1032.13599,0.39470
1030.64620,0.34005
1029.15642,0.29712
1027.66663,0.27254
1026.17684,0.24798
1024.68705,0.21546
1023.19726,0.17196
1021.70747,0.16444
1020.21769,0.14594
1018.72790,0.13914
1017.23811,0.12642
1015.74832,0.11372
1014.25853,0.11981
1012.76874,0.10840
1011.27896,0.12668
1009.78917,0.12453
1008.29938,0.08913
1006.80959,0.07421
1005.31980,0.05931
1003.83001,0.04444
1002.34022,0.01836
1000.85044,0.02602
999.36065,0.03707
997.87086,0.04051
996.38107,0.04397
994.89128,0.07578
993.40149,0.07232
991.91171,0.07652
990.42192,0.09334
988.93213,0.11626
987.44234,0.12368
985.95255,0.13113
984.46276,0.12040
982.97297,0.11913
981.48319,0.09338
979.99340,0.06922
978.50361,0.05589
977.01382,0.04257
975.52403,0.04075
974.03424,0.03917
972.54446,0.03807
971.05467,0.03362
969.56488,0.00941
968.07509,0.01105
966.58530,0.01271
965.09551,0.01900
963.60573,0.02531
962.11594,0.01322
960.62615,0.02498
959.13636,0.02586
957.64657,0.02676
956.15678,0.02106
954.66699,0.02437
953.17721,0.03985
951.68742,0.03489
950.19763,0.04738
948.70784,0.05989
947.21805,0.05321
945.72826,0.08612
944.23848,0.09769
942.74869,0.11806
941.25890,0.14587
939.76911,0.14863
938.27932,0.15142
936.78953,0.17593
935.29974,0.18428
933.80996,0.18433
932.32017,0.18440
930.83038,0.19237
929.34059,0.20036
927.85080,0.21985
926.36101,0.26048
924.87123,0.30002
923.38144,0.34093
921.89165,0.37894
920.40186,0.41698
918.91207,0.49123
917.42228,0.63318
915.93250,0.73153
914.44271,0.94434
912.95292,1.04623
911.46313,1.14815
909.97334,1.35765
908.48355,1.56584
906.99376,1.77000
905.50398,1.93911
904.01419,1.96954
902.52440,2.00000
901.03461,1.96866
899.54482,1.86900
898.05503,1.78352
896.56525,1.61287
895.07546,1.49665
893.58567,1.38044
892.09588,1.13815
890.60609,0.87430
889.11630,0.67252
887.62651,0.49931
886.13673,0.44280
884.64694,0.38632
883.15715,0.26917
881.66736,0.19295
880.17757,0.13249
878.68778,0.12118
877.19800,0.10989
875.70821,0.07648
874.21842,0.07098
872.72863,0.04414
871.23884,0.03238
869.74905,0.02773
868.25927,0.02311
866.76948,0.03863
865.27969,0.02472
863.78990,0.06165
862.30011,0.06285
860.81032,0.06071
859.32053,0.05859
857.83075,0.07245
856.34096,0.11085
854.85117,0.11419
853.36138,0.12296
851.87159,0.12647
850.38180,0.13000
848.89202,0.16694
847.40223,0.16681
845.91244,0.16176
844.42265,0.16741
842.93286,0.17308
841.44307,0.23308
839.95329,0.26229
838.46350,0.24769
836.97371,0.26706
835.48392,0.27826
833.99413,0.28947
832.50434,0.27587
831.01455,0.25195
829.52477,0.21209
828.03498,0.19519
826.54519,0.17595
825.05540,0.15673
823.56561,0.16868
822.07582,0.13861
820.58604,0.12992
819.09625,0.12946
817.60646,0.12902
816.11667,0.11163
814.62688,0.12215
813.13709,0.11897
811.64730,0.13381
810.15752,0.14170
808.66773,0.14961
807.17794,0.14024
805.68815,0.13763
804.19836,0.14517
802.70857,0.14317
801.21879,0.14120
799.72900,0.12903
798.23921,0.11126
796.74942,0.13600
795.25963,0.13300
793.76984,0.13002
792.28006,0.13505
790.79027,0.16596
789.30048,0.15373
787.81069,0.18716
786.32090,0.20959
784.83111,0.23205
783.34132,0.26825
781.85154,0.29008
780.36175,0.30969
778.87196,0.33248
777.38217,0.35528
775.89238,0.37519
774.40259,0.38747
772.91281,0.39417
771.42302,0.38301
769.93323,0.37187
768.44344,0.35683
766.95365,0.28359
765.46386,0.24499
763.97407,0.19764
762.48429,0.17505
760.99450,0.15248
759.50471,0.15984
758.01492,0.15081
756.52513,0.12382
755.03534,0.11708
753.54556,0.11037
752.05577,0.10414
750.56598,0.08264
749.07619,0.06746
747.58640,0.06477
746.09661,0.06212
744.60683,0.04476
743.11704,0.03979
741.62725,0.03440
740.13746,0.03476
738.64767,0.03515
737.15788,0.00982
735.66809,0.01643
734.17831,0.01003
732.68852,0.01277
731.19873,0.01552
729.70894,0.01953
728.21915,0.00941
726.72936,0.00923
725.23958,0.01582
723.74979,0.01591
722.26000,0.01603
720.77021,0.00807
719.28042,0.01970
717.79063,0.01068
716.30084,0.01021
714.81106,0.00978
713.32127,0.02330
711.83148,0.02313
710.34169,0.03199
708.85190,0.02659
707.36211,0.02121
705.87233,0.03261
704.38254,0.03189
702.89275,0.04963
701.40296,0.05188
699.91317,0.05415
698.42338,0.06387
696.93360,0.10351
695.44381,0.10856
693.95402,0.11228
692.46423,0.11602
690.97444,0.13485
689.48465,0.15258
687.99486,0.17708
686.50508,0.18912
685.01529,0.20119
683.52550,0.23071
682.03571,0.24451
680.54592,0.26419
679.05613,0.27174
677.56635,0.27932
676.07656,0.28873
674.58677,0.26691
673.09698,0.23971
671.60719,0.23615
670.11740,0.23261
668.62761,0.20257
667.13783,0.18334
665.64804,0.16380
664.15825,0.14428
662.66846,0.11793
661.17867,0.08194
659.68888,0.06980
658.19910,0.06083
656.70931,0.05189
655.21952,0.03757
653.72973,0.03115
652.23994,0.05375
650.75015,0.05693
649.26037,0.06013
647.77058,0.05943
646.28079,0.05312
644.79100,0.05179
643.30121,0.04700
641.81142,0.04223
640.32163,0.03625
638.83185,0.03883
637.34206,0.01221
635.85227,0.01080
634.36248,0.00941
632.87269,0.02199
631.38290,0.02290
629.89312,0.01439
628.40333,0.01456
626.91354,0.01476
625.42375,0.01150
623.93396,0.03793
622.44417,0.03989
620.95438,0.04186
619.46460,0.04949
617.97481,0.06433
616.48502,0.07604
614.99523,0.08396
613.50544,0.09191
612.01565,0.12146
610.52587,0.16339
609.03608,0.20019
607.54629,0.21328
606.05650,0.22640
604.56671,0.24955
603.07692,0.31567
601.58714,0.35168
600.09735,0.38771
598.60756,0.40669
597.11777,0.42411
595.62798,0.41773
594.13819,0.41048
592.64840,0.40324
591.15862,0.35602
589.66883,0.32388
588.17904,0.27266
586.68925,0.25338
585.19946,0.23413
583.70967,0.16589
582.21989,0.11140
580.73010,0.10199
579.24031,0.09262
577.75052,0.06899
576.26073,0.06764
574.77094,0.07284
573.28115,0.06018
571.79137,0.04756
570.30158,0.05912
568.81179,0.04867
567.32200,0.06152
565.83221,0.07439
564.34242,0.10741
562.85264,0.11302
561.36285,0.13889
559.87306,0.14612
558.38327,0.15338
556.89348,0.14043
555.40369,0.16976
553.91391,0.17822
552.42412,0.18670
550.93433,0.19160
549.44454,0.17787
547.95475,0.18889
546.46496,0.19477
544.97517,0.20067
543.48539,0.23717
541.99560,0.25930
540.50581,0.27079
539.01602,0.28229
537.52623,0.32720
536.03644,0.36337
534.54666,0.43081
533.05687,0.44129
531.56708,0.45179
530.07729,0.51885
528.58750,0.56166
527.09771,0.57144
525.60792,0.58125
524.11814,0.63290
522.62835,0.70233
521.13856,0.75133
519.64877,0.77990
518.15898,0.80849
516.66919,0.83440
515.17941,0.83044
513.68962,0.82527
512.19983,0.82012
510.71004,0.80027
509.22025,0.71952
507.73046,0.71208
506.24068,0.67420
504.75089,0.63635
503.26110,0.45723
501.77131,0.36019
500.28152,0.31128
498.79173,0.26240
497.30194,0.21309
495.81216,0.18089
494.32237,0.15153
492.83258,0.12219
491.34279,0.10782
489.85300,0.09258
488.36321,0.09219
486.87343,0.07925
485.38364,0.06633
483.89385,0.05927
482.40406,0.09743
480.91427,0.09953
479.42448,0.10165
477.93469,0.10481
476.44491,0.15116
474.95512,0.16336
473.46533,0.17558
471.97554,0.18063
470.48575,0.18031
468.99596,0.16293
467.50618,0.16581
466.01639,0.16871
464.52660,0.10869
463.03681,0.09455
461.54702,0.08505
460.05723,0.07557
458.56745,0.04982
457.07766,0.03915
455.58787,0.03334
454.09808,0.02755
452.60829,0.04910
451.11850,0.03111
449.62871,0.03237
448.13893,0.03364
446.64914,0.02539
445.15935,0.02593
443.66956,0.00941
442.17977,0.01524
440.68998,0.02110
439.20020,0.03451
437.71041,0.03289
436.22062,0.03443
434.73083,0.03600
433.24104,0.02905
431.75125,0.02729
430.26146,0.04231
428.77168,0.05735
427.28189,0.04038
425.79210,0.04434
424.30231,0.04484
422.81252,0.04537
421.32273,0.04086
419.83295,0.02783
418.34316,0.02022
416.85337,0.01264
415.36358,0.01249
413.87379,0.02429
412.38400,0.03577
410.89422,0.04728
409.40443,0.05241
407.91464,0.06295
406.42485,0.02361
404.93506,0.03105
403.44527,0.03852
401.95548,0.04759
400.46570,0.03128
398.97591,0.02937
397.48612,0.02750
395.99633,0.03823
394.50654,0.03281
393.01675,0.02752
391.52697,0.02225
390.03718,0.02049
388.54739,0.04753
387.05760,0.03110
385.56781,0.01469
384.07802,0.01404
382.58824,0.03140
381.09845,0.03844
379.60866,0.04551
378.11887,0.04226
376.62908,0.03139
375.13929,0.01987
373.64950,0.00837
372.15972,0.01893
370.66993,0.02186
369.18014,0.02351
367.69035,0.02518
366.20056,0.03091
364.71077,0.02252
363.22099,0.02538
361.73120,0.02827
360.24141,0.03995
358.75162,0.05503
357.26183,0.05192
355.77204,0.04883
354.28225,0.04532
352.79247,0.05667
351.30268,0.05804
349.81289,0.05944
348.32310,0.05512
346.83331,0.05488
345.34352,0.06140
343.85374,0.06795
342.36395,0.07947
340.87416,0.05527
339.38437,0.03233
337.89458,0.00941
336.40479,0.02857
334.91501,0.01560
333.42522,0.01681
331.93543,0.01806
330.44564,0.02337
328.95585,0.03477
327.46606,0.03564
325.97627,0.03653
324.48649,0.01900
322.99670,0.01904
321.50691,0.03237
320.01712,0.04572
318.52733,0.06134
317.03754,0.05248
315.54776,0.06792
314.05797,0.08339
312.56818,0.08045
311.07839,0.05640
309.58860,0.04642
308.09881,0.03647
306.60902,0.04891
305.11924,0.05665
303.62945,0.04003
302.13966,0.02343
300.64987,0.01191
299.16008,0.00941
