1778.52000,0.00642
1777.03021,0.01265
1775.54042,0.01325
1774.05063,0.00281
1772.56085,0.00777
1771.07106,0.00845
1769.58127,0.01022
1768.09148,0.01471
1766.60169,0.00764
1765.11190,0.00194
1763.62212,0.00731
1762.13233,0.01218
1760.64254,0.01059
1759.15275,0.00795
1757.66296,0.00858
1756.17317,0.00922
1754.68339,0.01286
1753.19360,0.00789
1751.70381,0.00592
1750.21402,0.01664
1748.72423,0.01363
1747.23444,0.00957
1745.74465,0.00257
1744.25487,0.01097
1742.76508,0.00806
1741.27529,0.01192
1739.78550,0.01850
1738.29571,0.01944
1736.80592,0.00396
1735.31614,0.00649
1733.82635,0.00688
1732.33656,0.00191
1730.84677,0.01287
1729.35698,0.01711
1727.86719,0.00789
1726.37740,0.00086
1724.88762,0.00410
1723.39783,0.00628
1721.90804,0.00472
1720.41825,0.01208
1718.92846,0.00651
1717.43867,0.00313
1715.94889,0.00194
1714.45910,0.00840
1712.96931,0.01058
1711.47952,0.01089
1709.98973,0.00583
1708.49994,0.00592
1707.01016,0.00806
1705.52037,0.01023
1704.03058,0.01228
1702.54079,0.01490
1701.05100,0.02078
1699.56121,0.02236
1698.07142,0.00753
1696.58164,0.01779
1695.09185,0.02512
1693.60206,0.02492
1692.11227,0.01314
1690.62248,0.00194
1689.13269,0.03482
1687.64291,0.02351
1686.15312,0.02813
1684.66333,0.03925
1683.17354,0.04095
1681.68375,0.02731
1680.19396,0.04174
1678.70417,0.04513
1677.21439,0.05907
1675.72460,0.04607
1674.23481,0.04576
1672.74502,0.06004
1671.25523,0.07138
1669.76544,0.06414
1668.27566,0.05827
1666.78587,0.05916
1665.29608,0.06224
1663.80629,0.08098
1662.31650,0.09085
1660.82671,0.06920
1659.33693,0.08316
1657.84714,0.07557
1656.35735,0.08581
1654.86756,0.06452
1653.37777,0.08667
1651.88798,0.07055
1650.39819,0.08763
1648.90841,0.08613
1647.41862,0.06658
1645.92883,0.07550
1644.43904,0.08445
1642.94925,0.09545
1641.45946,0.08409
1639.96968,0.09864
1638.47989,0.10135
1636.99010,0.10786
1635.50031,0.08770
1634.01052,0.08617
1632.52073,0.08143
1631.03094,0.10665
1629.54116,0.09360
1628.05137,0.10080
1626.56158,0.09238
1625.07179,0.09747
1623.58200,0.10932
1622.09221,0.09559
1620.60243,0.10210
1619.11264,0.09731
1617.62285,0.09848
1616.13306,0.08457
1614.64327,0.08444
1613.15348,0.06842
1611.66370,0.08398
1610.17391,0.09255
1608.68412,0.11005
1607.19433,0.11840
1605.70454,0.10844
1604.21475,0.09904
1602.72496,0.08967
1601.23518,0.09812
1599.74539,0.08259
1598.25560,0.08597
1596.76581,0.07400
1595.27602,0.09225
1593.78623,0.08087
1592.29645,0.10969
1590.80666,0.08487
1589.31687,0.08112
1587.82708,0.09437
1586.33729,0.09282
1584.84750,0.09830
1583.35771,0.08817
1581.86793,0.08723
1580.37814,0.07526
1578.88835,0.06628
1577.39856,0.07621
1575.90877,0.06889
1574.41898,0.06107
1572.92920,0.06082
1571.43941,0.06005
1569.94962,0.05998
1568.45983,0.05994
1566.97004,0.05277
1565.48025,0.03215
1563.99047,0.04310
1562.50068,0.04329
1561.01089,0.04863
1559.52110,0.02703
1558.03131,0.04293
1556.54152,0.03216
1555.05173,0.02627
1553.56195,0.02823
1552.07216,0.02293
1550.58237,0.00848
1549.09258,0.00431
1547.60279,0.00960
1546.11300,0.01033
1544.62322,0.00165
1543.13343,0.00000
1541.64364,0.01788
1540.15385,0.00989
1538.66406,0.00194
1537.17427,0.01548
1535.68448,0.00775
1534.19470,0.01542
1532.70491,0.00909
1531.21512,0.02489
1529.72533,0.02265
1528.23554,0.02367
1526.74575,0.02364
1525.25597,0.01662
1523.76618,0.02635
1522.27639,0.02935
1520.78660,0.01863
1519.29681,0.02816
1517.80702,0.01749
1516.31724,0.04621
1514.82745,0.04692
1513.33766,0.05075
1511.84787,0.05460
1510.35808,0.05646
1508.86829,0.06184
1507.37850,0.05108
1505.88872,0.05705
1504.39893,0.06548
1502.90914,0.05316
1501.41935,0.06514
1499.92956,0.06313
1498.43977,0.05736
1496.94999,0.06699
1495.46020,0.08662
1493.97041,0.10277
1492.48062,0.10735
1490.99083,0.10197
1489.50104,0.08745
1488.01125,0.09817
1486.52147,0.10892
1485.03168,0.14274
1483.54189,0.17902
1482.05210,0.20561
1480.56231,0.20850
1479.07252,0.22004
1477.58274,0.21111
1476.09295,0.22027
1474.60316,0.23539
1473.11337,0.23679
1471.62358,0.21097
1470.13379,0.24180
1468.64401,0.26160
1467.15422,0.28736
1465.66443,0.29886
1464.17464,0.31037
1462.68485,0.33513
1461.19506,0.37717
1459.70527,0.41141
1458.21549,0.46995
1456.72570,0.55817
1455.23591,0.59734
1453.74612,0.64355
1452.25633,0.69140
1450.76654,0.71527
1449.27676,0.71113
1447.78697,0.71968
1446.29718,0.72691
1444.80739,0.71987
1443.31760,0.71285
1441.82781,0.65166
1440.33802,0.56784
1438.84824,0.53905
1437.35845,0.51569
1435.86866,0.50556
1434.37887,0.50516
1432.88908,0.56655
1431.39929,0.65168
1429.90951,0.75599
1428.41972,0.83201
1426.92993,0.85412
1425.44014,0.89783
1423.95035,0.93226
1422.46056,0.96671
1420.97078,1.00294
1419.48099,0.98526
1417.99120,1.00320
1416.50141,0.97775
1415.01162,0.91161
1413.52183,0.90104
1412.03204,0.81931
1410.54226,0.78802
1409.05247,0.72710
1407.56268,0.66539
1406.07289,0.63877
1404.58310,0.60138
1403.09331,0.56402
1401.60353,0.48030
1400.11374,0.42627
1398.62395,0.38358
1397.13416,0.33661
1395.64437,0.26512
1394.15458,0.23546
1392.66479,0.19800
1391.17501,0.15733
1389.68522,0.13960
1388.19543,0.09925
1386.70564,0.09425
1385.21585,0.08927
1383.72606,0.04494
1382.23628,0.03705
1380.74649,0.03268
1379.25670,0.01810
1377.76691,0.01918
1376.27712,0.01488
1374.78733,0.00091
1373.29755,0.00559
1371.80776,0.00194
1370.31797,0.01243
1368.82818,0.01162
1367.33839,0.01084
1365.84860,0.01817
1364.35881,0.03415
1362.86903,0.04207
1361.37924,0.07267
1359.88945,0.11111
1358.39966,0.11371
1356.90987,0.14519
1355.42008,0.19206
1353.93030,0.26323
1352.44051,0.29694
1350.95072,0.33067
1349.46093,0.40758
1347.97114,0.48613
1346.48135,0.55068
1344.99156,0.65894
1343.50178,0.72057
1342.01199,0.80542
1340.52220,0.88652
1339.03241,0.94283
1337.54262,0.88672
1336.05283,0.90492
1334.56305,0.92315
1333.07326,0.95718
1331.58347,0.96023
1330.09368,0.97812
1328.60389,0.96719
1327.11410,0.92959
1325.62432,0.88122
1324.13453,0.87306
1322.64474,0.81720
1321.15495,0.79318
1319.66516,0.76999
1318.17537,0.74682
1316.68558,0.65681
1315.19580,0.61266
1313.70601,0.57366
1312.21622,0.55167
1310.72643,0.54508
1309.23664,0.49483
1307.74685,0.44649
1306.25707,0.41543
1304.76728,0.39168
1303.27749,0.36796
1301.78770,0.31917
1300.29791,0.23590
1298.80812,0.18555
1297.31834,0.17702
1295.82855,0.18443
1294.33876,0.14413
1292.84897,0.10952
1291.35918,0.10595
1289.86939,0.10577
1288.37960,0.10561
1286.88982,0.07865
1285.40003,0.09648
1283.91024,0.06957
1282.42045,0.06102
1280.93066,0.07298
1279.44087,0.06691
1277.95109,0.07273
1276.46130,0.04944
1274.97151,0.03899
1273.48172,0.02857
1271.99193,0.04014
1270.50214,0.04069
1269.01235,0.03074
1267.52257,0.02567
1266.03278,0.01281
1264.54299,0.02370
1263.05320,0.05780
1261.56341,0.04245
1260.07362,0.02712
1258.58384,0.03838
1257.09405,0.03160
1255.60426,0.05396
1254.11447,0.03077
1252.62468,0.01651
1251.13489,0.02061
1249.64511,0.01287
1248.15532,0.01433
1246.66553,0.00812
1245.17574,0.00194
1243.68595,0.02545
1242.19616,0.02121
1240.70637,0.03048
1239.21659,0.03492
1237.72680,0.05637
1236.23701,0.04091
1234.74722,0.03706
1233.25743,0.03607
1231.76764,0.03511
1230.27786,0.03592
1228.78807,0.05213
1227.29828,0.01012
1225.80849,0.01532
1224.31870,0.00194
1222.82891,0.01134
1221.33912,0.03723
1219.84934,0.03401
1218.35955,0.03082
1216.86976,0.04545
1215.37997,0.05282
1213.89018,0.07559
1212.40039,0.08086
1210.91061,0.09020
1209.42082,0.06180
1207.93103,0.05986
1206.44124,0.05795
1204.95145,0.07277
1203.46166,0.05580
1201.97188,0.06043
1200.48209,0.04702
1198.99230,0.03795
1197.50251,0.02485
1196.01272,0.00962
1194.52293,0.01114
1193.03314,0.01268
1191.54336,0.03177
1190.05357,0.02447
1188.56378,0.02743
1187.07399,0.02233
1185.58420,0.02372
1184.09441,0.01516
1182.60463,0.01215
1181.11484,0.00917
1179.62505,0.00770
1178.13526,0.00194
1176.64547,0.01251
1175.15568,0.03632
1173.66589,0.03076
1172.17611,0.01362
1170.68632,0.01513
1169.19653,0.01665
1167.70674,0.02683
1166.21695,0.01249
1164.72716,0.03027
1163.23738,0.02596
1161.74759,0.03759
1160.25780,0.04061
1158.76801,0.06024
1157.27822,0.07990
1155.78843,0.07733
1154.29865,0.07182
1152.80886,0.08737
1151.31907,0.10483
1149.82928,0.12231
1148.33949,0.12472
1146.84970,0.13012
1145.35991,0.13554
1143.87013,0.13722
1142.38034,0.15617
1140.89055,0.15385
1139.40076,0.15479
1137.91097,0.16492
1136.42118,0.22173
1134.93140,0.20939
1133.44161,0.19708
1131.95182,0.23940
1130.46203,0.23617
1128.97224,0.23027
1127.48245,0.24975
1125.99266,0.27248
1124.50288,0.25020
1123.01309,0.23429
1121.52330,0.21840
1120.03351,0.24959
1118.54372,0.23604
1117.05393,0.24651
1115.56415,0.26052
1114.07436,0.25325
1112.58457,0.24883
1111.09478,0.24444
1109.60499,0.21971
1108.11520,0.24867
1106.62542,0.25069
1105.13563,0.25003
1103.64584,0.24698
1102.15605,0.25608
1100.66626,0.23609
1099.17647,0.21612
1097.68668,0.21073
1096.19690,0.20699
1094.70711,0.19572
1093.21732,0.19823
1091.72753,0.19915
1090.23774,0.19213
1088.74795,0.18514
1087.25817,0.16860
1085.76838,0.18148
1084.27859,0.17524
1082.78880,0.17711
1081.29901,0.16364
1079.80922,0.17770
1078.31943,0.18180
1076.82965,0.18593
1075.33986,0.19440
1073.85007,0.19588
1072.36028,0.17770
1070.87049,0.19918
1069.38070,0.21611
1067.89092,0.22874
1066.40113,0.24140
1064.91134,0.29562
1063.42155,0.35875
1061.93176,0.44645
1060.44197,0.52879
1058.95219,0.58175
1057.46240,0.60696
1055.97261,0.63220
1054.48282,0.75858
1052.99303,0.82513
1051.50324,0.85260
1050.01345,0.83398
1048.52367,0.82725
1047.03388,0.82148
1045.54409,0.81575
1044.05430,0.77134
1042.56451,0.69001
1041.07472,0.67639
1039.58494,0.62072
1038.09515,0.58127
1036.60536,0.54076
1035.11557,0.50027
1033.62578,0.44282
1032.13599,0.40831
1030.64620,0.34444
1029.15642,0.30405
1027.66663,0.29604
1026.17684,0.28806
1024.68705,0.24316
1023.19726,0.19775
1021.70747,0.15560
1020.21769,0.14070
1018.72790,0.13231
1017.23811,0.12070
1015.74832,0.10912
1014.25853,0.10673
1012.76874,0.09061
1011.27896,0.08342
1009.78917,0.08191
1008.29938,0.05723
1006.80959,0.05295
1005.31980,0.04868
1003.83001,0.04727
1002.34022,0.03187
1000.85044,0.02889
999.36065,0.00194
997.87086,0.00587
996.38107,0.00983
994.89128,0.01934
993.40149,0.03049
991.91171,0.05488
990.42192,0.08307
988.93213,0.09672
987.44234,0.10892
985.95255,0.12114
984.46276,0.09846
982.97297,0.11707
981.48319,0.08823
979.99340,0.06132
978.50361,0.04656
977.01382,0.03182
975.52403,0.02601
974.03424,0.02562
972.54446,0.00637
971.05467,0.00414
969.56488,0.00194
968.07509,0.00346
966.58530,0.00501
965.09551,0.00173
963.60573,0.00808
962.11594,0.00123
960.62615,0.00982
959.13636,0.01210
957.64657,0.01440
956.15678,0.02117
954.66699,0.01745
953.17721,0.01861
951.68742,0.02896
950.19763,0.03759
948.70784,0.04624
947.21805,0.04777
945.72826,0.07008
944.23848,0.09836
942.74869,0.10886
941.25890,0.13610
939.76911,0.13438
938.27932,0.13269
936.78953,0.15165
935.29974,0.17872
933.80996,0.20447
932.32017,0.22053
930.83038,0.20723
929.34059,0.19395
927.85080,0.23760
926.36101,0.24675
924.87123,0.29260
923.38144,0.34630
921.89165,0.38371
920.40186,0.42114
918.91207,0.51186
917.42228,0.64439
915.93250,0.76293
914.44271,0.97318
912.95292,1.07735
911.46313,1.18153
909.97334,1.44148
908.48355,1.63349
906.99376,1.78103
905.50398,1.89273
904.01419,1.91830
902.52440,1.94389
901.03461,1.98447
899.54482,2.00000
898.05503,1.84431
896.56525,1.67113
895.07546,1.54003
893.58567,1.40896
892.09588,1.12690
890.60609,0.87237
889.11630,0.67692
887.62651,0.49094
886.13673,0.43900
884.64694,0.38709
883.15715,0.27075
881.66736,0.17035
880.17757,0.12390
878.68778,0.10728
877.19800,0.09068
875.70821,0.05968
874.21842,0.03114
872.72863,0.02607
871.23884,0.01564
869.74905,0.01346
868.25927,0.01130
866.76948,0.00580
865.27969,0.00194
863.78990,0.01078
862.30011,0.01912
860.81032,0.03220
859.32053,0.04530
857.83075,0.03672
856.34096,0.06969
854.85117,0.05793
853.36138,0.07099
851.87159,0.07316
850.38180,0.07536
848.89202,0.10495
847.40223,0.11083
845.91244,0.13076
844.42265,0.13251
842.93286,0.13429
841.44307,0.14863
839.95329,0.18835
838.46350,0.18278
836.97371,0.19288
835.48392,0.19465
833.99413,0.19644
832.50434,0.19151
831.01455,0.17313
829.52477,0.16690
828.03498,0.13077
826.54519,0.12378
825.05540,0.11682
823.56561,0.09101
822.07582,0.08976
820.58604,0.08045
819.09625,0.08410
817.60646,0.08778
816.11667,0.05238
814.62688,0.07984
813.13709,0.09249
811.64730,0.10652
810.15752,0.09710
808.66773,0.08772
807.17794,0.08402
805.68815,0.09113
804.19836,0.09018
802.70857,0.08749
801.21879,0.08484
799.72900,0.07614
798.23921,0.08040
796.74942,0.07742
795.25963,0.07715
793.76984,0.07691
792.28006,0.10824
790.79027,0.09456
789.30048,0.08307
787.81069,0.13362
786.32090,0.14186
784.83111,0.15013
783.34132,0.19158
781.85154,0.21257
780.36175,0.23628
778.87196,0.25530
777.38217,0.27434
775.89238,0.28383
774.40259,0.30170
772.91281,0.32446
771.42302,0.30894
769.93323,0.29345
768.44344,0.26019
766.95365,0.22237
765.46386,0.16057
763.97407,0.13628
762.48429,0.13008
760.99450,0.12391
759.50471,0.10994
758.01492,0.09276
756.52513,0.08234
755.03534,0.07627
753.54556,0.07022
752.05577,0.03857
750.56598,0.05576
749.07619,0.03334
747.58640,0.03157
746.09661,0.02982
744.60683,0.03578
743.11704,0.03233
741.62725,0.00194
740.13746,0.00643
738.64767,0.01096
737.15788,0.02413
735.66809,0.00417
734.17831,0.00526
732.68852,0.01150
731.19873,0.01776
729.70894,0.01650
728.21915,0.00636
726.72936,0.00434
725.23958,0.02118
723.74979,0.01903
722.26000,0.01690
720.77021,0.01763
719.28042,0.00194
717.79063,0.00404
716.30084,0.00321
714.81106,0.00240
713.32127,0.01429
711.83148,0.03348
710.34169,0.05513
708.85190,0.04983
707.36211,0.04456
705.87233,0.04255
704.38254,0.02843
702.89275,0.04184
701.40296,0.04220
699.91317,0.04258
698.42338,0.04743
696.93360,0.08629
695.44381,0.08256
693.95402,0.09747
692.46423,0.11240
690.97444,0.14812
689.48465,0.17200
687.99486,0.16408
686.50508,0.19717
685.01529,0.23029
683.52550,0.25670
682.03571,0.27396
680.54592,0.27722
679.05613,0.27754
677.56635,0.27788
676.07656,0.27825
674.58677,0.25276
673.09698,0.23754
671.60719,0.22814
670.11740,0.21876
668.62761,0.20496
667.13783,0.17554
665.64804,0.14642
664.15825,0.11732
662.66846,0.12115
661.17867,0.09291
659.68888,0.05876
658.19910,0.05727
656.70931,0.05580
655.21952,0.04357
653.72973,0.03999
652.23994,0.05829
650.75015,0.06015
649.26037,0.06204
647.77058,0.03402
646.28079,0.02922
644.79100,0.04817
643.30121,0.04463
641.81142,0.04112
640.32163,0.05286
638.83185,0.03497
637.34206,0.01791
635.85227,0.00991
634.36248,0.00194
632.87269,0.01026
631.38290,0.03155
629.89312,0.04127
628.40333,0.03700
626.91354,0.03274
625.42375,0.04389
623.93396,0.04535
622.44417,0.05007
620.95438,0.05481
619.46460,0.06390
617.97481,0.05709
616.48502,0.05221
614.99523,0.06703
613.50544,0.08187
612.01565,0.11912
610.52587,0.16099
609.03608,0.19505
607.54629,0.21714
606.05650,0.23926
604.56671,0.27070
603.07692,0.34208
601.58714,0.35860
600.09735,0.37515
598.60756,0.40723
597.11777,0.41884
595.62798,0.41511
594.13819,0.40856
592.64840,0.40205
591.15862,0.36548
589.66883,0.31277
588.17904,0.26871
586.68925,0.24462
585.19946,0.22056
583.70967,0.14529
582.21989,0.12641
580.73010,0.10040
579.24031,0.07442
577.75052,0.06639
576.26073,0.05677
574.77094,0.04637
573.28115,0.03855
571.79137,0.03076
570.30158,0.03365
568.81179,0.05166
567.32200,0.06174
565.83221,0.07184
564.34242,0.07968
562.85264,0.08997
561.36285,0.10540
559.87306,0.11102
558.38327,0.11666
556.89348,0.12274
555.40369,0.15229
553.91391,0.16920
552.42412,0.18613
550.93433,0.16237
549.44454,0.16506
547.95475,0.15429
546.46496,0.16498
544.97517,0.17570
543.48539,0.19332
541.99560,0.20476
540.50581,0.21690
539.01602,0.22907
537.52623,0.32418
536.03644,0.35325
534.54666,0.36913
533.05687,0.40391
531.56708,0.43871
530.07729,0.48379
528.58750,0.55235
527.09771,0.58049
525.60792,0.60865
524.11814,0.73257
522.62835,0.79961
521.13856,0.82056
519.64877,0.80851
518.15898,0.79648
516.66919,0.88654
515.17941,0.86822
513.68962,0.84939
512.19983,0.83058
510.71004,0.81180
509.22025,0.76715
507.73046,0.73196
506.24068,0.65271
504.75089,0.57349
503.26110,0.47204
501.77131,0.38949
500.28152,0.33852
498.79173,0.28757
497.30194,0.21427
495.81216,0.16741
494.32237,0.13946
492.83258,0.11153
491.34279,0.12921
489.85300,0.11508
488.36321,0.09316
486.87343,0.08205
485.38364,0.07096
483.89385,0.07312
482.40406,0.12545
480.91427,0.12172
479.42448,0.11802
477.93469,0.11137
476.44491,0.12416
474.95512,0.13995
473.46533,0.15575
471.97554,0.12709
470.48575,0.12758
468.99596,0.16126
467.50618,0.15519
466.01639,0.14914
464.52660,0.07827
463.03681,0.05029
461.54702,0.04998
460.05723,0.04970
458.56745,0.02935
457.07766,0.02277
455.58787,0.01919
454.09808,0.01563
452.60829,0.00778
451.11850,0.01291
449.62871,0.01751
448.13893,0.02214
446.64914,0.01844
445.15935,0.00559
443.66956,0.00194
442.17977,0.00122
440.68998,0.00053
439.20020,0.05126
437.71041,0.04539
436.22062,0.03549
434.73083,0.02562
433.24104,0.03007
431.75125,0.01296
430.26146,0.00802
428.77168,0.00310
427.28189,0.04054
425.79210,0.02947
424.30231,0.03272
422.81252,0.03599
421.32273,0.05465
419.83295,0.04664
418.34316,0.03772
416.85337,0.02881
415.36358,0.00200
413.87379,0.03104
412.38400,0.03569
410.89422,0.04037
409.40443,0.04953
407.91464,0.03686
406.42485,0.03798
404.93506,0.04127
403.44527,0.04459
401.95548,0.06088
400.46570,0.03270
398.97591,0.04270
397.48612,0.05272
395.99633,0.04268
394.50654,0.02700
393.01675,0.03615
391.52697,0.04533
390.03718,0.03189
388.54739,0.02736
387.05760,0.01464
385.56781,0.00194
384.07802,0.03160
382.58824,0.05483
381.09845,0.05367
379.60866,0.05254
378.11887,0.05183
376.62908,0.02176
375.13929,0.02569
373.64950,0.02964
372.15972,0.02364
370.66993,0.01228
369.18014,0.00709
367.69035,0.00194
366.20056,0.01671
364.71077,0.05120
363.22099,0.06265
361.73120,0.07413
360.24141,0.06932
358.75162,0.08153
357.26183,0.08607
355.77204,0.09063
354.28225,0.06947
352.79247,0.08177
351.30268,0.06848
349.81289,0.05521
348.32310,0.05492
346.83331,0.06570
345.34352,0.07529
343.85374,0.08491
342.36395,0.05774
340.87416,0.03896
339.38437,0.03287
337.89458,0.02681
336.40479,0.02105
334.91501,0.04982
333.42522,0.05341
331.93543,0.05702
330.44564,0.02304
328.95585,0.04275
327.46606,0.03929
325.97627,0.03585
324.48649,0.06426
322.99670,0.02878
321.50691,0.04457
320.01712,0.06037
318.52733,0.08403
317.03754,0.05970
315.54776,0.05860
314.05797,0.05752
312.56818,0.06563
311.07839,0.08158
309.58860,0.07437
308.09881,0.06719
306.60902,0.08807
305.11924,0.05882
303.62945,0.06034
302.13966,0.06188
300.64987,0.03270
299.16008,0.00194
