1778.52000,0.01283
1777.03021,0.01756
1775.54042,0.01151
1774.05063,0.01650
1772.56085,0.00818
1771.07106,0.01237
1769.58127,0.01299
1768.09148,0.01765
1766.60169,0.00963
1765.11190,0.01562
1763.62212,0.00383
1762.13233,0.00436
1760.64254,0.01063
1759.15275,0.01438
1757.66296,0.00968
1756.17317,0.00691
1754.68339,0.00671
1753.19360,0.01501
1751.70381,0.01168
1750.21402,0.00774
1748.72423,0.00234
1747.23444,0.00840
1745.74465,0.00813
1744.25487,0.01022
1742.76508,0.01042
1741.27529,0.00917
1739.78550,0.01429
1738.29571,0.01139
1736.80592,0.01042
1735.31614,0.00651
1733.82635,0.01129
1732.33656,0.00000
1730.84677,0.00991
1729.35698,0.01900
1727.86719,0.00842
1726.37740,0.00802
1724.88762,0.01591
1723.39783,0.02086
1721.90804,0.01186
1720.41825,0.00436
1718.92846,0.00879
1717.43867,0.00836
1715.94889,0.00902
1714.45910,0.00865
1712.96931,0.00978
1711.47952,0.00501
1709.98973,0.00217
1708.49994,0.01397
1707.01016,0.01054
1705.52037,0.00713
1704.03058,0.01582
1702.54079,0.00272
1701.05100,0.00595
1699.56121,0.00730
1698.07142,0.00550
1696.58164,0.00436
1695.09185,0.01225
1693.60206,0.01784
1692.11227,0.01370
1690.62248,0.01129
1689.13269,0.00974
1687.64291,0.02009
1686.15312,0.02622
1684.66333,0.02898
1683.17354,0.02563
1681.68375,0.01912
1680.19396,0.01709
1678.70417,0.02588
1677.21439,0.04063
1675.72460,0.04333
1674.23481,0.03652
1672.74502,0.03079
1671.25523,0.04627
1669.76544,0.04652
1668.27566,0.05422
1666.78587,0.05939
1665.29608,0.05294
1663.80629,0.06133
1662.31650,0.06298
1660.82671,0.07376
1659.33693,0.08032
1657.84714,0.08034
1656.35735,0.07213
1654.86756,0.06076
1653.37777,0.08140
1651.88798,0.06882
1650.39819,0.06959
1648.90841,0.07379
1647.41862,0.07334
1645.92883,0.07419
1644.43904,0.07507
1642.94925,0.07639
1641.45946,0.07859
1639.96968,0.07318
1638.47989,0.07776
1636.99010,0.08532
1635.50031,0.08231
1634.01052,0.07997
1632.52073,0.08295
1631.03094,0.08298
1629.54116,0.09786
1628.05137,0.09519
1626.56158,0.08301
1625.07179,0.09098
1623.58200,0.07970
1622.09221,0.08390
1620.60243,0.09385
1619.11264,0.10276
1617.62285,0.07611
1616.13306,0.09248
1614.64327,0.08135
1613.15348,0.07087
1611.66370,0.08350
1610.17391,0.07858
1608.68412,0.08724
1607.19433,0.09232
1605.70454,0.08895
1604.21475,0.08878
1602.72496,0.08864
1601.23518,0.09297
1599.74539,0.07529
1598.25560,0.08010
1596.76581,0.08789
1595.27602,0.08109
1593.78623,0.07241
1592.29645,0.07031
1590.80666,0.08011
1589.31687,0.06472
1587.82708,0.06461
1586.33729,0.07659
1584.84750,0.06975
1583.35771,0.07373
1581.86793,0.06736
1580.37814,0.06716
1578.88835,0.06952
1577.39856,0.06322
1575.90877,0.06288
1574.41898,0.05346
1572.92920,0.04892
1571.43941,0.04230
1569.94962,0.04544
1568.45983,0.04861
1566.97004,0.03549
1565.48025,0.03807
1563.99047,0.03368
1562.50068,0.03377
1561.01089,0.02371
1559.52110,0.02131
1558.03131,0.03100
1556.54152,0.03033
1555.05173,0.03096
1553.56195,0.02018
1552.07216,0.01344
1550.58237,0.00716
1549.09258,0.00195
1547.60279,0.01330
1546.11300,0.00729
1544.62322,0.00322
1543.13343,0.00129
1541.64364,0.00537
1540.15385,0.00704
1538.66406,0.00874
1537.17427,0.01035
1535.68448,0.00436
1534.19470,0.00730
1532.70491,0.01386
1531.21512,0.00753
1529.72533,0.01605
1528.23554,0.01930
1526.74575,0.01558
1525.25597,0.01973
1523.76618,0.01775
1522.27639,0.02872
1520.78660,0.02680
1519.29681,0.02468
1517.80702,0.02492
1516.31724,0.03853
1514.82745,0.03670
1513.33766,0.03755
1511.84787,0.03841
1510.35808,0.05254
1508.86829,0.03810
1507.37850,0.04444
1505.88872,0.04127
1504.39893,0.03559
1502.90914,0.05619
1501.41935,0.06580
1499.92956,0.06019
1498.43977,0.05037
1496.94999,0.06493
1495.46020,0.07421
1493.97041,0.07484
1492.48062,0.08862
1490.99083,0.10624
1489.50104,0.10482
1488.01125,0.11307
1486.52147,0.12133
1485.03168,0.13735
1483.54189,0.18115
1482.05210,0.20569
1480.56231,0.19870
1479.07252,0.21545
1477.58274,0.23922
1476.09295,0.23124
1474.60316,0.24192
1473.11337,0.25411
1471.62358,0.24261
1470.13379,0.24108
1468.64401,0.25948
1467.15422,0.29062
1465.66443,0.29933
1464.17464,0.30807
1462.68485,0.35283
1461.19506,0.38534
1459.70527,0.41279
1458.21549,0.49469
1456.72570,0.54739
1455.23591,0.60837
1453.74612,0.64587
1452.25633,0.67047
1450.76654,0.71183
1449.27676,0.68671
1447.78697,0.66923
1446.29718,0.67190
1444.80739,0.65416
1443.31760,0.63644
1441.82781,0.60233
1440.33802,0.55468
1438.84824,0.49626
1437.35845,0.48235
1435.86866,0.48328
1434.37887,0.51092
1432.88908,0.53881
1431.39929,0.61564
1429.90951,0.70245
1428.41972,0.77149
1426.92993,0.81875
1425.44014,0.85247
1423.95035,0.87837
1422.46056,0.90431
1420.97078,0.94932
1419.48099,0.90033
1417.99120,0.90367
1416.50141,0.90386
1415.01162,0.85260
1413.52183,0.83017
1412.03204,0.79485
1410.54226,0.72482
1409.05247,0.69441
1407.56268,0.63946
1406.07289,0.59598
1404.58310,0.55442
1403.09331,0.51289
1401.60353,0.44470
1400.11374,0.39622
1398.62395,0.36938
1397.13416,0.30803
1395.64437,0.26302
1394.15458,0.21549
1392.66479,0.19467
1391.17501,0.14846
1389.68522,0.13511
1388.19543,0.10695
1386.70564,0.09809
1385.21585,0.08925
1383.72606,0.06180
1382.23628,0.04772
1380.74649,0.04108
1379.25670,0.02259
1377.76691,0.02023
1376.27712,0.01006
1374.78733,0.00436
1373.29755,0.01011
1371.80776,0.00529
1370.31797,0.01215
1368.82818,0.01268
1367.33839,0.01323
1365.84860,0.01804
1364.35881,0.03051
1362.86903,0.04130
1361.37924,0.07435
1359.88945,0.10341
1358.39966,0.11448
1356.90987,0.14422
1355.42008,0.18606
1353.93030,0.24020
1352.44051,0.28103
1350.95072,0.32187
1349.46093,0.39304
1347.97114,0.46168
1346.48135,0.52590
1344.99156,0.59459
1343.50178,0.69275
1342.01199,0.71468
1340.52220,0.81437
1339.03241,0.85711
1337.54262,0.87974
1336.05283,0.89351
1334.56305,0.90730
1333.07326,0.90566
1331.58347,0.93771
1330.09368,0.90625
1328.60389,0.92946
1327.11410,0.88470
1325.62432,0.82557
1324.13453,0.82279
1322.64474,0.75672
1321.15495,0.78280
1319.66516,0.74367
1318.17537,0.70456
1316.68558,0.64494
1315.19580,0.60185
1313.70601,0.54524
1312.21622,0.52085
1310.72643,0.50008
1309.23664,0.47594
1307.74685,0.45141
1306.25707,0.41377
1304.76728,0.39532
1303.27749,0.37689
1301.78770,0.32365
1300.29791,0.26450
1298.80812,0.21702
1297.31834,0.18990
1295.82855,0.15709
1294.33876,0.14146
1292.84897,0.11505
1291.35918,0.10222
1289.86939,0.09312
1288.37960,0.08404
1286.88982,0.07340
1285.40003,0.07804
1283.91024,0.08206
1282.42045,0.06831
1280.93066,0.05586
1279.44087,0.04767
1277.95109,0.05243
1276.46130,0.03942
1274.97151,0.03829
1273.48172,0.03719
1271.99193,0.03356
1270.50214,0.02637
1269.01235,0.01263
1267.52257,0.03471
1266.03278,0.01551
1264.54299,0.02451
1263.05320,0.01701
1261.56341,0.01440
1260.07362,0.01182
1258.58384,0.02176
1257.09405,0.01669
1255.60426,0.01333
1254.11447,0.01000
1252.62468,0.00987
1251.13489,0.00405
1249.64511,0.01053
1248.15532,0.00370
1246.66553,0.00407
1245.17574,0.00436
1243.68595,0.00555
1242.19616,0.01587
1240.70637,0.01266
1239.21659,0.03023
1237.72680,0.02304
1236.23701,0.03219
1234.74722,0.01595
1233.25743,0.01561
1231.76764,0.01530
1230.27786,0.03429
1228.78807,0.03487
1227.29828,0.02277
1225.80849,0.01493
1224.31870,0.00436
1222.82891,0.01382
1221.33912,0.01440
1219.84934,0.01999
1218.35955,0.02560
1216.86976,0.05252
1215.37997,0.06802
1213.89018,0.07042
1212.40039,0.07899
1210.91061,0.08059
1209.42082,0.07882
1207.93103,0.07190
1206.44124,0.06499
1204.95145,0.06542
1203.46166,0.07180
1201.97188,0.06698
1200.48209,0.06769
1198.99230,0.04915
1197.50251,0.03805
1196.01272,0.03925
1194.52293,0.03286
1193.03314,0.02649
1191.54336,0.02607
1190.05357,0.00916
1188.56378,0.02129
1187.07399,0.02836
1185.58420,0.02381
1184.09441,0.02415
1182.60463,0.01837
1181.11484,0.01262
1179.62505,0.01324
1178.13526,0.00436
1176.64547,0.00811
1175.15568,0.00977
1173.66589,0.01992
1172.17611,0.01654
1170.68632,0.01520
1169.19653,0.01388
1167.70674,0.02477
1166.21695,0.01704
1164.72716,0.02733
1163.23738,0.03999
1161.74759,0.03127
1160.25780,0.04694
1158.76801,0.04685
1157.27822,0.04678
1155.78843,0.06358
1154.29865,0.07171
1152.80886,0.08538
1151.31907,0.08150
1149.82928,0.09564
1148.33949,0.09921
1146.84970,0.10916
1145.35991,0.11914
1143.87013,0.13719
1142.38034,0.14679
1140.89055,0.15599
1139.40076,0.16839
1137.91097,0.16790
1136.42118,0.18946
1134.93140,0.19082
1133.44161,0.19219
1131.95182,0.21107
1130.46203,0.21494
1128.97224,0.22243
1127.48245,0.22041
1125.99266,0.22731
1124.50288,0.23551
1123.01309,0.23419
1121.52330,0.23291
1120.03351,0.22932
1118.54372,0.21325
1117.05393,0.22559
1115.56415,0.23266
1114.07436,0.23425
1112.58457,0.22411
1111.09478,0.21399
1109.60499,0.21057
1108.11520,0.22814
1106.62542,0.21163
1105.13563,0.22777
1103.64584,0.21618
1102.15605,0.23258
1100.66626,0.22315
1099.17647,0.21376
1097.68668,0.19676
1096.19690,0.19398
1094.70711,0.19122
1093.21732,0.17578
1091.72753,0.18175
1090.23774,0.17356
1088.74795,0.16539
1087.25817,0.17102
1085.76838,0.16777
1084.27859,0.17153
1082.78880,0.18443
1081.29901,0.19608
1079.80922,0.19759
1078.31943,0.20410
1076.82965,0.21063
1075.33986,0.20946
1073.85007,0.23691
1072.36028,0.23303
1070.87049,0.24400
1069.38070,0.28423
1067.89092,0.29429
1066.40113,0.30438
1064.91134,0.38789
1063.42155,0.44749
1061.93176,0.56790
1060.44197,0.66185
1058.95219,0.72851
1057.46240,0.77465
1055.97261,0.82081
1054.48282,0.89813
1052.99303,0.97463
1051.50324,0.97300
1050.01345,0.95127
1048.52367,0.97298
1047.03388,0.95204
1045.54409,0.93112
1044.05430,0.87814
1042.56451,0.78579
1041.07472,0.74556
1039.58494,0.68418
1038.09515,0.58830
1036.60536,0.55927
1035.11557,0.53026
1033.62578,0.47956
1032.13599,0.42063
1030.64620,0.35897
1029.15642,0.32635
1027.66663,0.31515
1026.17684,0.30397
1024.68705,0.24792
1023.19726,0.19548
1021.70747,0.16616
1020.21769,0.13602
1018.72790,0.13767
1017.23811,0.12558
1015.74832,0.11351
1014.25853,0.08876
1012.76874,0.10936
1011.27896,0.09334
1009.78917,0.09111
1008.29938,0.06539
1006.80959,0.05866
1005.31980,0.05195
1003.83001,0.02313
1002.34022,0.03373
1000.85044,0.03461
999.36065,0.04802
997.87086,0.05721
996.38107,0.06642
994.89128,0.06973
993.40149,0.07200
991.91171,0.10395
990.42192,0.13127
988.93213,0.16560
987.44234,0.17326
985.95255,0.18095
984.46276,0.17278
982.97297,0.14663
981.48319,0.11860
979.99340,0.10266
978.50361,0.09236
977.01382,0.08209
975.52403,0.05140
974.03424,0.04361
972.54446,0.03838
971.05467,0.02259
969.56488,0.00746
968.07509,0.01893
966.58530,0.03043
965.09551,0.02829
963.60573,0.00436
962.11594,0.01273
960.62615,0.01244
959.13636,0.01662
957.64657,0.02083
956.15678,0.01045
954.66699,0.02614
953.17721,0.03021
951.68742,0.03324
950.19763,0.03608
948.70784,0.03895
947.21805,0.04990
945.72826,0.07357
944.23848,0.08265
942.74869,0.10256
941.25890,0.11784
939.76911,0.12901
938.27932,0.14020
936.78953,0.17419
935.29974,0.19379
933.80996,0.19013
932.32017,0.19284
930.83038,0.19843
929.34059,0.20405
927.85080,0.20938
926.36101,0.25328
924.87123,0.29593
923.38144,0.34432
921.89165,0.38437
920.40186,0.42445
918.91207,0.52926
917.42228,0.65315
915.93250,0.80842
914.44271,1.05224
912.95292,1.14518
911.46313,1.23814
909.97334,1.44582
908.48355,1.65733
906.99376,1.78860
905.50398,1.90146
904.01419,1.93545
902.52440,1.96946
901.03461,2.00000
899.54482,1.94182
898.05503,1.80487
896.56525,1.61542
895.07546,1.48381
893.58567,1.35223
892.09588,1.07241
890.60609,0.84260
889.11630,0.63124
887.62651,0.47836
886.13673,0.41458
884.64694,0.35081
883.15715,0.25223
881.66736,0.18650
880.17757,0.13435
878.68778,0.11919
877.19800,0.10405
875.70821,0.06362
874.21842,0.05626
872.72863,0.03791
871.23884,0.01620
869.74905,0.01833
868.25927,0.02049
866.76948,0.01643
865.27969,0.02553
863.78990,0.01770
862.30011,0.04844
860.81032,0.05422
859.32053,0.06002
857.83075,0.06415
856.34096,0.09203
854.85117,0.08710
853.36138,0.11037
851.87159,0.12455
850.38180,0.13876
848.89202,0.13117
847.40223,0.17487
845.91244,0.17474
844.42265,0.18513
842.93286,0.19554
841.44307,0.19633
839.95329,0.22638
838.46350,0.24120
836.97371,0.24165
835.48392,0.25292
833.99413,0.26421
832.50434,0.24863
831.01455,0.22800
829.52477,0.20907
828.03498,0.17323
826.54519,0.16760
825.05540,0.16199
823.56561,0.14232
822.07582,0.12394
820.58604,0.11321
819.09625,0.11215
817.60646,0.11111
816.11667,0.11231
814.62688,0.10867
813.13709,0.11946
811.64730,0.13217
810.15752,0.12458
808.66773,0.11701
807.17794,0.12535
805.68815,0.14219
804.19836,0.13448
802.70857,0.12966
801.21879,0.12486
799.72900,0.10621
798.23921,0.11406
796.74942,0.10245
795.25963,0.10081
793.76984,0.09921
792.28006,0.14761
790.79027,0.13991
789.30048,0.15743
787.81069,0.18303
786.32090,0.19743
784.83111,0.21185
783.34132,0.24494
781.85154,0.28165
780.36175,0.31796
778.87196,0.33618
777.38217,0.35443
775.89238,0.38488
774.40259,0.39079
772.91281,0.38804
771.42302,0.38457
769.93323,0.38112
768.44344,0.32507
766.95365,0.29424
765.46386,0.22616
763.97407,0.15302
762.48429,0.15266
760.99450,0.15232
759.50471,0.13094
758.01492,0.09750
756.52513,0.09777
755.03534,0.09435
753.54556,0.09096
752.05577,0.07033
750.56598,0.06921
749.07619,0.04376
747.58640,0.04353
746.09661,0.04333
744.60683,0.03087
743.11704,0.02183
741.62725,0.02360
740.13746,0.01397
738.64767,0.00436
737.15788,0.00921
735.66809,0.01662
734.17831,0.01411
732.68852,0.01267
731.19873,0.01126
729.70894,0.01030
728.21915,0.01402
726.72936,0.00993
725.23958,0.01765
723.74979,0.02369
722.26000,0.02975
720.77021,0.02398
719.28042,0.00637
717.79063,0.00869
716.30084,0.01305
714.81106,0.01743
713.32127,0.00436
711.83148,0.02641
710.34169,0.02604
708.85190,0.02485
707.36211,0.02368
705.87233,0.03884
704.38254,0.04598
702.89275,0.04636
701.40296,0.04889
699.91317,0.05144
698.42338,0.07307
696.93360,0.08817
695.44381,0.11134
693.95402,0.11706
692.46423,0.12280
690.97444,0.14223
689.48465,0.15448
687.99486,0.18158
686.50508,0.18530
685.01529,0.18905
683.52550,0.22554
682.03571,0.24172
680.54592,0.26259
679.05613,0.26230
677.56635,0.26204
676.07656,0.26328
674.58677,0.24040
673.09698,0.23047
671.60719,0.22394
670.11740,0.21745
668.62761,0.18471
667.13783,0.16322
665.64804,0.14621
664.15825,0.12921
662.66846,0.10420
661.17867,0.08556
659.68888,0.06589
658.19910,0.05641
656.70931,0.04695
655.21952,0.03752
653.72973,0.02302
652.23994,0.04245
650.75015,0.04558
649.26037,0.04874
647.77058,0.05150
646.28079,0.03882
644.79100,0.03062
643.30121,0.03832
641.81142,0.04605
640.32163,0.06016
638.83185,0.04210
637.34206,0.02512
635.85227,0.01473
634.36248,0.00436
632.87269,0.01242
631.38290,0.02601
629.89312,0.00659
628.40333,0.01292
626.91354,0.01927
625.42375,0.01369
623.93396,0.02316
622.44417,0.03012
620.95438,0.03711
619.46460,0.04983
617.97481,0.05940
616.48502,0.06371
614.99523,0.08116
613.50544,0.09865
612.01565,0.12674
610.52587,0.14872
609.03608,0.20249
607.54629,0.21329
606.05650,0.22412
604.56671,0.27309
603.07692,0.33819
601.58714,0.35947
600.09735,0.38077
598.60756,0.44233
597.11777,0.46114
595.62798,0.47192
594.13819,0.44513
592.64840,0.41837
591.15862,0.37203
589.66883,0.31789
588.17904,0.27563
586.68925,0.24176
585.19946,0.20791
583.70967,0.16446
582.21989,0.12208
580.73010,0.10049
579.24031,0.07892
577.75052,0.06457
576.26073,0.05745
574.77094,0.05353
573.28115,0.05790
571.79137,0.06229
570.30158,0.07348
568.81179,0.08301
567.32200,0.09001
565.83221,0.09704
564.34242,0.10685
562.85264,0.12367
561.36285,0.15259
559.87306,0.15654
558.38327,0.16051
556.89348,0.16302
555.40369,0.18060
553.91391,0.18422
552.42412,0.18787
550.93433,0.20043
549.44454,0.18930
547.95475,0.22564
546.46496,0.22292
544.97517,0.22023
543.48539,0.25219
541.99560,0.28650
540.50581,0.28060
539.01602,0.27472
537.52623,0.33622
536.03644,0.40558
534.54666,0.43811
533.05687,0.44302
531.56708,0.44796
530.07729,0.49200
528.58750,0.54771
527.09771,0.57994
525.60792,0.61219
524.11814,0.68195
522.62835,0.75428
521.13856,0.79021
519.64877,0.80042
518.15898,0.81066
516.66919,0.82971
515.17941,0.84434
513.68962,0.83442
512.19983,0.82453
510.71004,0.78967
509.22025,0.77686
507.73046,0.72616
506.24068,0.66140
504.75089,0.59666
503.26110,0.48207
501.77131,0.39864
500.28152,0.34711
498.79173,0.29560
497.30194,0.21753
495.81216,0.16152
494.32237,0.13529
492.83258,0.10909
491.34279,0.08852
489.85300,0.09466
488.36321,0.06906
486.87343,0.06286
485.38364,0.05668
483.89385,0.05636
482.40406,0.08994
480.91427,0.09358
479.42448,0.09725
477.93469,0.11502
476.44491,0.14405
474.95512,0.16176
473.46533,0.17950
471.97554,0.17217
470.48575,0.15808
468.99596,0.18744
467.50618,0.17085
466.01639,0.15430
464.52660,0.10917
463.03681,0.07381
461.54702,0.06251
460.05723,0.05124
458.56745,0.02591
457.07766,0.01988
455.58787,0.01694
454.09808,0.01402
452.60829,0.04280
451.11850,0.02585
449.62871,0.02565
448.13893,0.02548
446.64914,0.02428
445.15935,0.01229
443.66956,0.00436
442.17977,0.00652
440.68998,0.00870
439.20020,0.02563
437.71041,0.03199
436.22062,0.03011
434.73083,0.02826
433.24104,0.01987
431.75125,0.00747
430.26146,0.00718
428.77168,0.00690
427.28189,0.02424
425.79210,0.03439
424.30231,0.03822
422.81252,0.04206
421.32273,0.05695
419.83295,0.03098
418.34316,0.03120
416.85337,0.03144
415.36358,0.02545
413.87379,0.02055
412.38400,0.02838
410.89422,0.03623
409.40443,0.01848
407.91464,0.00436
406.42485,0.02744
404.93506,0.02651
403.44527,0.02560
401.95548,0.02440
400.46570,0.02407
398.97591,0.03065
397.48612,0.03725
395.99633,0.03339
394.50654,0.00541
393.01675,0.01335
391.52697,0.02132
390.03718,0.00845
388.54739,0.01208
387.05760,0.00821
385.56781,0.00436
384.07802,0.00587
382.58824,0.02753
381.09845,0.02877
379.60866,0.03003
378.11887,0.03884
376.62908,0.00722
375.13929,0.01438
373.64950,0.02157
372.15972,0.03026
370.66993,0.02902
369.18014,0.01669
367.69035,0.00438
366.20056,0.02145
364.71077,0.03410
363.22099,0.02973
361.73120,0.02537
360.24141,0.04805
358.75162,0.07520
357.26183,0.06573
355.77204,0.05628
354.28225,0.05893
352.79247,0.08512
351.30268,0.07659
349.81289,0.06809
348.32310,0.04902
346.83331,0.05180
345.34352,0.04400
343.85374,0.03623
342.36395,0.04268
340.87416,0.02500
339.38437,0.01963
337.89458,0.01429
336.40479,0.00474
334.91501,0.01787
333.42522,0.01916
331.93543,0.02048
330.44564,0.01780
328.95585,0.01409
327.46606,0.02183
325.97627,0.02960
324.48649,0.04227
322.99670,0.03759
321.50691,0.03632
320.01712,0.03508
318.52733,0.03768
317.03754,0.05978
315.54776,0.05533
314.05797,0.05091
312.56818,0.05699
311.07839,0.05695
309.58860,0.05651
308.09881,0.05610
306.60902,0.05148
305.11924,0.03459
303.62945,0.03372
302.13966,0.03288
300.64987,0.02623
299.16008,0.00436
