1778.52000,0.00005
1777.03021,0.01038
1775.54042,0.01038
1774.05063,0.01548
1772.56085,0.01472
1771.07106,0.00810
1769.58127,0.00618
1768.09148,0.00650
1766.60169,0.00970
1765.11190,0.00520
1763.62212,0.01230
1762.13233,0.00765
1760.64254,0.00445
1759.15275,0.00817
1757.66296,0.01171
1756.17317,0.00635
1754.68339,0.00852
1753.19360,0.00909
1751.70381,0.00360
1750.21402,0.00706
1748.72423,0.00040
1747.23444,0.01101
1745.74465,0.01008
1744.25487,0.01222
1742.76508,0.01296
1741.27529,0.01007
1739.78550,0.01127
1738.29571,0.02121
1736.80592,0.01739
1735.31614,0.00445
1733.82635,0.00804
1732.33656,0.00921
1730.84677,0.01467
1729.35698,0.01670
1727.86719,0.00354
1726.37740,0.01374
1724.88762,0.01869
1723.39783,0.01676
1721.90804,0.02115
1720.41825,0.01968
1718.92846,0.02432
1717.43867,0.01275
1715.94889,0.00445
1714.45910,0.01660
1712.96931,0.01214
1711.47952,0.01095
1709.98973,0.00633
1708.49994,0.01290
1707.01016,0.01239
1705.52037,0.01191
1704.03058,0.00434
1702.54079,0.00553
1701.05100,0.01242
1699.56121,0.00372
1698.07142,0.00883
1696.58164,0.00464
1695.09185,0.01447
1693.60206,0.01438
1692.11227,0.01817
1690.62248,0.01042
1689.13269,0.01568
1687.64291,0.01224
1686.15312,0.02019
1684.66333,0.01497
1683.17354,0.01850
1681.68375,0.01516
1680.19396,0.02503
1678.70417,0.02235
1677.21439,0.02516
1675.72460,0.03977
1674.23481,0.04426
1672.74502,0.03944
1671.25523,0.04337
1669.76544,0.04164
1668.27566,0.04664
1666.78587,0.05510
1665.29608,0.05588
1663.80629,0.05770
1662.31650,0.05975
1660.82671,0.06648
1659.33693,0.07588
1657.84714,0.06522
1656.35735,0.06533
1654.86756,0.07927
1653.37777,0.07903
1651.88798,0.07515
1650.39819,0.07780
1648.90841,0.07905
1647.41862,0.06937
1645.92883,0.07686
1644.43904,0.08437
1642.94925,0.08064
1641.45946,0.07390
1639.96968,0.09254
1638.47989,0.09640
1636.99010,0.09601
1635.50031,0.09647
1634.01052,0.08538
1632.52073,0.08081
1631.03094,0.08316
1629.54116,0.08230
1628.05137,0.09322
1626.56158,0.10153
1625.07179,0.09972
1623.58200,0.09875
1622.09221,0.11220
1620.60243,0.10357
1619.11264,0.10571
1617.62285,0.10463
1616.13306,0.10073
1614.64327,0.09199
1613.15348,0.07556
1611.66370,0.08147
1610.17391,0.09492
1608.68412,0.08973
1607.19433,0.10586
1605.70454,0.09240
1604.21475,0.09306
1602.72496,0.09374
1601.23518,0.10145
1599.74539,0.09701
1598.25560,0.08793
1596.76581,0.08191
1595.27602,0.09418
1593.78623,0.07239
1592.29645,0.08815
1590.80666,0.09096
1589.31687,0.06782
1587.82708,0.07717
1586.33729,0.07883
1584.84750,0.07159
1583.35771,0.08811
1581.86793,0.07199
1580.37814,0.07862
1578.88835,0.08020
1577.39856,0.07450
1575.90877,0.06375
1574.41898,0.06520
1572.92920,0.05004
1571.43941,0.04768
1569.94962,0.04363
1568.45983,0.03959
1566.97004,0.03751
1565.48025,0.03728
1563.99047,0.02957
1562.50068,0.02594
1561.01089,0.01503
1559.52110,0.02525
1558.03131,0.01682
1556.54152,0.02262
1555.05173,0.03088
1553.56195,0.02232
1552.07216,0.01602
1550.58237,0.01137
1549.09258,0.01972
1547.60279,0.00903
1546.11300,0.00445
1544.62322,0.01688
1543.13343,0.01350
1541.64364,0.00650
1540.15385,0.00987
1538.66406,0.01326
1537.17427,0.00755
1535.68448,0.01064
1534.19470,0.01417
1532.70491,0.00878
1531.21512,0.02108
1529.72533,0.01717
1528.23554,0.00537
1526.74575,0.02903
1525.25597,0.02937
1523.76618,0.04172
1522.27639,0.03014
1520.78660,0.03624
1519.29681,0.03709
1517.80702,0.05867
1516.31724,0.05956
1514.82745,0.05217
1513.33766,0.04652
1511.84787,0.04090
1510.35808,0.03966
1508.86829,0.03683
1507.37850,0.03868
1505.88872,0.03488
1504.39893,0.04166
1502.90914,0.04907
1501.41935,0.05508
1499.92956,0.05990
1498.43977,0.07124
1496.94999,0.06007
1495.46020,0.08972
1493.97041,0.10032
1492.48062,0.11743
1490.99083,0.10069
1489.50104,0.12292
1488.01125,0.12428
1486.52147,0.12567
1485.03168,0.15488
1483.54189,0.16889
1482.05210,0.20809
1480.56231,0.22622
1479.07252,0.23340
1477.58274,0.25868
1476.09295,0.24968
1474.60316,0.25511
1473.11337,0.26971
1471.62358,0.26626
1470.13379,0.26548
1468.64401,0.28684
1467.15422,0.30112
1465.66443,0.31664
1464.17464,0.33219
1462.68485,0.34087
1461.19506,0.36864
1459.70527,0.43093
1458.21549,0.47052
1456.72570,0.54138
1455.23591,0.62444
1453.74612,0.66999
1452.25633,0.71556
1450.76654,0.70718
1449.27676,0.70999
1447.78697,0.69739
1446.29718,0.67062
1444.80739,0.66041
1443.31760,0.65022
1441.82781,0.60120
1440.33802,0.55972
1438.84824,0.51358
1437.35845,0.52389
1435.86866,0.51819
1434.37887,0.52549
1432.88908,0.54724
1431.39929,0.58726
1429.90951,0.68129
1428.41972,0.75464
1426.92993,0.81280
1425.44014,0.84725
1423.95035,0.88963
1422.46056,0.93203
1420.97078,0.96147
1419.48099,0.94569
1417.99120,0.92263
1416.50141,0.90770
1415.01162,0.88286
1413.52183,0.85033
1412.03204,0.79186
1410.54226,0.73563
1409.05247,0.68471
1407.56268,0.62773
1406.07289,0.58234
1404.58310,0.55837
1403.09331,0.53444
1401.60353,0.43392
1400.11374,0.37787
1398.62395,0.36223
1397.13416,0.31008
1395.64437,0.25654
1394.15458,0.22392
1392.66479,0.19558
1391.17501,0.18006
1389.68522,0.12905
1388.19543,0.11621
1386.70564,0.10259
1385.21585,0.08898
1383.72606,0.06932
1382.23628,0.04440
1380.74649,0.04305
1379.25670,0.02326
1377.76691,0.02033
1376.27712,0.00647
1374.78733,0.00440
1373.29755,0.01737
1371.80776,0.00399
1370.31797,0.00445
1368.82818,0.01337
1367.33839,0.02231
1365.84860,0.01565
1364.35881,0.02281
1362.86903,0.03649
1361.37924,0.05223
1359.88945,0.09091
1358.39966,0.11481
1356.90987,0.15497
1355.42008,0.19799
1353.93030,0.25037
1352.44051,0.27721
1350.95072,0.30407
1349.46093,0.36119
1347.97114,0.45060
1346.48135,0.50534
1344.99156,0.58830
1343.50178,0.67616
1342.01199,0.69079
1340.52220,0.79392
1339.03241,0.83579
1337.54262,0.85150
1336.05283,0.86897
1334.56305,0.88646
1333.07326,0.92843
1331.58347,0.93247
1330.09368,0.90265
1328.60389,0.91852
1327.11410,0.88915
1325.62432,0.82390
1324.13453,0.80128
1322.64474,0.75941
1321.15495,0.75470
1319.66516,0.74098
1318.17537,0.72728
1316.68558,0.66745
1315.19580,0.60561
1313.70601,0.55983
1312.21622,0.52280
1310.72643,0.49999
1309.23664,0.46118
1307.74685,0.45060
1306.25707,0.39276
1304.76728,0.37614
1303.27749,0.35954
1301.78770,0.32735
1300.29791,0.27225
1298.80812,0.23076
1297.31834,0.20250
1295.82855,0.17101
1294.33876,0.14725
1292.84897,0.11601
1291.35918,0.11341
1289.86939,0.10494
1288.37960,0.09650
1286.88982,0.08809
1285.40003,0.08376
1283.91024,0.08067
1282.42045,0.07456
1280.93066,0.06502
1279.44087,0.05713
1277.95109,0.04562
1276.46130,0.04630
1274.97151,0.04914
1273.48172,0.05200
1271.99193,0.04424
1270.50214,0.03873
1269.01235,0.04237
1267.52257,0.04767
1266.03278,0.03553
1264.54299,0.03073
1263.05320,0.03204
1261.56341,0.02241
1260.07362,0.01281
1258.58384,0.00445
1257.09405,0.01004
1255.60426,0.00570
1254.11447,0.03346
1252.62468,0.01963
1251.13489,0.01233
1249.64511,0.01763
1248.15532,0.00733
1246.66553,0.01146
1245.17574,0.01561
1243.68595,0.01522
1242.19616,0.01242
1240.70637,0.00842
1239.21659,0.01460
1237.72680,0.01553
1236.23701,0.02013
1234.74722,0.01562
1233.25743,0.01002
1231.76764,0.00445
1230.27786,0.01703
1228.78807,0.03593
1227.29828,0.02359
1225.80849,0.02123
1224.31870,0.01037
1222.82891,0.00887
1221.33912,0.01226
1219.84934,0.02186
1218.35955,0.03149
1216.86976,0.03780
1215.37997,0.05123
1213.89018,0.05271
1212.40039,0.06761
1210.91061,0.07767
1209.42082,0.07862
1207.93103,0.07898
1206.44124,0.07937
1204.95145,0.06578
1203.46166,0.07514
1201.97188,0.06465
1200.48209,0.06777
1198.99230,0.06686
1197.50251,0.05928
1196.01272,0.03772
1194.52293,0.02673
1193.03314,0.01577
1191.54336,0.02087
1190.05357,0.00428
1188.56378,0.00445
1187.07399,0.00702
1185.58420,0.01813
1184.09441,0.00776
1182.60463,0.00756
1181.11484,0.00738
1179.62505,0.00987
1178.13526,0.00670
1176.64547,0.01106
1175.15568,0.00753
1173.66589,0.00565
1172.17611,0.01008
1170.68632,0.00875
1169.19653,0.00745
1167.70674,0.00445
1166.21695,0.02558
1164.72716,0.02158
1163.23738,0.01740
1161.74759,0.02541
1160.25780,0.04725
1158.76801,0.05075
1157.27822,0.05427
1155.78843,0.05691
1154.29865,0.08229
1152.80886,0.09167
1151.31907,0.11325
1149.82928,0.11355
1148.33949,0.11164
1146.84970,0.12710
1145.35991,0.14259
1143.87013,0.11498
1142.38034,0.14462
1140.89055,0.14587
1139.40076,0.15101
1137.91097,0.18153
1136.42118,0.19442
1134.93140,0.19943
1133.44161,0.20445
1131.95182,0.23467
1130.46203,0.23609
1128.97224,0.23409
1127.48245,0.22643
1125.99266,0.23321
1124.50288,0.24427
1123.01309,0.24135
1121.52330,0.23845
1120.03351,0.24289
1118.54372,0.24938
1117.05393,0.25549
1115.56415,0.25695
1114.07436,0.25763
1112.58457,0.25092
1111.09478,0.24424
1109.60499,0.23444
1108.11520,0.21655
1106.62542,0.21978
1105.13563,0.21310
1103.64584,0.21516
1102.15605,0.22111
1100.66626,0.21642
1099.17647,0.21176
1097.68668,0.22305
1096.19690,0.21591
1094.70711,0.20817
1093.21732,0.21528
1091.72753,0.19319
1090.23774,0.17792
1088.74795,0.16268
1087.25817,0.17982
1085.76838,0.18116
1084.27859,0.19207
1082.78880,0.20015
1081.29901,0.19365
1079.80922,0.20057
1078.31943,0.20224
1076.82965,0.20393
1075.33986,0.22898
1073.85007,0.22666
1072.36028,0.24161
1070.87049,0.24016
1069.38070,0.28803
1067.89092,0.29504
1066.40113,0.30208
1064.91134,0.39020
1063.42155,0.46455
1061.93176,0.55760
1060.44197,0.66203
1058.95219,0.74051
1057.46240,0.79071
1055.97261,0.84093
1054.48282,0.94546
1052.99303,1.05082
1051.50324,1.05151
1050.01345,1.02117
1048.52367,1.00689
1047.03388,0.97578
1045.54409,0.94471
1044.05430,0.89478
1042.56451,0.82500
1041.07472,0.74610
1039.58494,0.68732
1038.09515,0.60057
1036.60536,0.56903
1035.11557,0.53751
1033.62578,0.48390
1032.13599,0.42626
1030.64620,0.33374
1029.15642,0.27756
1027.66663,0.25672
1026.17684,0.23590
1024.68705,0.22160
1023.19726,0.19819
1021.70747,0.16893
1020.21769,0.15470
1018.72790,0.12284
1017.23811,0.12175
1015.74832,0.12068
1014.25853,0.11508
1012.76874,0.09853
1011.27896,0.09521
1009.78917,0.07587
1008.29938,0.03120
1006.80959,0.02835
1005.31980,0.02553
1003.83001,0.01603
1002.34022,0.01386
1000.85044,0.03019
999.36065,0.05303
997.87086,0.05063
996.38107,0.04826
994.89128,0.06001
993.40149,0.08437
991.91171,0.08785
990.42192,0.09927
988.93213,0.12106
987.44234,0.12614
985.95255,0.13124
984.46276,0.14945
982.97297,0.12528
981.48319,0.12427
979.99340,0.10867
978.50361,0.09390
977.01382,0.07916
975.52403,0.06262
974.03424,0.02419
972.54446,0.00607
971.05467,0.00522
969.56488,0.00623
968.07509,0.00543
966.58530,0.00466
965.09551,0.00679
963.60573,0.01139
962.11594,0.00464
960.62615,0.00445
959.13636,0.00739
957.64657,0.01035
956.15678,0.01699
954.66699,0.01492
953.17721,0.02121
951.68742,0.02345
950.19763,0.03628
948.70784,0.04912
947.21805,0.05875
945.72826,0.06434
944.23848,0.08598
942.74869,0.11496
941.25890,0.13807
939.76911,0.13960
938.27932,0.14115
936.78953,0.14912
935.29974,0.15712
933.80996,0.18076
932.32017,0.18028
930.83038,0.18550
929.34059,0.19075
927.85080,0.20394
926.36101,0.24475
924.87123,0.27442
923.38144,0.31345
921.89165,0.35981
920.40186,0.40619
918.91207,0.49582
917.42228,0.63114
915.93250,0.76444
914.44271,0.99233
912.95292,1.11290
911.46313,1.23350
909.97334,1.48276
908.48355,1.70284
906.99376,1.90183
905.50398,2.00000
904.01419,1.99957
902.52440,1.99917
901.03461,1.96106
899.54482,1.93250
898.05503,1.79053
896.56525,1.63236
895.07546,1.50049
893.58567,1.36864
892.09588,1.07540
890.60609,0.85848
889.11630,0.62718
887.62651,0.44358
886.13673,0.38836
884.64694,0.33316
883.15715,0.25048
881.66736,0.19990
880.17757,0.14629
878.68778,0.12954
877.19800,0.11281
875.70821,0.09175
874.21842,0.07233
872.72863,0.04177
871.23884,0.05751
869.74905,0.04628
868.25927,0.03507
866.76948,0.01517
865.27969,0.02755
863.78990,0.04259
862.30011,0.04407
860.81032,0.05520
859.32053,0.06636
857.83075,0.08516
856.34096,0.10824
854.85117,0.12383
853.36138,0.14493
851.87159,0.15540
850.38180,0.16590
848.89202,0.19802
847.40223,0.21192
845.91244,0.23760
844.42265,0.23815
842.93286,0.23872
841.44307,0.24764
839.95329,0.25576
838.46350,0.29131
836.97371,0.26560
835.48392,0.27096
833.99413,0.27634
832.50434,0.26775
831.01455,0.27298
829.52477,0.28392
828.03498,0.24395
826.54519,0.23423
825.05540,0.22455
823.56561,0.18972
822.07582,0.15796
820.58604,0.14977
819.09625,0.14444
817.60646,0.13913
816.11667,0.13771
814.62688,0.14199
813.13709,0.15583
811.64730,0.14636
810.15752,0.14219
808.66773,0.13804
807.17794,0.15036
805.68815,0.16574
804.19836,0.15883
802.70857,0.16716
801.21879,0.17551
799.72900,0.14919
798.23921,0.15455
796.74942,0.13437
795.25963,0.12831
793.76984,0.12228
792.28006,0.15432
790.79027,0.16771
789.30048,0.17504
787.81069,0.22522
786.32090,0.23564
784.83111,0.24609
783.34132,0.27137
781.85154,0.31373
780.36175,0.36848
778.87196,0.37801
777.38217,0.38757
775.89238,0.41683
774.40259,0.41974
772.91281,0.40887
771.42302,0.39042
769.93323,0.37199
768.44344,0.33036
766.95365,0.28144
765.46386,0.22727
763.97407,0.17576
762.48429,0.16456
760.99450,0.15338
759.50471,0.12670
758.01492,0.11689
756.52513,0.11400
755.03534,0.10210
753.54556,0.09023
752.05577,0.07281
750.56598,0.06636
749.07619,0.06055
747.58640,0.06075
746.09661,0.06098
744.60683,0.03515
743.11704,0.01767
741.62725,0.00508
740.13746,0.00808
738.64767,0.01110
737.15788,0.02135
735.66809,0.01296
734.17831,0.01027
732.68852,0.00863
731.19873,0.00700
729.70894,0.01778
728.21915,0.01641
726.72936,0.00654
725.23958,0.00693
723.74979,0.01322
722.26000,0.01954
720.77021,0.02609
719.28042,0.01155
717.79063,0.00496
716.30084,0.00469
714.81106,0.00445
713.32127,0.00866
711.83148,0.01512
710.34169,0.02790
708.85190,0.02396
707.36211,0.02005
705.87233,0.02580
704.38254,0.04293
702.89275,0.05543
701.40296,0.04999
699.91317,0.04457
698.42338,0.05714
696.93360,0.08008
695.44381,0.06916
693.95402,0.07916
692.46423,0.08919
690.97444,0.10634
689.48465,0.13833
687.99486,0.16344
686.50508,0.17458
685.01529,0.18574
683.52550,0.20971
682.03571,0.23006
680.54592,0.25773
679.05613,0.24474
677.56635,0.23177
676.07656,0.22482
674.58677,0.23798
673.09698,0.22742
671.60719,0.21070
670.11740,0.19400
668.62761,0.16119
667.13783,0.13206
665.64804,0.12650
664.15825,0.12095
662.66846,0.10570
661.17867,0.07301
659.68888,0.05963
658.19910,0.05063
656.70931,0.04166
655.21952,0.02470
653.72973,0.02562
652.23994,0.02798
650.75015,0.02986
649.26037,0.03176
647.77058,0.03826
646.28079,0.02124
644.79100,0.01094
643.30121,0.01122
641.81142,0.01152
640.32163,0.00941
638.83185,0.02985
637.34206,0.02576
635.85227,0.01783
634.36248,0.00994
632.87269,0.01099
631.38290,0.00903
629.89312,0.00445
628.40333,0.00395
626.91354,0.00332
625.42375,0.01630
623.93396,0.02262
622.44417,0.02246
620.95438,0.02233
619.46460,0.03359
617.97481,0.04670
616.48502,0.07809
614.99523,0.07380
613.50544,0.06953
612.01565,0.11094
610.52587,0.16333
609.03608,0.19099
607.54629,0.19635
606.05650,0.20174
604.56671,0.24916
603.07692,0.32764
601.58714,0.35634
600.09735,0.38506
598.60756,0.43136
597.11777,0.43121
595.62798,0.43210
594.13819,0.41577
592.64840,0.39946
591.15862,0.38845
589.66883,0.32958
588.17904,0.26363
586.68925,0.22256
585.19946,0.18152
583.70967,0.16130
582.21989,0.12020
580.73010,0.10327
579.24031,0.08637
577.75052,0.06260
576.26073,0.05508
574.77094,0.03216
573.28115,0.03220
571.79137,0.03227
570.30158,0.04879
568.81179,0.07568
567.32200,0.08444
565.83221,0.09323
564.34242,0.11350
562.85264,0.11087
561.36285,0.14458
559.87306,0.14768
558.38327,0.15080
556.89348,0.16836
555.40369,0.17417
553.91391,0.17624
552.42412,0.17835
550.93433,0.17916
549.44454,0.19135
547.95475,0.22671
546.46496,0.22231
544.97517,0.21794
543.48539,0.22171
541.99560,0.24600
540.50581,0.26230
539.01602,0.27863
537.52623,0.30177
536.03644,0.33245
534.54666,0.38284
533.05687,0.41092
531.56708,0.43904
530.07729,0.47387
528.58750,0.51380
527.09771,0.55173
525.60792,0.58968
524.11814,0.66925
522.62835,0.70826
521.13856,0.77530
519.64877,0.78139
518.15898,0.78750
516.66919,0.79191
515.17941,0.77748
513.68962,0.78914
512.19983,0.80083
510.71004,0.77206
509.22025,0.70537
507.73046,0.68274
506.24068,0.62979
504.75089,0.57687
503.26110,0.45021
501.77131,0.34813
500.28152,0.30868
498.79173,0.26925
497.30194,0.23299
495.81216,0.15129
494.32237,0.12716
492.83258,0.10304
491.34279,0.06444
489.85300,0.05387
488.36321,0.05732
486.87343,0.05918
485.38364,0.06105
483.89385,0.05890
482.40406,0.10060
480.91427,0.10975
479.42448,0.11893
477.93469,0.11160
476.44491,0.14527
474.95512,0.16072
473.46533,0.17618
471.97554,0.18213
470.48575,0.17289
468.99596,0.19168
467.50618,0.18614
466.01639,0.18062
464.52660,0.12846
463.03681,0.08809
461.54702,0.08498
460.05723,0.08189
458.56745,0.05133
457.07766,0.01938
455.58787,0.01190
454.09808,0.00445
452.60829,0.02801
451.11850,0.00694
449.62871,0.00640
448.13893,0.00588
446.64914,0.01675
445.15935,0.01019
443.66956,0.00000
442.17977,0.00090
440.68998,0.00182
439.20020,0.01179
437.71041,0.02118
436.22062,0.02096
434.73083,0.02076
433.24104,0.01906
431.75125,0.00947
430.26146,0.01523
428.77168,0.02101
427.28189,0.02773
425.79210,0.02048
424.30231,0.01385
422.81252,0.00725
421.32273,0.02239
419.83295,0.00752
418.34316,0.00545
416.85337,0.00342
415.36358,0.00627
413.87379,0.00631
412.38400,0.00607
410.89422,0.00585
409.40443,0.01084
407.91464,0.02031
406.42485,0.01823
404.93506,0.01548
403.44527,0.01274
401.95548,0.00567
400.46570,0.00492
398.97591,0.01839
397.48612,0.03188
395.99633,0.03221
394.50654,0.01674
393.01675,0.01560
391.52697,0.01309
390.03718,0.02998
388.54739,0.00834
387.05760,0.01108
385.56781,0.01384
384.07802,0.00445
382.58824,0.00805
381.09845,0.01735
379.60866,0.02667
378.11887,0.04617
376.62908,0.01232
375.13929,0.02253
373.64950,0.03277
372.15972,0.04566
370.66993,0.04032
369.18014,0.03095
367.69035,0.02160
366.20056,0.05089
364.71077,0.03860
363.22099,0.03263
361.73120,0.02669
360.24141,0.02381
358.75162,0.05992
357.26183,0.05729
355.77204,0.05469
354.28225,0.08722
352.79247,0.10597
351.30268,0.10416
349.81289,0.10236
348.32310,0.06721
346.83331,0.06354
345.34352,0.06628
343.85374,0.06905
342.36395,0.07905
340.87416,0.04402
339.38437,0.05305
337.89458,0.06210
336.40479,0.04947
334.91501,0.06222
333.42522,0.05857
331.93543,0.05493
330.44564,0.00445
328.95585,0.01693
327.46606,0.02222
325.97627,0.02754
324.48649,0.05005
322.99670,0.07583
321.50691,0.06248
320.01712,0.04914
318.52733,0.07886
317.03754,0.04934
315.54776,0.04430
314.05797,0.03928
312.56818,0.04251
311.07839,0.04373
309.58860,0.03452
308.09881,0.02534
306.60902,0.01060
305.11924,0.01273
303.62945,0.01225
302.13966,0.01179
300.64987,0.01359
299.16008,0.00445
