1778.52000,0.00242
1777.03021,0.00444
1775.54042,0.00610
1774.05063,0.00838
1772.56085,0.00000
1771.07106,0.00568
1769.58127,0.00665
1768.09148,0.00309
1766.60169,0.01299
1765.11190,0.01383
1763.62212,0.00698
1762.13233,0.00826
1760.64254,0.01451
1759.15275,0.00635
1757.66296,0.01482
1756.17317,0.01304
1754.68339,0.01938
1753.19360,0.01665
1751.70381,0.00842
1750.21402,0.01859
1748.72423,0.01376
1747.23444,0.02121
1745.74465,0.00635
1744.25487,0.01037
1742.76508,0.01777
1741.27529,0.01610
1739.78550,0.02058
1738.29571,0.01659
1736.80592,0.02092
1735.31614,0.01698
1733.82635,0.01523
1732.33656,0.01845
1730.84677,0.01576
1729.35698,0.00480
1727.86719,0.01086
1726.37740,0.01358
1724.88762,0.00644
1723.39783,0.00882
1721.90804,0.00746
1720.41825,0.00910
1718.92846,0.00463
1717.43867,0.00549
1715.94889,0.01190
1714.45910,0.01439
1712.96931,0.00761
1711.47952,0.00438
1709.98973,0.00928
1708.49994,0.01342
1707.01016,0.00818
1705.52037,0.00298
1704.03058,0.00777
1702.54079,0.00331
1701.05100,0.00934
1699.56121,0.00413
1698.07142,0.00735
1696.58164,0.00881
1695.09185,0.00635
1693.60206,0.01372
1692.11227,0.00787
1690.62248,0.01449
1689.13269,0.01166
1687.64291,0.00865
1686.15312,0.01534
1684.66333,0.01811
1683.17354,0.01992
1681.68375,0.02016
1680.19396,0.00937
1678.70417,0.02844
1677.21439,0.03449
1675.72460,0.02080
1674.23481,0.03441
1672.74502,0.03421
1671.25523,0.04728
1669.76544,0.05148
1668.27566,0.05767
1666.78587,0.06291
1665.29608,0.05452
1663.80629,0.06020
1662.31650,0.05957
1660.82671,0.07498
1659.33693,0.06887
1657.84714,0.06436
1656.35735,0.06067
1654.86756,0.07460
1653.37777,0.08202
1651.88798,0.07247
1650.39819,0.06967
1648.90841,0.07460
1647.41862,0.07184
1645.92883,0.07731
1644.43904,0.08281
1642.94925,0.08427
1641.45946,0.08359
1639.96968,0.07996
1638.47989,0.09415
1636.99010,0.10066
1635.50031,0.09019
1634.01052,0.08646
1632.52073,0.07802
1631.03094,0.07572
1629.54116,0.09144
1628.05137,0.09394
1626.56158,0.09231
1625.07179,0.09703
1623.58200,0.08319
1622.09221,0.09231
1620.60243,0.09078
1619.11264,0.09224
1617.62285,0.09431
1616.13306,0.09740
1614.64327,0.08924
1613.15348,0.07814
1611.66370,0.09395
1610.17391,0.10405
1608.68412,0.10805
1607.19433,0.10733
1605.70454,0.10742
1604.21475,0.09953
1602.72496,0.09166
1601.23518,0.09875
1599.74539,0.08885
1598.25560,0.08729
1596.76581,0.09029
1595.27602,0.09174
1593.78623,0.08846
1592.29645,0.08778
1590.80666,0.08199
1589.31687,0.08511
1587.82708,0.07245
1586.33729,0.06910
1584.84750,0.08593
1583.35771,0.08342
1581.86793,0.07244
1580.37814,0.07353
1578.88835,0.06338
1577.39856,0.06057
1575.90877,0.07063
1574.41898,0.05720
1572.92920,0.06395
1571.43941,0.04739
1569.94962,0.04856
1568.45983,0.04975
1566.97004,0.03959
1565.48025,0.03263
1563.99047,0.02825
1562.50068,0.03142
1561.01089,0.03342
1559.52110,0.02991
1558.03131,0.03057
1556.54152,0.03087
1555.05173,0.02249
1553.56195,0.01670
1552.07216,0.01766
1550.58237,0.00915
1549.09258,0.00838
1547.60279,0.00665
1546.11300,0.00197
1544.62322,0.01037
1543.13343,0.01089
1541.64364,0.00393
1540.15385,0.00904
1538.66406,0.01418
1537.17427,0.01796
1535.68448,0.00635
1534.19470,0.02063
1532.70491,0.01043
1531.21512,0.02456
1529.72533,0.01598
1528.23554,0.01969
1526.74575,0.03271
1525.25597,0.02341
1523.76618,0.02047
1522.27639,0.02625
1520.78660,0.03699
1519.29681,0.04914
1517.80702,0.04827
1516.31724,0.05888
1514.82745,0.05055
1513.33766,0.05222
1511.84787,0.05392
1510.35808,0.04763
1508.86829,0.05125
1507.37850,0.05035
1505.88872,0.05284
1504.39893,0.04507
1502.90914,0.05649
1501.41935,0.05134
1499.92956,0.06005
1498.43977,0.05988
1496.94999,0.06666
1495.46020,0.09323
1493.97041,0.09334
1492.48062,0.09703
1490.99083,0.10568
1489.50104,0.11120
1488.01125,0.11714
1486.52147,0.12310
1485.03168,0.15656
1483.54189,0.16889
1482.05210,0.19904
1480.56231,0.21616
1479.07252,0.21493
1477.58274,0.23685
1476.09295,0.22874
1474.60316,0.23924
1473.11337,0.25115
1471.62358,0.24964
1470.13379,0.26358
1468.64401,0.27852
1467.15422,0.29982
1465.66443,0.31372
1464.17464,0.32766
1462.68485,0.33598
1461.19506,0.37299
1459.70527,0.41891
1458.21549,0.49787
1456.72570,0.53831
1455.23591,0.58115
1453.74612,0.62460
1452.25633,0.68429
1450.76654,0.71139
1449.27676,0.72111
1447.78697,0.70022
1446.29718,0.67085
1444.80739,0.66336
1443.31760,0.65588
1441.82781,0.59733
1440.33802,0.55423
1438.84824,0.50521
1437.35845,0.48330
1435.86866,0.49028
1434.37887,0.53365
1432.88908,0.59148
1431.39929,0.63134
1429.90951,0.70443
1428.41972,0.78388
1426.92993,0.81828
1425.44014,0.83333
1423.95035,0.87113
1422.46056,0.90897
1420.97078,0.91895
1419.48099,0.94299
1417.99120,0.94848
1416.50141,0.93027
1415.01162,0.89489
1413.52183,0.83759
1412.03204,0.79988
1410.54226,0.72187
1409.05247,0.68184
1407.56268,0.63136
1406.07289,0.57576
1404.58310,0.54163
1403.09331,0.50753
1401.60353,0.46782
1400.11374,0.42516
1398.62395,0.37324
1397.13416,0.28636
1395.64437,0.25702
1394.15458,0.21940
1392.66479,0.17391
1391.17501,0.15176
1389.68522,0.13457
1388.19543,0.12097
1386.70564,0.11056
1385.21585,0.10017
1383.72606,0.06944
1382.23628,0.04190
1380.74649,0.06183
1379.25670,0.03572
1377.76691,0.02584
1376.27712,0.01955
1374.78733,0.01882
1373.29755,0.01158
1371.80776,0.00635
1370.31797,0.02419
1368.82818,0.02387
1367.33839,0.02357
1365.84860,0.03180
1364.35881,0.03471
1362.86903,0.04536
1361.37924,0.07658
1359.88945,0.09380
1358.39966,0.11559
1356.90987,0.13720
1355.42008,0.19324
1353.93030,0.24811
1352.44051,0.28452
1350.95072,0.32096
1349.46093,0.40081
1347.97114,0.46447
1346.48135,0.55327
1344.99156,0.61619
1343.50178,0.69317
1342.01199,0.79706
1340.52220,0.83910
1339.03241,0.87622
1337.54262,0.87720
1336.05283,0.89075
1334.56305,0.90432
1333.07326,0.95123
1331.58347,0.94518
1330.09368,0.95675
1328.60389,0.92427
1327.11410,0.88212
1325.62432,0.81509
1324.13453,0.80897
1322.64474,0.79339
1321.15495,0.78553
1319.66516,0.75428
1318.17537,0.72305
1316.68558,0.65715
1315.19580,0.60453
1313.70601,0.56240
1312.21622,0.56023
1310.72643,0.50411
1309.23664,0.47036
1307.74685,0.43129
1306.25707,0.38711
1304.76728,0.37498
1303.27749,0.36287
1301.78770,0.31658
1300.29791,0.25155
1298.80812,0.23061
1297.31834,0.20694
1295.82855,0.18743
1294.33876,0.15491
1292.84897,0.11786
1291.35918,0.11761
1289.86939,0.10917
1288.37960,0.10076
1286.88982,0.10513
1285.40003,0.08757
1283.91024,0.07577
1282.42045,0.07744
1280.93066,0.05186
1279.44087,0.04428
1277.95109,0.06480
1276.46130,0.04047
1274.97151,0.04009
1273.48172,0.03973
1271.99193,0.04710
1270.50214,0.04204
1269.01235,0.04333
1267.52257,0.03081
1266.03278,0.02938
1264.54299,0.04458
1263.05320,0.04360
1261.56341,0.03671
1260.07362,0.02984
1258.58384,0.02913
1257.09405,0.01421
1255.60426,0.01493
1254.11447,0.01409
1252.62468,0.01268
1251.13489,0.00635
1249.64511,0.01711
1248.15532,0.01128
1246.66553,0.01210
1245.17574,0.01295
1243.68595,0.02538
1242.19616,0.02202
1240.70637,0.02304
1239.21659,0.02408
1237.72680,0.03582
1236.23701,0.03018
1234.74722,0.03051
1233.25743,0.02838
1231.76764,0.02628
1230.27786,0.02845
1228.78807,0.03698
1227.29828,0.02180
1225.80849,0.00962
1224.31870,0.00635
1222.82891,0.01673
1221.33912,0.03306
1219.84934,0.04754
1218.35955,0.06204
1216.86976,0.07627
1215.37997,0.08361
1213.89018,0.09927
1212.40039,0.08629
1210.91061,0.08382
1209.42082,0.07247
1207.93103,0.07202
1206.44124,0.07159
1204.95145,0.07870
1203.46166,0.08287
1201.97188,0.07441
1200.48209,0.06696
1198.99230,0.05598
1197.50251,0.05431
1196.01272,0.05030
1194.52293,0.05125
1193.03314,0.05223
1191.54336,0.05481
1190.05357,0.03547
1188.56378,0.03237
1187.07399,0.04807
1185.58420,0.03118
1184.09441,0.01095
1182.60463,0.00854
1181.11484,0.00615
1179.62505,0.00635
1178.13526,0.01827
1176.64547,0.00649
1175.15568,0.02800
1173.66589,0.02977
1172.17611,0.02563
1170.68632,0.02438
1169.19653,0.02316
1167.70674,0.03076
1166.21695,0.04293
1164.72716,0.04583
1163.23738,0.03630
1161.74759,0.04459
1160.25780,0.06417
1158.76801,0.07003
1157.27822,0.07592
1155.78843,0.08351
1154.29865,0.07571
1152.80886,0.08533
1151.31907,0.11078
1149.82928,0.11887
1148.33949,0.12302
1146.84970,0.12394
1145.35991,0.12488
1143.87013,0.14294
1142.38034,0.15293
1140.89055,0.15977
1139.40076,0.16249
1137.91097,0.18876
1136.42118,0.20358
1134.93140,0.21536
1133.44161,0.22717
1131.95182,0.23673
1130.46203,0.24908
1128.97224,0.26521
1127.48245,0.26437
1125.99266,0.24200
1124.50288,0.24239
1123.01309,0.24122
1121.52330,0.24008
1120.03351,0.23026
1118.54372,0.24201
1117.05393,0.26249
1115.56415,0.25215
1114.07436,0.25923
1112.58457,0.25408
1111.09478,0.24895
1109.60499,0.24662
1108.11520,0.26388
1106.62542,0.26970
1105.13563,0.25103
1103.64584,0.24839
1102.15605,0.23867
1100.66626,0.22551
1099.17647,0.21237
1097.68668,0.21714
1096.19690,0.22570
1094.70711,0.23804
1093.21732,0.22885
1091.72753,0.21910
1090.23774,0.21806
1088.74795,0.21705
1087.25817,0.21172
1085.76838,0.20206
1084.27859,0.21140
1082.78880,0.19922
1081.29901,0.21672
1079.80922,0.22099
1078.31943,0.22390
1076.82965,0.22684
1075.33986,0.24246
1073.85007,0.24386
1072.36028,0.25755
1070.87049,0.27541
1069.38070,0.31346
1067.89092,0.32899
1066.40113,0.34455
1064.91134,0.41667
1063.42155,0.48783
1061.93176,0.59122
1060.44197,0.66638
1058.95219,0.75124
1057.46240,0.78138
1055.97261,0.81154
1054.48282,0.95756
1052.99303,1.05873
1051.50324,1.03835
1050.01345,1.02473
1048.52367,0.98305
1047.03388,0.96048
1045.54409,0.93793
1044.05430,0.89594
1042.56451,0.80218
1041.07472,0.76102
1039.58494,0.72068
1038.09515,0.64775
1036.60536,0.60518
1035.11557,0.56264
1033.62578,0.49116
1032.13599,0.43315
1030.64620,0.37161
1029.15642,0.33123
1027.66663,0.31046
1026.17684,0.28970
1024.68705,0.24209
1023.19726,0.19727
1021.70747,0.16849
1020.21769,0.15040
1018.72790,0.14617
1017.23811,0.13703
1015.74832,0.12791
1014.25853,0.10774
1012.76874,0.10559
1011.27896,0.09378
1009.78917,0.09444
1008.29938,0.08188
1006.80959,0.06876
1005.31980,0.05565
1003.83001,0.05266
1002.34022,0.04000
1000.85044,0.04950
999.36065,0.04341
997.87086,0.04931
996.38107,0.05523
994.89128,0.07313
993.40149,0.09600
991.91171,0.12364
990.42192,0.14853
988.93213,0.15131
987.44234,0.15648
985.95255,0.16168
984.46276,0.16177
982.97297,0.15535
981.48319,0.13532
979.99340,0.11828
978.50361,0.10195
977.01382,0.08565
975.52403,0.06532
974.03424,0.05945
972.54446,0.03640
971.05467,0.02029
969.56488,0.01646
968.07509,0.01602
966.58530,0.01560
965.09551,0.02450
963.60573,0.00654
962.11594,0.02106
960.62615,0.00635
959.13636,0.01654
957.64657,0.02676
956.15678,0.04185
954.66699,0.02829
953.17721,0.03117
951.68742,0.03822
950.19763,0.03809
948.70784,0.03797
947.21805,0.05083
945.72826,0.06924
944.23848,0.09678
942.74869,0.09468
941.25890,0.12582
939.76911,0.13297
938.27932,0.14014
936.78953,0.16483
935.29974,0.17175
933.80996,0.18759
932.32017,0.19950
930.83038,0.20442
929.34059,0.20936
927.85080,0.24803
926.36101,0.27408
924.87123,0.29421
923.38144,0.34304
921.89165,0.37370
920.40186,0.40438
918.91207,0.50803
917.42228,0.63345
915.93250,0.78360
914.44271,0.95413
912.95292,1.05897
911.46313,1.16382
909.97334,1.41053
908.48355,1.60884
906.99376,1.79866
905.50398,1.89877
904.01419,1.93546
902.52440,1.97216
901.03461,2.00000
899.54482,1.95472
898.05503,1.81716
896.56525,1.62130
895.07546,1.47292
893.58567,1.32455
892.09588,1.04239
890.60609,0.80987
889.11630,0.61058
887.62651,0.46132
886.13673,0.39916
884.64694,0.33702
883.15715,0.26118
881.66736,0.18871
880.17757,0.14572
878.68778,0.12915
877.19800,0.11260
875.70821,0.07225
874.21842,0.06158
872.72863,0.06022
871.23884,0.04802
869.74905,0.04029
868.25927,0.03258
866.76948,0.03685
865.27969,0.04174
863.78990,0.05061
862.30011,0.06109
860.81032,0.06783
859.32053,0.07459
857.83075,0.10313
856.34096,0.12516
854.85117,0.12232
853.36138,0.12859
851.87159,0.13577
850.38180,0.14298
848.89202,0.16513
847.40223,0.18712
845.91244,0.20754
844.42265,0.22423
842.93286,0.24095
841.44307,0.24643
839.95329,0.26438
838.46350,0.28038
836.97371,0.29502
835.48392,0.30108
833.99413,0.30717
832.50434,0.29816
831.01455,0.26723
829.52477,0.24325
828.03498,0.23273
826.54519,0.20791
825.05540,0.18311
823.56561,0.18709
822.07582,0.15216
820.58604,0.16252
819.09625,0.15274
817.60646,0.14298
816.11667,0.13938
814.62688,0.13125
813.13709,0.15003
811.64730,0.17516
810.15752,0.16246
808.66773,0.14979
807.17794,0.16095
805.68815,0.15416
804.19836,0.15529
802.70857,0.15190
801.21879,0.14854
799.72900,0.14243
798.23921,0.13872
796.74942,0.13879
795.25963,0.13898
793.76984,0.13920
792.28006,0.16128
790.79027,0.15848
789.30048,0.16164
787.81069,0.21522
786.32090,0.22781
784.83111,0.24043
783.34132,0.27985
781.85154,0.32622
780.36175,0.36629
778.87196,0.37999
777.38217,0.39371
775.89238,0.41626
774.40259,0.42697
772.91281,0.42584
771.42302,0.41357
769.93323,0.40132
768.44344,0.33128
766.95365,0.27292
765.46386,0.20787
763.97407,0.17507
762.48429,0.17272
760.99450,0.17041
759.50471,0.13668
758.01492,0.13184
756.52513,0.12090
755.03534,0.11285
753.54556,0.10482
752.05577,0.09770
750.56598,0.09733
749.07619,0.06101
747.58640,0.05565
746.09661,0.05031
744.60683,0.03758
743.11704,0.02369
741.62725,0.01418
740.13746,0.01407
738.64767,0.01399
737.15788,0.02491
735.66809,0.01075
734.17831,0.01064
732.68852,0.00848
731.19873,0.00635
729.70894,0.02405
728.21915,0.00718
726.72936,0.00635
725.23958,0.01733
723.74979,0.01548
722.26000,0.01366
720.77021,0.01226
719.28042,0.00930
717.79063,0.01032
716.30084,0.00741
714.81106,0.00452
713.32127,0.01352
711.83148,0.02234
710.34169,0.02249
708.85190,0.02336
707.36211,0.02425
705.87233,0.03080
704.38254,0.03994
702.89275,0.02914
701.40296,0.02716
699.91317,0.02521
698.42338,0.04729
696.93360,0.06980
695.44381,0.07928
693.95402,0.09541
692.46423,0.11157
690.97444,0.12251
689.48465,0.13723
687.99486,0.15731
686.50508,0.16802
685.01529,0.17876
683.52550,0.21829
682.03571,0.23728
680.54592,0.25689
679.05613,0.25596
677.56635,0.25506
676.07656,0.23639
674.58677,0.23811
673.09698,0.20368
671.60719,0.20109
670.11740,0.19853
668.62761,0.17939
667.13783,0.14249
665.64804,0.13229
664.15825,0.12212
662.66846,0.10070
661.17867,0.08168
659.68888,0.05755
658.19910,0.04569
656.70931,0.03386
655.21952,0.02917
653.72973,0.04526
652.23994,0.05169
650.75015,0.05873
649.26037,0.06580
647.77058,0.05293
646.28079,0.05807
644.79100,0.05078
643.30121,0.05063
641.81142,0.05050
640.32163,0.04684
638.83185,0.02897
637.34206,0.02002
635.85227,0.01318
634.36248,0.00635
632.87269,0.01872
631.38290,0.01293
629.89312,0.02911
628.40333,0.03473
626.91354,0.04038
625.42375,0.03587
623.93396,0.05036
622.44417,0.03918
620.95438,0.02802
619.46460,0.02974
617.97481,0.04255
616.48502,0.07356
614.99523,0.09087
613.50544,0.10820
612.01565,0.14028
610.52587,0.16625
609.03608,0.18909
607.54629,0.19910
606.05650,0.20914
604.56671,0.26229
603.07692,0.34472
601.58714,0.37153
600.09735,0.39837
598.60756,0.43067
597.11777,0.44856
595.62798,0.43662
594.13819,0.42373
592.64840,0.41085
591.15862,0.38753
589.66883,0.33635
588.17904,0.28659
586.68925,0.26778
585.19946,0.24900
583.70967,0.16313
582.21989,0.13837
580.73010,0.13053
579.24031,0.12271
577.75052,0.09427
576.26073,0.09688
574.77094,0.07896
573.28115,0.07421
571.79137,0.06948
570.30158,0.08365
568.81179,0.10338
567.32200,0.11760
565.83221,0.13185
564.34242,0.13228
562.85264,0.14796
561.36285,0.15535
559.87306,0.16979
558.38327,0.18426
556.89348,0.18303
555.40369,0.21069
553.91391,0.21653
552.42412,0.22239
550.93433,0.21434
549.44454,0.21205
547.95475,0.21295
546.46496,0.21248
544.97517,0.21204
543.48539,0.22941
541.99560,0.27330
540.50581,0.28944
539.01602,0.30560
537.52623,0.35173
536.03644,0.40579
534.54666,0.42272
533.05687,0.44550
531.56708,0.46830
530.07729,0.51495
528.58750,0.56716
527.09771,0.59873
525.60792,0.63033
524.11814,0.68537
522.62835,0.77029
521.13856,0.77300
519.64877,0.78780
518.15898,0.80262
516.66919,0.83980
515.17941,0.84181
513.68962,0.85156
512.19983,0.86134
510.71004,0.84327
509.22025,0.80268
507.73046,0.70915
506.24068,0.64786
504.75089,0.58660
503.26110,0.48167
501.77131,0.37953
500.28152,0.34315
498.79173,0.30679
497.30194,0.22706
495.81216,0.18116
494.32237,0.17462
492.83258,0.16810
491.34279,0.12544
489.85300,0.11838
488.36321,0.08742
486.87343,0.08150
485.38364,0.07559
483.89385,0.06843
482.40406,0.13147
480.91427,0.12781
479.42448,0.12418
477.93469,0.12977
476.44491,0.15079
474.95512,0.16315
473.46533,0.17552
471.97554,0.19484
470.48575,0.21933
468.99596,0.20489
467.50618,0.19503
466.01639,0.18519
464.52660,0.12399
463.03681,0.10629
461.54702,0.09949
460.05723,0.09271
458.56745,0.06342
457.07766,0.05235
455.58787,0.04762
454.09808,0.04291
452.60829,0.03507
451.11850,0.01559
449.62871,0.01382
448.13893,0.01208
446.64914,0.02944
445.15935,0.01994
443.66956,0.01955
442.17977,0.02117
440.68998,0.02281
439.20020,0.03910
437.71041,0.02696
436.22062,0.02679
434.73083,0.02665
433.24104,0.02406
431.75125,0.06973
430.26146,0.05375
428.77168,0.03779
427.28189,0.05783
425.79210,0.05754
424.30231,0.05035
422.81252,0.04319
421.32273,0.05226
419.83295,0.03526
418.34316,0.03094
416.85337,0.02664
415.36358,0.00635
413.87379,0.03450
412.38400,0.04044
410.89422,0.04640
409.40443,0.06059
407.91464,0.04753
406.42485,0.04417
404.93506,0.04875
403.44527,0.05334
401.95548,0.04571
400.46570,0.04680
398.97591,0.04347
397.48612,0.04016
395.99633,0.02590
394.50654,0.03401
393.01675,0.02780
391.52697,0.02163
390.03718,0.01893
388.54739,0.02277
387.05760,0.01576
385.56781,0.00877
384.07802,0.00635
382.58824,0.03584
381.09845,0.03580
379.60866,0.03578
378.11887,0.00979
376.62908,0.00241
375.13929,0.00182
373.64950,0.00125
372.15972,0.02897
370.66993,0.05118
369.18014,0.03734
367.69035,0.02352
366.20056,0.03422
364.71077,0.05147
363.22099,0.05145
361.73120,0.05145
360.24141,0.07075
358.75162,0.09482
357.26183,0.08817
355.77204,0.08155
354.28225,0.08414
352.79247,0.09150
351.30268,0.08090
349.81289,0.07032
348.32310,0.06590
346.83331,0.06861
345.34352,0.06571
343.85374,0.06284
342.36395,0.06128
340.87416,0.05302
339.38437,0.04399
337.89458,0.03499
336.40479,0.04993
334.91501,0.05402
333.42522,0.04025
331.93543,0.02650
330.44564,0.00635
328.95585,0.03078
327.46606,0.03300
325.97627,0.03525
324.48649,0.03741
322.99670,0.04198
321.50691,0.04627
320.01712,0.05059
318.52733,0.07044
317.03754,0.06957
315.54776,0.07001
314.05797,0.07046
312.56818,0.09773
311.07839,0.08193
309.58860,0.06971
308.09881,0.05752
306.60902,0.06195
305.11924,0.04368
303.62945,0.03877
302.13966,0.03389
300.64987,0.00719
299.16008,0.00635
