1778.52000,0.01868
1777.03021,0.01518
1775.54042,0.01479
1774.05063,0.01878
1772.56085,0.01766
1771.07106,0.02017
1769.58127,0.01345
1768.09148,0.01702
1766.60169,0.00855
1765.11190,0.01706
1763.62212,0.00709
1762.13233,0.01513
1760.64254,0.00496
1759.15275,0.01613
1757.66296,0.02449
1756.17317,0.00463
1754.68339,0.01099
1753.19360,0.00530
1751.70381,0.01454
1750.21402,0.01712
1748.72423,0.01304
1747.23444,0.00000
1745.74465,0.00650
1744.25487,0.01149
1742.76508,0.01213
1741.27529,0.01383
1739.78550,0.01298
1738.29571,0.00496
1736.80592,0.01452
1735.31614,0.01178
1733.82635,0.01010
1732.33656,0.01254
1730.84677,0.01141
1729.35698,0.00466
1727.86719,0.00615
1726.37740,0.00741
1724.88762,0.01459
1723.39783,0.01513
1721.90804,0.00233
1720.41825,0.00753
1718.92846,0.00839
1717.43867,0.01211
1715.94889,0.00916
1714.45910,0.00496
1712.96931,0.00988
1711.47952,0.00429
1709.98973,0.00515
1708.49994,0.00526
1707.01016,0.00501
1705.52037,0.00479
1704.03058,0.01627
1702.54079,0.01340
1701.05100,0.00772
1699.56121,0.00823
1698.07142,0.00491
1696.58164,0.00496
1695.09185,0.00931
1693.60206,0.00830
1692.11227,0.01450
1690.62248,0.01636
1689.13269,0.01259
1687.64291,0.02375
1686.15312,0.02182
1684.66333,0.01838
1683.17354,0.02319
1681.68375,0.02879
1680.19396,0.02824
1678.70417,0.02387
1677.21439,0.02774
1675.72460,0.03960
1674.23481,0.02554
1672.74502,0.04592
1671.25523,0.04629
1669.76544,0.05670
1668.27566,0.06406
1666.78587,0.05577
1665.29608,0.05726
1663.80629,0.06751
1662.31650,0.07419
1660.82671,0.07884
1659.33693,0.07375
1657.84714,0.06868
1656.35735,0.06107
1654.86756,0.07249
1653.37777,0.07726
1651.88798,0.07383
1650.39819,0.08430
1648.90841,0.07013
1647.41862,0.07550
1645.92883,0.07577
1644.43904,0.07605
1642.94925,0.06172
1641.45946,0.06719
1639.96968,0.06241
1638.47989,0.06845
1636.99010,0.06140
1635.50031,0.06825
1634.01052,0.07256
1632.52073,0.08254
1631.03094,0.07790
1629.54116,0.07226
1628.05137,0.07281
1626.56158,0.08546
1625.07179,0.08040
1623.58200,0.08744
1622.09221,0.08629
1620.60243,0.07360
1619.11264,0.07892
1617.62285,0.07860
1616.13306,0.07960
1614.64327,0.08319
1613.15348,0.07344
1611.66370,0.08787
1610.17391,0.07766
1608.68412,0.07543
1607.19433,0.08864
1605.70454,0.08827
1604.21475,0.08406
1602.72496,0.07988
1601.23518,0.08548
1599.74539,0.07492
1598.25560,0.07107
1596.76581,0.06081
1595.27602,0.07986
1593.78623,0.06761
1592.29645,0.07309
1590.80666,0.07038
1589.31687,0.07232
1587.82708,0.06273
1586.33729,0.07011
1584.84750,0.06493
1583.35771,0.06516
1581.86793,0.06285
1580.37814,0.06160
1578.88835,0.06576
1577.39856,0.05864
1575.90877,0.04179
1574.41898,0.04910
1572.92920,0.04976
1571.43941,0.04171
1569.94962,0.04036
1568.45983,0.03904
1566.97004,0.03723
1565.48025,0.03775
1563.99047,0.04472
1562.50068,0.03501
1561.01089,0.03535
1559.52110,0.03905
1558.03131,0.03301
1556.54152,0.00876
1555.05173,0.02615
1553.56195,0.02044
1552.07216,0.02452
1550.58237,0.02219
1549.09258,0.02041
1547.60279,0.00093
1546.11300,0.00278
1544.62322,0.01673
1543.13343,0.00965
1541.64364,0.00361
1540.15385,0.00815
1538.66406,0.01270
1537.17427,0.00496
1535.68448,0.01609
1534.19470,0.01620
1532.70491,0.01403
1531.21512,0.00777
1529.72533,0.01078
1528.23554,0.01998
1526.74575,0.01353
1525.25597,0.02714
1523.76618,0.02460
1522.27639,0.02387
1520.78660,0.04346
1519.29681,0.03816
1517.80702,0.04650
1516.31724,0.04536
1514.82745,0.03885
1513.33766,0.04289
1511.84787,0.04696
1510.35808,0.05284
1508.86829,0.04206
1507.37850,0.04003
1505.88872,0.05036
1504.39893,0.04068
1502.90914,0.05490
1501.41935,0.05580
1499.92956,0.06596
1498.43977,0.06562
1496.94999,0.06479
1495.46020,0.06526
1493.97041,0.09812
1492.48062,0.10276
1490.99083,0.10716
1489.50104,0.11980
1488.01125,0.12566
1486.52147,0.13154
1485.03168,0.12962
1483.54189,0.15879
1482.05210,0.16616
1480.56231,0.19641
1479.07252,0.21050
1477.58274,0.19920
1476.09295,0.20126
1474.60316,0.22082
1473.11337,0.22988
1471.62358,0.23561
1470.13379,0.25319
1468.64401,0.25589
1467.15422,0.29894
1465.66443,0.30387
1464.17464,0.30883
1462.68485,0.34630
1461.19506,0.40871
1459.70527,0.43005
1458.21549,0.46682
1456.72570,0.53239
1455.23591,0.56510
1453.74612,0.60862
1452.25633,0.63008
1450.76654,0.66080
1449.27676,0.68513
1447.78697,0.66993
1446.29718,0.64834
1444.80739,0.63319
1443.31760,0.61806
1441.82781,0.61092
1440.33802,0.54498
1438.84824,0.51708
1437.35845,0.49486
1435.86866,0.50502
1434.37887,0.50236
1432.88908,0.53800
1431.39929,0.59421
1429.90951,0.65814
1428.41972,0.73520
1426.92993,0.77916
1425.44014,0.84984
1423.95035,0.86790
1422.46056,0.88598
1420.97078,0.90640
1419.48099,0.91965
1417.99120,0.91725
1416.50141,0.93158
1415.01162,0.92435
1413.52183,0.87785
1412.03204,0.82136
1410.54226,0.74819
1409.05247,0.65708
1407.56268,0.63713
1406.07289,0.57842
1404.58310,0.55209
1403.09331,0.52580
1401.60353,0.44764
1400.11374,0.41599
1398.62395,0.37384
1397.13416,0.31476
1395.64437,0.26393
1394.15458,0.22082
1392.66479,0.18595
1391.17501,0.15985
1389.68522,0.13607
1388.19543,0.13159
1386.70564,0.11351
1385.21585,0.09546
1383.72606,0.08899
1382.23628,0.06765
1380.74649,0.04325
1379.25670,0.02915
1377.76691,0.02303
1376.27712,0.01668
1374.78733,0.00496
1373.29755,0.01690
1371.80776,0.00652
1370.31797,0.00747
1368.82818,0.00715
1367.33839,0.00686
1365.84860,0.02174
1364.35881,0.03099
1362.86903,0.05054
1361.37924,0.07319
1359.88945,0.08097
1358.39966,0.11498
1356.90987,0.15234
1355.42008,0.17483
1353.93030,0.22226
1352.44051,0.26150
1350.95072,0.30076
1349.46093,0.35776
1347.97114,0.45229
1346.48135,0.54530
1344.99156,0.60417
1343.50178,0.66127
1342.01199,0.71865
1340.52220,0.80919
1339.03241,0.84709
1337.54262,0.88811
1336.05283,0.90153
1334.56305,0.91499
1333.07326,0.97225
1331.58347,1.01619
1330.09368,1.00569
1328.60389,0.99214
1327.11410,0.92648
1325.62432,0.91709
1324.13453,0.86046
1322.64474,0.83005
1321.15495,0.81970
1319.66516,0.78536
1318.17537,0.75105
1316.68558,0.69300
1315.19580,0.63343
1313.70601,0.55873
1312.21622,0.53081
1310.72643,0.51215
1309.23664,0.46680
1307.74685,0.43740
1306.25707,0.40521
1304.76728,0.38485
1303.27749,0.36451
1301.78770,0.31697
1300.29791,0.25661
1298.80812,0.22017
1297.31834,0.17553
1295.82855,0.18279
1294.33876,0.14745
1292.84897,0.11546
1291.35918,0.11483
1289.86939,0.11269
1288.37960,0.11057
1286.88982,0.09872
1285.40003,0.09228
1283.91024,0.06763
1282.42045,0.08153
1280.93066,0.05359
1279.44087,0.04159
1277.95109,0.05608
1276.46130,0.05389
1274.97151,0.05083
1273.48172,0.04780
1271.99193,0.03284
1270.50214,0.02947
1269.01235,0.02868
1267.52257,0.02638
1266.03278,0.03541
1264.54299,0.03239
1263.05320,0.02811
1261.56341,0.02603
1260.07362,0.02398
1258.58384,0.02028
1257.09405,0.01019
1255.60426,0.01116
1254.11447,0.03039
1252.62468,0.00496
1251.13489,0.00800
1249.64511,0.01491
1248.15532,0.01029
1246.66553,0.01301
1245.17574,0.01576
1243.68595,0.01943
1242.19616,0.02723
1240.70637,0.00552
1239.21659,0.00874
1237.72680,0.02099
1236.23701,0.02683
1234.74722,0.03629
1233.25743,0.03319
1231.76764,0.03012
1230.27786,0.03066
1228.78807,0.03046
1227.29828,0.02617
1225.80849,0.00496
1224.31870,0.01387
1222.82891,0.00586
1221.33912,0.01816
1219.84934,0.03998
1218.35955,0.06184
1216.86976,0.05674
1215.37997,0.07736
1213.89018,0.07051
1212.40039,0.08424
1210.91061,0.07950
1209.42082,0.07067
1207.93103,0.06264
1206.44124,0.05463
1204.95145,0.05846
1203.46166,0.05949
1201.97188,0.05361
1200.48209,0.03927
1198.99230,0.05296
1197.50251,0.05228
1196.01272,0.03802
1194.52293,0.03636
1193.03314,0.03473
1191.54336,0.01874
1190.05357,0.02692
1188.56378,0.01920
1187.07399,0.02563
1185.58420,0.02257
1184.09441,0.01595
1182.60463,0.01603
1181.11484,0.01613
1179.62505,0.01343
1178.13526,0.01204
1176.64547,0.01350
1175.15568,0.01523
1173.66589,0.02239
1172.17611,0.01775
1170.68632,0.01134
1169.19653,0.00496
1167.70674,0.03301
1166.21695,0.03900
1164.72716,0.05400
1163.23738,0.04642
1161.74759,0.05864
1160.25780,0.07756
1158.76801,0.06530
1157.27822,0.05307
1155.78843,0.07463
1154.29865,0.07696
1152.80886,0.09934
1151.31907,0.10094
1149.82928,0.11361
1148.33949,0.12913
1146.84970,0.13119
1145.35991,0.13327
1143.87013,0.14809
1142.38034,0.16576
1140.89055,0.17010
1139.40076,0.16932
1137.91097,0.19425
1136.42118,0.22229
1134.93140,0.23353
1133.44161,0.24479
1131.95182,0.25133
1130.46203,0.27612
1128.97224,0.26678
1127.48245,0.28648
1125.99266,0.26049
1124.50288,0.26330
1123.01309,0.24467
1121.52330,0.22608
1120.03351,0.21791
1118.54372,0.24469
1117.05393,0.26251
1115.56415,0.26365
1114.07436,0.28152
1112.58457,0.26435
1111.09478,0.24720
1109.60499,0.25795
1108.11520,0.25125
1106.62542,0.25588
1105.13563,0.25437
1103.64584,0.25057
1102.15605,0.24191
1100.66626,0.23726
1099.17647,0.23263
1097.68668,0.22276
1096.19690,0.21009
1094.70711,0.22159
1093.21732,0.22515
1091.72753,0.19303
1090.23774,0.19676
1088.74795,0.20052
1087.25817,0.20495
1085.76838,0.19065
1084.27859,0.18639
1082.78880,0.18652
1081.29901,0.20285
1079.80922,0.18787
1078.31943,0.19488
1076.82965,0.20191
1075.33986,0.20036
1073.85007,0.21168
1072.36028,0.22251
1070.87049,0.24209
1069.38070,0.25245
1067.89092,0.26784
1066.40113,0.28326
1064.91134,0.32811
1063.42155,0.40149
1061.93176,0.48748
1060.44197,0.58146
1058.95219,0.69216
1057.46240,0.73225
1055.97261,0.77236
1054.48282,0.84665
1052.99303,0.90325
1051.50324,0.94472
1050.01345,0.94049
1048.52367,0.86515
1047.03388,0.86752
1045.54409,0.86991
1044.05430,0.84087
1042.56451,0.79104
1041.07472,0.71659
1039.58494,0.66938
1038.09515,0.61372
1036.60536,0.57156
1035.11557,0.52944
1033.62578,0.49979
1032.13599,0.39491
1030.64620,0.35581
1029.15642,0.31159
1027.66663,0.29372
1026.17684,0.27588
1024.68705,0.23353
1023.19726,0.21458
1021.70747,0.18179
1020.21769,0.15749
1018.72790,0.13219
1017.23811,0.11950
1015.74832,0.10683
1014.25853,0.11037
1012.76874,0.11496
1011.27896,0.12497
1009.78917,0.11214
1008.29938,0.08803
1006.80959,0.07409
1005.31980,0.06018
1003.83001,0.04514
1002.34022,0.02703
1000.85044,0.02488
999.36065,0.03533
997.87086,0.04054
996.38107,0.04578
994.89128,0.07737
993.40149,0.07918
991.91171,0.10080
990.42192,0.11551
988.93213,0.12356
987.44234,0.12791
985.95255,0.13229
984.46276,0.12166
982.97297,0.11286
981.48319,0.07814
979.99340,0.07657
978.50361,0.06822
977.01382,0.05990
975.52403,0.03221
974.03424,0.03536
972.54446,0.03443
971.05467,0.01375
969.56488,0.01569
968.07509,0.02073
966.58530,0.02580
965.09551,0.00496
963.60573,0.02255
962.11594,0.02707
960.62615,0.03443
959.13636,0.03604
957.64657,0.03768
956.15678,0.03459
954.66699,0.04384
953.17721,0.04645
951.68742,0.05370
950.19763,0.05854
948.70784,0.06340
947.21805,0.06276
945.72826,0.08603
944.23848,0.11934
942.74869,0.12134
941.25890,0.13955
939.76911,0.14661
938.27932,0.15369
936.78953,0.17402
935.29974,0.20080
933.80996,0.19652
932.32017,0.20306
930.83038,0.20217
929.34059,0.20130
927.85080,0.22435
926.36101,0.27798
924.87123,0.30775
923.38144,0.36220
921.89165,0.38559
920.40186,0.40901
918.91207,0.50129
917.42228,0.63597
915.93250,0.75834
914.44271,0.92184
912.95292,1.04259
911.46313,1.16337
909.97334,1.35519
908.48355,1.55807
906.99376,1.72066
905.50398,1.88275
904.01419,1.94136
902.52440,2.00000
901.03461,1.91843
899.54482,1.88182
898.05503,1.75920
896.56525,1.59602
895.07546,1.48077
893.58567,1.36554
892.09588,1.13668
890.60609,0.85545
889.11630,0.64924
887.62651,0.48543
886.13673,0.43235
884.64694,0.37929
883.15715,0.25870
881.66736,0.19362
880.17757,0.10955
878.68778,0.10140
877.19800,0.09328
875.70821,0.06374
874.21842,0.06118
872.72863,0.04684
871.23884,0.03483
869.74905,0.03094
868.25927,0.02707
866.76948,0.01950
865.27969,0.01709
863.78990,0.03191
862.30011,0.03571
860.81032,0.04468
859.32053,0.05366
857.83075,0.06447
856.34096,0.08994
854.85117,0.08873
853.36138,0.10166
851.87159,0.10936
850.38180,0.11707
848.89202,0.11878
847.40223,0.13977
845.91244,0.14538
844.42265,0.15499
842.93286,0.16462
841.44307,0.17749
839.95329,0.20862
838.46350,0.20176
836.97371,0.22368
835.48392,0.22406
833.99413,0.22447
832.50434,0.21436
831.01455,0.19452
829.52477,0.17830
828.03498,0.14310
826.54519,0.13835
825.05540,0.13363
823.56561,0.12239
822.07582,0.13274
820.58604,0.11461
819.09625,0.10125
817.60646,0.08792
816.11667,0.09580
814.62688,0.08264
813.13709,0.09519
811.64730,0.10956
810.15752,0.11073
808.66773,0.11193
807.17794,0.11430
805.68815,0.10103
804.19836,0.11064
802.70857,0.11026
801.21879,0.10990
799.72900,0.11265
798.23921,0.08563
796.74942,0.09690
795.25963,0.10203
793.76984,0.10719
792.28006,0.10183
790.79027,0.13015
789.30048,0.15362
787.81069,0.15168
786.32090,0.17454
784.83111,0.19744
783.34132,0.21175
781.85154,0.23892
780.36175,0.29181
778.87196,0.30427
777.38217,0.31675
775.89238,0.32707
774.40259,0.32868
772.91281,0.34367
771.42302,0.34765
769.93323,0.35164
768.44344,0.27732
766.95365,0.23539
765.46386,0.20556
763.97407,0.15648
762.48429,0.14326
760.99450,0.13006
759.50471,0.11779
758.01492,0.11607
756.52513,0.09613
755.03534,0.09985
753.54556,0.10360
752.05577,0.07860
750.56598,0.06878
749.07619,0.03638
747.58640,0.03675
746.09661,0.03715
744.60683,0.04078
743.11704,0.03544
741.62725,0.02602
740.13746,0.02651
738.64767,0.02703
737.15788,0.02050
735.66809,0.01632
734.17831,0.00496
732.68852,0.01105
731.19873,0.01717
729.70894,0.01317
728.21915,0.01176
726.72936,0.00524
725.23958,0.01820
723.74979,0.01732
722.26000,0.01646
720.77021,0.00381
719.28042,0.01030
717.79063,0.00627
716.30084,0.01217
714.81106,0.01808
713.32127,0.02261
711.83148,0.02125
710.34169,0.02171
708.85190,0.01719
707.36211,0.01269
705.87233,0.01785
704.38254,0.02586
702.89275,0.03672
701.40296,0.03719
699.91317,0.03770
698.42338,0.05607
696.93360,0.07858
695.44381,0.10189
693.95402,0.10313
692.46423,0.10439
690.97444,0.12186
689.48465,0.14192
687.99486,0.15712
686.50508,0.16259
685.01529,0.16808
683.52550,0.23704
682.03571,0.23513
680.54592,0.24403
679.05613,0.24436
677.56635,0.24470
676.07656,0.24083
674.58677,0.23211
673.09698,0.21468
671.60719,0.20613
670.11740,0.19760
668.62761,0.16047
667.13783,0.14595
665.64804,0.14431
664.15825,0.14268
662.66846,0.09871
661.17867,0.06605
659.68888,0.04036
658.19910,0.03562
656.70931,0.03091
655.21952,0.01273
653.72973,0.01333
652.23994,0.04375
650.75015,0.03669
649.26037,0.02966
647.77058,0.03908
646.28079,0.02311
644.79100,0.02719
643.30121,0.01922
641.81142,0.01128
640.32163,0.02904
638.83185,0.01498
637.34206,0.00660
635.85227,0.00658
634.36248,0.00659
632.87269,0.00496
631.38290,0.00753
629.89312,0.00396
628.40333,0.00657
626.91354,0.00921
625.42375,0.01739
623.93396,0.00171
622.44417,0.01115
620.95438,0.02061
619.46460,0.02264
617.97481,0.03215
616.48502,0.06043
614.99523,0.07320
613.50544,0.08599
612.01565,0.10432
610.52587,0.15042
609.03608,0.18730
607.54629,0.20738
606.05650,0.22748
604.56671,0.24131
603.07692,0.30936
601.58714,0.33569
600.09735,0.36205
598.60756,0.40963
597.11777,0.41716
595.62798,0.42779
594.13819,0.42433
592.64840,0.42088
591.15862,0.37714
589.66883,0.31185
588.17904,0.29949
586.68925,0.26237
585.19946,0.22527
583.70967,0.16084
582.21989,0.11056
580.73010,0.09383
579.24031,0.07711
577.75052,0.07186
576.26073,0.05969
574.77094,0.05165
573.28115,0.04916
571.79137,0.04669
570.30158,0.03051
568.81179,0.03900
567.32200,0.04804
565.83221,0.05710
564.34242,0.08750
562.85264,0.11638
561.36285,0.12551
559.87306,0.13286
558.38327,0.14024
556.89348,0.15330
555.40369,0.16791
553.91391,0.17126
552.42412,0.17462
550.93433,0.18494
549.44454,0.18502
547.95475,0.19256
546.46496,0.19744
544.97517,0.20233
543.48539,0.21560
541.99560,0.25586
540.50581,0.25826
539.01602,0.26069
537.52623,0.33107
536.03644,0.38170
534.54666,0.43286
533.05687,0.45323
531.56708,0.47363
530.07729,0.51844
528.58750,0.57330
527.09771,0.58927
525.60792,0.60527
524.11814,0.69513
522.62835,0.75778
521.13856,0.82278
519.64877,0.84580
518.15898,0.86885
516.66919,0.91285
515.17941,0.89986
513.68962,0.89101
512.19983,0.88217
510.71004,0.84717
509.22025,0.76801
507.73046,0.72996
506.24068,0.67435
504.75089,0.61876
503.26110,0.47472
501.77131,0.40801
500.28152,0.35223
498.79173,0.29648
497.30194,0.23960
495.81216,0.20175
494.32237,0.18036
492.83258,0.15900
491.34279,0.12841
489.85300,0.12969
488.36321,0.12150
486.87343,0.11012
485.38364,0.09876
483.89385,0.06418
482.40406,0.07252
480.91427,0.09038
479.42448,0.10827
477.93469,0.12233
476.44491,0.17160
474.95512,0.18032
473.46533,0.18905
471.97554,0.16057
470.48575,0.17501
468.99596,0.17200
467.50618,0.16414
466.01639,0.15630
464.52660,0.14721
463.03681,0.10295
461.54702,0.09454
460.05723,0.08615
458.56745,0.04479
457.07766,0.04968
455.58787,0.04830
454.09808,0.04695
452.60829,0.05961
451.11850,0.05227
449.62871,0.03558
448.13893,0.01891
446.64914,0.00496
445.15935,0.01033
443.66956,0.01418
442.17977,0.02023
440.68998,0.02631
439.20020,0.02047
437.71041,0.04497
436.22062,0.03840
434.73083,0.03187
433.24104,0.02715
431.75125,0.03915
430.26146,0.04553
428.77168,0.05193
427.28189,0.05322
425.79210,0.05684
424.30231,0.04186
422.81252,0.02691
421.32273,0.05244
419.83295,0.02996
418.34316,0.02214
416.85337,0.01435
415.36358,0.03252
413.87379,0.03582
412.38400,0.03195
410.89422,0.02810
409.40443,0.05870
407.91464,0.03744
406.42485,0.04368
404.93506,0.04366
403.44527,0.04365
401.95548,0.04303
400.46570,0.03371
398.97591,0.02813
397.48612,0.02257
395.99633,0.03951
394.50654,0.04466
393.01675,0.03828
391.52697,0.03191
390.03718,0.03637
388.54739,0.01439
387.05760,0.01760
385.56781,0.02084
384.07802,0.02641
382.58824,0.02764
381.09845,0.03467
379.60866,0.04173
378.11887,0.02711
376.62908,0.03563
375.13929,0.02028
373.64950,0.00496
372.15972,0.01967
370.66993,0.03877
369.18014,0.03092
367.69035,0.02310
366.20056,0.02990
364.71077,0.04906
363.22099,0.04731
361.73120,0.04558
360.24141,0.07302
358.75162,0.06890
357.26183,0.06352
355.77204,0.05816
354.28225,0.06541
352.79247,0.06781
351.30268,0.05469
349.81289,0.04159
348.32310,0.06435
346.83331,0.07455
345.34352,0.07578
343.85374,0.07703
342.36395,0.06649
340.87416,0.05469
339.38437,0.03714
337.89458,0.01961
336.40479,0.02099
334.91501,0.01596
333.42522,0.01045
331.93543,0.00496
330.44564,0.03854
328.95585,0.05467
327.46606,0.04091
325.97627,0.02717
324.48649,0.01590
322.99670,0.03701
321.50691,0.03477
320.01712,0.03256
318.52733,0.07403
317.03754,0.06185
315.54776,0.07062
314.05797,0.07942
312.56818,0.07784
311.07839,0.06755
309.58860,0.06434
308.09881,0.06117
306.60902,0.04581
305.11924,0.03639
303.62945,0.02904
302.13966,0.02172
300.64987,0.00543
299.16008,0.00496
