1778.52000,0.00874
1777.03021,0.00322
1775.54042,0.00812
1774.05063,0.00813
1772.56085,0.00288
1771.07106,0.00530
1769.58127,0.01579
1768.09148,0.00551
1766.60169,0.01055
1765.11190,0.01209
1763.62212,0.00208
1762.13233,0.00367
1760.64254,0.00390
1759.15275,0.00475
1757.66296,0.00896
1756.17317,0.00810
1754.68339,-0.00000
1753.19360,0.00311
1751.70381,0.00643
1750.21402,0.00566
1748.72423,0.01100
1747.23444,0.00793
1745.74465,0.00096
1744.25487,0.00401
1742.76508,0.00572
1741.27529,0.01196
1739.78550,0.01019
1738.29571,0.00785
1736.80592,0.00475
1735.31614,0.00567
1733.82635,0.00336
1732.33656,0.01088
1730.84677,0.01333
1729.35698,0.00893
1727.86719,0.01064
1726.37740,0.00316
1724.88762,0.00472
1723.39783,0.00827
1721.90804,0.01224
1720.41825,0.00250
1718.92846,0.00707
1717.43867,0.00401
1715.94889,0.00475
1714.45910,0.00896
1712.96931,0.01260
1711.47952,0.00038
1709.98973,0.01119
1708.49994,0.00593
1707.01016,0.00502
1705.52037,0.00413
1704.03058,0.00425
1702.54079,0.01086
1701.05100,0.00475
1699.56121,0.01170
1698.07142,0.01083
1696.58164,0.00762
1695.09185,0.00974
1693.60206,0.01659
1692.11227,0.01621
1690.62248,0.01644
1689.13269,0.00708
1687.64291,0.01089
1686.15312,0.01903
1684.66333,0.02093
1683.17354,0.02187
1681.68375,0.01950
1680.19396,0.01735
1678.70417,0.01660
1677.21439,0.03489
1675.72460,0.03380
1674.23481,0.03979
1672.74502,0.03521
1671.25523,0.04380
1669.76544,0.04025
1668.27566,0.04771
1666.78587,0.05833
1665.29608,0.06113
1663.80629,0.05356
1662.31650,0.07406
1660.82671,0.06517
1659.33693,0.07180
1657.84714,0.07393
1656.35735,0.06963
1654.86756,0.07025
1653.37777,0.06363
1651.88798,0.07842
1650.39819,0.08088
1648.90841,0.08630
1647.41862,0.08155
1645.92883,0.08673
1644.43904,0.09193
1642.94925,0.07941
1641.45946,0.08280
1639.96968,0.09072
1638.47989,0.07553
1636.99010,0.08977
1635.50031,0.08659
1634.01052,0.08422
1632.52073,0.08324
1631.03094,0.08661
1629.54116,0.09333
1628.05137,0.10478
1626.56158,0.10194
1625.07179,0.11325
1623.58200,0.09555
1622.09221,0.10004
1620.60243,0.08847
1619.11264,0.10556
1617.62285,0.09581
1616.13306,0.08883
1614.64327,0.09697
1613.15348,0.09592
1611.66370,0.10038
1610.17391,0.08604
1608.68412,0.09526
1607.19433,0.09176
1605.70454,0.09809
1604.21475,0.10248
1602.72496,0.10689
1601.23518,0.09800
1599.74539,0.10011
1598.25560,0.07459
1596.76581,0.06930
1595.27602,0.08227
1593.78623,0.09016
1592.29645,0.07847
1590.80666,0.08132
1589.31687,0.07124
1587.82708,0.08100
1586.33729,0.07392
1584.84750,0.07588
1583.35771,0.08100
1581.86793,0.07380
1580.37814,0.08113
1578.88835,0.07691
1577.39856,0.06409
1575.90877,0.05385
1574.41898,0.04637
1572.92920,0.04166
1571.43941,0.05444
1569.94962,0.04801
1568.45983,0.04161
1566.97004,0.03701
1565.48025,0.03007
1563.99047,0.02806
1562.50068,0.03784
1561.01089,0.02842
1559.52110,0.02825
1558.03131,0.02654
1556.54152,0.01857
1555.05173,0.02396
1553.56195,0.01643
1552.07216,0.00383
1550.58237,0.01283
1549.09258,0.01655
1547.60279,0.00657
1546.11300,0.00388
1544.62322,0.01238
1543.13343,0.00542
1541.64364,0.00475
1540.15385,0.00774
1538.66406,0.01076
1537.17427,0.01723
1535.68448,0.01313
1534.19470,0.01180
1532.70491,0.00619
1531.21512,0.00687
1529.72533,0.01091
1528.23554,0.02008
1526.74575,0.01377
1525.25597,0.02436
1523.76618,0.01830
1522.27639,0.03208
1520.78660,0.03646
1519.29681,0.02714
1517.80702,0.03785
1516.31724,0.03368
1514.82745,0.04150
1513.33766,0.03708
1511.84787,0.03269
1510.35808,0.04175
1508.86829,0.03398
1507.37850,0.03368
1505.88872,0.03772
1504.39893,0.03531
1502.90914,0.05686
1501.41935,0.05097
1499.92956,0.06923
1498.43977,0.06025
1496.94999,0.07405
1495.46020,0.08983
1493.97041,0.10858
1492.48062,0.10421
1490.99083,0.11202
1489.50104,0.11731
1488.01125,0.13165
1486.52147,0.14601
1485.03168,0.15608
1483.54189,0.19579
1482.05210,0.21277
1480.56231,0.21899
1479.07252,0.23740
1477.58274,0.25171
1476.09295,0.24466
1474.60316,0.24922
1473.11337,0.27909
1471.62358,0.26585
1470.13379,0.26420
1468.64401,0.29415
1467.15422,0.32001
1465.66443,0.34402
1464.17464,0.36807
1462.68485,0.39047
1461.19506,0.43839
1459.70527,0.47005
1458.21549,0.51684
1456.72570,0.57033
1455.23591,0.63404
1453.74612,0.64168
1452.25633,0.66895
1450.76654,0.70018
1449.27676,0.71456
1447.78697,0.71544
1446.29718,0.69300
1444.80739,0.67823
1443.31760,0.66349
1441.82781,0.62935
1440.33802,0.60368
1438.84824,0.55723
1437.35845,0.49630
1435.86866,0.49718
1434.37887,0.52436
1432.88908,0.54156
1431.39929,0.61978
1429.90951,0.70057
1428.41972,0.77648
1426.92993,0.81731
1425.44014,0.88681
1423.95035,0.90768
1422.46056,0.92858
1420.97078,0.95598
1419.48099,0.94987
1417.99120,0.94240
1416.50141,0.96968
1415.01162,0.96501
1413.52183,0.89486
1412.03204,0.83396
1410.54226,0.76405
1409.05247,0.70202
1407.56268,0.63628
1406.07289,0.58547
1404.58310,0.56950
1403.09331,0.55356
1401.60353,0.46674
1400.11374,0.40936
1398.62395,0.38790
1397.13416,0.33096
1395.64437,0.26718
1394.15458,0.22167
1392.66479,0.18873
1391.17501,0.15759
1389.68522,0.13549
1388.19543,0.12439
1386.70564,0.11813
1385.21585,0.11189
1383.72606,0.08028
1382.23628,0.05340
1380.74649,0.04988
1379.25670,0.02736
1377.76691,0.02428
1376.27712,0.00475
1374.78733,0.01471
1373.29755,0.02293
1371.80776,0.01196
1370.31797,0.00865
1368.82818,0.01028
1367.33839,0.01193
1365.84860,0.02733
1364.35881,0.03471
1362.86903,0.04546
1361.37924,0.08074
1359.88945,0.10506
1358.39966,0.12314
1356.90987,0.17340
1355.42008,0.19387
1353.93030,0.24418
1352.44051,0.27932
1350.95072,0.31448
1349.46093,0.39310
1347.97114,0.44920
1346.48135,0.53121
1344.99156,0.60736
1343.50178,0.67804
1342.01199,0.72364
1340.52220,0.80791
1339.03241,0.88611
1337.54262,0.91767
1336.05283,0.93150
1334.56305,0.94535
1333.07326,0.99640
1331.58347,0.99942
1330.09368,1.01678
1328.60389,1.02377
1327.11410,0.94959
1325.62432,0.90230
1324.13453,0.86622
1322.64474,0.85075
1321.15495,0.80903
1319.66516,0.79557
1318.17537,0.78214
1316.68558,0.71441
1315.19580,0.63944
1313.70601,0.57980
1312.21622,0.56176
1310.72643,0.51766
1309.23664,0.49025
1307.74685,0.47876
1306.25707,0.42002
1304.76728,0.40455
1303.27749,0.38911
1301.78770,0.34378
1300.29791,0.28357
1298.80812,0.22555
1297.31834,0.20756
1295.82855,0.17900
1294.33876,0.16419
1292.84897,0.13548
1291.35918,0.11720
1289.86939,0.11443
1288.37960,0.11168
1286.88982,0.09935
1285.40003,0.08195
1283.91024,0.09026
1282.42045,0.07996
1280.93066,0.06557
1279.44087,0.05179
1277.95109,0.05157
1276.46130,0.05922
1274.97151,0.05591
1273.48172,0.05263
1271.99193,0.04407
1270.50214,0.04279
1269.01235,0.03664
1267.52257,0.03483
1266.03278,0.02401
1264.54299,0.03049
1263.05320,0.02757
1261.56341,0.02046
1260.07362,0.01337
1258.58384,0.01994
1257.09405,0.00614
1255.60426,0.01413
1254.11447,0.01273
1252.62468,0.02135
1251.13489,0.01157
1249.64511,0.00475
1248.15532,0.03473
1246.66553,0.03040
1245.17574,0.02611
1243.68595,0.01065
1242.19616,0.01895
1240.70637,0.00767
1239.21659,0.01425
1237.72680,0.01694
1236.23701,0.03024
1234.74722,0.02298
1233.25743,0.02848
1231.76764,0.03401
1230.27786,0.01741
1228.78807,0.03495
1227.29828,0.02290
1225.80849,0.01774
1224.31870,0.00555
1222.82891,0.00475
1221.33912,0.01678
1219.84934,0.02804
1218.35955,0.03932
1216.86976,0.05162
1215.37997,0.06844
1213.89018,0.08549
1212.40039,0.08275
1210.91061,0.08710
1209.42082,0.08990
1207.93103,0.08332
1206.44124,0.07676
1204.95145,0.06963
1203.46166,0.07136
1201.97188,0.06369
1200.48209,0.06664
1198.99230,0.05216
1197.50251,0.04496
1196.01272,0.03779
1194.52293,0.03417
1193.03314,0.03057
1191.54336,0.02092
1190.05357,0.02875
1188.56378,0.01973
1187.07399,0.02545
1185.58420,0.02492
1184.09441,0.03284
1182.60463,0.02569
1181.11484,0.01857
1179.62505,0.01597
1178.13526,0.01341
1176.64547,0.01341
1175.15568,0.01168
1173.66589,0.01644
1172.17611,0.00475
1170.68632,0.00954
1169.19653,0.01434
1167.70674,0.01966
1166.21695,0.02756
1164.72716,0.04685
1163.23738,0.05950
1161.74759,0.06865
1160.25780,0.06526
1158.76801,0.06445
1157.27822,0.06367
1155.78843,0.07252
1154.29865,0.09473
1152.80886,0.10206
1151.31907,0.12726
1149.82928,0.13190
1148.33949,0.13459
1146.84970,0.13388
1145.35991,0.13319
1143.87013,0.15283
1142.38034,0.17072
1140.89055,0.16256
1139.40076,0.18600
1137.91097,0.18121
1136.42118,0.20058
1134.93140,0.21516
1133.44161,0.22977
1131.95182,0.25078
1130.46203,0.27064
1128.97224,0.27091
1127.48245,0.26198
1125.99266,0.27250
1124.50288,0.26735
1123.01309,0.25771
1121.52330,0.24810
1120.03351,0.22458
1118.54372,0.26778
1117.05393,0.27099
1115.56415,0.28089
1114.07436,0.26414
1112.58457,0.26654
1111.09478,0.26896
1109.60499,0.25327
1108.11520,0.26035
1106.62542,0.27217
1105.13563,0.27596
1103.64584,0.25801
1102.15605,0.23636
1100.66626,0.23680
1099.17647,0.23726
1097.68668,0.22373
1096.19690,0.22747
1094.70711,0.21536
1093.21732,0.23641
1091.72753,0.23514
1090.23774,0.22643
1088.74795,0.21775
1087.25817,0.21929
1085.76838,0.23144
1084.27859,0.21714
1082.78880,0.22699
1081.29901,0.24040
1079.80922,0.24579
1078.31943,0.25012
1076.82965,0.25448
1075.33986,0.25190
1073.85007,0.26170
1072.36028,0.26309
1070.87049,0.27628
1069.38070,0.32165
1067.89092,0.35528
1066.40113,0.38893
1064.91134,0.42692
1063.42155,0.50809
1061.93176,0.64811
1060.44197,0.74972
1058.95219,0.87489
1057.46240,0.92487
1055.97261,0.97487
1054.48282,1.03697
1052.99303,1.13026
1051.50324,1.13082
1050.01345,1.12042
1048.52367,1.10416
1047.03388,1.07713
1045.54409,1.05014
1044.05430,1.00571
1042.56451,0.92835
1041.07472,0.84808
1039.58494,0.75313
1038.09515,0.67310
1036.60536,0.62625
1035.11557,0.57941
1033.62578,0.52849
1032.13599,0.44719
1030.64620,0.37728
1029.15642,0.32349
1027.66663,0.30855
1026.17684,0.29364
1024.68705,0.26070
1023.19726,0.23250
1021.70747,0.20942
1020.21769,0.17225
1018.72790,0.16020
1017.23811,0.14053
1015.74832,0.12089
1014.25853,0.12715
1012.76874,0.11285
1011.27896,0.12172
1009.78917,0.09177
1008.29938,0.08598
1006.80959,0.06560
1005.31980,0.04524
1003.83001,0.03991
1002.34022,0.04519
1000.85044,0.04854
999.36065,0.03877
997.87086,0.04325
996.38107,0.04775
994.89128,0.08101
993.40149,0.11154
991.91171,0.11209
990.42192,0.14895
988.93213,0.17172
987.44234,0.17931
985.95255,0.18692
984.46276,0.19446
982.97297,0.17378
981.48319,0.14156
979.99340,0.10269
978.50361,0.09532
977.01382,0.08798
975.52403,0.06487
974.03424,0.05709
972.54446,0.03874
971.05467,0.02571
969.56488,0.00486
968.07509,0.00498
966.58530,0.00484
965.09551,0.01591
963.60573,0.01347
962.11594,0.01753
960.62615,0.00475
959.13636,0.01740
957.64657,0.03007
956.15678,0.01785
954.66699,0.02292
953.17721,0.02644
951.68742,0.03764
950.19763,0.03395
948.70784,0.03029
947.21805,0.04686
945.72826,0.06110
944.23848,0.08261
942.74869,0.10396
941.25890,0.09846
939.76911,0.10661
938.27932,0.11479
936.78953,0.14899
935.29974,0.16163
933.80996,0.17508
932.32017,0.19895
930.83038,0.19244
929.34059,0.18596
927.85080,0.19520
926.36101,0.24819
924.87123,0.26708
923.38144,0.34935
921.89165,0.38123
920.40186,0.41314
918.91207,0.52333
917.42228,0.63472
915.93250,0.80359
914.44271,1.02349
912.95292,1.12603
911.46313,1.22859
909.97334,1.44032
908.48355,1.62854
906.99376,1.81011
905.50398,1.94091
904.01419,1.97044
902.52440,2.00000
901.03461,1.99869
899.54482,1.92562
898.05503,1.77296
896.56525,1.63542
895.07546,1.49986
893.58567,1.36433
892.09588,1.09487
890.60609,0.86643
889.11630,0.62977
887.62651,0.47570
886.13673,0.42825
884.64694,0.38083
883.15715,0.28842
881.66736,0.19917
880.17757,0.12152
878.68778,0.12068
877.19800,0.11986
875.70821,0.08248
874.21842,0.05416
872.72863,0.04958
871.23884,0.04817
869.74905,0.04316
868.25927,0.03817
866.76948,0.01487
865.27969,0.02611
863.78990,0.04836
862.30011,0.04513
860.81032,0.05458
859.32053,0.06406
857.83075,0.09523
856.34096,0.10799
854.85117,0.12332
853.36138,0.13730
851.87159,0.15435
850.38180,0.17143
848.89202,0.18431
847.40223,0.22173
845.91244,0.22407
844.42265,0.23251
842.93286,0.24098
841.44307,0.26438
839.95329,0.28466
838.46350,0.30046
836.97371,0.30628
835.48392,0.32634
833.99413,0.34643
832.50434,0.32565
831.01455,0.31647
829.52477,0.28162
828.03498,0.23031
826.54519,0.21669
825.05540,0.20310
823.56561,0.19266
822.07582,0.19029
820.58604,0.18167
819.09625,0.17082
817.60646,0.15999
816.11667,0.14223
814.62688,0.15685
813.13709,0.17306
811.64730,0.19381
810.15752,0.18516
808.66773,0.17654
807.17794,0.17854
805.68815,0.17781
804.19836,0.19221
802.70857,0.19114
801.21879,0.19009
799.72900,0.17024
798.23921,0.15532
796.74942,0.15336
795.25963,0.16016
793.76984,0.16698
792.28006,0.18805
790.79027,0.20286
789.30048,0.20574
787.81069,0.22197
786.32090,0.25304
784.83111,0.28413
783.34132,0.30927
781.85154,0.33952
780.36175,0.38569
778.87196,0.40276
777.38217,0.41985
775.89238,0.44256
774.40259,0.44960
772.91281,0.43921
771.42302,0.43120
769.93323,0.42322
768.44344,0.38937
766.95365,0.30828
765.46386,0.25918
763.97407,0.20696
762.48429,0.18900
760.99450,0.17106
759.50471,0.17128
758.01492,0.14898
756.52513,0.11650
755.03534,0.11405
753.54556,0.11163
752.05577,0.09119
750.56598,0.07999
749.07619,0.06803
747.58640,0.06502
746.09661,0.06203
744.60683,0.04485
743.11704,0.03495
741.62725,0.02507
740.13746,0.02846
738.64767,0.03187
737.15788,0.02835
735.66809,0.01680
734.17831,0.01391
732.68852,0.02075
731.19873,0.02762
729.70894,0.01833
728.21915,0.00475
726.72936,0.01055
725.23958,0.02383
723.74979,0.01507
722.26000,0.00633
720.77021,0.00654
719.28042,0.01991
717.79063,0.01723
716.30084,0.01094
714.81106,0.00468
713.32127,0.01462
711.83148,0.02203
710.34169,0.00771
708.85190,0.01105
707.36211,0.01442
705.87233,0.01645
704.38254,0.02124
702.89275,0.03449
701.40296,0.03570
699.91317,0.03694
698.42338,0.04497
696.93360,0.06557
695.44381,0.09522
693.95402,0.10548
692.46423,0.11576
690.97444,0.12548
689.48465,0.14484
687.99486,0.16500
686.50508,0.17420
685.01529,0.18343
683.52550,0.22191
682.03571,0.23942
680.54592,0.24029
679.05613,0.24246
677.56635,0.24465
676.07656,0.24932
674.58677,0.24224
673.09698,0.21382
671.60719,0.20552
670.11740,0.19724
668.62761,0.15614
667.13783,0.14114
665.64804,0.12990
664.15825,0.11868
662.66846,0.11043
661.17867,0.07749
659.68888,0.06399
658.19910,0.05718
656.70931,0.05040
655.21952,0.02070
653.72973,0.02848
652.23994,0.02628
650.75015,0.03470
649.26037,0.04314
647.77058,0.04337
646.28079,0.03401
644.79100,0.03135
643.30121,0.03538
641.81142,0.03943
640.32163,0.04311
638.83185,0.03604
637.34206,0.02153
635.85227,0.01313
634.36248,0.00475
632.87269,0.01802
631.38290,0.00661
629.89312,0.00855
628.40333,0.00502
626.91354,0.00152
625.42375,0.01769
623.93396,0.02544
622.44417,0.02998
620.95438,0.03455
619.46460,0.02747
617.97481,0.05022
616.48502,0.08124
614.99523,0.08580
613.50544,0.09039
612.01565,0.12972
610.52587,0.16515
609.03608,0.19923
607.54629,0.21569
606.05650,0.23216
604.56671,0.27965
603.07692,0.33207
601.58714,0.35912
600.09735,0.38619
598.60756,0.42926
597.11777,0.45609
595.62798,0.45685
594.13819,0.44332
592.64840,0.42982
591.15862,0.40241
589.66883,0.35856
588.17904,0.27433
586.68925,0.25004
585.19946,0.22577
583.70967,0.17927
582.21989,0.14279
580.73010,0.11458
579.24031,0.08639
577.75052,0.07470
576.26073,0.07774
574.77094,0.06923
573.28115,0.06840
571.79137,0.06760
570.30158,0.06564
568.81179,0.05409
567.32200,0.07709
565.83221,0.10011
564.34242,0.12178
562.85264,0.15093
561.36285,0.17579
559.87306,0.18558
558.38327,0.19539
556.89348,0.19404
555.40369,0.22390
553.91391,0.23280
552.42412,0.24172
550.93433,0.27833
549.44454,0.25278
547.95475,0.24393
546.46496,0.24070
544.97517,0.23749
543.48539,0.27009
541.99560,0.31763
540.50581,0.32832
539.01602,0.33903
537.52623,0.36565
536.03644,0.40995
534.54666,0.45172
533.05687,0.47470
531.56708,0.49769
530.07729,0.55346
528.58750,0.63691
527.09771,0.64272
525.60792,0.64855
524.11814,0.70168
522.62835,0.77601
521.13856,0.82663
519.64877,0.83639
518.15898,0.84617
516.66919,0.88902
515.17941,0.89110
513.68962,0.88438
512.19983,0.87769
510.71004,0.85846
509.22025,0.82770
507.73046,0.78499
506.24068,0.72112
504.75089,0.65728
503.26110,0.52365
501.77131,0.39631
500.28152,0.34579
498.79173,0.29528
497.30194,0.22215
495.81216,0.18885
494.32237,0.17500
492.83258,0.16117
491.34279,0.14756
489.85300,0.12692
488.36321,0.14925
486.87343,0.11953
485.38364,0.08984
483.89385,0.08988
482.40406,0.11839
480.91427,0.12172
479.42448,0.12508
477.93469,0.14934
476.44491,0.17089
474.95512,0.18657
473.46533,0.20228
471.97554,0.23939
470.48575,0.24456
468.99596,0.22328
467.50618,0.21526
466.01639,0.20726
464.52660,0.16055
463.03681,0.12329
461.54702,0.11379
460.05723,0.10433
458.56745,0.04026
457.07766,0.03820
455.58787,0.03773
454.09808,0.03728
452.60829,0.03117
451.11850,0.04273
449.62871,0.03510
448.13893,0.02750
446.64914,0.03659
445.15935,0.01883
443.66956,0.02718
442.17977,0.02566
440.68998,0.02416
439.20020,0.03768
437.71041,0.04966
436.22062,0.04510
434.73083,0.04055
433.24104,0.02633
431.75125,0.03272
430.26146,0.03747
428.77168,0.04224
427.28189,0.06322
425.79210,0.06618
424.30231,0.07161
422.81252,0.07707
421.32273,0.04853
419.83295,0.05198
418.34316,0.04172
416.85337,0.03149
415.36358,0.01736
413.87379,0.01993
412.38400,0.02683
410.89422,0.03376
409.40443,0.05739
407.91464,0.05475
406.42485,0.04646
404.93506,0.06133
403.44527,0.07623
401.95548,0.05859
400.46570,0.04235
398.97591,0.04722
397.48612,0.05212
395.99633,0.06086
394.50654,0.06158
393.01675,0.05586
391.52697,0.05016
390.03718,0.02508
388.54739,0.03431
387.05760,0.03043
385.56781,0.02658
384.07802,0.03668
382.58824,0.04268
381.09845,0.04635
379.60866,0.05004
378.11887,0.02023
376.62908,0.00475
375.13929,0.01254
373.64950,0.02035
372.15972,0.02994
370.66993,0.05192
369.18014,0.04343
367.69035,0.03496
366.20056,0.04786
364.71077,0.05491
363.22099,0.05011
361.73120,0.04534
360.24141,0.06992
358.75162,0.07942
357.26183,0.07796
355.77204,0.07652
354.28225,0.10119
352.79247,0.08019
351.30268,0.07853
349.81289,0.07690
348.32310,0.11795
346.83331,0.08842
345.34352,0.08421
343.85374,0.08003
342.36395,0.09666
340.87416,0.07546
339.38437,0.05880
337.89458,0.04216
336.40479,0.01575
334.91501,0.01369
333.42522,0.01863
331.93543,0.02359
330.44564,0.01769
328.95585,0.04025
327.46606,0.04441
325.97627,0.04858
324.48649,0.05435
322.99670,0.06818
321.50691,0.05498
320.01712,0.04180
318.52733,0.07551
317.03754,0.06493
315.54776,0.06300
314.05797,0.06110
312.56818,0.09177
311.07839,0.06030
309.58860,0.06269
308.09881,0.06510
306.60902,0.02115
305.11924,0.00664
303.62945,0.00746
302.13966,0.00830
300.64987,0.01367
299.16008,0.00475
