1778.52000,0.01460
1777.03021,0.01060
1775.54042,0.01471
1774.05063,0.01152
1772.56085,0.02527
1771.07106,0.02188
1769.58127,0.01246
1768.09148,0.01568
1766.60169,0.00580
1765.11190,0.00780
1763.62212,0.01059
1762.13233,0.00659
1760.64254,0.00615
1759.15275,0.01027
1757.66296,0.01164
1756.17317,0.02314
1754.68339,0.00259
1753.19360,0.00000
1751.70381,0.00399
1750.21402,0.01230
1748.72423,0.00675
1747.23444,0.01057
1745.74465,0.00683
1744.25487,0.01549
1742.76508,0.01307
1741.27529,0.00815
1739.78550,0.01158
1738.29571,0.01327
1736.80592,0.00615
1735.31614,0.01472
1733.82635,0.01221
1732.33656,0.00543
1730.84677,0.00323
1729.35698,0.02199
1727.86719,0.00671
1726.37740,0.01341
1724.88762,0.00953
1723.39783,0.00366
1721.90804,0.01927
1720.41825,0.00360
1718.92846,0.01244
1717.43867,0.00464
1715.94889,0.01530
1714.45910,0.01563
1712.96931,0.00615
1711.47952,0.01141
1709.98973,0.00735
1708.49994,0.00988
1707.01016,0.01080
1705.52037,0.01174
1704.03058,0.01409
1702.54079,0.01192
1701.05100,0.01736
1699.56121,0.01398
1698.07142,0.01113
1696.58164,0.01840
1695.09185,0.02494
1693.60206,0.01888
1692.11227,0.01183
1690.62248,0.01844
1689.13269,0.00615
1687.64291,0.01147
1686.15312,0.02741
1684.66333,0.02117
1683.17354,0.02227
1681.68375,0.03375
1680.19396,0.02631
1678.70417,0.02193
1677.21439,0.03171
1675.72460,0.04177
1674.23481,0.05438
1672.74502,0.04833
1671.25523,0.05695
1669.76544,0.05044
1668.27566,0.06466
1666.78587,0.06250
1665.29608,0.05253
1663.80629,0.07137
1662.31650,0.08241
1660.82671,0.07605
1659.33693,0.07527
1657.84714,0.07577
1656.35735,0.07630
1654.86756,0.08014
1653.37777,0.08072
1651.88798,0.08662
1650.39819,0.09634
1648.90841,0.09043
1647.41862,0.08328
1645.92883,0.08600
1644.43904,0.08875
1642.94925,0.09253
1641.45946,0.09557
1639.96968,0.08350
1638.47989,0.08609
1636.99010,0.08391
1635.50031,0.08402
1634.01052,0.07482
1632.52073,0.09316
1631.03094,0.09208
1629.54116,0.09735
1628.05137,0.10036
1626.56158,0.10011
1625.07179,0.10595
1623.58200,0.10929
1622.09221,0.10761
1620.60243,0.11680
1619.11264,0.09926
1617.62285,0.09967
1616.13306,0.10919
1614.64327,0.09627
1613.15348,0.09952
1611.66370,0.07807
1610.17391,0.09753
1608.68412,0.09985
1607.19433,0.09815
1605.70454,0.09497
1604.21475,0.09610
1602.72496,0.09726
1601.23518,0.08582
1599.74539,0.09308
1598.25560,0.07361
1596.76581,0.08547
1595.27602,0.09356
1593.78623,0.09663
1592.29645,0.08231
1590.80666,0.08239
1589.31687,0.07796
1587.82708,0.07583
1586.33729,0.07246
1584.84750,0.08350
1583.35771,0.07765
1581.86793,0.08167
1580.37814,0.08976
1578.88835,0.07086
1577.39856,0.05880
1575.90877,0.06292
1574.41898,0.05444
1572.92920,0.04270
1571.43941,0.05472
1569.94962,0.05402
1568.45983,0.05334
1566.97004,0.03564
1565.48025,0.04321
1563.99047,0.03869
1562.50068,0.03344
1561.01089,0.03982
1559.52110,0.03714
1558.03131,0.02338
1556.54152,0.04069
1555.05173,0.02470
1553.56195,0.01631
1552.07216,0.01703
1550.58237,0.01299
1549.09258,0.03345
1547.60279,0.01809
1546.11300,0.01638
1544.62322,0.01698
1543.13343,0.00548
1541.64364,0.00615
1540.15385,0.01374
1538.66406,0.02137
1537.17427,0.02422
1535.68448,0.03240
1534.19470,0.02899
1532.70491,0.01373
1531.21512,0.01896
1529.72533,0.01713
1528.23554,0.03199
1526.74575,0.03274
1525.25597,0.02847
1523.76618,0.04745
1522.27639,0.03893
1520.78660,0.03296
1519.29681,0.03711
1517.80702,0.04988
1516.31724,0.04953
1514.82745,0.04190
1513.33766,0.04741
1511.84787,0.05295
1510.35808,0.05775
1508.86829,0.05097
1507.37850,0.05557
1505.88872,0.03167
1504.39893,0.04793
1502.90914,0.05008
1501.41935,0.07094
1499.92956,0.06733
1498.43977,0.06981
1496.94999,0.06347
1495.46020,0.09730
1493.97041,0.10540
1492.48062,0.12135
1490.99083,0.12269
1489.50104,0.14147
1488.01125,0.14904
1486.52147,0.15663
1485.03168,0.17675
1483.54189,0.20521
1482.05210,0.20872
1480.56231,0.23925
1479.07252,0.25214
1477.58274,0.26279
1476.09295,0.25704
1474.60316,0.24199
1473.11337,0.27517
1471.62358,0.28313
1470.13379,0.27800
1468.64401,0.30014
1467.15422,0.32585
1465.66443,0.34111
1464.17464,0.35639
1462.68485,0.39176
1461.19506,0.43953
1459.70527,0.47041
1458.21549,0.52857
1456.72570,0.58449
1455.23591,0.64422
1453.74612,0.65374
1452.25633,0.70948
1450.76654,0.72385
1449.27676,0.73066
1447.78697,0.71604
1446.29718,0.71432
1444.80739,0.68410
1443.31760,0.65390
1441.82781,0.61616
1440.33802,0.60040
1438.84824,0.54554
1437.35845,0.50938
1435.86866,0.53181
1434.37887,0.53105
1432.88908,0.55782
1431.39929,0.61643
1429.90951,0.70939
1428.41972,0.76224
1426.92993,0.83505
1425.44014,0.85740
1423.95035,0.88495
1422.46056,0.91253
1420.97078,0.97282
1419.48099,0.98038
1417.99120,0.96726
1416.50141,0.96350
1415.01162,0.96431
1413.52183,0.89926
1412.03204,0.85695
1410.54226,0.77226
1409.05247,0.71890
1407.56268,0.64789
1406.07289,0.61376
1404.58310,0.57397
1403.09331,0.53421
1401.60353,0.45850
1400.11374,0.42143
1398.62395,0.36647
1397.13416,0.32290
1395.64437,0.27808
1394.15458,0.25147
1392.66479,0.18701
1391.17501,0.17786
1389.68522,0.14375
1388.19543,0.13187
1386.70564,0.11447
1385.21585,0.09709
1383.72606,0.10548
1382.23628,0.08209
1380.74649,0.04231
1379.25670,0.03563
1377.76691,0.04135
1376.27712,0.01906
1374.78733,0.00615
1373.29755,0.02468
1371.80776,0.02329
1370.31797,0.02773
1368.82818,0.01983
1367.33839,0.01195
1365.84860,0.02707
1364.35881,0.04828
1362.86903,0.06546
1361.37924,0.08267
1359.88945,0.11077
1358.39966,0.13156
1356.90987,0.15288
1355.42008,0.19115
1353.93030,0.22918
1352.44051,0.26560
1350.95072,0.30204
1349.46093,0.38836
1347.97114,0.45704
1346.48135,0.54897
1344.99156,0.60810
1343.50178,0.64731
1342.01199,0.73704
1340.52220,0.81316
1339.03241,0.87769
1337.54262,0.89050
1336.05283,0.91393
1334.56305,0.93739
1333.07326,0.97627
1331.58347,0.99473
1330.09368,1.00614
1328.60389,1.02338
1327.11410,0.93791
1325.62432,0.89815
1324.13453,0.85564
1322.64474,0.83006
1321.15495,0.81310
1319.66516,0.79413
1318.17537,0.77520
1316.68558,0.70807
1315.19580,0.67454
1313.70601,0.58070
1312.21622,0.53838
1310.72643,0.51957
1309.23664,0.48411
1307.74685,0.46711
1306.25707,0.42792
1304.76728,0.40491
1303.27749,0.38193
1301.78770,0.33903
1300.29791,0.28756
1298.80812,0.23789
1297.31834,0.20415
1295.82855,0.18280
1294.33876,0.15668
1292.84897,0.13892
1291.35918,0.11310
1289.86939,0.11305
1288.37960,0.11303
1286.88982,0.09738
1285.40003,0.09792
1283.91024,0.09973
1282.42045,0.07760
1280.93066,0.06381
1279.44087,0.04955
1277.95109,0.06005
1276.46130,0.04508
1274.97151,0.04792
1273.48172,0.05080
1271.99193,0.05963
1270.50214,0.05233
1269.01235,0.04909
1267.52257,0.03679
1266.03278,0.04066
1264.54299,0.03422
1263.05320,0.03890
1261.56341,0.03162
1260.07362,0.02436
1258.58384,0.00665
1257.09405,0.01396
1255.60426,0.00615
1254.11447,0.02335
1252.62468,0.02845
1251.13489,0.01490
1249.64511,0.02309
1248.15532,0.01388
1246.66553,0.02224
1245.17574,0.03062
1243.68595,0.01391
1242.19616,0.01717
1240.70637,0.00985
1239.21659,0.00432
1237.72680,0.01788
1236.23701,0.02842
1234.74722,0.02966
1233.25743,0.01993
1231.76764,0.01023
1230.27786,0.03678
1228.78807,0.02776
1227.29828,0.02179
1225.80849,0.02620
1224.31870,0.00615
1222.82891,0.02412
1221.33912,0.02570
1219.84934,0.03262
1218.35955,0.03955
1216.86976,0.07630
1215.37997,0.07799
1213.89018,0.08878
1212.40039,0.08522
1210.91061,0.10465
1209.42082,0.10062
1207.93103,0.08741
1206.44124,0.07422
1204.95145,0.07380
1203.46166,0.06634
1201.97188,0.08188
1200.48209,0.07270
1198.99230,0.04739
1197.50251,0.05668
1196.01272,0.03900
1194.52293,0.04052
1193.03314,0.04206
1191.54336,0.04616
1190.05357,0.04952
1188.56378,0.03574
1187.07399,0.02678
1185.58420,0.03476
1184.09441,0.03140
1182.60463,0.03274
1181.11484,0.03410
1179.62505,0.04293
1178.13526,0.01847
1176.64547,0.00615
1175.15568,0.02138
1173.66589,0.04119
1172.17611,0.02669
1170.68632,0.01802
1169.19653,0.00937
1167.70674,0.03634
1166.21695,0.03330
1164.72716,0.04820
1163.23738,0.06894
1161.74759,0.05814
1160.25780,0.07186
1158.76801,0.07360
1157.27822,0.07538
1155.78843,0.09749
1154.29865,0.09136
1152.80886,0.09712
1151.31907,0.11502
1149.82928,0.11528
1148.33949,0.14029
1146.84970,0.13870
1145.35991,0.13714
1143.87013,0.15541
1142.38034,0.17320
1140.89055,0.16704
1139.40076,0.17352
1137.91097,0.17195
1136.42118,0.21282
1134.93140,0.22316
1133.44161,0.23353
1131.95182,0.23205
1130.46203,0.26468
1128.97224,0.24963
1127.48245,0.25025
1125.99266,0.26907
1124.50288,0.24601
1123.01309,0.23976
1121.52330,0.23353
1120.03351,0.20322
1118.54372,0.22696
1117.05393,0.23381
1115.56415,0.26239
1114.07436,0.26576
1112.58457,0.26056
1111.09478,0.25539
1109.60499,0.23510
1108.11520,0.25547
1106.62542,0.24356
1105.13563,0.25186
1103.64584,0.23596
1102.15605,0.22892
1100.66626,0.22556
1099.17647,0.22222
1097.68668,0.21348
1096.19690,0.21007
1094.70711,0.21653
1093.21732,0.20660
1091.72753,0.21185
1090.23774,0.20209
1088.74795,0.19237
1087.25817,0.19920
1085.76838,0.18662
1084.27859,0.20511
1082.78880,0.19611
1081.29901,0.19496
1079.80922,0.21757
1078.31943,0.22366
1076.82965,0.22978
1075.33986,0.21131
1073.85007,0.22871
1072.36028,0.24058
1070.87049,0.27520
1069.38070,0.31009
1067.89092,0.32330
1066.40113,0.33653
1064.91134,0.36468
1063.42155,0.46859
1061.93176,0.58590
1060.44197,0.69415
1058.95219,0.79838
1057.46240,0.83688
1055.97261,0.87540
1054.48282,0.97314
1052.99303,1.01890
1051.50324,1.06015
1050.01345,1.06330
1048.52367,1.02633
1047.03388,1.00000
1045.54409,0.97368
1044.05430,0.92670
1042.56451,0.86459
1041.07472,0.77599
1039.58494,0.70282
1038.09515,0.64205
1036.60536,0.59607
1035.11557,0.55011
1033.62578,0.48208
1032.13599,0.43024
1030.64620,0.36808
1029.15642,0.34910
1027.66663,0.31525
1026.17684,0.28143
1024.68705,0.24208
1023.19726,0.20604
1021.70747,0.19880
1020.21769,0.13730
1018.72790,0.15258
1017.23811,0.13872
1015.74832,0.12489
1014.25853,0.11474
1012.76874,0.10815
1011.27896,0.11117
1009.78917,0.09352
1008.29938,0.08928
1006.80959,0.07408
1005.31980,0.05890
1003.83001,0.02746
1002.34022,0.01170
1000.85044,0.03560
999.36065,0.05498
997.87086,0.05293
996.38107,0.05089
994.89128,0.08675
993.40149,0.11027
991.91171,0.11942
990.42192,0.13061
988.93213,0.16960
987.44234,0.17024
985.95255,0.17091
984.46276,0.16099
982.97297,0.15640
981.48319,0.12256
979.99340,0.09934
978.50361,0.08132
977.01382,0.06332
975.52403,0.04699
974.03424,0.04608
972.54446,0.02702
971.05467,0.01531
969.56488,0.00615
968.07509,0.00614
966.58530,0.00588
965.09551,0.02333
963.60573,0.01051
962.11594,0.01337
960.62615,0.00641
959.13636,0.01450
957.64657,0.02260
956.15678,0.02455
954.66699,0.02046
953.17721,0.02044
951.68742,0.04695
950.19763,0.04129
948.70784,0.03566
947.21805,0.05316
945.72826,0.06992
944.23848,0.08620
942.74869,0.10603
941.25890,0.11302
939.76911,0.11915
938.27932,0.12530
936.78953,0.14246
935.29974,0.16091
933.80996,0.18821
932.32017,0.17995
930.83038,0.18521
929.34059,0.19050
927.85080,0.22624
926.36101,0.25745
924.87123,0.31873
923.38144,0.36791
921.89165,0.40072
920.40186,0.43354
918.91207,0.51208
917.42228,0.67648
915.93250,0.82247
914.44271,1.02630
912.95292,1.14205
911.46313,1.25782
909.97334,1.44077
908.48355,1.66438
906.99376,1.79866
905.50398,1.93851
904.01419,1.96883
902.52440,1.99917
901.03461,2.00000
899.54482,1.87564
898.05503,1.75788
896.56525,1.57122
895.07546,1.44983
893.58567,1.32848
892.09588,1.09140
890.60609,0.87606
889.11630,0.64282
887.62651,0.48913
886.13673,0.43643
884.64694,0.38376
883.15715,0.27911
881.66736,0.19316
880.17757,0.12087
878.68778,0.11084
877.19800,0.10082
875.70821,0.08718
874.21842,0.08365
872.72863,0.06475
871.23884,0.03931
869.74905,0.03106
868.25927,0.02283
866.76948,0.00958
865.27969,0.03422
863.78990,0.04298
862.30011,0.06060
860.81032,0.06966
859.32053,0.07875
857.83075,0.10402
856.34096,0.10154
854.85117,0.12989
853.36138,0.14160
851.87159,0.14740
850.38180,0.15322
848.89202,0.18697
847.40223,0.19625
845.91244,0.22297
844.42265,0.22814
842.93286,0.23333
841.44307,0.24826
839.95329,0.28770
838.46350,0.28602
836.97371,0.28513
835.48392,0.30508
833.99413,0.32506
832.50434,0.31237
831.01455,0.27269
829.52477,0.23582
828.03498,0.21790
826.54519,0.19849
825.05540,0.17911
823.56561,0.18247
822.07582,0.15506
820.58604,0.17210
819.09625,0.15748
817.60646,0.14289
816.11667,0.14234
814.62688,0.13322
813.13709,0.16276
811.64730,0.16480
810.15752,0.17128
808.66773,0.17779
807.17794,0.15516
805.68815,0.16260
804.19836,0.14432
802.70857,0.14941
801.21879,0.15453
799.72900,0.15752
798.23921,0.13807
796.74942,0.12975
795.25963,0.14014
793.76984,0.15055
792.28006,0.15720
790.79027,0.18533
789.30048,0.18698
787.81069,0.21920
786.32090,0.24021
784.83111,0.26125
783.34132,0.28597
781.85154,0.30339
780.36175,0.34911
778.87196,0.37201
777.38217,0.39494
775.89238,0.39933
774.40259,0.42041
772.91281,0.41046
771.42302,0.40357
769.93323,0.39670
768.44344,0.36260
766.95365,0.29721
765.46386,0.24876
763.97407,0.19605
762.48429,0.17138
760.99450,0.14673
759.50471,0.14634
758.01492,0.14118
756.52513,0.11409
755.03534,0.12425
753.54556,0.13444
752.05577,0.11196
750.56598,0.07739
749.07619,0.06177
747.58640,0.05274
746.09661,0.04374
744.60683,0.04840
743.11704,0.05030
741.62725,0.03783
740.13746,0.03499
738.64767,0.03216
737.15788,0.03038
735.66809,0.00615
734.17831,0.01990
732.68852,0.01273
731.19873,0.00558
729.70894,0.02332
728.21915,0.02039
726.72936,0.00637
725.23958,0.02499
723.74979,0.02407
722.26000,0.02317
720.77021,0.01410
719.28042,0.00454
717.79063,0.01316
716.30084,0.01625
714.81106,0.01936
713.32127,0.02023
711.83148,0.02465
710.34169,0.02103
708.85190,0.02853
707.36211,0.03606
705.87233,0.02417
704.38254,0.02316
702.89275,0.04642
701.40296,0.03776
699.91317,0.02913
698.42338,0.06179
696.93360,0.08539
695.44381,0.10321
693.95402,0.10806
692.46423,0.11293
690.97444,0.11870
689.48465,0.17146
687.99486,0.17123
686.50508,0.17316
685.01529,0.17512
683.52550,0.23101
682.03571,0.23516
680.54592,0.24717
679.05613,0.24746
677.56635,0.24777
676.07656,0.25178
674.58677,0.25429
673.09698,0.23233
671.60719,0.22467
670.11740,0.21703
668.62761,0.18127
667.13783,0.16900
665.64804,0.15816
664.15825,0.14733
662.66846,0.13666
661.17867,0.09243
659.68888,0.07676
658.19910,0.06704
656.70931,0.05735
655.21952,0.04326
653.72973,0.03450
652.23994,0.04445
650.75015,0.04659
649.26037,0.04876
647.77058,0.04868
646.28079,0.04080
644.79100,0.04026
643.30121,0.04455
641.81142,0.04886
640.32163,0.05546
638.83185,0.05780
637.34206,0.03517
635.85227,0.02065
634.36248,0.00615
632.87269,0.02377
631.38290,0.02679
629.89312,0.02755
628.40333,0.03061
626.91354,0.03370
625.42375,0.02595
623.93396,0.04297
622.44417,0.03868
620.95438,0.03441
619.46460,0.05226
617.97481,0.06711
616.48502,0.11126
614.99523,0.10621
613.50544,0.10118
612.01565,0.12420
610.52587,0.16491
609.03608,0.20187
607.54629,0.21436
606.05650,0.22687
604.56671,0.26213
603.07692,0.32417
601.58714,0.35039
600.09735,0.37663
598.60756,0.41578
597.11777,0.45242
595.62798,0.44566
594.13819,0.42429
592.64840,0.40295
591.15862,0.39324
589.66883,0.34468
588.17904,0.29690
586.68925,0.27186
585.19946,0.24685
583.70967,0.18451
582.21989,0.12496
580.73010,0.10545
579.24031,0.08596
577.75052,0.08859
576.26073,0.08014
574.77094,0.07776
573.28115,0.06873
571.79137,0.05971
570.30158,0.07736
568.81179,0.07129
567.32200,0.07674
565.83221,0.08222
564.34242,0.13227
562.85264,0.16291
561.36285,0.17792
559.87306,0.17933
558.38327,0.18076
556.89348,0.21301
555.40369,0.19934
553.91391,0.21927
552.42412,0.23923
550.93433,0.25038
549.44454,0.22418
547.95475,0.25406
546.46496,0.26426
544.97517,0.27450
543.48539,0.26506
541.99560,0.30311
540.50581,0.31632
539.01602,0.32956
537.52623,0.36313
536.03644,0.42678
534.54666,0.44526
533.05687,0.46200
531.56708,0.47876
530.07729,0.54452
528.58750,0.59769
527.09771,0.60304
525.60792,0.60841
524.11814,0.66038
522.62835,0.73031
521.13856,0.78536
519.64877,0.80560
518.15898,0.82586
516.66919,0.88831
515.17941,0.84778
513.68962,0.85247
512.19983,0.85718
510.71004,0.84904
509.22025,0.77706
507.73046,0.73766
506.24068,0.69426
504.75089,0.65087
503.26110,0.48205
501.77131,0.37964
500.28152,0.34517
498.79173,0.31072
497.30194,0.24297
495.81216,0.21084
494.32237,0.19098
492.83258,0.17114
491.34279,0.14211
489.85300,0.13532
488.36321,0.11568
486.87343,0.10301
485.38364,0.09036
483.89385,0.07888
482.40406,0.10578
480.91427,0.11681
479.42448,0.12787
477.93469,0.12910
476.44491,0.18614
474.95512,0.20257
473.46533,0.21902
471.97554,0.21657
470.48575,0.22297
468.99596,0.22258
467.50618,0.20505
466.01639,0.18755
464.52660,0.14558
463.03681,0.12181
461.54702,0.09971
460.05723,0.07763
458.56745,0.05696
457.07766,0.03481
455.58787,0.03363
454.09808,0.03248
452.60829,0.05331
451.11850,0.02999
449.62871,0.03181
448.13893,0.03366
446.64914,0.01697
445.15935,0.02278
443.66956,0.00615
442.17977,0.01063
440.68998,0.01515
439.20020,0.04329
437.71041,0.03813
436.22062,0.03363
434.73083,0.02915
433.24104,0.00615
431.75125,0.02469
430.26146,0.03052
428.77168,0.03637
427.28189,0.04717
425.79210,0.04890
424.30231,0.05381
422.81252,0.05875
421.32273,0.03480
419.83295,0.03159
418.34316,0.02031
416.85337,0.00907
415.36358,0.01526
413.87379,0.02956
412.38400,0.03908
410.89422,0.04863
409.40443,0.03953
407.91464,0.03852
406.42485,0.02341
404.93506,0.03293
403.44527,0.04248
401.95548,0.05141
400.46570,0.01923
398.97591,0.01926
397.48612,0.01931
395.99633,0.02935
394.50654,0.04649
393.01675,0.03084
391.52697,0.01521
390.03718,0.01417
388.54739,0.02906
387.05760,0.01759
385.56781,0.00615
384.07802,0.00798
382.58824,0.00757
381.09845,0.01892
379.60866,0.03029
378.11887,0.02743
376.62908,0.00187
375.13929,0.00136
373.64950,0.00088
372.15972,0.03716
370.66993,0.02676
369.18014,0.02676
367.69035,0.02680
366.20056,0.01271
364.71077,0.04132
363.22099,0.04887
361.73120,0.05645
360.24141,0.07251
358.75162,0.06385
357.26183,0.06569
355.77204,0.06756
354.28225,0.06251
352.79247,0.07339
351.30268,0.07078
349.81289,0.06821
348.32310,0.08900
346.83331,0.06893
345.34352,0.07349
343.85374,0.07808
342.36395,0.10553
340.87416,0.06132
339.38437,0.04175
337.89458,0.02220
336.40479,0.01290
334.91501,0.00615
333.42522,0.00841
331.93543,0.01069
330.44564,0.03901
328.95585,0.01736
327.46606,0.02313
325.97627,0.02892
324.48649,0.03506
322.99670,0.05714
321.50691,0.06093
320.01712,0.06475
318.52733,0.07554
317.03754,0.06691
315.54776,0.07232
314.05797,0.07775
312.56818,0.09368
311.07839,0.07934
309.58860,0.07160
308.09881,0.06387
306.60902,0.04885
305.11924,0.02855
303.62945,0.02671
302.13966,0.00998
300.64987,0.00615
299.16008,0.00615
