1778.52000,0.00728
1777.03021,0.00185
1775.54042,0.00724
1774.05063,0.00990
1772.56085,0.00831
1771.07106,0.01454
1769.58127,0.02405
1768.09148,0.01249
1766.60169,0.01653
1765.11190,0.00703
1763.62212,0.00685
1762.13233,0.00493
1760.64254,0.00179
1759.15275,0.01549
1757.66296,0.00712
1756.17317,0.00807
1754.68339,0.01130
1753.19360,0.01531
1751.70381,0.01633
1750.21402,0.00809
1748.72423,0.01292
1747.23444,0.00724
1745.74465,0.00685
1744.25487,0.01151
1742.76508,0.00691
1741.27529,0.01890
1739.78550,0.00179
1738.29571,0.02408
1736.80592,0.01652
1735.31614,0.02054
1733.82635,0.02056
1732.33656,0.01759
1730.84677,0.01340
1729.35698,0.01425
1727.86719,0.00960
1726.37740,0.01753
1724.88762,0.01142
1723.39783,0.00886
1721.90804,0.00908
1720.41825,0.00179
1718.92846,0.01160
1717.43867,0.00586
1715.94889,0.00743
1714.45910,0.00878
1712.96931,0.02597
1711.47952,0.00853
1709.98973,0.00794
1708.49994,0.00009
1707.01016,0.00191
1705.52037,0.00374
1704.03058,0.01188
1702.54079,0.00599
1701.05100,0.01593
1699.56121,0.01837
1698.07142,0.00728
1696.58164,0.01127
1695.09185,0.02659
1693.60206,0.01808
1692.11227,0.00708
1690.62248,0.01268
1689.13269,0.01756
1687.64291,0.02220
1686.15312,0.02311
1684.66333,0.02303
1683.17354,0.03604
1681.68375,0.02070
1680.19396,0.02873
1678.70417,0.02700
1677.21439,0.03383
1675.72460,0.05097
1674.23481,0.04555
1672.74502,0.04140
1671.25523,0.04155
1669.76544,0.05654
1668.27566,0.05849
1666.78587,0.06198
1665.29608,0.05445
1663.80629,0.06903
1662.31650,0.07334
1660.82671,0.07266
1659.33693,0.07401
1657.84714,0.07890
1656.35735,0.07076
1654.86756,0.07822
1653.37777,0.08042
1651.88798,0.07160
1650.39819,0.07084
1648.90841,0.07714
1647.41862,0.08522
1645.92883,0.08315
1644.43904,0.08111
1642.94925,0.08349
1641.45946,0.08212
1639.96968,0.07852
1638.47989,0.07620
1636.99010,0.06839
1635.50031,0.07315
1634.01052,0.06689
1632.52073,0.08099
1631.03094,0.08231
1629.54116,0.08416
1628.05137,0.09457
1626.56158,0.09044
1625.07179,0.10341
1623.58200,0.10862
1622.09221,0.09301
1620.60243,0.08195
1619.11264,0.08674
1617.62285,0.08803
1616.13306,0.09161
1614.64327,0.07839
1613.15348,0.08528
1611.66370,0.08994
1610.17391,0.09361
1608.68412,0.09706
1607.19433,0.09903
1605.70454,0.09651
1604.21475,0.09727
1602.72496,0.09806
1601.23518,0.09335
1599.74539,0.08766
1598.25560,0.08073
1596.76581,0.06631
1595.27602,0.07952
1593.78623,0.07318
1592.29645,0.07313
1590.80666,0.09295
1589.31687,0.08216
1587.82708,0.07466
1586.33729,0.07472
1584.84750,0.07329
1583.35771,0.07013
1581.86793,0.08232
1580.37814,0.07896
1578.88835,0.07387
1577.39856,0.07031
1575.90877,0.03739
1574.41898,0.05824
1572.92920,0.06957
1571.43941,0.05531
1569.94962,0.05451
1568.45983,0.05373
1566.97004,0.05135
1565.48025,0.05401
1563.99047,0.03159
1562.50068,0.03832
1561.01089,0.03102
1559.52110,0.04106
1558.03131,0.04134
1556.54152,0.03712
1555.05173,0.03218
1553.56195,0.02776
1552.07216,0.01985
1550.58237,0.02402
1549.09258,0.02545
1547.60279,0.00682
1546.11300,0.00403
1544.62322,0.00704
1543.13343,0.00179
1541.64364,0.01544
1540.15385,0.01192
1538.66406,0.00843
1537.17427,0.03170
1535.68448,0.01005
1534.19470,0.01529
1532.70491,0.01027
1531.21512,0.01983
1529.72533,0.00405
1528.23554,0.01115
1526.74575,0.02229
1525.25597,0.03371
1523.76618,0.02733
1522.27639,0.01770
1520.78660,0.02292
1519.29681,0.03845
1517.80702,0.03066
1516.31724,0.03871
1514.82745,0.05532
1513.33766,0.05777
1511.84787,0.06025
1510.35808,0.06865
1508.86829,0.04017
1507.37850,0.05038
1505.88872,0.03500
1504.39893,0.03923
1502.90914,0.05680
1501.41935,0.07137
1499.92956,0.08472
1498.43977,0.07901
1496.94999,0.07031
1495.46020,0.08448
1493.97041,0.09014
1492.48062,0.12144
1490.99083,0.09853
1489.50104,0.11908
1488.01125,0.12120
1486.52147,0.12334
1485.03168,0.14346
1483.54189,0.18068
1482.05210,0.19734
1480.56231,0.20498
1479.07252,0.22571
1477.58274,0.22336
1476.09295,0.20873
1474.60316,0.22475
1473.11337,0.24382
1471.62358,0.24483
1470.13379,0.26947
1468.64401,0.26300
1467.15422,0.31154
1465.66443,0.32157
1464.17464,0.33162
1462.68485,0.38174
1461.19506,0.40101
1459.70527,0.46197
1458.21549,0.49886
1456.72570,0.55235
1455.23591,0.59657
1453.74612,0.62224
1452.25633,0.65722
1450.76654,0.70202
1449.27676,0.72098
1447.78697,0.69803
1446.29718,0.68239
1444.80739,0.65899
1443.31760,0.63562
1441.82781,0.59344
1440.33802,0.56107
1438.84824,0.53150
1437.35845,0.49717
1435.86866,0.49954
1434.37887,0.52226
1432.88908,0.54953
1431.39929,0.60218
1429.90951,0.69403
1428.41972,0.77134
1426.92993,0.81653
1425.44014,0.87305
1423.95035,0.87938
1422.46056,0.88573
1420.97078,0.93077
1419.48099,0.91734
1417.99120,0.94410
1416.50141,0.96009
1415.01162,0.92212
1413.52183,0.86987
1412.03204,0.82793
1410.54226,0.74861
1409.05247,0.68513
1407.56268,0.63423
1406.07289,0.59942
1404.58310,0.56427
1403.09331,0.52913
1401.60353,0.45046
1400.11374,0.42304
1398.62395,0.37756
1397.13416,0.30248
1395.64437,0.27186
1394.15458,0.24554
1392.66479,0.19840
1391.17501,0.17113
1389.68522,0.14011
1388.19543,0.13623
1386.70564,0.12347
1385.21585,0.11073
1383.72606,0.09337
1382.23628,0.07252
1380.74649,0.03713
1379.25670,0.02236
1377.76691,0.01514
1376.27712,0.01322
1374.78733,0.00179
1373.29755,0.00731
1371.80776,0.00383
1370.31797,0.01995
1368.82818,0.01462
1367.33839,0.00932
1365.84860,0.02401
1364.35881,0.04676
1362.86903,0.05598
1361.37924,0.08304
1359.88945,0.11063
1358.39966,0.11214
1356.90987,0.13602
1355.42008,0.18603
1353.93030,0.24988
1352.44051,0.27258
1350.95072,0.29530
1349.46093,0.36851
1347.97114,0.44501
1346.48135,0.53384
1344.99156,0.58805
1343.50178,0.64303
1342.01199,0.71487
1340.52220,0.79300
1339.03241,0.85609
1337.54262,0.90013
1336.05283,0.91004
1334.56305,0.91998
1333.07326,0.95806
1331.58347,0.97759
1330.09368,0.98609
1328.60389,0.97328
1327.11410,0.92308
1325.62432,0.89048
1324.13453,0.84083
1322.64474,0.82084
1321.15495,0.77375
1319.66516,0.75682
1318.17537,0.73991
1316.68558,0.66954
1315.19580,0.62004
1313.70601,0.54245
1312.21622,0.53217
1310.72643,0.50710
1309.23664,0.47552
1307.74685,0.42866
1306.25707,0.40266
1304.76728,0.37781
1303.27749,0.35299
1301.78770,0.32205
1300.29791,0.27003
1298.80812,0.21930
1297.31834,0.18768
1295.82855,0.16562
1294.33876,0.14208
1292.84897,0.12283
1291.35918,0.10034
1289.86939,0.10223
1288.37960,0.10415
1286.88982,0.08576
1285.40003,0.09199
1283.91024,0.08043
1282.42045,0.06637
1280.93066,0.06114
1279.44087,0.05969
1277.95109,0.04496
1276.46130,0.04607
1274.97151,0.04633
1273.48172,0.04661
1271.99193,0.03273
1270.50214,0.04374
1269.01235,0.03418
1267.52257,0.01886
1266.03278,0.02291
1264.54299,0.02422
1263.05320,0.03661
1261.56341,0.03332
1260.07362,0.03006
1258.58384,0.01540
1257.09405,0.00654
1255.60426,0.01930
1254.11447,0.02380
1252.62468,0.01803
1251.13489,0.00902
1249.64511,0.00179
1248.15532,0.01663
1246.66553,0.02158
1245.17574,0.02656
1243.68595,0.01938
1242.19616,0.02277
1240.70637,0.01062
1239.21659,0.00000
1237.72680,0.02431
1236.23701,0.04462
1234.74722,0.03558
1233.25743,0.02368
1231.76764,0.01181
1230.27786,0.03322
1228.78807,0.03056
1227.29828,0.02617
1225.80849,0.01954
1224.31870,0.01745
1222.82891,0.00209
1221.33912,0.01762
1219.84934,0.02037
1218.35955,0.02315
1216.86976,0.04478
1215.37997,0.06669
1213.89018,0.07632
1212.40039,0.09049
1210.91061,0.09038
1209.42082,0.07222
1207.93103,0.07090
1206.44124,0.06961
1204.95145,0.05001
1203.46166,0.03847
1201.97188,0.05935
1200.48209,0.04535
1198.99230,0.05673
1197.50251,0.04429
1196.01272,0.03689
1194.52293,0.02488
1193.03314,0.01288
1191.54336,0.02063
1190.05357,0.01358
1188.56378,0.00179
1187.07399,0.01748
1185.58420,0.02592
1184.09441,0.00851
1182.60463,0.01386
1181.11484,0.01923
1179.62505,0.03228
1178.13526,0.01473
1176.64547,0.00247
1175.15568,0.01708
1173.66589,0.01790
1172.17611,0.00293
1170.68632,0.00606
1169.19653,0.00921
1167.70674,0.01516
1166.21695,0.00179
1164.72716,0.02906
1163.23738,0.03375
1161.74759,0.05228
1160.25780,0.05501
1158.76801,0.05790
1157.27822,0.06081
1155.78843,0.07542
1154.29865,0.06921
1152.80886,0.08688
1151.31907,0.08801
1149.82928,0.08815
1148.33949,0.11795
1146.84970,0.11991
1145.35991,0.12188
1143.87013,0.14423
1142.38034,0.15956
1140.89055,0.16287
1139.40076,0.15817
1137.91097,0.16052
1136.42118,0.20031
1134.93140,0.21677
1133.44161,0.23326
1131.95182,0.22366
1130.46203,0.25050
1128.97224,0.24948
1127.48245,0.24649
1125.99266,0.25080
1124.50288,0.24910
1123.01309,0.24229
1121.52330,0.23550
1120.03351,0.21380
1118.54372,0.23907
1117.05393,0.24503
1115.56415,0.26283
1114.07436,0.27110
1112.58457,0.25216
1111.09478,0.23324
1109.60499,0.24334
1108.11520,0.25825
1106.62542,0.22898
1105.13563,0.23640
1103.64584,0.22451
1102.15605,0.21917
1100.66626,0.20394
1099.17647,0.18874
1097.68668,0.20180
1096.19690,0.19983
1094.70711,0.22927
1093.21732,0.20274
1091.72753,0.19557
1090.23774,0.19595
1088.74795,0.19636
1087.25817,0.21714
1085.76838,0.17868
1084.27859,0.19900
1082.78880,0.17088
1081.29901,0.19301
1079.80922,0.19106
1078.31943,0.19403
1076.82965,0.19702
1075.33986,0.19565
1073.85007,0.21162
1072.36028,0.23817
1070.87049,0.22959
1069.38070,0.27150
1067.89092,0.28280
1066.40113,0.29413
1064.91134,0.32256
1063.42155,0.40776
1061.93176,0.49323
1060.44197,0.57396
1058.95219,0.71121
1057.46240,0.74365
1055.97261,0.77612
1054.48282,0.83109
1052.99303,0.90466
1051.50324,0.93582
1050.01345,0.93587
1048.52367,0.92389
1047.03388,0.88796
1045.54409,0.85206
1044.05430,0.84568
1042.56451,0.80392
1041.07472,0.69515
1039.58494,0.66148
1038.09515,0.59670
1036.60536,0.56810
1035.11557,0.53952
1033.62578,0.48536
1032.13599,0.41867
1030.64620,0.36682
1029.15642,0.32855
1027.66663,0.29847
1026.17684,0.26841
1024.68705,0.23046
1023.19726,0.21941
1021.70747,0.18353
1020.21769,0.15018
1018.72790,0.12715
1017.23811,0.12323
1015.74832,0.11933
1014.25853,0.10240
1012.76874,0.12266
1011.27896,0.11783
1009.78917,0.11152
1008.29938,0.08942
1006.80959,0.06897
1005.31980,0.04855
1003.83001,0.05113
1002.34022,0.04520
1000.85044,0.03753
999.36065,0.03516
997.87086,0.04098
996.38107,0.04682
994.89128,0.05457
993.40149,0.05104
991.91171,0.08872
990.42192,0.11814
988.93213,0.13001
987.44234,0.12382
985.95255,0.11766
984.46276,0.11855
982.97297,0.10566
981.48319,0.09103
979.99340,0.07266
978.50361,0.07240
977.01382,0.07216
975.52403,0.05839
974.03424,0.03384
972.54446,0.01912
971.05467,0.00492
969.56488,0.00179
968.07509,0.00871
966.58530,0.01566
965.09551,0.00744
963.60573,0.03239
962.11594,0.01242
960.62615,0.01257
959.13636,0.01713
957.64657,0.02171
956.15678,0.01917
954.66699,0.03699
953.17721,0.04730
951.68742,0.03378
950.19763,0.04263
948.70784,0.05151
947.21805,0.03631
945.72826,0.07010
944.23848,0.10466
942.74869,0.09430
941.25890,0.13042
939.76911,0.13920
938.27932,0.14800
936.78953,0.19976
935.29974,0.19003
933.80996,0.18208
932.32017,0.18646
930.83038,0.19125
929.34059,0.19605
927.85080,0.21758
926.36101,0.25973
924.87123,0.30189
923.38144,0.37648
921.89165,0.40463
920.40186,0.43281
918.91207,0.49868
917.42228,0.61505
915.93250,0.77312
914.44271,0.95205
912.95292,1.06774
911.46313,1.18344
909.97334,1.38204
908.48355,1.59095
906.99376,1.78934
905.50398,1.92624
904.01419,1.96311
902.52440,2.00000
901.03461,1.99938
899.54482,1.93350
898.05503,1.81893
896.56525,1.65467
895.07546,1.54116
893.58567,1.42767
892.09588,1.16858
890.60609,0.90649
889.11630,0.68411
887.62651,0.53456
886.13673,0.46326
884.64694,0.39197
883.15715,0.27489
881.66736,0.16838
880.17757,0.12467
878.68778,0.11086
877.19800,0.09708
875.70821,0.08709
874.21842,0.05176
872.72863,0.05788
871.23884,0.03541
869.74905,0.02916
868.25927,0.02293
866.76948,0.00179
865.27969,0.00691
863.78990,0.02788
862.30011,0.03933
860.81032,0.04064
859.32053,0.04197
857.83075,0.03642
856.34096,0.06780
854.85117,0.10222
853.36138,0.11809
851.87159,0.12608
850.38180,0.13408
848.89202,0.14325
847.40223,0.14063
845.91244,0.17470
844.42265,0.17352
842.93286,0.17236
841.44307,0.19646
839.95329,0.24067
838.46350,0.25729
836.97371,0.22548
835.48392,0.24578
833.99413,0.26612
832.50434,0.24442
831.01455,0.23329
829.52477,0.18151
828.03498,0.14356
826.54519,0.14042
825.05540,0.13730
823.56561,0.15065
822.07582,0.14318
820.58604,0.11666
819.09625,0.10309
817.60646,0.08955
816.11667,0.09976
814.62688,0.12607
813.13709,0.12578
811.64730,0.13155
810.15752,0.13157
808.66773,0.13161
807.17794,0.11987
805.68815,0.12071
804.19836,0.12183
802.70857,0.12712
801.21879,0.13243
799.72900,0.11931
798.23921,0.11350
796.74942,0.11776
795.25963,0.11250
793.76984,0.10726
792.28006,0.11762
790.79027,0.14558
789.30048,0.15096
787.81069,0.16717
786.32090,0.18064
784.83111,0.19413
783.34132,0.23276
781.85154,0.26438
780.36175,0.30607
778.87196,0.31929
777.38217,0.33253
775.89238,0.33914
774.40259,0.35582
772.91281,0.38709
771.42302,0.37859
769.93323,0.37011
768.44344,0.32713
766.95365,0.26032
765.46386,0.20609
763.97407,0.17248
762.48429,0.14994
760.99450,0.12742
759.50471,0.12376
758.01492,0.12440
756.52513,0.14213
755.03534,0.12724
753.54556,0.11238
752.05577,0.09002
750.56598,0.06340
749.07619,0.05414
747.58640,0.05018
746.09661,0.04624
744.60683,0.03630
743.11704,0.05300
741.62725,0.01398
740.13746,0.02358
738.64767,0.03320
737.15788,0.02639
735.66809,0.01359
734.17831,0.02065
732.68852,0.01542
731.19873,0.01023
729.70894,0.00179
728.21915,0.01859
726.72936,0.01834
725.23958,0.02866
723.74979,0.02544
722.26000,0.02226
720.77021,0.01784
719.28042,0.01244
717.79063,0.00179
716.30084,0.01189
714.81106,0.02202
713.32127,0.03557
711.83148,0.05090
710.34169,0.03461
708.85190,0.02927
707.36211,0.02396
705.87233,0.03662
704.38254,0.02144
702.89275,0.04922
701.40296,0.04175
699.91317,0.03430
698.42338,0.08550
696.93360,0.12468
695.44381,0.11894
693.95402,0.13155
692.46423,0.14419
690.97444,0.13902
689.48465,0.17431
687.99486,0.18752
686.50508,0.18845
685.01529,0.18941
683.52550,0.23409
682.03571,0.25468
680.54592,0.27907
679.05613,0.28414
677.56635,0.28924
676.07656,0.31044
674.58677,0.27642
673.09698,0.25498
671.60719,0.25102
670.11740,0.24708
668.62761,0.21843
667.13783,0.20261
665.64804,0.18682
664.15825,0.17105
662.66846,0.13949
661.17867,0.09892
659.68888,0.06414
658.19910,0.06530
656.70931,0.06648
655.21952,0.03956
653.72973,0.04832
652.23994,0.03652
650.75015,0.06040
649.26037,0.08430
647.77058,0.06881
646.28079,0.06238
644.79100,0.06049
643.30121,0.06416
641.81142,0.06784
640.32163,0.06628
638.83185,0.05546
637.34206,0.01403
635.85227,0.00789
634.36248,0.00179
632.87269,0.03586
631.38290,0.03078
629.89312,0.02021
628.40333,0.02886
626.91354,0.03755
625.42375,0.04814
623.93396,0.03540
622.44417,0.04052
620.95438,0.04566
619.46460,0.06262
617.97481,0.06706
616.48502,0.09939
614.99523,0.09371
613.50544,0.08805
612.01565,0.13402
610.52587,0.18704
609.03608,0.21272
607.54629,0.22411
606.05650,0.23553
604.56671,0.25676
603.07692,0.33928
601.58714,0.37086
600.09735,0.40246
598.60756,0.42906
597.11777,0.44188
595.62798,0.44694
594.13819,0.45002
592.64840,0.45312
591.15862,0.38494
589.66883,0.36122
588.17904,0.30213
586.68925,0.27081
585.19946,0.23951
583.70967,0.18651
582.21989,0.12350
580.73010,0.10960
579.24031,0.09573
577.75052,0.08753
576.26073,0.08864
574.77094,0.08150
573.28115,0.07990
571.79137,0.07833
570.30158,0.05744
568.81179,0.07425
567.32200,0.07853
565.83221,0.08283
564.34242,0.11678
562.85264,0.12992
561.36285,0.16016
559.87306,0.15565
558.38327,0.15116
556.89348,0.15486
555.40369,0.18168
553.91391,0.20388
552.42412,0.22611
550.93433,0.23468
549.44454,0.20736
547.95475,0.20895
546.46496,0.21094
544.97517,0.21295
543.48539,0.24248
541.99560,0.29464
540.50581,0.29723
539.01602,0.29984
537.52623,0.34956
536.03644,0.38524
534.54666,0.45309
533.05687,0.47250
531.56708,0.49193
530.07729,0.56839
528.58750,0.60746
527.09771,0.61781
525.60792,0.62818
524.11814,0.67762
522.62835,0.77027
521.13856,0.83407
519.64877,0.84981
518.15898,0.86558
516.66919,0.89405
515.17941,0.89468
513.68962,0.88579
512.19983,0.87692
510.71004,0.85126
509.22025,0.80277
507.73046,0.78645
506.24068,0.74303
504.75089,0.69964
503.26110,0.47775
501.77131,0.40528
500.28152,0.35254
498.79173,0.29984
497.30194,0.25556
495.81216,0.20027
494.32237,0.17739
492.83258,0.15453
491.34279,0.12241
489.85300,0.12597
488.36321,0.14211
486.87343,0.11584
485.38364,0.08959
483.89385,0.07542
482.40406,0.10572
480.91427,0.10529
479.42448,0.10488
477.93469,0.13148
476.44491,0.15661
474.95512,0.17033
473.46533,0.18408
471.97554,0.19748
470.48575,0.16495
468.99596,0.19975
467.50618,0.19301
466.01639,0.18629
464.52660,0.11997
463.03681,0.09886
461.54702,0.08657
460.05723,0.07431
458.56745,0.03721
457.07766,0.04006
455.58787,0.02962
454.09808,0.01922
452.60829,0.06558
451.11850,0.04944
449.62871,0.04489
448.13893,0.04035
446.64914,0.01977
445.15935,0.01479
443.66956,0.00179
442.17977,0.00915
440.68998,0.01654
439.20020,0.04204
437.71041,0.04119
436.22062,0.04012
434.73083,0.03907
433.24104,0.00842
431.75125,0.03479
430.26146,0.04173
428.77168,0.04869
427.28189,0.07112
425.79210,0.07097
424.30231,0.06633
422.81252,0.06172
421.32273,0.06265
419.83295,0.05206
418.34316,0.04877
416.85337,0.04551
415.36358,0.01390
413.87379,0.02073
412.38400,0.03098
410.89422,0.04125
409.40443,0.06197
407.91464,0.05836
406.42485,0.05050
404.93506,0.05409
403.44527,0.05771
401.95548,0.05670
400.46570,0.03087
398.97591,0.03406
397.48612,0.03727
395.99633,0.03611
394.50654,0.04478
393.01675,0.04442
391.52697,0.04410
390.03718,0.04229
388.54739,0.03799
387.05760,0.04302
385.56781,0.04808
384.07802,0.02730
382.58824,0.05324
381.09845,0.06415
379.60866,0.07508
378.11887,0.05490
376.62908,0.03600
375.13929,0.01888
373.64950,0.00179
372.15972,0.04262
370.66993,0.05385
369.18014,0.04422
367.69035,0.03461
366.20056,0.02955
364.71077,0.03807
363.22099,0.04611
361.73120,0.05418
360.24141,0.07909
358.75162,0.08897
357.26183,0.08631
355.77204,0.08368
354.28225,0.07229
352.79247,0.04786
351.30268,0.05887
349.81289,0.06989
348.32310,0.05885
346.83331,0.04859
345.34352,0.04789
343.85374,0.04721
342.36395,0.07544
340.87416,0.06628
339.38437,0.04697
337.89458,0.02769
336.40479,0.01107
334.91501,0.01130
333.42522,0.00653
331.93543,0.00179
330.44564,0.03576
328.95585,0.02129
327.46606,0.03648
325.97627,0.05169
324.48649,0.02073
322.99670,0.05127
321.50691,0.03437
320.01712,0.01750
318.52733,0.05614
317.03754,0.07447
315.54776,0.08052
314.05797,0.08660
312.56818,0.10149
311.07839,0.08978
309.58860,0.06543
308.09881,0.04110
306.60902,0.00687
305.11924,0.01084
303.62945,0.01068
302.13966,0.01056
300.64987,0.00179
299.16008,0.00179
