1778.52000,0.00920
1777.03021,0.01709
1775.54042,0.01071
1774.05063,0.01446
1772.56085,0.01133
1771.07106,0.00649
1769.58127,0.01747
1768.09148,0.01219
1766.60169,0.00644
1765.11190,0.00368
1763.62212,0.00118
1762.13233,0.00266
1760.64254,0.00293
1759.15275,0.01284
1757.66296,0.00748
1756.17317,0.00461
1754.68339,0.00720
1753.19360,0.00191
1751.70381,0.01244
1750.21402,0.00325
1748.72423,0.00322
1747.23444,0.00272
1745.74465,0.01013
1744.25487,0.00598
1742.76508,0.00876
1741.27529,0.00293
1739.78550,0.01164
1738.29571,0.00484
1736.80592,0.01248
1735.31614,0.00905
1733.82635,0.01009
1732.33656,0.00473
1730.84677,0.01001
1729.35698,0.00791
1727.86719,0.00880
1726.37740,0.00773
1724.88762,0.00694
1723.39783,0.00000
1721.90804,0.00376
1720.41825,0.01198
1718.92846,0.00221
1717.43867,0.00977
1715.94889,0.00996
1714.45910,0.00449
1712.96931,0.00935
1711.47952,0.00091
1709.98973,0.00408
1708.49994,0.00654
1707.01016,0.01137
1705.52037,0.01622
1704.03058,0.00963
1702.54079,0.01515
1701.05100,0.00515
1699.56121,0.01170
1698.07142,0.00595
1696.58164,0.00293
1695.09185,0.01805
1693.60206,0.01987
1692.11227,0.01136
1690.62248,0.02434
1689.13269,0.01809
1687.64291,0.02372
1686.15312,0.02640
1684.66333,0.02887
1683.17354,0.03012
1681.68375,0.03214
1680.19396,0.03615
1678.70417,0.03057
1677.21439,0.03020
1675.72460,0.03848
1674.23481,0.05098
1672.74502,0.04352
1671.25523,0.03461
1669.76544,0.05211
1668.27566,0.04942
1666.78587,0.06771
1665.29608,0.06580
1663.80629,0.05528
1662.31650,0.07562
1660.82671,0.07057
1659.33693,0.07221
1657.84714,0.06895
1656.35735,0.07137
1654.86756,0.08098
1653.37777,0.07162
1651.88798,0.09138
1650.39819,0.07763
1648.90841,0.08363
1647.41862,0.07708
1645.92883,0.07412
1644.43904,0.07119
1642.94925,0.07113
1641.45946,0.09303
1639.96968,0.08019
1638.47989,0.09499
1636.99010,0.07973
1635.50031,0.08644
1634.01052,0.07344
1632.52073,0.08144
1631.03094,0.08477
1629.54116,0.07998
1628.05137,0.09052
1626.56158,0.08775
1625.07179,0.09834
1623.58200,0.08797
1622.09221,0.08380
1620.60243,0.07966
1619.11264,0.09206
1617.62285,0.08994
1616.13306,0.10486
1614.64327,0.08132
1613.15348,0.08149
1611.66370,0.06787
1610.17391,0.08041
1608.68412,0.08879
1607.19433,0.08708
1605.70454,0.08170
1604.21475,0.08361
1602.72496,0.08555
1601.23518,0.09085
1599.74539,0.07125
1598.25560,0.07684
1596.76581,0.07135
1595.27602,0.09154
1593.78623,0.07352
1592.29645,0.07797
1590.80666,0.07406
1589.31687,0.06352
1587.82708,0.05645
1586.33729,0.05409
1584.84750,0.06853
1583.35771,0.07041
1581.86793,0.08120
1580.37814,0.06981
1578.88835,0.07250
1577.39856,0.05549
1575.90877,0.05725
1574.41898,0.05903
1572.92920,0.05319
1571.43941,0.04096
1569.94962,0.04454
1568.45983,0.04814
1566.97004,0.04091
1565.48025,0.04531
1563.99047,0.02234
1562.50068,0.04380
1561.01089,0.03717
1559.52110,0.02488
1558.03131,0.02989
1556.54152,0.01543
1555.05173,0.03479
1553.56195,0.01668
1552.07216,0.01661
1550.58237,0.01779
1549.09258,0.01529
1547.60279,0.01035
1546.11300,0.00815
1544.62322,0.00671
1543.13343,0.01147
1541.64364,0.00293
1540.15385,0.01120
1538.66406,0.01950
1537.17427,0.02622
1535.68448,0.02285
1534.19470,0.02370
1532.70491,0.02013
1531.21512,0.02177
1529.72533,0.03256
1528.23554,0.01476
1526.74575,0.01745
1525.25597,0.03620
1523.76618,0.03722
1522.27639,0.02371
1520.78660,0.03070
1519.29681,0.04165
1517.80702,0.04055
1516.31724,0.04538
1514.82745,0.03643
1513.33766,0.04415
1511.84787,0.05190
1510.35808,0.06054
1508.86829,0.05267
1507.37850,0.04778
1505.88872,0.03750
1504.39893,0.04031
1502.90914,0.06263
1501.41935,0.07042
1499.92956,0.09378
1498.43977,0.07374
1496.94999,0.06286
1495.46020,0.08160
1493.97041,0.10826
1492.48062,0.12039
1490.99083,0.09999
1489.50104,0.13412
1488.01125,0.13695
1486.52147,0.13980
1485.03168,0.15057
1483.54189,0.20601
1482.05210,0.20770
1480.56231,0.22150
1479.07252,0.25013
1477.58274,0.26472
1476.09295,0.26355
1474.60316,0.24662
1473.11337,0.25708
1471.62358,0.26067
1470.13379,0.27168
1468.64401,0.29801
1467.15422,0.34484
1465.66443,0.35345
1464.17464,0.36209
1462.68485,0.39666
1461.19506,0.44827
1459.70527,0.46833
1458.21549,0.52886
1456.72570,0.60891
1455.23591,0.63545
1453.74612,0.68915
1452.25633,0.67727
1450.76654,0.72238
1449.27676,0.74384
1447.78697,0.71748
1446.29718,0.71457
1444.80739,0.70268
1443.31760,0.69082
1441.82781,0.64334
1440.33802,0.60155
1438.84824,0.54697
1437.35845,0.52472
1435.86866,0.53234
1434.37887,0.53628
1432.88908,0.56171
1431.39929,0.63229
1429.90951,0.71598
1428.41972,0.77601
1426.92993,0.84297
1425.44014,0.90872
1423.95035,0.92813
1422.46056,0.94756
1420.97078,0.98329
1419.48099,0.96725
1417.99120,0.98774
1416.50141,0.99370
1415.01162,0.96909
1413.52183,0.95364
1412.03204,0.87334
1410.54226,0.77137
1409.05247,0.70838
1407.56268,0.68069
1406.07289,0.63083
1404.58310,0.59937
1403.09331,0.56793
1401.60353,0.49791
1400.11374,0.45407
1398.62395,0.40359
1397.13416,0.34228
1395.64437,0.27162
1394.15458,0.25278
1392.66479,0.20757
1391.17501,0.17078
1389.68522,0.14190
1388.19543,0.14067
1386.70564,0.13120
1385.21585,0.12176
1383.72606,0.09495
1382.23628,0.06224
1380.74649,0.04486
1379.25670,0.03193
1377.76691,0.03334
1376.27712,0.02120
1374.78733,0.00293
1373.29755,0.01792
1371.80776,0.02751
1370.31797,0.01740
1368.82818,0.02075
1367.33839,0.02413
1365.84860,0.03480
1364.35881,0.03268
1362.86903,0.05746
1361.37924,0.07487
1359.88945,0.10118
1358.39966,0.13541
1356.90987,0.14796
1355.42008,0.19580
1353.93030,0.24268
1352.44051,0.27984
1350.95072,0.31703
1349.46093,0.37410
1347.97114,0.47238
1346.48135,0.53615
1344.99156,0.59452
1343.50178,0.64996
1342.01199,0.72688
1340.52220,0.80629
1339.03241,0.86771
1337.54262,0.91165
1336.05283,0.92491
1334.56305,0.93819
1333.07326,0.98442
1331.58347,1.02747
1330.09368,1.00493
1328.60389,1.01498
1327.11410,0.98829
1325.62432,0.91354
1324.13453,0.86150
1322.64474,0.85857
1321.15495,0.83642
1319.66516,0.80616
1318.17537,0.77593
1316.68558,0.67739
1315.19580,0.64103
1313.70601,0.57387
1312.21622,0.53386
1310.72643,0.52175
1309.23664,0.47563
1307.74685,0.46209
1306.25707,0.42366
1304.76728,0.39548
1303.27749,0.36734
1301.78770,0.31344
1300.29791,0.29731
1298.80812,0.21632
1297.31834,0.19160
1295.82855,0.18196
1294.33876,0.16592
1292.84897,0.11463
1291.35918,0.10407
1289.86939,0.10265
1288.37960,0.10126
1286.88982,0.08880
1285.40003,0.07438
1283.91024,0.06567
1282.42045,0.06511
1280.93066,0.04658
1279.44087,0.06112
1277.95109,0.04485
1276.46130,0.05500
1274.97151,0.05740
1273.48172,0.05983
1271.99193,0.03454
1270.50214,0.03220
1269.01235,0.02249
1267.52257,0.02045
1266.03278,0.01721
1264.54299,0.01497
1263.05320,0.01300
1261.56341,0.01488
1260.07362,0.01679
1258.58384,0.01095
1257.09405,0.01450
1255.60426,0.00082
1254.11447,0.00920
1252.62468,0.00404
1251.13489,0.00433
1249.64511,0.02388
1248.15532,0.02594
1246.66553,0.02532
1245.17574,0.02472
1243.68595,0.00293
1242.19616,0.02271
1240.70637,0.00625
1239.21659,0.00068
1237.72680,0.02763
1236.23701,0.02872
1234.74722,0.02514
1233.25743,0.02812
1231.76764,0.03112
1230.27786,0.02465
1228.78807,0.02536
1227.29828,0.02585
1225.80849,0.00293
1224.31870,0.00780
1222.82891,0.01443
1221.33912,0.01441
1219.84934,0.02306
1218.35955,0.03173
1216.86976,0.05177
1215.37997,0.08491
1213.89018,0.08280
1212.40039,0.07924
1210.91061,0.08038
1209.42082,0.07489
1207.93103,0.06831
1206.44124,0.06176
1204.95145,0.07237
1203.46166,0.06106
1201.97188,0.05347
1200.48209,0.04985
1198.99230,0.02554
1197.50251,0.02566
1196.01272,0.03026
1194.52293,0.02747
1193.03314,0.02472
1191.54336,0.02321
1190.05357,0.02593
1188.56378,0.02620
1187.07399,0.01441
1185.58420,0.02904
1184.09441,0.03777
1182.60463,0.02877
1181.11484,0.01979
1179.62505,0.01971
1178.13526,0.02090
1176.64547,0.01791
1175.15568,0.01741
1173.66589,0.01793
1172.17611,0.00293
1170.68632,0.00508
1169.19653,0.00725
1167.70674,0.03140
1166.21695,0.02869
1164.72716,0.03414
1163.23738,0.05985
1161.74759,0.06609
1160.25780,0.06841
1158.76801,0.07223
1157.27822,0.07607
1155.78843,0.08833
1154.29865,0.09173
1152.80886,0.10083
1151.31907,0.11514
1149.82928,0.11516
1148.33949,0.12161
1146.84970,0.11515
1145.35991,0.10870
1143.87013,0.15840
1142.38034,0.17087
1140.89055,0.15254
1139.40076,0.15668
1137.91097,0.15245
1136.42118,0.19906
1134.93140,0.20055
1133.44161,0.20207
1131.95182,0.21916
1130.46203,0.25846
1128.97224,0.24821
1127.48245,0.24391
1125.99266,0.23593
1124.50288,0.23266
1123.01309,0.23238
1121.52330,0.23211
1120.03351,0.21708
1118.54372,0.21908
1117.05393,0.24060
1115.56415,0.25573
1114.07436,0.23808
1112.58457,0.24598
1111.09478,0.25390
1109.60499,0.23533
1108.11520,0.23751
1106.62542,0.24242
1105.13563,0.22935
1103.64584,0.23357
1102.15605,0.21365
1100.66626,0.20534
1099.17647,0.19705
1097.68668,0.20926
1096.19690,0.20201
1094.70711,0.21156
1093.21732,0.20953
1091.72753,0.20112
1090.23774,0.19027
1088.74795,0.17944
1087.25817,0.20810
1085.76838,0.17906
1084.27859,0.19667
1082.78880,0.17607
1081.29901,0.18657
1079.80922,0.20672
1078.31943,0.20716
1076.82965,0.20762
1075.33986,0.22759
1073.85007,0.21799
1072.36028,0.23825
1070.87049,0.26520
1069.38070,0.28626
1067.89092,0.29747
1066.40113,0.30871
1064.91134,0.37201
1063.42155,0.44324
1061.93176,0.52164
1060.44197,0.65827
1058.95219,0.76730
1057.46240,0.81630
1055.97261,0.86532
1054.48282,0.91794
1052.99303,1.02510
1051.50324,1.05458
1050.01345,1.03377
1048.52367,1.04258
1047.03388,1.01935
1045.54409,0.99615
1044.05430,0.96483
1042.56451,0.89999
1041.07472,0.79226
1039.58494,0.71858
1038.09515,0.63926
1036.60536,0.60030
1035.11557,0.56135
1033.62578,0.49049
1032.13599,0.42804
1030.64620,0.36783
1029.15642,0.32688
1027.66663,0.30631
1026.17684,0.28577
1024.68705,0.27301
1023.19726,0.22476
1021.70747,0.19430
1020.21769,0.15893
1018.72790,0.14676
1017.23811,0.13179
1015.74832,0.11683
1014.25853,0.11929
1012.76874,0.11043
1011.27896,0.11467
1009.78917,0.10956
1008.29938,0.08917
1006.80959,0.07782
1005.31980,0.06649
1003.83001,0.05013
1002.34022,0.02984
1000.85044,0.04165
999.36065,0.03276
997.87086,0.03832
996.38107,0.04390
994.89128,0.07825
993.40149,0.08228
991.91171,0.10681
990.42192,0.11706
988.93213,0.14533
987.44234,0.15267
985.95255,0.16003
984.46276,0.15976
982.97297,0.12475
981.48319,0.12428
979.99340,0.07871
978.50361,0.07805
977.01382,0.07741
975.52403,0.05633
974.03424,0.04489
972.54446,0.02582
971.05467,0.00950
969.56488,0.00306
968.07509,0.00298
966.58530,0.00293
965.09551,0.01780
963.60573,0.01420
962.11594,0.01210
960.62615,0.01225
959.13636,0.02130
957.64657,0.03037
956.15678,0.02566
954.66699,0.02812
953.17721,0.04491
951.68742,0.04372
950.19763,0.04416
948.70784,0.04462
947.21805,0.05855
945.72826,0.08755
944.23848,0.08426
942.74869,0.10073
941.25890,0.12117
939.76911,0.12671
938.27932,0.13227
936.78953,0.16931
935.29974,0.18935
933.80996,0.18525
932.32017,0.20164
930.83038,0.20017
929.34059,0.19872
927.85080,0.22160
926.36101,0.27286
924.87123,0.33328
923.38144,0.38731
921.89165,0.41731
920.40186,0.44733
918.91207,0.54509
917.42228,0.68677
915.93250,0.82750
914.44271,1.06345
912.95292,1.18289
911.46313,1.30235
909.97334,1.41135
908.48355,1.61410
906.99376,1.82230
905.50398,1.96986
904.01419,1.97844
902.52440,1.98705
901.03461,2.00000
899.54482,1.97252
898.05503,1.83629
896.56525,1.63867
895.07546,1.51137
893.58567,1.38410
892.09588,1.12735
890.60609,0.86323
889.11630,0.66326
887.62651,0.52178
886.13673,0.45542
884.64694,0.38909
883.15715,0.27333
881.66736,0.18472
880.17757,0.11070
878.68778,0.11402
877.19800,0.11736
875.70821,0.07473
874.21842,0.06024
872.72863,0.04775
871.23884,0.03726
869.74905,0.02716
868.25927,0.01708
866.76948,0.00839
865.27969,0.00293
863.78990,0.05187
862.30011,0.03474
860.81032,0.03366
859.32053,0.03261
857.83075,0.07179
856.34096,0.09644
854.85117,0.10360
853.36138,0.12410
851.87159,0.12786
850.38180,0.13164
848.89202,0.15443
847.40223,0.16319
845.91244,0.16655
844.42265,0.18609
842.93286,0.20565
841.44307,0.23103
839.95329,0.22807
838.46350,0.25252
836.97371,0.26934
835.48392,0.28224
833.99413,0.29516
832.50434,0.26618
831.01455,0.24438
829.52477,0.20212
828.03498,0.19245
826.54519,0.17750
825.05540,0.16257
823.56561,0.16284
822.07582,0.13871
820.58604,0.12768
819.09625,0.12086
817.60646,0.11407
816.11667,0.10361
814.62688,0.11783
813.13709,0.15675
811.64730,0.16312
810.15752,0.15424
808.66773,0.14537
807.17794,0.15601
805.68815,0.13856
804.19836,0.14309
802.70857,0.14234
801.21879,0.14161
799.72900,0.13141
798.23921,0.11852
796.74942,0.10861
795.25963,0.10613
793.76984,0.10367
792.28006,0.13035
790.79027,0.14693
789.30048,0.15194
787.81069,0.17597
786.32090,0.19213
784.83111,0.20832
783.34132,0.26030
781.85154,0.28714
780.36175,0.31129
778.87196,0.33497
777.38217,0.35868
775.89238,0.35379
774.40259,0.37311
772.91281,0.37099
771.42302,0.36445
769.93323,0.35794
768.44344,0.30261
766.95365,0.25052
765.46386,0.20511
763.97407,0.15849
762.48429,0.15148
760.99450,0.14450
759.50471,0.13569
758.01492,0.10717
756.52513,0.08805
755.03534,0.08683
753.54556,0.08564
752.05577,0.08263
750.56598,0.05990
749.07619,0.04682
747.58640,0.03759
746.09661,0.02838
744.60683,0.03337
743.11704,0.02310
741.62725,0.00965
740.13746,0.01435
738.64767,0.01907
737.15788,0.01556
735.66809,0.01059
734.17831,0.00293
732.68852,0.00463
731.19873,0.00635
729.70894,0.01821
728.21915,0.00814
726.72936,0.00353
725.23958,0.01472
723.74979,0.00905
722.26000,0.00339
720.77021,0.01096
719.28042,0.00203
717.79063,0.01626
716.30084,0.01597
714.81106,0.01570
713.32127,0.02458
711.83148,0.02412
710.34169,0.00493
708.85190,0.01696
707.36211,0.02902
705.87233,0.02816
704.38254,0.03447
702.89275,0.04870
701.40296,0.05346
699.91317,0.05824
698.42338,0.06860
696.93360,0.08687
695.44381,0.09530
693.95402,0.10264
692.46423,0.11001
690.97444,0.12616
689.48465,0.13888
687.99486,0.17111
686.50508,0.18203
685.01529,0.19297
683.52550,0.21689
682.03571,0.22726
680.54592,0.24950
679.05613,0.25696
677.56635,0.26445
676.07656,0.25864
674.58677,0.24250
673.09698,0.22613
671.60719,0.21805
670.11740,0.20999
668.62761,0.18186
667.13783,0.16362
665.64804,0.16044
664.15825,0.15729
662.66846,0.12827
661.17867,0.08052
659.68888,0.06437
658.19910,0.05503
656.70931,0.04571
655.21952,0.03975
653.72973,0.03553
652.23994,0.05132
650.75015,0.05813
649.26037,0.06497
647.77058,0.05370
646.28079,0.06440
644.79100,0.05220
643.30121,0.04482
641.81142,0.03747
640.32163,0.05444
638.83185,0.04603
637.34206,0.01346
635.85227,0.00818
634.36248,0.00293
632.87269,0.04150
631.38290,0.02977
629.89312,0.01462
628.40333,0.02021
626.91354,0.02582
625.42375,0.02332
623.93396,0.01567
622.44417,0.03036
620.95438,0.04507
619.46460,0.03280
617.97481,0.06446
616.48502,0.09441
614.99523,0.10453
613.50544,0.11468
612.01565,0.14742
610.52587,0.16810
609.03608,0.21273
607.54629,0.22778
606.05650,0.24286
604.56671,0.27400
603.07692,0.32316
601.58714,0.36063
600.09735,0.39813
598.60756,0.44391
597.11777,0.46703
595.62798,0.45736
594.13819,0.43995
592.64840,0.42257
591.15862,0.39595
589.66883,0.35728
588.17904,0.29988
586.68925,0.26841
585.19946,0.23696
583.70967,0.19690
582.21989,0.12801
580.73010,0.10095
579.24031,0.07392
577.75052,0.06602
576.26073,0.09021
574.77094,0.08113
573.28115,0.06875
571.79137,0.05638
570.30158,0.04811
568.81179,0.06083
567.32200,0.07457
565.83221,0.08832
564.34242,0.11123
562.85264,0.15340
561.36285,0.16722
559.87306,0.17035
558.38327,0.17349
556.89348,0.17901
555.40369,0.19811
553.91391,0.19936
552.42412,0.20063
550.93433,0.24546
549.44454,0.22001
547.95475,0.24343
546.46496,0.24319
544.97517,0.24298
543.48539,0.26450
541.99560,0.29516
540.50581,0.31463
539.01602,0.33412
537.52623,0.37892
536.03644,0.41536
534.54666,0.43702
533.05687,0.46179
531.56708,0.48658
530.07729,0.55740
528.58750,0.59618
527.09771,0.62104
525.60792,0.64593
524.11814,0.67417
522.62835,0.74955
521.13856,0.79955
519.64877,0.81011
518.15898,0.82069
516.66919,0.88136
515.17941,0.86289
513.68962,0.86367
512.19983,0.86448
510.71004,0.86063
509.22025,0.79440
507.73046,0.72992
506.24068,0.69802
504.75089,0.66615
503.26110,0.50332
501.77131,0.40194
500.28152,0.34535
498.79173,0.28878
497.30194,0.25210
495.81216,0.19768
494.32237,0.18065
492.83258,0.16364
491.34279,0.14999
489.85300,0.12157
488.36321,0.12005
486.87343,0.09784
485.38364,0.07565
483.89385,0.08062
482.40406,0.11324
480.91427,0.11098
479.42448,0.10874
477.93469,0.14340
476.44491,0.15688
474.95512,0.17210
473.46533,0.18735
471.97554,0.20855
470.48575,0.21127
468.99596,0.19773
467.50618,0.18693
466.01639,0.17616
464.52660,0.12594
463.03681,0.10239
461.54702,0.09403
460.05723,0.08569
458.56745,0.05013
457.07766,0.03604
455.58787,0.03518
454.09808,0.03434
452.60829,0.04944
451.11850,0.03372
449.62871,0.02235
448.13893,0.01100
446.64914,0.01411
445.15935,0.01279
443.66956,0.00386
442.17977,0.00963
440.68998,0.01542
439.20020,0.02728
437.71041,0.03373
436.22062,0.02393
434.73083,0.01416
433.24104,0.00293
431.75125,0.02038
430.26146,0.03725
428.77168,0.05414
427.28189,0.03319
425.79210,0.05149
424.30231,0.04675
422.81252,0.04203
421.32273,0.02266
419.83295,0.02008
418.34316,0.02210
416.85337,0.02413
415.36358,0.02533
413.87379,0.01225
412.38400,0.02805
410.89422,0.04387
409.40443,0.05281
407.91464,0.04451
406.42485,0.05424
404.93506,0.05277
403.44527,0.05132
401.95548,0.04090
400.46570,0.03815
398.97591,0.03431
397.48612,0.03049
395.99633,0.04285
394.50654,0.04118
393.01675,0.03966
391.52697,0.03816
390.03718,0.03311
388.54739,0.03400
387.05760,0.03245
385.56781,0.03092
384.07802,0.02745
382.58824,0.04843
381.09845,0.04404
379.60866,0.03966
378.11887,0.04148
376.62908,0.02951
375.13929,0.01621
373.64950,0.00293
372.15972,0.02972
370.66993,0.04618
369.18014,0.04934
367.69035,0.05253
366.20056,0.04563
364.71077,0.04319
363.22099,0.04250
361.73120,0.04184
360.24141,0.06685
358.75162,0.10200
357.26183,0.08945
355.77204,0.07692
354.28225,0.07638
352.79247,0.08302
351.30268,0.08955
349.81289,0.09611
348.32310,0.07075
346.83331,0.07058
345.34352,0.07104
343.85374,0.07153
342.36395,0.08006
340.87416,0.07727
339.38437,0.05218
337.89458,0.02712
336.40479,0.01132
334.91501,0.02639
333.42522,0.02507
331.93543,0.02378
330.44564,0.02807
328.95585,0.05334
327.46606,0.03745
325.97627,0.02158
324.48649,0.03278
322.99670,0.05140
321.50691,0.05291
320.01712,0.05444
318.52733,0.07882
317.03754,0.10025
315.54776,0.07781
314.05797,0.05539
312.56818,0.07566
311.07839,0.06513
309.58860,0.04685
308.09881,0.02860
306.60902,0.01814
305.11924,0.03236
303.62945,0.02429
302.13966,0.01625
300.64987,0.00293
299.16008,0.00293
