1778.52000,0.01813
1777.03021,0.01324
1775.54042,0.01219
1774.05063,0.01387
1772.56085,0.00545
1771.07106,0.00695
1769.58127,0.00646
1768.09148,0.00733
1766.60169,0.01296
1765.11190,0.01411
1763.62212,0.01686
1762.13233,0.01513
1760.64254,0.00601
1759.15275,0.00838
1757.66296,0.01236
1756.17317,0.00241
1754.68339,0.00755
1753.19360,0.01790
1751.70381,0.00802
1750.21402,0.00537
1748.72423,0.00994
1747.23444,0.00396
1745.74465,0.00925
1744.25487,0.01253
1742.76508,0.01067
1741.27529,0.01220
1739.78550,0.00859
1738.29571,0.00792
1736.80592,0.01200
1735.31614,0.01611
1733.82635,0.00000
1732.33656,0.00798
1730.84677,0.01193
1729.35698,0.00422
1727.86719,0.01542
1726.37740,0.00888
1724.88762,0.00686
1723.39783,0.00936
1721.90804,0.00425
1720.41825,0.01849
1718.92846,0.01185
1717.43867,0.01917
1715.94889,0.01213
1714.45910,0.00601
1712.96931,0.00989
1711.47952,0.01155
1709.98973,0.01278
1708.49994,0.01426
1707.01016,0.01296
1705.52037,0.01167
1704.03058,0.00266
1702.54079,0.00565
1701.05100,0.01114
1699.56121,0.01036
1698.07142,0.00601
1696.58164,0.01255
1695.09185,0.01933
1693.60206,0.01647
1692.11227,0.02668
1690.62248,0.02253
1689.13269,0.01749
1687.64291,0.01270
1686.15312,0.03021
1684.66333,0.02975
1683.17354,0.03493
1681.68375,0.01900
1680.19396,0.02850
1678.70417,0.03894
1677.21439,0.02420
1675.72460,0.04345
1674.23481,0.04114
1672.74502,0.03795
1671.25523,0.04782
1669.76544,0.04491
1668.27566,0.05371
1666.78587,0.05827
1665.29608,0.06150
1663.80629,0.06318
1662.31650,0.06308
1660.82671,0.07066
1659.33693,0.07376
1657.84714,0.08071
1656.35735,0.07824
1654.86756,0.08007
1653.37777,0.07157
1651.88798,0.07255
1650.39819,0.08390
1648.90841,0.06918
1647.41862,0.06730
1645.92883,0.06973
1644.43904,0.07218
1642.94925,0.07802
1641.45946,0.08165
1639.96968,0.09294
1638.47989,0.09346
1636.99010,0.09446
1635.50031,0.09166
1634.01052,0.06797
1632.52073,0.07376
1631.03094,0.07890
1629.54116,0.07597
1628.05137,0.09556
1626.56158,0.09358
1625.07179,0.08623
1623.58200,0.09374
1622.09221,0.09589
1620.60243,0.10075
1619.11264,0.10632
1617.62285,0.09549
1616.13306,0.09930
1614.64327,0.09032
1613.15348,0.08182
1611.66370,0.08053
1610.17391,0.08534
1608.68412,0.08681
1607.19433,0.09234
1605.70454,0.10420
1604.21475,0.10731
1602.72496,0.11045
1601.23518,0.09269
1599.74539,0.10330
1598.25560,0.08514
1596.76581,0.07511
1595.27602,0.08084
1593.78623,0.08817
1592.29645,0.08968
1590.80666,0.09324
1589.31687,0.07411
1587.82708,0.08086
1586.33729,0.07617
1584.84750,0.07578
1583.35771,0.07991
1581.86793,0.06989
1580.37814,0.08442
1578.88835,0.06096
1577.39856,0.08723
1575.90877,0.07079
1574.41898,0.06314
1572.92920,0.05193
1571.43941,0.04681
1569.94962,0.04857
1568.45983,0.05036
1566.97004,0.03564
1565.48025,0.05941
1563.99047,0.03394
1562.50068,0.02965
1561.01089,0.01795
1559.52110,0.01753
1558.03131,0.02432
1556.54152,0.04126
1555.05173,0.04069
1553.56195,0.03069
1552.07216,0.02994
1550.58237,0.02741
1549.09258,0.01951
1547.60279,0.00601
1546.11300,0.02588
1544.62322,0.01767
1543.13343,0.02635
1541.64364,0.01795
1540.15385,0.01476
1538.66406,0.01159
1537.17427,0.02509
1535.68448,0.02242
1534.19470,0.01887
1532.70491,0.01445
1531.21512,0.00601
1529.72533,0.02203
1528.23554,0.01064
1526.74575,0.03234
1525.25597,0.04798
1523.76618,0.03576
1522.27639,0.03369
1520.78660,0.04222
1519.29681,0.04132
1517.80702,0.05978
1516.31724,0.05916
1514.82745,0.06216
1513.33766,0.05855
1511.84787,0.05496
1510.35808,0.06680
1508.86829,0.05978
1507.37850,0.07010
1505.88872,0.04783
1504.39893,0.05190
1502.90914,0.06341
1501.41935,0.07158
1499.92956,0.07685
1498.43977,0.09204
1496.94999,0.07891
1495.46020,0.07998
1493.97041,0.10739
1492.48062,0.12043
1490.99083,0.12899
1489.50104,0.13218
1488.01125,0.13472
1486.52147,0.13729
1485.03168,0.17676
1483.54189,0.20929
1482.05210,0.22835
1480.56231,0.24406
1479.07252,0.27891
1477.58274,0.28275
1476.09295,0.29088
1474.60316,0.29477
1473.11337,0.28406
1471.62358,0.30756
1470.13379,0.32569
1468.64401,0.32113
1467.15422,0.35078
1465.66443,0.36145
1464.17464,0.37214
1462.68485,0.39556
1461.19506,0.41204
1459.70527,0.45149
1458.21549,0.51479
1456.72570,0.60489
1455.23591,0.66015
1453.74612,0.72039
1452.25633,0.77547
1450.76654,0.76828
1449.27676,0.74604
1447.78697,0.73733
1446.29718,0.69580
1444.80739,0.68589
1443.31760,0.67601
1441.82781,0.64198
1440.33802,0.60189
1438.84824,0.57848
1437.35845,0.54047
1435.86866,0.52498
1434.37887,0.53178
1432.88908,0.57324
1431.39929,0.60820
1429.90951,0.69941
1428.41972,0.77738
1426.92993,0.83783
1425.44014,0.85377
1423.95035,0.89977
1422.46056,0.94578
1420.97078,0.95325
1419.48099,0.97874
1417.99120,0.94487
1416.50141,0.93150
1415.01162,0.87699
1413.52183,0.83937
1412.03204,0.79706
1410.54226,0.74847
1409.05247,0.68934
1407.56268,0.62640
1406.07289,0.56417
1404.58310,0.54267
1403.09331,0.52119
1401.60353,0.44127
1400.11374,0.38116
1398.62395,0.36178
1397.13416,0.29722
1395.64437,0.24235
1394.15458,0.20955
1392.66479,0.20287
1391.17501,0.16877
1389.68522,0.13875
1388.19543,0.10290
1386.70564,0.10137
1385.21585,0.09987
1383.72606,0.06634
1382.23628,0.03801
1380.74649,0.03175
1379.25670,0.02911
1377.76691,0.02357
1376.27712,0.01221
1374.78733,0.00582
1373.29755,0.00508
1371.80776,0.00598
1370.31797,0.00601
1368.82818,0.00933
1367.33839,0.01267
1365.84860,0.01277
1364.35881,0.01267
1362.86903,0.03307
1361.37924,0.04044
1359.88945,0.07685
1358.39966,0.11891
1356.90987,0.14998
1355.42008,0.18466
1353.93030,0.22702
1352.44051,0.27829
1350.95072,0.32958
1349.46093,0.36864
1347.97114,0.43516
1346.48135,0.52735
1344.99156,0.57660
1343.50178,0.69223
1342.01199,0.73973
1340.52220,0.81718
1339.03241,0.86315
1337.54262,0.88419
1336.05283,0.89254
1334.56305,0.90092
1333.07326,0.98928
1331.58347,0.97668
1330.09368,0.93801
1328.60389,0.93176
1327.11410,0.92755
1325.62432,0.90268
1324.13453,0.84207
1322.64474,0.81432
1321.15495,0.78187
1319.66516,0.76474
1318.17537,0.74764
1316.68558,0.69322
1315.19580,0.63231
1313.70601,0.58154
1312.21622,0.55622
1310.72643,0.54598
1309.23664,0.49889
1307.74685,0.46104
1306.25707,0.42591
1304.76728,0.41713
1303.27749,0.40836
1301.78770,0.36139
1300.29791,0.30590
1298.80812,0.26977
1297.31834,0.21162
1295.82855,0.18117
1294.33876,0.16063
1292.84897,0.12708
1291.35918,0.11536
1289.86939,0.11503
1288.37960,0.11473
1286.88982,0.10893
1285.40003,0.10721
1283.91024,0.08460
1282.42045,0.08630
1280.93066,0.08129
1279.44087,0.06459
1277.95109,0.05265
1276.46130,0.05963
1274.97151,0.04919
1273.48172,0.03879
1271.99193,0.05730
1270.50214,0.04166
1269.01235,0.05011
1267.52257,0.04463
1266.03278,0.03716
1264.54299,0.04973
1263.05320,0.03781
1261.56341,0.02816
1260.07362,0.01853
1258.58384,0.00601
1257.09405,0.01519
1255.60426,0.02124
1254.11447,0.02439
1252.62468,0.01587
1251.13489,0.02132
1249.64511,0.01735
1248.15532,0.02915
1246.66553,0.01881
1245.17574,0.00851
1243.68595,0.01333
1242.19616,0.02133
1240.70637,0.02149
1239.21659,0.00974
1237.72680,0.02546
1236.23701,0.02479
1234.74722,0.01132
1233.25743,0.01362
1231.76764,0.01594
1230.27786,0.02482
1228.78807,0.03641
1227.29828,0.03948
1225.80849,0.02121
1224.31870,0.00859
1222.82891,0.00904
1221.33912,0.01018
1219.84934,0.01889
1218.35955,0.02762
1216.86976,0.06325
1215.37997,0.04785
1213.89018,0.07139
1212.40039,0.08100
1210.91061,0.08615
1209.42082,0.08591
1207.93103,0.07323
1206.44124,0.06056
1204.95145,0.07750
1203.46166,0.07714
1201.97188,0.06646
1200.48209,0.06705
1198.99230,0.08836
1197.50251,0.07258
1196.01272,0.05255
1194.52293,0.03806
1193.03314,0.02359
1191.54336,0.02073
1190.05357,0.01924
1188.56378,0.02070
1187.07399,0.03051
1185.58420,0.03067
1184.09441,0.03603
1182.60463,0.02095
1181.11484,0.00589
1179.62505,0.00601
1178.13526,0.00865
1176.64547,0.01402
1175.15568,0.01694
1173.66589,0.01741
1172.17611,0.02195
1170.68632,0.02044
1169.19653,0.01896
1167.70674,0.01998
1166.21695,0.01270
1164.72716,0.00859
1163.23738,0.02430
1161.74759,0.04274
1160.25780,0.04388
1158.76801,0.05291
1157.27822,0.06197
1155.78843,0.05621
1154.29865,0.06442
1152.80886,0.09852
1151.31907,0.10453
1149.82928,0.09955
1148.33949,0.11258
1146.84970,0.11484
1145.35991,0.11712
1143.87013,0.10841
1142.38034,0.13481
1140.89055,0.15899
1139.40076,0.16317
1137.91097,0.17052
1136.42118,0.18443
1134.93140,0.20105
1133.44161,0.21770
1131.95182,0.22493
1130.46203,0.24141
1128.97224,0.24284
1127.48245,0.23080
1125.99266,0.23453
1124.50288,0.23940
1123.01309,0.25015
1121.52330,0.26093
1120.03351,0.22764
1118.54372,0.24476
1117.05393,0.24324
1115.56415,0.25794
1114.07436,0.25467
1112.58457,0.24613
1111.09478,0.23762
1109.60499,0.24275
1108.11520,0.21888
1106.62542,0.24137
1105.13563,0.22902
1103.64584,0.23739
1102.15605,0.24961
1100.66626,0.23577
1099.17647,0.22194
1097.68668,0.23064
1096.19690,0.23373
1094.70711,0.23100
1093.21732,0.23909
1091.72753,0.19705
1090.23774,0.19339
1088.74795,0.18975
1087.25817,0.19884
1085.76838,0.20795
1084.27859,0.21124
1082.78880,0.24177
1081.29901,0.24151
1079.80922,0.23116
1078.31943,0.24006
1076.82965,0.24898
1075.33986,0.26367
1073.85007,0.25071
1072.36028,0.29018
1070.87049,0.28605
1069.38070,0.33322
1067.89092,0.35320
1066.40113,0.37320
1064.91134,0.44091
1063.42155,0.53159
1061.93176,0.63871
1060.44197,0.71122
1058.95219,0.83008
1057.46240,0.89690
1055.97261,0.96375
1054.48282,1.08089
1052.99303,1.19333
1051.50324,1.18231
1050.01345,1.12252
1048.52367,1.14057
1047.03388,1.10613
1045.54409,1.07171
1044.05430,1.04125
1042.56451,0.92378
1041.07472,0.85918
1039.58494,0.79731
1038.09515,0.65989
1036.60536,0.62607
1035.11557,0.59227
1033.62578,0.54579
1032.13599,0.46178
1030.64620,0.37059
1029.15642,0.31856
1027.66663,0.29546
1026.17684,0.27238
1024.68705,0.23482
1023.19726,0.24204
1021.70747,0.19823
1020.21769,0.17266
1018.72790,0.17164
1017.23811,0.16175
1015.74832,0.15189
1014.25853,0.13474
1012.76874,0.12752
1011.27896,0.11919
1009.78917,0.10841
1008.29938,0.07697
1006.80959,0.05961
1005.31980,0.04227
1003.83001,0.04082
1002.34022,0.03286
1000.85044,0.04495
999.36065,0.08518
997.87086,0.08978
996.38107,0.09441
994.89128,0.08815
993.40149,0.08867
991.91171,0.10787
990.42192,0.12531
988.93213,0.15761
987.44234,0.16429
985.95255,0.17100
984.46276,0.19798
982.97297,0.16673
981.48319,0.14135
979.99340,0.11982
978.50361,0.10979
977.01382,0.09978
975.52403,0.05740
974.03424,0.05352
972.54446,0.03661
971.05467,0.02894
969.56488,0.00601
968.07509,0.00771
966.58530,0.00943
965.09551,0.02209
963.60573,0.02847
962.11594,0.01869
960.62615,0.00533
959.13636,0.01019
957.64657,0.01508
956.15678,0.03630
954.66699,0.02605
953.17721,0.01966
951.68742,0.02363
950.19763,0.03190
948.70784,0.04020
947.21805,0.05774
945.72826,0.07778
944.23848,0.08727
942.74869,0.11209
941.25890,0.12725
939.76911,0.13457
938.27932,0.14192
936.78953,0.14816
935.29974,0.17107
933.80996,0.16769
932.32017,0.18368
930.83038,0.18350
929.34059,0.18334
927.85080,0.22100
926.36101,0.26092
924.87123,0.28693
923.38144,0.32826
921.89165,0.36871
920.40186,0.40918
918.91207,0.51041
917.42228,0.65844
915.93250,0.79323
914.44271,1.02430
912.95292,1.13890
911.46313,1.25352
909.97334,1.45543
908.48355,1.68683
906.99376,1.87686
905.50398,1.99518
904.01419,1.99758
902.52440,2.00000
901.03461,1.96365
899.54482,1.89066
898.05503,1.78531
896.56525,1.60532
895.07546,1.49540
893.58567,1.38552
892.09588,1.11203
890.60609,0.84869
889.11630,0.61731
887.62651,0.46062
886.13673,0.40349
884.64694,0.34638
883.15715,0.24330
881.66736,0.19377
880.17757,0.14045
878.68778,0.13393
877.19800,0.12743
875.70821,0.08610
874.21842,0.07898
872.72863,0.06087
871.23884,0.05334
869.74905,0.05203
868.25927,0.05075
866.76948,0.03835
865.27969,0.03228
863.78990,0.05007
862.30011,0.06384
860.81032,0.06537
859.32053,0.06693
857.83075,0.10214
856.34096,0.11736
854.85117,0.14767
853.36138,0.17350
851.87159,0.18092
850.38180,0.18836
848.89202,0.21202
847.40223,0.23234
845.91244,0.27449
844.42265,0.27090
842.93286,0.26733
841.44307,0.30033
839.95329,0.31087
838.46350,0.31603
836.97371,0.32167
835.48392,0.32666
833.99413,0.33168
832.50434,0.33491
831.01455,0.31164
829.52477,0.29738
828.03498,0.28697
826.54519,0.27963
825.05540,0.27230
823.56561,0.20754
822.07582,0.19026
820.58604,0.16963
819.09625,0.16769
817.60646,0.16578
816.11667,0.17333
814.62688,0.17484
813.13709,0.18042
811.64730,0.18131
810.15752,0.18042
808.66773,0.17955
807.17794,0.18883
805.68815,0.21343
804.19836,0.20611
802.70857,0.20062
801.21879,0.19515
799.72900,0.19241
798.23921,0.17777
796.74942,0.15550
795.25963,0.16250
793.76984,0.16953
792.28006,0.18535
790.79027,0.19265
789.30048,0.23394
787.81069,0.24421
786.32090,0.26699
784.83111,0.28979
783.34132,0.35255
781.85154,0.37933
780.36175,0.40772
778.87196,0.42714
777.38217,0.44658
775.89238,0.47504
774.40259,0.48823
772.91281,0.47694
771.42302,0.45250
769.93323,0.42810
768.44344,0.38089
766.95365,0.32470
765.46386,0.26809
763.97407,0.21016
762.48429,0.19937
760.99450,0.18861
759.50471,0.17663
758.01492,0.13319
756.52513,0.12868
755.03534,0.12398
753.54556,0.11929
752.05577,0.09957
750.56598,0.10123
749.07619,0.07953
747.58640,0.06640
746.09661,0.05329
744.60683,0.06271
743.11704,0.03953
741.62725,0.02357
740.13746,0.02293
738.64767,0.02232
737.15788,0.03815
735.66809,0.02634
734.17831,0.00601
732.68852,0.01161
731.19873,0.01723
729.70894,0.02051
728.21915,0.01685
726.72936,0.00624
725.23958,0.02330
723.74979,0.02217
722.26000,0.02106
720.77021,0.01773
719.28042,0.00452
717.79063,0.01354
716.30084,0.01144
714.81106,0.00937
713.32127,0.00654
711.83148,0.00868
710.34169,0.02389
708.85190,0.02214
707.36211,0.02042
705.87233,0.02491
704.38254,0.02829
702.89275,0.04745
701.40296,0.04279
699.91317,0.03815
698.42338,0.04771
696.93360,0.07034
695.44381,0.07410
693.95402,0.08294
692.46423,0.09181
690.97444,0.10801
689.48465,0.14583
687.99486,0.16321
686.50508,0.17274
685.01529,0.18229
683.52550,0.21639
682.03571,0.24668
680.54592,0.25856
679.05613,0.24786
677.56635,0.23718
676.07656,0.23721
674.58677,0.25008
673.09698,0.22430
671.60719,0.21012
670.11740,0.19597
668.62761,0.16373
667.13783,0.16256
665.64804,0.14128
664.15825,0.12003
662.66846,0.09441
661.17867,0.07422
659.68888,0.05473
658.19910,0.04460
656.70931,0.03449
655.21952,0.04273
653.72973,0.04561
652.23994,0.04513
650.75015,0.04816
649.26037,0.05122
647.77058,0.04879
646.28079,0.01963
644.79100,0.02917
643.30121,0.02400
641.81142,0.01886
640.32163,0.02465
638.83185,0.05296
637.34206,0.01967
635.85227,0.01283
634.36248,0.00601
632.87269,0.02313
631.38290,0.02656
629.89312,0.01786
628.40333,0.01616
626.91354,0.01449
625.42375,0.01734
623.93396,0.00762
622.44417,0.00961
620.95438,0.01164
619.46460,0.05867
617.97481,0.05692
616.48502,0.08240
614.99523,0.08700
613.50544,0.09162
612.01565,0.10863
610.52587,0.16818
609.03608,0.21763
607.54629,0.22988
606.05650,0.24216
604.56671,0.27572
603.07692,0.33426
601.58714,0.36596
600.09735,0.39767
598.60756,0.45764
597.11777,0.46636
595.62798,0.46992
594.13819,0.45192
592.64840,0.43394
591.15862,0.42498
589.66883,0.35892
588.17904,0.26792
586.68925,0.24734
585.19946,0.22679
583.70967,0.15138
582.21989,0.12098
580.73010,0.10612
579.24031,0.09129
577.75052,0.07063
576.26073,0.05765
574.77094,0.03164
573.28115,0.04041
571.79137,0.04921
570.30158,0.05251
568.81179,0.09341
567.32200,0.09226
565.83221,0.09115
564.34242,0.13616
562.85264,0.14544
561.36285,0.15519
559.87306,0.17138
558.38327,0.18759
556.89348,0.19674
555.40369,0.21986
553.91391,0.21939
552.42412,0.21894
550.93433,0.20548
549.44454,0.22937
547.95475,0.26611
546.46496,0.26452
544.97517,0.26296
543.48539,0.25547
541.99560,0.29388
540.50581,0.29914
539.01602,0.30442
537.52623,0.34336
536.03644,0.37602
534.54666,0.43389
533.05687,0.45299
531.56708,0.47212
530.07729,0.52467
528.58750,0.56443
527.09771,0.58341
525.60792,0.60241
524.11814,0.70274
522.62835,0.73719
521.13856,0.80564
519.64877,0.81439
518.15898,0.82317
516.66919,0.82511
515.17941,0.84282
513.68962,0.83941
512.19983,0.83603
510.71004,0.79871
509.22025,0.77378
507.73046,0.71965
506.24068,0.66159
504.75089,0.60357
503.26110,0.47596
501.77131,0.38795
500.28152,0.34597
498.79173,0.30401
497.30194,0.23520
495.81216,0.16821
494.32237,0.14218
492.83258,0.11618
491.34279,0.07670
489.85300,0.07369
488.36321,0.07318
486.87343,0.06481
485.38364,0.05647
483.89385,0.08617
482.40406,0.12084
480.91427,0.12213
479.42448,0.12345
477.93469,0.13638
476.44491,0.14686
474.95512,0.17265
473.46533,0.19847
471.97554,0.19755
470.48575,0.20655
468.99596,0.22075
467.50618,0.21439
466.01639,0.20806
464.52660,0.15576
463.03681,0.12709
461.54702,0.11533
460.05723,0.10358
458.56745,0.06645
457.07766,0.04980
455.58787,0.03431
454.09808,0.01884
452.60829,0.03128
451.11850,0.01429
449.62871,0.01014
448.13893,0.00601
446.64914,0.03334
445.15935,0.04698
443.66956,0.02781
442.17977,0.01811
440.68998,0.00843
439.20020,0.01430
437.71041,0.02986
436.22062,0.03116
434.73083,0.03249
433.24104,0.03958
431.75125,0.05232
430.26146,0.04495
428.77168,0.03761
427.28189,0.04907
425.79210,0.04773
424.30231,0.04316
422.81252,0.03861
421.32273,0.04342
419.83295,0.05456
418.34316,0.04525
416.85337,0.03596
415.36358,0.00601
413.87379,0.01748
412.38400,0.02740
410.89422,0.03734
409.40443,0.04888
407.91464,0.03975
406.42485,0.03402
404.93506,0.02607
403.44527,0.01814
401.95548,0.01834
400.46570,0.04172
398.97591,0.04489
397.48612,0.04808
395.99633,0.06591
394.50654,0.03497
393.01675,0.03182
391.52697,0.02870
390.03718,0.02797
388.54739,0.05537
387.05760,0.04164
385.56781,0.02793
384.07802,0.01785
382.58824,0.00892
381.09845,0.01367
379.60866,0.01845
378.11887,0.03777
376.62908,0.01122
375.13929,0.01810
373.64950,0.02500
372.15972,0.02980
370.66993,0.01370
369.18014,0.00984
367.69035,0.00601
366.20056,0.00888
364.71077,0.02279
363.22099,0.01795
361.73120,0.01313
360.24141,0.01340
358.75162,0.06902
357.26183,0.07349
355.77204,0.07800
354.28225,0.08061
352.79247,0.12508
351.30268,0.10110
349.81289,0.07713
348.32310,0.05555
346.83331,0.03377
345.34352,0.04632
343.85374,0.05889
342.36395,0.07542
340.87416,0.04070
339.38437,0.04513
337.89458,0.04959
336.40479,0.03878
334.91501,0.03789
333.42522,0.03106
331.93543,0.02426
330.44564,0.01287
328.95585,0.00601
327.46606,0.02076
325.97627,0.03553
324.48649,0.06520
322.99670,0.05666
321.50691,0.05410
320.01712,0.05157
318.52733,0.06627
317.03754,0.04478
315.54776,0.04289
314.05797,0.04102
312.56818,0.04232
311.07839,0.05624
309.58860,0.05185
308.09881,0.04749
306.60902,0.02393
305.11924,0.02288
303.62945,0.01443
302.13966,0.00601
300.64987,0.03175
299.16008,0.00601
