1778.52000,0.01436
1777.03021,0.01819
1775.54042,0.01599
1774.05063,0.01623
1772.56085,0.01125
1771.07106,0.01820
1769.58127,0.02194
1768.09148,0.01321
1766.60169,0.01276
1765.11190,0.01638
1763.62212,0.00469
1762.13233,0.01138
1760.64254,0.01385
1759.15275,0.01131
1757.66296,0.00416
1756.17317,0.00791
1754.68339,0.00000
1753.19360,0.00481
1751.70381,0.01590
1750.21402,0.01108
1748.72423,0.01032
1747.23444,0.00556
1745.74465,0.00646
1744.25487,0.00960
1742.76508,0.00752
1741.27529,0.01051
1739.78550,0.00405
1738.29571,0.00850
1736.80592,0.00652
1735.31614,0.00416
1733.82635,0.00438
1732.33656,0.01733
1730.84677,0.01095
1729.35698,0.00842
1727.86719,0.00451
1726.37740,0.00909
1724.88762,0.00623
1723.39783,0.00501
1721.90804,0.00583
1720.41825,0.01212
1718.92846,0.00754
1717.43867,0.01287
1715.94889,0.00249
1714.45910,0.00805
1712.96931,0.00416
1711.47952,0.01510
1709.98973,0.01155
1708.49994,0.00882
1707.01016,0.00814
1705.52037,0.00749
1704.03058,0.00947
1702.54079,0.01169
1701.05100,0.00929
1699.56121,0.00933
1698.07142,0.00416
1696.58164,0.00784
1695.09185,0.00631
1693.60206,0.01468
1692.11227,0.00755
1690.62248,0.00952
1689.13269,0.01231
1687.64291,0.01997
1686.15312,0.02363
1684.66333,0.03254
1683.17354,0.01951
1681.68375,0.02706
1680.19396,0.02799
1678.70417,0.02873
1677.21439,0.02789
1675.72460,0.04482
1674.23481,0.03878
1672.74502,0.04749
1671.25523,0.04412
1669.76544,0.04824
1668.27566,0.05722
1666.78587,0.06542
1665.29608,0.06739
1663.80629,0.05809
1662.31650,0.07544
1660.82671,0.07445
1659.33693,0.07592
1657.84714,0.06954
1656.35735,0.08052
1654.86756,0.07863
1653.37777,0.07474
1651.88798,0.07249
1650.39819,0.07733
1648.90841,0.07412
1647.41862,0.07416
1645.92883,0.07856
1644.43904,0.08298
1642.94925,0.07402
1641.45946,0.09029
1639.96968,0.08158
1638.47989,0.09003
1636.99010,0.08782
1635.50031,0.08583
1634.01052,0.07782
1632.52073,0.08475
1631.03094,0.09131
1629.54116,0.08579
1628.05137,0.09441
1626.56158,0.08470
1625.07179,0.09922
1623.58200,0.10569
1622.09221,0.09263
1620.60243,0.08625
1619.11264,0.09279
1617.62285,0.09473
1616.13306,0.08438
1614.64327,0.08233
1613.15348,0.08050
1611.66370,0.09664
1610.17391,0.08599
1608.68412,0.09190
1607.19433,0.08573
1605.70454,0.09753
1604.21475,0.09827
1602.72496,0.09903
1601.23518,0.08590
1599.74539,0.09215
1598.25560,0.09238
1596.76581,0.08335
1595.27602,0.08342
1593.78623,0.07606
1592.29645,0.08586
1590.80666,0.06907
1589.31687,0.06944
1587.82708,0.06620
1586.33729,0.08618
1584.84750,0.07634
1583.35771,0.07056
1581.86793,0.07064
1580.37814,0.07660
1578.88835,0.07089
1577.39856,0.06036
1575.90877,0.06619
1574.41898,0.04966
1572.92920,0.04626
1571.43941,0.04208
1569.94962,0.04458
1568.45983,0.04710
1566.97004,0.03916
1565.48025,0.03951
1563.99047,0.02617
1562.50068,0.02819
1561.01089,0.01127
1559.52110,0.02321
1558.03131,0.01340
1556.54152,0.02801
1555.05173,0.02389
1553.56195,0.00406
1552.07216,0.01290
1550.58237,0.01490
1549.09258,0.01531
1547.60279,0.00063
1546.11300,0.00452
1544.62322,0.00419
1543.13343,0.00874
1541.64364,0.00584
1540.15385,0.00499
1538.66406,0.00416
1537.17427,0.01794
1535.68448,0.00978
1534.19470,0.01595
1532.70491,0.00642
1531.21512,0.01647
1529.72533,0.03259
1528.23554,0.02152
1526.74575,0.03427
1525.25597,0.03111
1523.76618,0.02817
1522.27639,0.03575
1520.78660,0.03407
1519.29681,0.03201
1517.80702,0.03825
1516.31724,0.04975
1514.82745,0.04776
1513.33766,0.04853
1511.84787,0.04931
1510.35808,0.05688
1508.86829,0.04894
1507.37850,0.05897
1505.88872,0.04483
1504.39893,0.06519
1502.90914,0.07772
1501.41935,0.06587
1499.92956,0.06231
1498.43977,0.06502
1496.94999,0.06554
1495.46020,0.10037
1493.97041,0.08944
1492.48062,0.10173
1490.99083,0.10658
1489.50104,0.11025
1488.01125,0.11495
1486.52147,0.11967
1485.03168,0.15587
1483.54189,0.18222
1482.05210,0.20375
1480.56231,0.21603
1479.07252,0.23962
1477.58274,0.25094
1476.09295,0.24454
1474.60316,0.26175
1473.11337,0.25580
1471.62358,0.26339
1470.13379,0.27321
1468.64401,0.30585
1467.15422,0.31350
1465.66443,0.32511
1464.17464,0.33675
1462.68485,0.36666
1461.19506,0.39074
1459.70527,0.45256
1458.21549,0.50855
1456.72570,0.58050
1455.23591,0.63089
1453.74612,0.69240
1452.25633,0.69102
1450.76654,0.72596
1449.27676,0.72926
1447.78697,0.71041
1446.29718,0.72869
1444.80739,0.71533
1443.31760,0.70199
1441.82781,0.64835
1440.33802,0.58162
1438.84824,0.54315
1437.35845,0.51640
1435.86866,0.52335
1434.37887,0.53274
1432.88908,0.60044
1431.39929,0.66110
1429.90951,0.75747
1428.41972,0.81697
1426.92993,0.85874
1425.44014,0.89389
1423.95035,0.93107
1422.46056,0.96829
1420.97078,1.00048
1419.48099,0.97079
1417.99120,0.99335
1416.50141,0.97379
1415.01162,0.91534
1413.52183,0.89603
1412.03204,0.86364
1410.54226,0.76997
1409.05247,0.72331
1407.56268,0.66074
1406.07289,0.63308
1404.58310,0.59405
1403.09331,0.55505
1401.60353,0.47584
1400.11374,0.45171
1398.62395,0.38848
1397.13416,0.32688
1395.64437,0.27983
1394.15458,0.23885
1392.66479,0.20637
1391.17501,0.16947
1389.68522,0.14369
1388.19543,0.12499
1386.70564,0.11539
1385.21585,0.10581
1383.72606,0.07045
1382.23628,0.06253
1380.74649,0.03992
1379.25670,0.03165
1377.76691,0.02078
1376.27712,0.01618
1374.78733,0.01121
1373.29755,0.02360
1371.80776,0.00416
1370.31797,0.01323
1368.82818,0.01498
1367.33839,0.01674
1365.84860,0.02973
1364.35881,0.03406
1362.86903,0.04165
1361.37924,0.06881
1359.88945,0.10992
1358.39966,0.11476
1356.90987,0.15147
1355.42008,0.19527
1353.93030,0.24011
1352.44051,0.29172
1350.95072,0.34335
1349.46093,0.39814
1347.97114,0.47029
1346.48135,0.52875
1344.99156,0.62192
1343.50178,0.67337
1342.01199,0.76437
1340.52220,0.81305
1339.03241,0.87526
1337.54262,0.87378
1336.05283,0.90196
1334.56305,0.93017
1333.07326,0.97836
1331.58347,0.96467
1330.09368,0.95484
1328.60389,0.95410
1327.11410,0.89955
1325.62432,0.87628
1324.13453,0.84174
1322.64474,0.80157
1321.15495,0.78442
1319.66516,0.75842
1318.17537,0.73245
1316.68558,0.66899
1315.19580,0.60858
1313.70601,0.56130
1312.21622,0.53945
1310.72643,0.52307
1309.23664,0.48535
1307.74685,0.46438
1306.25707,0.41661
1304.76728,0.39600
1303.27749,0.37540
1301.78770,0.33195
1300.29791,0.26573
1298.80812,0.23018
1297.31834,0.19769
1295.82855,0.16521
1294.33876,0.14507
1292.84897,0.13019
1291.35918,0.10968
1289.86939,0.09989
1288.37960,0.09012
1286.88982,0.09974
1285.40003,0.08740
1283.91024,0.07286
1282.42045,0.08376
1280.93066,0.07129
1279.44087,0.05199
1277.95109,0.06537
1276.46130,0.04612
1274.97151,0.04836
1273.48172,0.05063
1271.99193,0.02721
1270.50214,0.03891
1269.01235,0.04377
1267.52257,0.04039
1266.03278,0.04751
1264.54299,0.03652
1263.05320,0.02474
1261.56341,0.02034
1260.07362,0.01597
1258.58384,0.02140
1257.09405,0.02000
1255.60426,0.02931
1254.11447,0.02433
1252.62468,0.02139
1251.13489,0.00416
1249.64511,0.01858
1248.15532,0.01124
1246.66553,0.01129
1245.17574,0.01137
1243.68595,0.02064
1242.19616,0.01239
1240.70637,0.01304
1239.21659,0.02239
1237.72680,0.02308
1236.23701,0.02844
1234.74722,0.02556
1233.25743,0.02209
1231.76764,0.01865
1230.27786,0.02350
1228.78807,0.02253
1227.29828,0.02642
1225.80849,0.00634
1224.31870,0.01108
1222.82891,0.00416
1221.33912,0.01058
1219.84934,0.01935
1218.35955,0.02815
1216.86976,0.05522
1215.37997,0.06819
1213.89018,0.06647
1212.40039,0.07204
1210.91061,0.06653
1209.42082,0.06771
1207.93103,0.06729
1206.44124,0.06690
1204.95145,0.06593
1203.46166,0.05853
1201.97188,0.05882
1200.48209,0.04824
1198.99230,0.04313
1197.50251,0.03623
1196.01272,0.02552
1194.52293,0.02310
1193.03314,0.02071
1191.54336,0.02137
1190.05357,0.02527
1188.56378,0.01408
1187.07399,0.02066
1185.58420,0.01899
1184.09441,0.00968
1182.60463,0.00675
1181.11484,0.00385
1179.62505,0.00490
1178.13526,0.00416
1176.64547,0.00605
1175.15568,0.00675
1173.66589,0.00828
1172.17611,0.00460
1170.68632,0.00437
1169.19653,0.00416
1167.70674,0.00896
1166.21695,0.00976
1164.72716,0.02248
1163.23738,0.01788
1161.74759,0.03932
1160.25780,0.04929
1158.76801,0.05787
1157.27822,0.06648
1155.78843,0.07168
1154.29865,0.08073
1152.80886,0.09002
1151.31907,0.10315
1149.82928,0.09373
1148.33949,0.11438
1146.84970,0.11710
1145.35991,0.11985
1143.87013,0.13754
1142.38034,0.16494
1140.89055,0.16836
1139.40076,0.14620
1137.91097,0.17266
1136.42118,0.19733
1134.93140,0.20307
1133.44161,0.20883
1131.95182,0.21905
1130.46203,0.23172
1128.97224,0.22586
1127.48245,0.23010
1125.99266,0.25292
1124.50288,0.25137
1123.01309,0.24651
1121.52330,0.24168
1120.03351,0.25007
1118.54372,0.23994
1117.05393,0.24214
1115.56415,0.25464
1114.07436,0.22543
1112.58457,0.22658
1111.09478,0.22777
1109.60499,0.23371
1108.11520,0.22697
1106.62542,0.24083
1105.13563,0.24604
1103.64584,0.25027
1102.15605,0.23173
1100.66626,0.22975
1099.17647,0.22780
1097.68668,0.22567
1096.19690,0.20904
1094.70711,0.19889
1093.21732,0.19804
1091.72753,0.20891
1090.23774,0.20186
1088.74795,0.19483
1087.25817,0.19448
1085.76838,0.18548
1084.27859,0.19244
1082.78880,0.20385
1081.29901,0.21529
1079.80922,0.22152
1078.31943,0.21627
1076.82965,0.21105
1075.33986,0.23085
1073.85007,0.24382
1072.36028,0.24694
1070.87049,0.26500
1069.38070,0.30325
1067.89092,0.30936
1066.40113,0.31550
1064.91134,0.37439
1063.42155,0.47040
1061.93176,0.55193
1060.44197,0.67300
1058.95219,0.74731
1057.46240,0.80067
1055.97261,0.85406
1054.48282,0.94841
1052.99303,1.02080
1051.50324,1.02022
1050.01345,1.03135
1048.52367,1.01509
1047.03388,1.00107
1045.54409,0.98708
1044.05430,0.92390
1042.56451,0.81840
1041.07472,0.76859
1039.58494,0.73230
1038.09515,0.62567
1036.60536,0.59175
1035.11557,0.55786
1033.62578,0.48699
1032.13599,0.42179
1030.64620,0.35460
1029.15642,0.31888
1027.66663,0.30225
1026.17684,0.28564
1024.68705,0.23448
1023.19726,0.21963
1021.70747,0.18525
1020.21769,0.16541
1018.72790,0.13914
1017.23811,0.12570
1015.74832,0.11228
1014.25853,0.10343
1012.76874,0.09057
1011.27896,0.09587
1009.78917,0.09859
1008.29938,0.07430
1006.80959,0.06425
1005.31980,0.05423
1003.83001,0.04837
1002.34022,0.02902
1000.85044,0.03127
999.36065,0.04423
997.87086,0.04370
996.38107,0.04320
994.89128,0.08306
993.40149,0.09268
991.91171,0.10637
990.42192,0.14267
988.93213,0.16507
987.44234,0.16481
985.95255,0.16458
984.46276,0.16205
982.97297,0.16641
981.48319,0.12642
979.99340,0.11146
978.50361,0.09693
977.01382,0.08243
975.52403,0.06290
974.03424,0.04461
972.54446,0.03744
971.05467,0.03412
969.56488,0.00420
968.07509,0.01397
966.58530,0.02375
965.09551,0.01985
963.60573,0.00428
962.11594,0.01147
960.62615,0.00416
959.13636,0.00558
957.64657,0.00702
956.15678,0.02543
954.66699,0.00978
953.17721,0.02037
951.68742,0.03321
950.19763,0.03860
948.70784,0.04403
947.21805,0.06056
945.72826,0.06058
944.23848,0.09169
942.74869,0.09599
941.25890,0.11565
939.76911,0.11688
938.27932,0.11813
936.78953,0.15600
935.29974,0.17213
933.80996,0.18121
932.32017,0.18024
930.83038,0.19109
929.34059,0.20197
927.85080,0.23333
926.36101,0.25767
924.87123,0.28968
923.38144,0.36730
921.89165,0.39321
920.40186,0.41915
918.91207,0.51418
917.42228,0.64977
915.93250,0.78820
914.44271,1.03151
912.95292,1.13218
911.46313,1.23287
909.97334,1.43834
908.48355,1.65372
906.99376,1.80298
905.50398,1.95025
904.01419,1.96607
902.52440,1.98192
901.03461,2.00000
899.54482,1.93765
898.05503,1.82633
896.56525,1.63215
895.07546,1.48720
893.58567,1.34227
892.09588,1.06367
890.60609,0.84055
889.11630,0.61967
887.62651,0.48633
886.13673,0.42622
884.64694,0.36613
883.15715,0.25060
881.66736,0.18431
880.17757,0.12610
878.68778,0.10684
877.19800,0.08760
875.70821,0.06173
874.21842,0.05564
872.72863,0.02982
871.23884,0.00967
869.74905,0.00698
868.25927,0.00432
866.76948,0.01308
865.27969,0.00915
863.78990,0.01614
862.30011,0.03324
860.81032,0.03846
859.32053,0.04371
857.83075,0.05301
856.34096,0.07585
854.85117,0.10052
853.36138,0.09215
851.87159,0.10518
850.38180,0.11823
848.89202,0.14240
847.40223,0.15126
845.91244,0.17286
844.42265,0.18480
842.93286,0.19676
841.44307,0.20713
839.95329,0.22580
838.46350,0.24872
836.97371,0.24243
835.48392,0.24644
833.99413,0.25048
832.50434,0.25132
831.01455,0.22698
829.52477,0.20971
828.03498,0.16485
826.54519,0.15752
825.05540,0.15021
823.56561,0.13949
822.07582,0.11690
820.58604,0.11955
819.09625,0.11667
817.60646,0.11381
816.11667,0.10120
814.62688,0.11302
813.13709,0.12183
811.64730,0.13228
810.15752,0.12964
808.66773,0.12703
807.17794,0.12384
805.68815,0.12854
804.19836,0.13629
802.70857,0.12752
801.21879,0.11878
799.72900,0.11914
798.23921,0.10540
796.74942,0.11488
795.25963,0.11642
793.76984,0.11798
792.28006,0.14608
790.79027,0.14860
789.30048,0.16344
787.81069,0.17428
786.32090,0.19915
784.83111,0.22404
783.34132,0.24503
781.85154,0.28963
780.36175,0.32579
778.87196,0.34907
777.38217,0.37237
775.89238,0.38864
774.40259,0.39162
772.91281,0.38555
771.42302,0.38606
769.93323,0.38660
768.44344,0.33160
766.95365,0.27381
765.46386,0.22491
763.97407,0.17604
762.48429,0.15955
760.99450,0.14309
759.50471,0.12635
758.01492,0.10963
756.52513,0.09737
755.03534,0.08988
753.54556,0.08241
752.05577,0.06982
750.56598,0.06311
749.07619,0.05420
747.58640,0.04884
746.09661,0.04350
744.60683,0.04092
743.11704,0.02363
741.62725,0.00416
740.13746,0.01300
738.64767,0.02188
737.15788,0.01333
735.66809,0.00320
734.17831,0.00488
732.68852,0.00447
731.19873,0.00409
729.70894,0.00441
728.21915,0.01161
726.72936,0.00734
725.23958,0.00928
723.74979,0.00670
722.26000,0.00416
720.77021,0.00833
719.28042,0.00929
717.79063,0.01069
716.30084,0.01059
714.81106,0.01053
713.32127,0.01280
711.83148,0.01711
710.34169,0.02286
708.85190,0.02390
707.36211,0.02495
705.87233,0.03662
704.38254,0.04166
702.89275,0.03200
701.40296,0.03739
699.91317,0.04281
698.42338,0.06367
696.93360,0.07951
695.44381,0.10587
693.95402,0.11067
692.46423,0.11550
690.97444,0.13971
689.48465,0.16132
687.99486,0.16884
686.50508,0.18617
685.01529,0.20351
683.52550,0.23107
682.03571,0.25946
680.54592,0.26145
679.05613,0.25974
677.56635,0.25805
676.07656,0.29379
674.58677,0.25474
673.09698,0.23750
671.60719,0.21867
670.11740,0.19986
668.62761,0.16978
667.13783,0.17320
665.64804,0.15527
664.15825,0.13736
662.66846,0.09831
661.17867,0.08206
659.68888,0.05253
658.19910,0.04440
656.70931,0.03629
655.21952,0.03244
653.72973,0.03426
652.23994,0.03994
650.75015,0.03687
649.26037,0.03382
647.77058,0.03473
646.28079,0.03465
644.79100,0.02815
643.30121,0.03094
641.81142,0.03376
640.32163,0.05334
638.83185,0.02878
637.34206,0.00869
635.85227,0.00666
634.36248,0.00466
632.87269,0.00416
631.38290,0.00940
629.89312,0.01164
628.40333,0.00856
626.91354,0.00551
625.42375,0.00137
623.93396,0.00653
622.44417,0.02603
620.95438,0.04556
619.46460,0.02538
617.97481,0.05201
616.48502,0.06173
614.99523,0.06754
613.50544,0.07337
612.01565,0.11099
610.52587,0.15568
609.03608,0.18508
607.54629,0.21138
606.05650,0.23769
604.56671,0.26736
603.07692,0.33356
601.58714,0.35924
600.09735,0.38495
598.60756,0.41935
597.11777,0.42716
595.62798,0.44992
594.13819,0.43116
592.64840,0.41243
591.15862,0.38746
589.66883,0.31816
588.17904,0.24788
586.68925,0.23478
585.19946,0.22171
583.70967,0.15735
582.21989,0.10470
580.73010,0.08434
579.24031,0.06401
577.75052,0.06749
576.26073,0.04700
574.77094,0.04408
573.28115,0.04703
571.79137,0.05001
570.30158,0.05099
568.81179,0.06571
567.32200,0.07067
565.83221,0.07566
564.34242,0.11626
562.85264,0.11817
561.36285,0.12736
559.87306,0.12861
558.38327,0.12989
556.89348,0.14016
555.40369,0.16558
553.91391,0.17620
552.42412,0.18685
550.93433,0.18371
549.44454,0.19390
547.95475,0.21964
546.46496,0.20770
544.97517,0.19578
543.48539,0.22442
541.99560,0.25005
540.50581,0.25514
539.01602,0.26026
537.52623,0.32670
536.03644,0.36614
534.54666,0.39150
533.05687,0.41465
531.56708,0.43784
530.07729,0.48827
528.58750,0.54416
527.09771,0.56520
525.60792,0.58626
524.11814,0.69425
522.62835,0.74137
521.13856,0.77037
519.64877,0.77449
518.15898,0.77863
516.66919,0.82564
515.17941,0.84364
513.68962,0.84856
512.19983,0.85350
510.71004,0.80019
509.22025,0.76062
507.73046,0.71280
506.24068,0.64968
504.75089,0.58659
503.26110,0.47432
501.77131,0.37538
500.28152,0.33474
498.79173,0.29412
497.30194,0.21864
495.81216,0.16033
494.32237,0.14267
492.83258,0.12504
491.34279,0.10995
489.85300,0.09791
488.36321,0.07924
486.87343,0.06896
485.38364,0.05871
483.89385,0.08044
482.40406,0.10139
480.91427,0.10593
479.42448,0.11049
477.93469,0.13655
476.44491,0.14267
474.95512,0.16294
473.46533,0.18322
471.97554,0.17651
470.48575,0.17204
468.99596,0.17627
467.50618,0.16015
466.01639,0.14406
464.52660,0.10541
463.03681,0.09481
461.54702,0.08433
460.05723,0.07388
458.56745,0.04379
457.07766,0.03974
455.58787,0.04076
454.09808,0.04179
452.60829,0.03681
451.11850,0.02640
449.62871,0.02791
448.13893,0.02945
446.64914,0.02698
445.15935,0.01686
443.66956,0.00416
442.17977,0.01080
440.68998,0.01746
439.20020,0.05308
437.71041,0.04820
436.22062,0.03900
434.73083,0.02983
433.24104,0.02905
431.75125,0.04443
430.26146,0.05085
428.77168,0.05730
427.28189,0.05541
425.79210,0.03257
424.30231,0.03687
422.81252,0.04120
421.32273,0.02065
419.83295,0.04550
418.34316,0.03961
416.85337,0.03375
415.36358,0.01532
413.87379,0.03239
412.38400,0.03205
410.89422,0.03173
409.40443,0.04303
407.91464,0.04851
406.42485,0.03888
404.93506,0.04078
403.44527,0.04269
401.95548,0.03617
400.46570,0.04398
398.97591,0.04859
397.48612,0.05323
395.99633,0.02905
394.50654,0.03979
393.01675,0.03461
391.52697,0.02946
390.03718,0.03684
388.54739,0.03496
387.05760,0.02596
385.56781,0.01697
384.07802,0.01456
382.58824,0.04955
381.09845,0.04221
379.60866,0.03490
378.11887,0.01894
376.62908,0.00522
375.13929,0.00859
373.64950,0.01199
372.15972,0.04192
370.66993,0.02046
369.18014,0.01389
367.69035,0.00734
366.20056,0.01619
364.71077,0.02970
363.22099,0.01692
361.73120,0.00416
360.24141,0.05421
358.75162,0.07445
357.26183,0.06748
355.77204,0.06055
354.28225,0.06512
352.79247,0.08949
351.30268,0.08746
349.81289,0.08546
348.32310,0.06956
346.83331,0.04402
345.34352,0.05086
343.85374,0.05772
342.36395,0.06209
340.87416,0.02353
339.38437,0.01957
337.89458,0.01565
336.40479,0.00821
334.91501,0.01270
333.42522,0.01298
331.93543,0.01328
330.44564,0.01844
328.95585,0.02544
327.46606,0.02753
325.97627,0.02964
324.48649,0.04418
322.99670,0.04482
321.50691,0.04166
320.01712,0.03852
318.52733,0.05114
317.03754,0.04482
315.54776,0.05890
314.05797,0.07300
312.56818,0.07179
311.07839,0.08292
309.58860,0.07904
308.09881,0.07519
306.60902,0.06480
305.11924,0.05142
303.62945,0.04976
302.13966,0.04812
300.64987,0.00416
299.16008,0.00416
