1778.52000,0.00000
1777.03021,0.00803
1775.54042,0.01007
1774.05063,0.00881
1772.56085,0.00696
1771.07106,0.01467
1769.58127,0.01204
1768.09148,0.01191
1766.60169,0.01140
1765.11190,0.01091
1763.62212,0.02165
1762.13233,0.01167
1760.64254,0.01312
1759.15275,0.01812
1757.66296,0.01444
1756.17317,0.01119
1754.68339,0.01336
1753.19360,0.01120
1751.70381,0.01715
1750.21402,0.01110
1748.72423,0.01731
1747.23444,0.01068
1745.74465,0.02357
1744.25487,0.01679
1742.76508,0.01646
1741.27529,0.01864
1739.78550,0.01358
1738.29571,0.01771
1736.80592,0.01750
1735.31614,0.01628
1733.82635,0.01611
1732.33656,0.02488
1730.84677,0.02205
1729.35698,0.01677
1727.86719,0.01296
1726.37740,0.01726
1724.88762,0.01267
1723.39783,0.02013
1721.90804,0.02118
1720.41825,0.01480
1718.92846,0.02275
1717.43867,0.01994
1715.94889,0.01321
1714.45910,0.01666
1712.96931,0.01475
1711.47952,0.01667
1709.98973,0.01799
1708.49994,0.01685
1707.01016,0.01469
1705.52037,0.01256
1704.03058,0.02186
1702.54079,0.01521
1701.05100,0.02207
1699.56121,0.01444
1698.07142,0.02096
1696.58164,0.02129
1695.09185,0.03595
1693.60206,0.02035
1692.11227,0.01992
1690.62248,0.02677
1689.13269,0.01539
1687.64291,0.03308
1686.15312,0.03316
1684.66333,0.04488
1683.17354,0.03340
1681.68375,0.03562
1680.19396,0.03995
1678.70417,0.02770
1677.21439,0.03892
1675.72460,0.05162
1674.23481,0.04629
1672.74502,0.04473
1671.25523,0.05065
1669.76544,0.05639
1668.27566,0.05178
1666.78587,0.07105
1665.29608,0.06774
1663.80629,0.07524
1662.31650,0.07239
1660.82671,0.07869
1659.33693,0.08314
1657.84714,0.08348
1656.35735,0.08695
1654.86756,0.07571
1653.37777,0.08234
1651.88798,0.08817
1650.39819,0.08074
1648.90841,0.08080
1647.41862,0.08566
1645.92883,0.08878
1644.43904,0.09193
1642.94925,0.09147
1641.45946,0.09331
1639.96968,0.09559
1638.47989,0.09769
1636.99010,0.09131
1635.50031,0.09471
1634.01052,0.09481
1632.52073,0.09182
1631.03094,0.09383
1629.54116,0.09421
1628.05137,0.09399
1626.56158,0.11496
1625.07179,0.11064
1623.58200,0.11257
1622.09221,0.11390
1620.60243,0.10177
1619.11264,0.10253
1617.62285,0.11783
1616.13306,0.10515
1614.64327,0.09083
1613.15348,0.08920
1611.66370,0.10314
1610.17391,0.10011
1608.68412,0.09937
1607.19433,0.11422
1605.70454,0.11291
1604.21475,0.10997
1602.72496,0.10705
1601.23518,0.09918
1599.74539,0.09486
1598.25560,0.09284
1596.76581,0.10039
1595.27602,0.10029
1593.78623,0.08632
1592.29645,0.09270
1590.80666,0.09806
1589.31687,0.08312
1587.82708,0.08252
1586.33729,0.08879
1584.84750,0.09301
1583.35771,0.08605
1581.86793,0.08886
1580.37814,0.08403
1578.88835,0.09519
1577.39856,0.07526
1575.90877,0.08356
1574.41898,0.06617
1572.92920,0.05046
1571.43941,0.04494
1569.94962,0.05106
1568.45983,0.05721
1566.97004,0.05860
1565.48025,0.04530
1563.99047,0.04197
1562.50068,0.03390
1561.01089,0.03602
1559.52110,0.04500
1558.03131,0.03431
1556.54152,0.03670
1555.05173,0.04846
1553.56195,0.04759
1552.07216,0.02102
1550.58237,0.02600
1549.09258,0.02955
1547.60279,0.01675
1546.11300,0.02471
1544.62322,0.01444
1543.13343,0.01532
1541.64364,0.01851
1540.15385,0.02867
1538.66406,0.03886
1537.17427,0.01993
1535.68448,0.01741
1534.19470,0.03969
1532.70491,0.03296
1531.21512,0.02480
1529.72533,0.03408
1528.23554,0.02410
1526.74575,0.04049
1525.25597,0.04466
1523.76618,0.03662
1522.27639,0.04354
1520.78660,0.04550
1519.29681,0.04749
1517.80702,0.04971
1516.31724,0.05486
1514.82745,0.05506
1513.33766,0.05652
1511.84787,0.05801
1510.35808,0.06367
1508.86829,0.06126
1507.37850,0.06179
1505.88872,0.05383
1504.39893,0.06166
1502.90914,0.07491
1501.41935,0.08507
1499.92956,0.08385
1498.43977,0.06917
1496.94999,0.08334
1495.46020,0.09713
1493.97041,0.11198
1492.48062,0.11959
1490.99083,0.11768
1489.50104,0.12596
1488.01125,0.13530
1486.52147,0.14467
1485.03168,0.17896
1483.54189,0.20704
1482.05210,0.22976
1480.56231,0.25229
1479.07252,0.26655
1477.58274,0.28498
1476.09295,0.28269
1474.60316,0.30428
1473.11337,0.30412
1471.62358,0.29444
1470.13379,0.29557
1468.64401,0.31684
1467.15422,0.34768
1465.66443,0.35801
1464.17464,0.36837
1462.68485,0.38891
1461.19506,0.43291
1459.70527,0.46574
1458.21549,0.53054
1456.72570,0.61859
1455.23591,0.67514
1453.74612,0.70599
1452.25633,0.76342
1450.76654,0.75781
1449.27676,0.75617
1447.78697,0.74210
1446.29718,0.72454
1444.80739,0.71353
1443.31760,0.70254
1441.82781,0.63983
1440.33802,0.57797
1438.84824,0.54912
1437.35845,0.51033
1435.86866,0.52011
1434.37887,0.53675
1432.88908,0.57209
1431.39929,0.63172
1429.90951,0.73432
1428.41972,0.82864
1426.92993,0.85122
1425.44014,0.88543
1423.95035,0.92268
1422.46056,0.95995
1420.97078,0.99382
1419.48099,0.98126
1417.99120,0.97349
1416.50141,0.94935
1415.01162,0.91798
1413.52183,0.85448
1412.03204,0.80740
1410.54226,0.76531
1409.05247,0.68633
1407.56268,0.64824
1406.07289,0.61473
1404.58310,0.57855
1403.09331,0.54240
1401.60353,0.47557
1400.11374,0.41934
1398.62395,0.37455
1397.13416,0.32065
1395.64437,0.27342
1394.15458,0.21542
1392.66479,0.20059
1391.17501,0.16339
1389.68522,0.13575
1388.19543,0.12079
1386.70564,0.10720
1385.21585,0.09363
1383.72606,0.06236
1382.23628,0.04977
1380.74649,0.04281
1379.25670,0.04584
1377.76691,0.02358
1376.27712,0.01503
1374.78733,0.02248
1373.29755,0.02021
1371.80776,0.01444
1370.31797,0.01897
1368.82818,0.01845
1367.33839,0.01795
1365.84860,0.03168
1364.35881,0.03528
1362.86903,0.05590
1361.37924,0.06722
1359.88945,0.11528
1358.39966,0.13867
1356.90987,0.17039
1355.42008,0.19819
1353.93030,0.25547
1352.44051,0.29401
1350.95072,0.33256
1349.46093,0.40153
1347.97114,0.48775
1346.48135,0.56340
1344.99156,0.64800
1343.50178,0.71499
1342.01199,0.78554
1340.52220,0.84470
1339.03241,0.88832
1337.54262,0.91040
1336.05283,0.91808
1334.56305,0.92579
1333.07326,0.98051
1331.58347,0.95207
1330.09368,0.96970
1328.60389,0.95148
1327.11410,0.90506
1325.62432,0.85992
1324.13453,0.86852
1322.64474,0.80911
1321.15495,0.77898
1319.66516,0.77034
1318.17537,0.76172
1316.68558,0.69037
1315.19580,0.63855
1313.70601,0.56850
1312.21622,0.52462
1310.72643,0.53302
1309.23664,0.49126
1307.74685,0.47358
1306.25707,0.42875
1304.76728,0.41091
1303.27749,0.39310
1301.78770,0.33880
1300.29791,0.29158
1298.80812,0.24355
1297.31834,0.20094
1295.82855,0.17536
1294.33876,0.15396
1292.84897,0.13155
1291.35918,0.12139
1289.86939,0.11697
1288.37960,0.11257
1286.88982,0.10041
1285.40003,0.09948
1283.91024,0.08323
1282.42045,0.07115
1280.93066,0.05950
1279.44087,0.06448
1277.95109,0.07881
1276.46130,0.06227
1274.97151,0.05767
1273.48172,0.05310
1271.99193,0.04243
1270.50214,0.03904
1269.01235,0.05000
1267.52257,0.03878
1266.03278,0.02863
1264.54299,0.02928
1263.05320,0.02934
1261.56341,0.02558
1260.07362,0.02185
1258.58384,0.02862
1257.09405,0.01964
1255.60426,0.03164
1254.11447,0.03392
1252.62468,0.02979
1251.13489,0.02382
1249.64511,0.03986
1248.15532,0.01444
1246.66553,0.01500
1245.17574,0.01560
1243.68595,0.02109
1242.19616,0.03407
1240.70637,0.02924
1239.21659,0.03377
1237.72680,0.02816
1236.23701,0.04165
1234.74722,0.01555
1233.25743,0.02194
1231.76764,0.02835
1230.27786,0.03489
1228.78807,0.03129
1227.29828,0.02937
1225.80849,0.01441
1224.31870,0.02520
1222.82891,0.01444
1221.33912,0.02760
1219.84934,0.04215
1218.35955,0.05671
1216.86976,0.05834
1215.37997,0.07388
1213.89018,0.09236
1212.40039,0.10111
1210.91061,0.09930
1209.42082,0.10665
1207.93103,0.10033
1206.44124,0.09404
1204.95145,0.08673
1203.46166,0.09065
1201.97188,0.07384
1200.48209,0.08963
1198.99230,0.06417
1197.50251,0.06321
1196.01272,0.05044
1194.52293,0.04299
1193.03314,0.03557
1191.54336,0.02869
1190.05357,0.03407
1188.56378,0.03553
1187.07399,0.03660
1185.58420,0.03396
1184.09441,0.03094
1182.60463,0.02544
1181.11484,0.01998
1179.62505,0.02138
1178.13526,0.02467
1176.64547,0.02156
1175.15568,0.01619
1173.66589,0.02183
1172.17611,0.01444
1170.68632,0.02164
1169.19653,0.02887
1167.70674,0.03239
1166.21695,0.02017
1164.72716,0.02934
1163.23738,0.03729
1161.74759,0.06123
1160.25780,0.07297
1158.76801,0.06989
1157.27822,0.06684
1155.78843,0.08818
1154.29865,0.10478
1152.80886,0.11933
1151.31907,0.11772
1149.82928,0.12071
1148.33949,0.13699
1146.84970,0.13960
1145.35991,0.14224
1143.87013,0.12935
1142.38034,0.16875
1140.89055,0.16918
1139.40076,0.16175
1137.91097,0.21181
1136.42118,0.22227
1134.93140,0.22549
1133.44161,0.22874
1131.95182,0.23326
1130.46203,0.23614
1128.97224,0.24174
1127.48245,0.23782
1125.99266,0.25634
1124.50288,0.25454
1123.01309,0.25049
1121.52330,0.24647
1120.03351,0.27109
1118.54372,0.24015
1117.05393,0.25507
1115.56415,0.24907
1114.07436,0.24931
1112.58457,0.24377
1111.09478,0.23826
1109.60499,0.23339
1108.11520,0.25551
1106.62542,0.23410
1105.13563,0.23863
1103.64584,0.25502
1102.15605,0.24446
1100.66626,0.23663
1099.17647,0.22882
1097.68668,0.23742
1096.19690,0.21576
1094.70711,0.20367
1093.21732,0.20695
1091.72753,0.19345
1090.23774,0.18692
1088.74795,0.18042
1087.25817,0.20413
1085.76838,0.20836
1084.27859,0.20847
1082.78880,0.19200
1081.29901,0.21477
1079.80922,0.22636
1078.31943,0.23154
1076.82965,0.23675
1075.33986,0.24467
1073.85007,0.24599
1072.36028,0.25210
1070.87049,0.28768
1069.38070,0.29322
1067.89092,0.31579
1066.40113,0.33838
1064.91134,0.39377
1063.42155,0.49005
1061.93176,0.59444
1060.44197,0.71214
1058.95219,0.81305
1057.46240,0.87074
1055.97261,0.92846
1054.48282,1.04065
1052.99303,1.11117
1051.50324,1.10683
1050.01345,1.08343
1048.52367,1.06151
1047.03388,1.04252
1045.54409,1.02355
1044.05430,0.94839
1042.56451,0.85998
1041.07472,0.79545
1039.58494,0.72991
1038.09515,0.63348
1036.60536,0.60729
1035.11557,0.58113
1033.62578,0.51050
1032.13599,0.41251
1030.64620,0.35416
1029.15642,0.31243
1027.66663,0.30589
1026.17684,0.29937
1024.68705,0.25025
1023.19726,0.22542
1021.70747,0.17987
1020.21769,0.18538
1018.72790,0.16477
1017.23811,0.15093
1015.74832,0.13711
1014.25853,0.10476
1012.76874,0.10292
1011.27896,0.09778
1009.78917,0.08997
1008.29938,0.07804
1006.80959,0.06478
1005.31980,0.05155
1003.83001,0.04322
1002.34022,0.04549
1000.85044,0.05421
999.36065,0.06420
997.87086,0.07184
996.38107,0.07949
994.89128,0.08230
993.40149,0.10712
991.91171,0.12262
990.42192,0.14936
988.93213,0.16554
987.44234,0.18226
985.95255,0.19900
984.46276,0.18020
982.97297,0.16411
981.48319,0.13893
979.99340,0.11107
978.50361,0.10315
977.01382,0.09525
975.52403,0.07950
974.03424,0.06273
972.54446,0.05449
971.05467,0.04192
969.56488,0.01444
968.07509,0.02392
966.58530,0.03343
965.09551,0.02492
963.60573,0.01747
962.11594,0.01336
960.62615,0.02558
959.13636,0.02216
957.64657,0.01876
956.15678,0.03395
954.66699,0.04025
953.17721,0.02127
951.68742,0.03425
950.19763,0.03958
948.70784,0.04494
947.21805,0.08994
945.72826,0.10406
944.23848,0.10098
942.74869,0.11224
941.25890,0.12581
939.76911,0.13121
938.27932,0.13663
936.78953,0.15359
935.29974,0.16643
933.80996,0.20273
932.32017,0.19113
930.83038,0.19409
929.34059,0.19706
927.85080,0.24134
926.36101,0.26697
924.87123,0.31649
923.38144,0.35420
921.89165,0.40801
920.40186,0.46185
918.91207,0.55274
917.42228,0.65962
915.93250,0.84142
914.44271,1.04377
912.95292,1.17012
911.46313,1.29650
909.97334,1.49228
908.48355,1.73456
906.99376,1.88683
905.50398,1.98188
904.01419,1.98288
902.52440,1.98391
901.03461,2.00000
899.54482,1.98894
898.05503,1.84971
896.56525,1.63646
895.07546,1.47830
893.58567,1.32016
892.09588,1.04973
890.60609,0.81769
889.11630,0.63588
887.62651,0.47193
886.13673,0.41587
884.64694,0.35983
883.15715,0.26357
881.66736,0.19784
880.17757,0.15971
878.68778,0.13748
877.19800,0.11527
875.70821,0.07887
874.21842,0.06055
872.72863,0.04702
871.23884,0.03145
869.74905,0.03062
868.25927,0.02982
866.76948,0.03153
865.27969,0.01875
863.78990,0.04727
862.30011,0.06295
860.81032,0.06891
859.32053,0.07489
857.83075,0.09666
856.34096,0.10331
854.85117,0.13654
853.36138,0.15237
851.87159,0.16739
850.38180,0.18244
848.89202,0.21016
847.40223,0.21136
845.91244,0.23187
844.42265,0.24245
842.93286,0.25306
841.44307,0.26680
839.95329,0.28637
838.46350,0.29476
836.97371,0.30152
835.48392,0.31505
833.99413,0.32860
832.50434,0.32195
831.01455,0.28877
829.52477,0.28217
828.03498,0.23079
826.54519,0.22465
825.05540,0.21854
823.56561,0.18901
822.07582,0.17423
820.58604,0.17089
819.09625,0.16798
817.60646,0.16510
816.11667,0.14503
814.62688,0.15111
813.13709,0.17091
811.64730,0.18078
810.15752,0.17325
808.66773,0.16575
807.17794,0.18793
805.68815,0.17964
804.19836,0.17531
802.70857,0.17797
801.21879,0.18064
799.72900,0.18780
798.23921,0.17299
796.74942,0.15593
795.25963,0.15590
793.76984,0.15590
792.28006,0.19388
790.79027,0.21156
789.30048,0.22843
787.81069,0.26233
786.32090,0.27313
784.83111,0.28395
783.34132,0.32125
781.85154,0.35836
780.36175,0.42226
778.87196,0.44459
777.38217,0.46694
775.89238,0.47075
774.40259,0.47127
772.91281,0.48385
771.42302,0.45299
769.93323,0.42215
768.44344,0.37775
766.95365,0.32820
765.46386,0.28260
763.97407,0.22376
762.48429,0.21036
760.99450,0.19700
759.50471,0.17266
758.01492,0.14938
756.52513,0.12447
755.03534,0.11804
753.54556,0.11164
752.05577,0.08390
750.56598,0.08854
749.07619,0.06769
747.58640,0.06273
746.09661,0.05780
744.60683,0.05652
743.11704,0.04634
741.62725,0.03371
740.13746,0.02897
738.64767,0.02427
737.15788,0.02975
735.66809,0.02944
734.17831,0.01444
732.68852,0.02156
731.19873,0.02871
729.70894,0.02665
728.21915,0.01860
726.72936,0.02488
725.23958,0.02165
723.74979,0.01803
722.26000,0.01444
720.77021,0.02219
719.28042,0.01380
717.79063,0.01663
716.30084,0.01471
714.81106,0.01281
713.32127,0.01198
711.83148,0.01823
710.34169,0.01309
708.85190,0.02021
707.36211,0.02736
705.87233,0.04677
704.38254,0.06122
702.89275,0.04479
701.40296,0.04322
699.91317,0.04167
698.42338,0.06494
696.93360,0.08221
695.44381,0.09785
693.95402,0.10656
692.46423,0.11530
690.97444,0.13205
689.48465,0.16334
687.99486,0.17557
686.50508,0.18431
685.01529,0.19306
683.52550,0.23752
682.03571,0.24549
680.54592,0.25909
679.05613,0.25944
677.56635,0.25981
676.07656,0.27016
674.58677,0.24216
673.09698,0.22933
671.60719,0.21746
670.11740,0.20561
668.62761,0.16983
667.13783,0.16788
665.64804,0.15496
664.15825,0.14207
662.66846,0.10638
661.17867,0.09499
659.68888,0.05852
658.19910,0.05257
656.70931,0.04665
655.21952,0.03431
653.72973,0.05001
652.23994,0.04809
650.75015,0.04475
649.26037,0.04144
647.77058,0.06076
646.28079,0.03591
644.79100,0.03288
643.30121,0.04231
641.81142,0.05177
640.32163,0.05192
638.83185,0.04545
637.34206,0.01661
635.85227,0.01551
634.36248,0.01444
632.87269,0.02541
631.38290,0.02023
629.89312,0.02295
628.40333,0.02715
626.91354,0.03137
625.42375,0.03230
623.93396,0.02911
622.44417,0.03195
620.95438,0.03482
619.46460,0.05078
617.97481,0.06304
616.48502,0.07552
614.99523,0.08357
613.50544,0.09164
612.01565,0.14506
610.52587,0.17631
609.03608,0.22169
607.54629,0.22727
606.05650,0.23287
604.56671,0.27749
603.07692,0.34392
601.58714,0.37054
600.09735,0.39719
598.60756,0.45020
597.11777,0.46466
595.62798,0.47209
594.13819,0.46046
592.64840,0.44886
591.15862,0.42359
589.66883,0.35519
588.17904,0.28599
586.68925,0.25945
585.19946,0.23292
583.70967,0.21026
582.21989,0.13743
580.73010,0.12643
579.24031,0.11546
577.75052,0.08439
576.26073,0.07388
574.77094,0.06838
573.28115,0.07285
571.79137,0.07735
570.30158,0.08353
568.81179,0.10301
567.32200,0.11215
565.83221,0.12131
564.34242,0.13464
562.85264,0.14489
561.36285,0.19498
559.87306,0.19501
558.38327,0.19506
556.89348,0.21142
555.40369,0.22780
553.91391,0.23549
552.42412,0.24321
550.93433,0.25863
549.44454,0.25498
547.95475,0.27045
546.46496,0.26292
544.97517,0.25540
543.48539,0.26306
541.99560,0.31057
540.50581,0.33933
539.01602,0.36811
537.52623,0.39495
536.03644,0.43135
534.54666,0.44745
533.05687,0.47851
531.56708,0.50959
530.07729,0.54070
528.58750,0.58158
527.09771,0.61387
525.60792,0.64619
524.11814,0.73693
522.62835,0.77998
521.13856,0.83135
519.64877,0.82602
518.15898,0.82071
516.66919,0.85659
515.17941,0.86803
513.68962,0.88333
512.19983,0.89865
510.71004,0.84191
509.22025,0.80677
507.73046,0.73349
506.24068,0.66977
504.75089,0.60608
503.26110,0.52769
501.77131,0.42733
500.28152,0.36889
498.79173,0.31048
497.30194,0.24339
495.81216,0.18378
494.32237,0.16278
492.83258,0.14181
491.34279,0.12293
489.85300,0.12939
488.36321,0.10433
486.87343,0.10264
485.38364,0.10098
483.89385,0.08450
482.40406,0.12572
480.91427,0.12797
479.42448,0.13023
477.93469,0.15721
476.44491,0.17425
474.95512,0.19765
473.46533,0.22107
471.97554,0.21309
470.48575,0.25512
468.99596,0.25279
467.50618,0.23005
466.01639,0.20733
464.52660,0.14865
463.03681,0.12899
461.54702,0.11174
460.05723,0.09451
458.56745,0.07824
457.07766,0.05640
455.58787,0.04391
454.09808,0.03145
452.60829,0.05199
451.11850,0.03647
449.62871,0.03704
448.13893,0.03764
446.64914,0.03775
445.15935,0.01444
443.66956,0.02929
442.17977,0.02943
440.68998,0.02960
439.20020,0.05407
437.71041,0.06341
436.22062,0.05588
434.73083,0.04837
433.24104,0.04493
431.75125,0.03881
430.26146,0.02940
428.77168,0.02002
427.28189,0.04053
425.79210,0.05069
424.30231,0.04739
422.81252,0.04412
421.32273,0.06680
419.83295,0.05155
418.34316,0.04835
416.85337,0.04517
415.36358,0.01589
413.87379,0.04055
412.38400,0.05021
410.89422,0.05989
409.40443,0.04833
407.91464,0.03804
406.42485,0.02280
404.93506,0.03786
403.44527,0.05295
401.95548,0.03799
400.46570,0.03280
398.97591,0.04236
397.48612,0.05194
395.99633,0.02961
394.50654,0.02161
393.01675,0.02712
391.52697,0.03122
390.03718,0.03348
388.54739,0.02124
387.05760,0.02282
385.56781,0.02442
384.07802,0.02221
382.58824,0.03372
381.09845,0.03695
379.60866,0.04021
378.11887,0.02524
376.62908,0.01444
375.13929,0.02807
373.64950,0.04172
372.15972,0.04067
370.66993,0.06910
369.18014,0.04933
367.69035,0.02958
366.20056,0.04748
364.71077,0.03905
363.22099,0.04497
361.73120,0.05090
360.24141,0.07553
358.75162,0.11097
357.26183,0.10205
355.77204,0.09315
354.28225,0.09402
352.79247,0.10633
351.30268,0.10932
349.81289,0.11234
348.32310,0.09382
346.83331,0.09440
345.34352,0.09531
343.85374,0.09625
342.36395,0.08757
340.87416,0.06543
339.38437,0.05036
337.89458,0.03532
336.40479,0.04126
334.91501,0.01506
333.42522,0.02242
331.93543,0.02981
330.44564,0.02082
328.95585,0.02369
327.46606,0.02638
325.97627,0.02909
324.48649,0.06667
322.99670,0.06362
321.50691,0.05323
320.01712,0.04286
318.52733,0.05461
317.03754,0.03382
315.54776,0.04126
314.05797,0.04872
312.56818,0.08463
311.07839,0.07037
309.58860,0.06992
308.09881,0.06950
306.60902,0.08040
305.11924,0.09652
303.62945,0.07024
302.13966,0.04398
300.64987,0.01454
299.16008,0.01444
