1778.52000,0.00667
1777.03021,0.00616
1775.54042,0.00951
1774.05063,0.00905
1772.56085,0.00520
1771.07106,0.00393
1769.58127,0.00973
1768.09148,0.00446
1766.60169,0.01757
1765.11190,0.01191
1763.62212,0.00969
1762.13233,0.01476
1760.64254,0.00640
1759.15275,0.01750
1757.66296,0.01026
1756.17317,0.00710
1754.68339,0.01570
1753.19360,0.01558
1751.70381,0.01142
1750.21402,0.00750
1748.72423,0.01642
1747.23444,0.01447
1745.74465,0.01489
1744.25487,0.01278
1742.76508,0.01303
1741.27529,0.00819
1739.78550,0.00423
1738.29571,0.01017
1736.80592,0.01614
1735.31614,0.00655
1733.82635,0.00649
1732.33656,0.00966
1730.84677,0.00729
1729.35698,0.00944
1727.86719,0.00798
1726.37740,0.01274
1724.88762,0.00428
1723.39783,0.00695
1721.90804,0.01114
1720.41825,0.01344
1718.92846,0.00465
1717.43867,0.00507
1715.94889,0.00636
1714.45910,0.00640
1712.96931,0.00960
1711.47952,0.00000
1709.98973,0.00451
1708.49994,0.00969
1707.01016,0.00699
1705.52037,0.00432
1704.03058,0.01384
1702.54079,0.00801
1701.05100,0.00434
1699.56121,0.01604
1698.07142,0.01687
1696.58164,0.00663
1695.09185,0.01669
1693.60206,0.00777
1692.11227,0.01447
1690.62248,0.01521
1689.13269,0.01469
1687.64291,0.01292
1686.15312,0.02164
1684.66333,0.02034
1683.17354,0.02056
1681.68375,0.02977
1680.19396,0.02470
1678.70417,0.02265
1677.21439,0.03108
1675.72460,0.04381
1674.23481,0.03328
1672.74502,0.04883
1671.25523,0.04477
1669.76544,0.04414
1668.27566,0.04759
1666.78587,0.05555
1665.29608,0.07271
1663.80629,0.06364
1662.31650,0.06655
1660.82671,0.07461
1659.33693,0.08589
1657.84714,0.07563
1656.35735,0.06647
1654.86756,0.07441
1653.37777,0.07511
1651.88798,0.07563
1650.39819,0.06036
1648.90841,0.07139
1647.41862,0.06963
1645.92883,0.08006
1644.43904,0.09052
1642.94925,0.07431
1641.45946,0.08652
1639.96968,0.08659
1638.47989,0.08113
1636.99010,0.07719
1635.50031,0.08032
1634.01052,0.07365
1632.52073,0.08281
1631.03094,0.07811
1629.54116,0.08518
1628.05137,0.08821
1626.56158,0.09042
1625.07179,0.08198
1623.58200,0.09170
1622.09221,0.09014
1620.60243,0.08518
1619.11264,0.09690
1617.62285,0.08580
1616.13306,0.08797
1614.64327,0.08311
1613.15348,0.08062
1611.66370,0.08819
1610.17391,0.08831
1608.68412,0.07757
1607.19433,0.10166
1605.70454,0.09438
1604.21475,0.09119
1602.72496,0.08801
1601.23518,0.08849
1599.74539,0.09263
1598.25560,0.08675
1596.76581,0.08517
1595.27602,0.07593
1593.78623,0.08166
1592.29645,0.08186
1590.80666,0.07055
1589.31687,0.06802
1587.82708,0.06765
1586.33729,0.08525
1584.84750,0.07660
1583.35771,0.08506
1581.86793,0.08244
1580.37814,0.07407
1578.88835,0.07599
1577.39856,0.06511
1575.90877,0.07177
1574.41898,0.05240
1572.92920,0.04928
1571.43941,0.04000
1569.94962,0.03693
1568.45983,0.03389
1566.97004,0.03322
1565.48025,0.03919
1563.99047,0.03365
1562.50068,0.02836
1561.01089,0.02992
1559.52110,0.02745
1558.03131,0.02350
1556.54152,0.03048
1555.05173,0.02594
1553.56195,0.01929
1552.07216,0.02335
1550.58237,0.01910
1549.09258,0.01594
1547.60279,0.00640
1546.11300,0.01750
1544.62322,0.01731
1543.13343,0.01586
1541.64364,0.01443
1540.15385,0.01837
1538.66406,0.02233
1537.17427,0.02140
1535.68448,0.01644
1534.19470,0.01150
1532.70491,0.02731
1531.21512,0.01753
1529.72533,0.03403
1528.23554,0.03475
1526.74575,0.03315
1525.25597,0.03819
1523.76618,0.04624
1522.27639,0.04471
1520.78660,0.04662
1519.29681,0.05582
1517.80702,0.06119
1516.31724,0.06702
1514.82745,0.04148
1513.33766,0.05078
1511.84787,0.06009
1510.35808,0.06388
1508.86829,0.05381
1507.37850,0.06555
1505.88872,0.06706
1504.39893,0.06966
1502.90914,0.08169
1501.41935,0.08797
1499.92956,0.09855
1498.43977,0.07477
1496.94999,0.08176
1495.46020,0.09391
1493.97041,0.10223
1492.48062,0.11763
1490.99083,0.12301
1489.50104,0.12329
1488.01125,0.13299
1486.52147,0.14272
1485.03168,0.16571
1483.54189,0.22139
1482.05210,0.22222
1480.56231,0.24443
1479.07252,0.25321
1477.58274,0.26778
1476.09295,0.28237
1474.60316,0.28289
1473.11337,0.29284
1471.62358,0.29576
1470.13379,0.30063
1468.64401,0.31406
1467.15422,0.34289
1465.66443,0.34772
1464.17464,0.35258
1462.68485,0.39344
1461.19506,0.40977
1459.70527,0.44982
1458.21549,0.54542
1456.72570,0.59299
1455.23591,0.66088
1453.74612,0.69676
1452.25633,0.74462
1450.76654,0.75855
1449.27676,0.73387
1447.78697,0.72863
1446.29718,0.70720
1444.80739,0.69870
1443.31760,0.69023
1441.82781,0.63983
1440.33802,0.57664
1438.84824,0.54528
1437.35845,0.50435
1435.86866,0.49461
1434.37887,0.52312
1432.88908,0.54823
1431.39929,0.61971
1429.90951,0.71725
1428.41972,0.79155
1426.92993,0.81463
1425.44014,0.87488
1423.95035,0.89865
1422.46056,0.92244
1420.97078,0.98554
1419.48099,0.95087
1417.99120,0.96342
1416.50141,0.95634
1415.01162,0.89869
1413.52183,0.86433
1412.03204,0.79135
1410.54226,0.73718
1409.05247,0.68197
1407.56268,0.65091
1406.07289,0.59852
1404.58310,0.55662
1403.09331,0.51475
1401.60353,0.44215
1400.11374,0.39989
1398.62395,0.35403
1397.13416,0.31503
1395.64437,0.25833
1394.15458,0.22407
1392.66479,0.19027
1391.17501,0.16075
1389.68522,0.12358
1388.19543,0.09839
1386.70564,0.08752
1385.21585,0.07669
1383.72606,0.05904
1382.23628,0.05722
1380.74649,0.04282
1379.25670,0.03806
1377.76691,0.01538
1376.27712,0.01174
1374.78733,0.00640
1373.29755,0.01101
1371.80776,0.01735
1370.31797,0.00749
1368.82818,0.01716
1367.33839,0.02686
1365.84860,0.02238
1364.35881,0.02433
1362.86903,0.04595
1361.37924,0.06653
1359.88945,0.09695
1358.39966,0.12313
1356.90987,0.14079
1355.42008,0.19755
1353.93030,0.23982
1352.44051,0.27719
1350.95072,0.31459
1349.46093,0.38490
1347.97114,0.46527
1346.48135,0.53050
1344.99156,0.60110
1343.50178,0.66808
1342.01199,0.73659
1340.52220,0.79594
1339.03241,0.85852
1337.54262,0.88439
1336.05283,0.89534
1334.56305,0.90632
1333.07326,0.95639
1331.58347,0.94286
1330.09368,0.92317
1328.60389,0.92676
1327.11410,0.89708
1325.62432,0.84927
1324.13453,0.84611
1322.64474,0.79621
1321.15495,0.77345
1319.66516,0.74282
1318.17537,0.71221
1316.68558,0.67116
1315.19580,0.63227
1313.70601,0.56415
1312.21622,0.54154
1310.72643,0.51148
1309.23664,0.49362
1307.74685,0.46446
1306.25707,0.42422
1304.76728,0.40536
1303.27749,0.38652
1301.78770,0.34379
1300.29791,0.28187
1298.80812,0.23215
1297.31834,0.21618
1295.82855,0.17270
1294.33876,0.14141
1292.84897,0.12210
1291.35918,0.11178
1289.86939,0.10715
1288.37960,0.10254
1286.88982,0.09101
1285.40003,0.07780
1283.91024,0.07166
1282.42045,0.06405
1280.93066,0.07611
1279.44087,0.07005
1277.95109,0.06379
1276.46130,0.04176
1274.97151,0.03907
1273.48172,0.03641
1271.99193,0.04691
1270.50214,0.03907
1269.01235,0.04598
1267.52257,0.03690
1266.03278,0.03554
1264.54299,0.02117
1263.05320,0.02114
1261.56341,0.01248
1260.07362,0.00384
1258.58384,0.01315
1257.09405,0.01630
1255.60426,0.02224
1254.11447,0.02756
1252.62468,0.00943
1251.13489,0.00605
1249.64511,0.01465
1248.15532,0.00640
1246.66553,0.00740
1245.17574,0.00842
1243.68595,0.01490
1242.19616,0.00796
1240.70637,0.02581
1239.21659,0.01892
1237.72680,0.01867
1236.23701,0.02955
1234.74722,0.02443
1233.25743,0.01935
1231.76764,0.01428
1230.27786,0.03679
1228.78807,0.02643
1227.29828,0.02187
1225.80849,0.01562
1224.31870,0.00640
1222.82891,0.01227
1221.33912,0.00684
1219.84934,0.02781
1218.35955,0.04880
1216.86976,0.05573
1215.37997,0.07848
1213.89018,0.08545
1212.40039,0.09138
1210.91061,0.08986
1209.42082,0.08708
1207.93103,0.08380
1206.44124,0.08054
1204.95145,0.08317
1203.46166,0.07558
1201.97188,0.06972
1200.48209,0.07841
1198.99230,0.06662
1197.50251,0.05037
1196.01272,0.04119
1194.52293,0.03364
1193.03314,0.02611
1191.54336,0.03110
1190.05357,0.02180
1188.56378,0.01061
1187.07399,0.02912
1185.58420,0.01947
1184.09441,0.02500
1182.60463,0.02255
1181.11484,0.02013
1179.62505,0.01528
1178.13526,0.01172
1176.64547,0.02379
1175.15568,0.00640
1173.66589,0.02046
1172.17611,0.01232
1170.68632,0.01265
1169.19653,0.01300
1167.70674,0.02053
1166.21695,0.03385
1164.72716,0.03053
1163.23738,0.04347
1161.74759,0.03978
1160.25780,0.05597
1158.76801,0.05916
1157.27822,0.06237
1155.78843,0.07522
1154.29865,0.08553
1152.80886,0.11422
1151.31907,0.11497
1149.82928,0.11595
1148.33949,0.12294
1146.84970,0.13444
1145.35991,0.14596
1143.87013,0.13871
1142.38034,0.15711
1140.89055,0.17469
1139.40076,0.16794
1137.91097,0.18834
1136.42118,0.21900
1134.93140,0.22461
1133.44161,0.23024
1131.95182,0.24048
1130.46203,0.22256
1128.97224,0.24417
1127.48245,0.24402
1125.99266,0.25714
1124.50288,0.26430
1123.01309,0.25889
1121.52330,0.25350
1120.03351,0.25112
1118.54372,0.25390
1117.05393,0.26459
1115.56415,0.26314
1114.07436,0.26023
1112.58457,0.25071
1111.09478,0.24122
1109.60499,0.24115
1108.11520,0.23769
1106.62542,0.24193
1105.13563,0.23809
1103.64584,0.23940
1102.15605,0.23283
1100.66626,0.22596
1099.17647,0.21912
1097.68668,0.23996
1096.19690,0.22323
1094.70711,0.22469
1093.21732,0.21484
1091.72753,0.20396
1090.23774,0.20068
1088.74795,0.19742
1087.25817,0.19686
1085.76838,0.19568
1084.27859,0.19517
1082.78880,0.20856
1081.29901,0.20659
1079.80922,0.22644
1078.31943,0.22388
1076.82965,0.22135
1075.33986,0.24234
1073.85007,0.25075
1072.36028,0.27519
1070.87049,0.27917
1069.38070,0.31861
1067.89092,0.33502
1066.40113,0.35145
1064.91134,0.39907
1063.42155,0.47320
1061.93176,0.58878
1060.44197,0.67342
1058.95219,0.77474
1057.46240,0.83562
1055.97261,0.89653
1054.48282,0.99322
1052.99303,1.05621
1051.50324,1.04768
1050.01345,1.05263
1048.52367,1.02024
1047.03388,1.00186
1045.54409,0.98351
1044.05430,0.92215
1042.56451,0.84993
1041.07472,0.76919
1039.58494,0.71345
1038.09515,0.61867
1036.60536,0.58850
1035.11557,0.55835
1033.62578,0.48841
1032.13599,0.40803
1030.64620,0.33386
1029.15642,0.30584
1027.66663,0.29514
1026.17684,0.28447
1024.68705,0.25033
1023.19726,0.21344
1021.70747,0.17849
1020.21769,0.15852
1018.72790,0.15010
1017.23811,0.14010
1015.74832,0.13012
1014.25853,0.10213
1012.76874,0.09402
1011.27896,0.08551
1009.78917,0.08492
1008.29938,0.07432
1006.80959,0.05777
1005.31980,0.04124
1003.83001,0.03882
1002.34022,0.03579
1000.85044,0.04923
999.36065,0.04112
997.87086,0.05247
996.38107,0.06384
994.89128,0.08122
993.40149,0.09478
991.91171,0.10024
990.42192,0.13349
988.93213,0.16591
987.44234,0.17177
985.95255,0.17765
984.46276,0.17918
982.97297,0.14358
981.48319,0.13684
979.99340,0.10705
978.50361,0.09555
977.01382,0.08406
975.52403,0.06610
974.03424,0.05221
972.54446,0.02874
971.05467,0.02813
969.56488,0.00834
968.07509,0.00736
966.58530,0.00640
965.09551,0.01105
963.60573,0.01466
962.11594,0.00868
960.62615,0.00807
959.13636,0.00983
957.64657,0.01161
956.15678,0.02623
954.66699,0.01204
953.17721,0.01731
951.68742,0.03328
950.19763,0.03497
948.70784,0.03668
947.21805,0.04995
945.72826,0.08075
944.23848,0.09236
942.74869,0.11104
941.25890,0.12526
939.76911,0.12274
938.27932,0.12024
936.78953,0.15290
935.29974,0.16166
933.80996,0.17899
932.32017,0.20061
930.83038,0.19813
929.34059,0.19567
927.85080,0.22036
926.36101,0.26001
924.87123,0.29585
923.38144,0.34196
921.89165,0.38169
920.40186,0.42144
918.91207,0.53168
917.42228,0.64942
915.93250,0.84234
914.44271,1.04169
912.95292,1.16441
911.46313,1.28715
909.97334,1.47611
908.48355,1.72147
906.99376,1.88443
905.50398,1.96435
904.01419,1.98216
902.52440,2.00000
901.03461,1.99245
899.54482,1.97553
898.05503,1.83116
896.56525,1.64774
895.07546,1.51302
893.58567,1.37833
892.09588,1.09185
890.60609,0.83764
889.11630,0.63555
887.62651,0.49668
886.13673,0.42553
884.64694,0.35440
883.15715,0.29098
881.66736,0.20987
880.17757,0.15227
878.68778,0.13654
877.19800,0.12083
875.70821,0.07846
874.21842,0.04679
872.72863,0.04226
871.23884,0.04181
869.74905,0.04150
868.25927,0.04121
866.76948,0.01414
865.27969,0.03301
863.78990,0.04442
862.30011,0.04647
860.81032,0.05249
859.32053,0.05853
857.83075,0.08692
856.34096,0.10870
854.85117,0.12368
853.36138,0.13484
851.87159,0.14794
850.38180,0.16107
848.89202,0.18554
847.40223,0.18292
845.91244,0.22644
844.42265,0.23145
842.93286,0.23648
841.44307,0.24292
839.95329,0.25258
838.46350,0.26591
836.97371,0.28246
835.48392,0.28899
833.99413,0.29556
832.50434,0.27588
831.01455,0.29188
829.52477,0.24321
828.03498,0.20268
826.54519,0.19901
825.05540,0.19536
823.56561,0.16686
822.07582,0.15525
820.58604,0.13940
819.09625,0.13691
817.60646,0.13445
816.11667,0.13746
814.62688,0.13451
813.13709,0.14355
811.64730,0.14577
810.15752,0.14995
808.66773,0.15414
807.17794,0.13872
805.68815,0.15663
804.19836,0.15684
802.70857,0.15644
801.21879,0.15606
799.72900,0.14374
798.23921,0.12526
796.74942,0.11599
795.25963,0.11944
793.76984,0.12292
792.28006,0.15919
790.79027,0.16154
789.30048,0.17075
787.81069,0.20817
786.32090,0.22821
784.83111,0.24827
783.34132,0.27594
781.85154,0.30812
780.36175,0.36231
778.87196,0.38258
777.38217,0.40287
775.89238,0.40888
774.40259,0.42751
772.91281,0.39620
771.42302,0.39331
769.93323,0.39045
768.44344,0.35622
766.95365,0.30109
765.46386,0.23809
763.97407,0.18685
762.48429,0.17034
760.99450,0.15385
759.50471,0.13535
758.01492,0.12543
756.52513,0.11018
755.03534,0.09891
753.54556,0.08767
752.05577,0.09406
750.56598,0.07913
749.07619,0.06742
747.58640,0.05756
746.09661,0.04771
744.60683,0.03138
743.11704,0.03045
741.62725,0.01609
740.13746,0.01969
738.64767,0.02331
737.15788,0.01842
735.66809,0.01846
734.17831,0.01105
732.68852,0.01018
731.19873,0.00933
729.70894,0.00883
728.21915,0.02437
726.72936,0.00640
725.23958,0.01470
723.74979,0.01576
722.26000,0.01685
720.77021,0.01774
719.28042,0.00457
717.79063,0.01474
716.30084,0.01575
714.81106,0.01679
713.32127,0.01529
711.83148,0.02641
710.34169,0.02944
708.85190,0.02716
707.36211,0.02490
705.87233,0.04145
704.38254,0.03924
702.89275,0.04944
701.40296,0.04749
699.91317,0.04557
698.42338,0.06587
696.93360,0.07702
695.44381,0.09396
693.95402,0.10826
692.46423,0.12257
690.97444,0.12827
689.48465,0.15491
687.99486,0.17496
686.50508,0.18361
685.01529,0.19228
683.52550,0.23418
682.03571,0.25326
680.54592,0.25592
679.05613,0.25401
677.56635,0.25213
676.07656,0.26063
674.58677,0.24929
673.09698,0.21791
671.60719,0.20886
670.11740,0.19984
668.62761,0.18476
667.13783,0.16607
665.64804,0.14986
664.15825,0.13368
662.66846,0.10310
661.17867,0.08964
659.68888,0.07043
658.19910,0.05893
656.70931,0.04746
655.21952,0.04562
653.72973,0.04465
652.23994,0.04265
650.75015,0.03949
649.26037,0.03636
647.77058,0.04062
646.28079,0.03337
644.79100,0.01761
643.30121,0.01842
641.81142,0.01925
640.32163,0.05160
638.83185,0.05216
637.34206,0.01495
635.85227,0.02026
634.36248,0.02559
632.87269,0.02582
631.38290,0.01860
629.89312,0.02037
628.40333,0.01918
626.91354,0.01801
625.42375,0.00640
623.93396,0.02450
622.44417,0.03419
620.95438,0.04390
619.46460,0.06484
617.97481,0.04930
616.48502,0.06965
614.99523,0.08159
613.50544,0.09356
612.01565,0.12274
610.52587,0.16283
609.03608,0.18800
607.54629,0.19932
606.05650,0.21066
604.56671,0.27540
603.07692,0.33355
601.58714,0.35553
600.09735,0.37754
598.60756,0.41740
597.11777,0.43422
595.62798,0.44167
594.13819,0.43901
592.64840,0.43636
591.15862,0.38901
589.66883,0.31905
588.17904,0.24911
586.68925,0.22831
585.19946,0.20753
583.70967,0.16970
582.21989,0.12570
580.73010,0.10243
579.24031,0.07918
577.75052,0.07390
576.26073,0.04409
574.77094,0.04803
573.28115,0.05467
571.79137,0.06134
570.30158,0.06301
568.81179,0.08349
567.32200,0.08318
565.83221,0.08289
564.34242,0.11285
562.85264,0.14795
561.36285,0.14592
559.87306,0.16559
558.38327,0.18528
556.89348,0.17884
555.40369,0.19698
553.91391,0.20831
552.42412,0.21966
550.93433,0.21716
549.44454,0.22451
547.95475,0.21715
546.46496,0.21429
544.97517,0.21146
543.48539,0.23770
541.99560,0.28573
540.50581,0.30700
539.01602,0.32828
537.52623,0.36764
536.03644,0.40403
534.54666,0.41781
533.05687,0.44282
531.56708,0.46786
530.07729,0.50349
528.58750,0.56306
527.09771,0.59543
525.60792,0.62783
524.11814,0.71608
522.62835,0.76785
521.13856,0.79338
519.64877,0.79758
518.15898,0.80180
516.66919,0.84107
515.17941,0.84320
513.68962,0.86277
512.19983,0.88235
510.71004,0.86086
509.22025,0.80672
507.73046,0.72250
506.24068,0.67226
504.75089,0.62204
503.26110,0.50842
501.77131,0.41917
500.28152,0.37927
498.79173,0.33940
497.30194,0.24382
495.81216,0.17303
494.32237,0.14486
492.83258,0.11672
491.34279,0.09618
489.85300,0.08122
488.36321,0.08721
486.87343,0.07998
485.38364,0.07278
483.89385,0.08866
482.40406,0.12827
480.91427,0.12893
479.42448,0.12962
477.93469,0.12489
476.44491,0.17228
474.95512,0.18948
473.46533,0.20670
471.97554,0.20121
470.48575,0.21945
468.99596,0.21443
467.50618,0.21051
466.01639,0.20661
464.52660,0.14380
463.03681,0.10088
461.54702,0.09331
460.05723,0.08577
458.56745,0.04399
457.07766,0.02593
455.58787,0.02155
454.09808,0.01721
452.60829,0.03723
451.11850,0.04382
449.62871,0.03581
448.13893,0.02782
446.64914,0.03662
445.15935,0.00829
443.66956,0.01329
442.17977,0.01224
440.68998,0.01120
439.20020,0.03870
437.71041,0.06003
436.22062,0.04401
434.73083,0.02802
433.24104,0.01633
431.75125,0.04480
430.26146,0.03678
428.77168,0.02879
427.28189,0.03769
425.79210,0.03593
424.30231,0.03463
422.81252,0.03335
421.32273,0.04235
419.83295,0.04924
418.34316,0.03842
416.85337,0.02763
415.36358,0.00640
413.87379,0.02848
412.38400,0.02667
410.89422,0.02489
409.40443,0.02590
407.91464,0.02395
406.42485,0.03099
404.93506,0.03581
403.44527,0.04066
401.95548,0.04436
400.46570,0.03719
398.97591,0.04253
397.48612,0.04791
395.99633,0.04145
394.50654,0.04377
393.01675,0.03000
391.52697,0.01625
390.03718,0.02822
388.54739,0.02441
387.05760,0.01540
385.56781,0.00640
384.07802,0.01007
382.58824,0.03148
381.09845,0.03007
379.60866,0.02869
378.11887,0.02690
376.62908,0.00998
375.13929,0.00727
373.64950,0.00460
372.15972,0.03664
370.66993,0.02323
369.18014,0.02043
367.69035,0.01765
366.20056,0.02045
364.71077,0.00640
363.22099,0.01133
361.73120,0.01629
360.24141,0.03963
358.75162,0.07303
357.26183,0.06097
355.77204,0.04894
354.28225,0.07473
352.79247,0.09371
351.30268,0.08399
349.81289,0.07430
348.32310,0.03997
346.83331,0.03833
345.34352,0.05508
343.85374,0.07185
342.36395,0.06794
340.87416,0.04419
339.38437,0.03531
337.89458,0.02645
336.40479,0.00640
334.91501,0.00897
333.42522,0.00685
331.93543,0.00476
330.44564,0.00911
328.95585,0.03482
327.46606,0.02736
325.97627,0.01993
324.48649,0.04379
322.99670,0.05125
321.50691,0.03321
320.01712,0.01519
318.52733,0.03446
317.03754,0.03475
315.54776,0.03516
314.05797,0.03561
312.56818,0.06010
311.07839,0.06454
309.58860,0.05150
308.09881,0.03848
306.60902,0.01950
305.11924,0.03643
303.62945,0.02188
302.13966,0.00735
300.64987,0.00975
299.16008,0.00640
