1778.52000,0.03274
1777.03021,0.02234
1775.54042,0.02326
1774.05063,0.02167
1772.56085,0.03070
1771.07106,0.02132
1769.58127,0.01818
1768.09148,0.02821
1766.60169,0.02536
1765.11190,0.02391
1763.62212,0.01626
1762.13233,0.01210
1760.64254,0.00611
1759.15275,0.01375
1757.66296,0.01495
1756.17317,0.01135
1754.68339,0.01352
1753.19360,0.01019
1751.70381,0.01518
1750.21402,0.00937
1748.72423,0.00795
1747.23444,0.01025
1745.74465,0.00889
1744.25487,0.00593
1742.76508,0.00738
1741.27529,0.00770
1739.78550,0.01773
1738.29571,0.00611
1736.80592,0.01058
1735.31614,0.02291
1733.82635,0.00000
1732.33656,0.00523
1730.84677,0.00842
1729.35698,0.01416
1727.86719,0.00955
1726.37740,0.00082
1724.88762,0.01240
1723.39783,0.01708
1721.90804,0.01027
1720.41825,0.01017
1718.92846,0.00455
1717.43867,0.00705
1715.94889,0.00611
1714.45910,0.00931
1712.96931,0.01484
1711.47952,0.00241
1709.98973,0.00910
1708.49994,0.00659
1707.01016,0.00572
1705.52037,0.00487
1704.03058,0.02318
1702.54079,0.00556
1701.05100,0.01700
1699.56121,0.01970
1698.07142,0.01644
1696.58164,0.01044
1695.09185,0.01875
1693.60206,0.00611
1692.11227,0.02582
1690.62248,0.01075
1689.13269,0.01967
1687.64291,0.02055
1686.15312,0.02446
1684.66333,0.02792
1683.17354,0.02219
1681.68375,0.02916
1680.19396,0.02509
1678.70417,0.02796
1677.21439,0.03800
1675.72460,0.04207
1674.23481,0.03118
1672.74502,0.04153
1671.25523,0.05212
1669.76544,0.05836
1668.27566,0.04596
1666.78587,0.06354
1665.29608,0.07308
1663.80629,0.06352
1662.31650,0.06642
1660.82671,0.07534
1659.33693,0.07507
1657.84714,0.07044
1656.35735,0.06791
1654.86756,0.07693
1653.37777,0.08574
1651.88798,0.08628
1650.39819,0.09375
1648.90841,0.08720
1647.41862,0.09587
1645.92883,0.09512
1644.43904,0.09440
1642.94925,0.09047
1641.45946,0.08588
1639.96968,0.08408
1638.47989,0.08852
1636.99010,0.08723
1635.50031,0.08711
1634.01052,0.08978
1632.52073,0.08602
1631.03094,0.09289
1629.54116,0.08803
1628.05137,0.10854
1626.56158,0.10050
1625.07179,0.10032
1623.58200,0.11123
1622.09221,0.09266
1620.60243,0.10454
1619.11264,0.10376
1617.62285,0.09379
1616.13306,0.09330
1614.64327,0.08545
1613.15348,0.08131
1611.66370,0.09449
1610.17391,0.09017
1608.68412,0.09002
1607.19433,0.09636
1605.70454,0.10617
1604.21475,0.10679
1602.72496,0.10743
1601.23518,0.09496
1599.74539,0.09680
1598.25560,0.08185
1596.76581,0.08743
1595.27602,0.08427
1593.78623,0.07907
1592.29645,0.08841
1590.80666,0.08625
1589.31687,0.09079
1587.82708,0.08315
1586.33729,0.07599
1584.84750,0.07808
1583.35771,0.07350
1581.86793,0.07448
1580.37814,0.07733
1578.88835,0.06384
1577.39856,0.06535
1575.90877,0.05237
1574.41898,0.05946
1572.92920,0.05022
1571.43941,0.05068
1569.94962,0.05139
1568.45983,0.05213
1566.97004,0.03883
1565.48025,0.04307
1563.99047,0.01876
1562.50068,0.03457
1561.01089,0.03819
1559.52110,0.03700
1558.03131,0.02523
1556.54152,0.01786
1555.05173,0.02458
1553.56195,0.03339
1552.07216,0.02679
1550.58237,0.01675
1549.09258,0.01273
1547.60279,0.01196
1546.11300,0.00730
1544.62322,0.01211
1543.13343,0.00611
1541.64364,0.00817
1540.15385,0.00795
1538.66406,0.00775
1537.17427,0.01864
1535.68448,0.02887
1534.19470,0.02759
1532.70491,0.02150
1531.21512,0.02073
1529.72533,0.02160
1528.23554,0.02480
1526.74575,0.02802
1525.25597,0.03611
1523.76618,0.02302
1522.27639,0.04037
1520.78660,0.03609
1519.29681,0.04312
1517.80702,0.03957
1516.31724,0.03928
1514.82745,0.05375
1513.33766,0.04970
1511.84787,0.04568
1510.35808,0.04894
1508.86829,0.03908
1507.37850,0.03985
1505.88872,0.04157
1504.39893,0.03778
1502.90914,0.05406
1501.41935,0.05816
1499.92956,0.06804
1498.43977,0.07679
1496.94999,0.06621
1495.46020,0.08906
1493.97041,0.10572
1492.48062,0.11296
1490.99083,0.12183
1489.50104,0.13510
1488.01125,0.13700
1486.52147,0.13891
1485.03168,0.16217
1483.54189,0.19766
1482.05210,0.21913
1480.56231,0.23462
1479.07252,0.25521
1477.58274,0.25554
1476.09295,0.26580
1474.60316,0.26457
1473.11337,0.29470
1471.62358,0.26725
1470.13379,0.28452
1468.64401,0.29030
1467.15422,0.33159
1465.66443,0.34929
1464.17464,0.36700
1462.68485,0.39039
1461.19506,0.45874
1459.70527,0.48656
1458.21549,0.53053
1456.72570,0.59458
1455.23591,0.63514
1453.74612,0.68817
1452.25633,0.69283
1450.76654,0.72448
1449.27676,0.72965
1447.78697,0.71617
1446.29718,0.69535
1444.80739,0.67904
1443.31760,0.66276
1441.82781,0.63739
1440.33802,0.60399
1438.84824,0.56946
1437.35845,0.52412
1435.86866,0.54702
1434.37887,0.54044
1432.88908,0.59174
1431.39929,0.64375
1429.90951,0.72459
1428.41972,0.80569
1426.92993,0.83680
1425.44014,0.87047
1423.95035,0.88827
1422.46056,0.90608
1420.97078,0.96748
1419.48099,0.94110
1417.99120,0.94378
1416.50141,0.96538
1415.01162,0.94529
1413.52183,0.88512
1412.03204,0.84941
1410.54226,0.75657
1409.05247,0.71330
1407.56268,0.66844
1406.07289,0.61416
1404.58310,0.57603
1403.09331,0.53793
1401.60353,0.46137
1400.11374,0.41248
1398.62395,0.38436
1397.13416,0.31824
1395.64437,0.26228
1394.15458,0.22179
1392.66479,0.19653
1391.17501,0.16761
1389.68522,0.13479
1388.19543,0.11813
1386.70564,0.11095
1385.21585,0.10379
1383.72606,0.07452
1382.23628,0.07225
1380.74649,0.04235
1379.25670,0.03759
1377.76691,0.02064
1376.27712,0.01385
1374.78733,0.01262
1373.29755,0.00611
1371.80776,0.00974
1370.31797,0.01016
1368.82818,0.01211
1367.33839,0.01408
1365.84860,0.03255
1364.35881,0.04252
1362.86903,0.03915
1361.37924,0.07129
1359.88945,0.10922
1358.39966,0.12067
1356.90987,0.15173
1355.42008,0.19019
1353.93030,0.23513
1352.44051,0.26327
1350.95072,0.29144
1349.46093,0.38761
1347.97114,0.44993
1346.48135,0.51250
1344.99156,0.57533
1343.50178,0.64256
1342.01199,0.70429
1340.52220,0.76857
1339.03241,0.82758
1337.54262,0.89122
1336.05283,0.89716
1334.56305,0.90311
1333.07326,0.93525
1331.58347,0.96373
1330.09368,0.96273
1328.60389,0.94563
1327.11410,0.90849
1325.62432,0.87692
1324.13453,0.84260
1322.64474,0.80300
1321.15495,0.76366
1319.66516,0.74958
1318.17537,0.73552
1316.68558,0.66537
1315.19580,0.61161
1313.70601,0.54588
1312.21622,0.51222
1310.72643,0.49817
1309.23664,0.45602
1307.74685,0.43672
1306.25707,0.42043
1304.76728,0.40487
1303.27749,0.38932
1301.78770,0.32886
1300.29791,0.26842
1298.80812,0.24005
1297.31834,0.21469
1295.82855,0.16654
1294.33876,0.14929
1292.84897,0.13185
1291.35918,0.11004
1289.86939,0.10382
1288.37960,0.09762
1286.88982,0.09248
1285.40003,0.08759
1283.91024,0.07259
1282.42045,0.07352
1280.93066,0.06963
1279.44087,0.05309
1277.95109,0.05616
1276.46130,0.05534
1274.97151,0.05247
1273.48172,0.04962
1271.99193,0.04057
1270.50214,0.03547
1269.01235,0.02347
1267.52257,0.03063
1266.03278,0.03344
1264.54299,0.03534
1263.05320,0.03313
1261.56341,0.02632
1260.07362,0.01954
1258.58384,0.01118
1257.09405,0.01297
1255.60426,0.00765
1254.11447,0.01249
1252.62468,0.02381
1251.13489,0.00611
1249.64511,0.01076
1248.15532,0.01405
1246.66553,0.01057
1245.17574,0.00711
1243.68595,0.02349
1242.19616,0.02629
1240.70637,0.01760
1239.21659,0.00593
1237.72680,0.01727
1236.23701,0.01550
1234.74722,0.02574
1233.25743,0.02056
1231.76764,0.01540
1230.27786,0.02686
1228.78807,0.03120
1227.29828,0.01736
1225.80849,0.01230
1224.31870,0.00703
1222.82891,0.01216
1221.33912,0.02008
1219.84934,0.02710
1218.35955,0.03414
1216.86976,0.04398
1215.37997,0.06789
1213.89018,0.08031
1212.40039,0.09460
1210.91061,0.08863
1209.42082,0.09144
1207.93103,0.09012
1206.44124,0.08883
1204.95145,0.06660
1203.46166,0.05982
1201.97188,0.06483
1200.48209,0.05326
1198.99230,0.05855
1197.50251,0.05141
1196.01272,0.04222
1194.52293,0.03583
1193.03314,0.02945
1191.54336,0.02587
1190.05357,0.01586
1188.56378,0.01785
1187.07399,0.01872
1185.58420,0.01984
1184.09441,0.01315
1182.60463,0.01340
1181.11484,0.01367
1179.62505,0.01190
1178.13526,0.01591
1176.64547,0.00611
1175.15568,0.01362
1173.66589,0.01401
1172.17611,0.01811
1170.68632,0.01210
1169.19653,0.00611
1167.70674,0.01123
1166.21695,0.03943
1164.72716,0.03815
1163.23738,0.04979
1161.74759,0.06469
1160.25780,0.05888
1158.76801,0.06864
1157.27822,0.07842
1155.78843,0.08927
1154.29865,0.10452
1152.80886,0.11127
1151.31907,0.10490
1149.82928,0.12852
1148.33949,0.12290
1146.84970,0.12237
1145.35991,0.12186
1143.87013,0.14673
1142.38034,0.15272
1140.89055,0.16612
1139.40076,0.17262
1137.91097,0.18721
1136.42118,0.21704
1134.93140,0.22247
1133.44161,0.22791
1131.95182,0.24145
1130.46203,0.25962
1128.97224,0.26007
1127.48245,0.25087
1125.99266,0.26542
1124.50288,0.24981
1123.01309,0.24137
1121.52330,0.23295
1120.03351,0.22179
1118.54372,0.22910
1117.05393,0.25186
1115.56415,0.26106
1114.07436,0.26037
1112.58457,0.25532
1111.09478,0.25030
1109.60499,0.25037
1108.11520,0.24678
1106.62542,0.24598
1105.13563,0.24727
1103.64584,0.24675
1102.15605,0.24418
1100.66626,0.23944
1099.17647,0.23472
1097.68668,0.21839
1096.19690,0.21891
1094.70711,0.22291
1093.21732,0.22855
1091.72753,0.21094
1090.23774,0.20522
1088.74795,0.19952
1087.25817,0.20041
1085.76838,0.21078
1084.27859,0.20596
1082.78880,0.20992
1081.29901,0.21967
1079.80922,0.24097
1078.31943,0.24489
1076.82965,0.24883
1075.33986,0.25361
1073.85007,0.24665
1072.36028,0.25931
1070.87049,0.26001
1069.38070,0.30936
1067.89092,0.33269
1066.40113,0.35605
1064.91134,0.40317
1063.42155,0.48142
1061.93176,0.58229
1060.44197,0.67580
1058.95219,0.82004
1057.46240,0.86820
1055.97261,0.91639
1054.48282,1.00285
1052.99303,1.04809
1051.50324,1.05509
1050.01345,1.05821
1048.52367,1.02931
1047.03388,1.01287
1045.54409,0.99647
1044.05430,0.96695
1042.56451,0.88007
1041.07472,0.80635
1039.58494,0.70062
1038.09515,0.63363
1036.60536,0.59721
1035.11557,0.56080
1033.62578,0.49550
1032.13599,0.42700
1030.64620,0.37027
1029.15642,0.31956
1027.66663,0.28892
1026.17684,0.25831
1024.68705,0.25077
1023.19726,0.20891
1021.70747,0.18298
1020.21769,0.15293
1018.72790,0.14041
1017.23811,0.13829
1015.74832,0.13620
1014.25853,0.11292
1012.76874,0.09751
1011.27896,0.09456
1009.78917,0.09049
1008.29938,0.06362
1006.80959,0.05718
1005.31980,0.05076
1003.83001,0.04009
1002.34022,0.03476
1000.85044,0.02991
999.36065,0.04767
997.87086,0.05162
996.38107,0.05560
994.89128,0.09256
993.40149,0.09843
991.91171,0.11377
990.42192,0.15150
988.93213,0.17219
987.44234,0.18081
985.95255,0.18945
984.46276,0.19938
982.97297,0.15841
981.48319,0.13658
979.99340,0.10810
978.50361,0.10661
977.01382,0.10514
975.52403,0.08042
974.03424,0.05710
972.54446,0.04211
971.05467,0.03659
969.56488,0.01104
968.07509,0.00856
966.58530,0.00611
965.09551,0.01614
963.60573,0.04210
962.11594,0.01347
960.62615,0.01205
959.13636,0.01285
957.64657,0.01367
956.15678,0.01970
954.66699,0.03359
953.17721,0.02515
951.68742,0.02572
950.19763,0.03300
948.70784,0.04030
947.21805,0.06100
945.72826,0.08425
944.23848,0.09854
942.74869,0.10755
941.25890,0.12857
939.76911,0.13360
938.27932,0.13865
936.78953,0.16620
935.29974,0.16980
933.80996,0.19048
932.32017,0.19437
930.83038,0.19009
929.34059,0.18584
927.85080,0.22321
926.36101,0.26521
924.87123,0.30332
923.38144,0.36888
921.89165,0.40416
920.40186,0.43946
918.91207,0.51984
917.42228,0.66109
915.93250,0.81665
914.44271,1.01118
912.95292,1.12519
911.46313,1.23923
909.97334,1.47001
908.48355,1.65727
906.99376,1.79845
905.50398,1.97354
904.01419,1.98445
902.52440,1.99538
901.03461,2.00000
899.54482,1.91153
898.05503,1.77239
896.56525,1.60838
895.07546,1.49579
893.58567,1.38323
892.09588,1.12595
890.60609,0.88553
889.11630,0.66218
887.62651,0.49578
886.13673,0.44360
884.64694,0.39144
883.15715,0.28135
881.66736,0.19271
880.17757,0.15642
878.68778,0.14135
877.19800,0.12630
875.70821,0.08961
874.21842,0.07692
872.72863,0.06356
871.23884,0.05414
869.74905,0.04740
868.25927,0.04068
866.76948,0.04931
865.27969,0.05012
863.78990,0.05903
862.30011,0.07142
860.81032,0.07231
859.32053,0.07323
857.83075,0.09675
856.34096,0.11361
854.85117,0.13880
853.36138,0.15848
851.87159,0.16412
850.38180,0.16979
848.89202,0.20475
847.40223,0.20494
845.91244,0.22520
844.42265,0.22981
842.93286,0.23445
841.44307,0.27829
839.95329,0.31616
838.46350,0.30496
836.97371,0.31269
835.48392,0.32367
833.99413,0.33468
832.50434,0.33695
831.01455,0.29891
829.52477,0.26966
828.03498,0.23397
826.54519,0.22159
825.05540,0.20923
823.56561,0.22225
822.07582,0.18574
820.58604,0.16446
819.09625,0.15485
817.60646,0.14526
816.11667,0.15771
814.62688,0.14437
813.13709,0.15986
811.64730,0.18689
810.15752,0.18480
808.66773,0.18273
807.17794,0.16813
805.68815,0.20033
804.19836,0.16711
802.70857,0.17182
801.21879,0.17656
799.72900,0.15101
798.23921,0.16490
796.74942,0.14170
795.25963,0.15184
793.76984,0.16199
792.28006,0.15731
790.79027,0.17362
789.30048,0.20240
787.81069,0.22430
786.32090,0.24587
784.83111,0.26746
783.34132,0.30279
781.85154,0.31072
780.36175,0.38828
778.87196,0.41043
777.38217,0.43260
775.89238,0.44754
774.40259,0.45629
772.91281,0.43186
771.42302,0.42060
769.93323,0.40937
768.44344,0.35253
766.95365,0.30769
765.46386,0.25596
763.97407,0.19712
762.48429,0.17828
760.99450,0.15947
759.50471,0.15140
758.01492,0.14635
756.52513,0.12680
755.03534,0.11673
753.54556,0.10668
752.05577,0.08997
750.56598,0.08020
749.07619,0.05663
747.58640,0.05509
746.09661,0.05357
744.60683,0.03860
743.11704,0.04969
741.62725,0.02923
740.13746,0.02482
738.64767,0.02043
737.15788,0.02585
735.66809,0.02001
734.17831,0.01373
732.68852,0.01001
731.19873,0.00632
729.70894,0.02950
728.21915,0.00662
726.72936,0.01453
725.23958,0.00611
723.74979,0.01247
722.26000,0.01885
720.77021,0.00543
719.28042,0.00725
717.79063,0.01739
716.30084,0.01154
714.81106,0.00571
713.32127,0.00509
711.83148,0.01072
710.34169,0.01269
708.85190,0.01410
707.36211,0.01553
705.87233,0.03209
704.38254,0.03323
702.89275,0.04131
701.40296,0.03719
699.91317,0.03310
698.42338,0.04655
696.93360,0.06925
695.44381,0.10349
693.95402,0.10629
692.46423,0.10912
690.97444,0.12431
689.48465,0.14666
687.99486,0.16903
686.50508,0.17749
685.01529,0.18597
683.52550,0.21234
682.03571,0.20001
680.54592,0.22689
679.05613,0.23097
677.56635,0.23508
676.07656,0.24774
674.58677,0.22908
673.09698,0.21367
671.60719,0.18988
670.11740,0.16610
668.62761,0.16667
667.13783,0.15873
665.64804,0.14725
664.15825,0.13579
662.66846,0.09957
661.17867,0.06776
659.68888,0.06456
658.19910,0.05423
656.70931,0.04392
655.21952,0.02904
653.72973,0.01394
652.23994,0.02629
650.75015,0.03406
649.26037,0.04186
647.77058,0.02801
646.28079,0.04369
644.79100,0.03542
643.30121,0.03374
641.81142,0.03209
640.32163,0.03588
638.83185,0.02863
637.34206,0.01565
635.85227,0.01087
634.36248,0.00611
632.87269,0.01488
631.38290,0.01445
629.89312,0.01980
628.40333,0.01562
626.91354,0.01146
625.42375,0.02980
623.93396,0.02834
622.44417,0.03001
620.95438,0.03171
619.46460,0.03977
617.97481,0.05915
616.48502,0.07371
614.99523,0.08553
613.50544,0.09738
612.01565,0.11685
610.52587,0.16447
609.03608,0.19828
607.54629,0.21702
606.05650,0.23578
604.56671,0.26091
603.07692,0.31878
601.58714,0.36159
600.09735,0.40442
598.60756,0.42019
597.11777,0.46687
595.62798,0.46932
594.13819,0.45993
592.64840,0.45057
591.15862,0.39363
589.66883,0.34272
588.17904,0.28145
586.68925,0.25986
585.19946,0.23828
583.70967,0.17778
582.21989,0.13229
580.73010,0.10836
579.24031,0.08447
577.75052,0.08260
576.26073,0.07223
574.77094,0.08009
573.28115,0.08049
571.79137,0.08091
570.30158,0.07294
568.81179,0.06685
567.32200,0.07252
565.83221,0.07823
564.34242,0.11622
562.85264,0.15631
561.36285,0.20264
559.87306,0.20533
558.38327,0.20804
556.89348,0.19292
555.40369,0.21193
553.91391,0.21828
552.42412,0.22466
550.93433,0.24720
549.44454,0.22920
547.95475,0.25178
546.46496,0.25031
544.97517,0.24886
543.48539,0.28996
541.99560,0.31125
540.50581,0.32659
539.01602,0.34194
537.52623,0.37023
536.03644,0.40176
534.54666,0.45245
533.05687,0.45730
531.56708,0.46217
530.07729,0.53690
528.58750,0.60843
527.09771,0.60704
525.60792,0.60567
524.11814,0.65192
522.62835,0.71225
521.13856,0.78712
519.64877,0.81316
518.15898,0.83923
516.66919,0.86877
515.17941,0.83081
513.68962,0.83333
512.19983,0.83587
510.71004,0.82425
509.22025,0.77418
507.73046,0.74671
506.24068,0.69795
504.75089,0.64922
503.26110,0.50659
501.77131,0.37436
500.28152,0.32559
498.79173,0.27683
497.30194,0.22211
495.81216,0.17387
494.32237,0.15630
492.83258,0.13875
491.34279,0.10625
489.85300,0.10650
488.36321,0.12544
486.87343,0.10546
485.38364,0.08550
483.89385,0.05957
482.40406,0.12263
480.91427,0.12498
479.42448,0.12736
477.93469,0.13494
476.44491,0.15062
474.95512,0.17416
473.46533,0.19772
471.97554,0.22937
470.48575,0.20757
468.99596,0.21093
467.50618,0.20439
466.01639,0.19788
464.52660,0.14784
463.03681,0.11211
461.54702,0.10613
460.05723,0.10018
458.56745,0.05231
457.07766,0.05516
455.58787,0.03753
454.09808,0.01992
452.60829,0.04843
451.11850,0.02949
449.62871,0.02727
448.13893,0.02509
446.64914,0.01866
445.15935,0.03830
443.66956,0.00611
442.17977,0.02088
440.68998,0.03567
439.20020,0.02203
437.71041,0.04482
436.22062,0.03779
434.73083,0.03079
433.24104,0.01747
431.75125,0.02423
430.26146,0.03942
428.77168,0.05464
427.28189,0.05432
425.79210,0.06256
424.30231,0.05353
422.81252,0.04453
421.32273,0.04455
419.83295,0.04251
418.34316,0.02874
416.85337,0.01500
415.36358,0.01764
413.87379,0.03598
412.38400,0.03521
410.89422,0.03447
409.40443,0.05265
407.91464,0.04574
406.42485,0.04622
404.93506,0.03751
403.44527,0.02882
401.95548,0.02823
400.46570,0.04839
398.97591,0.04220
397.48612,0.03603
395.99633,0.03829
394.50654,0.04128
393.01675,0.03979
391.52697,0.03832
390.03718,0.01188
388.54739,0.00611
387.05760,0.00653
385.56781,0.00698
384.07802,0.01540
382.58824,0.01532
381.09845,0.02091
379.60866,0.02653
378.11887,0.01984
376.62908,0.01109
375.13929,0.00710
373.64950,0.00313
372.15972,0.00184
370.66993,0.02016
369.18014,0.02586
367.69035,0.03159
366.20056,0.00611
364.71077,0.02911
363.22099,0.03278
361.73120,0.03647
360.24141,0.04641
358.75162,0.07135
357.26183,0.06244
355.77204,0.05356
354.28225,0.07189
352.79247,0.07711
351.30268,0.06841
349.81289,0.05973
348.32310,0.09268
346.83331,0.05974
345.34352,0.06623
343.85374,0.07275
342.36395,0.11040
340.87416,0.05981
339.38437,0.05914
337.89458,0.05849
336.40479,0.02134
334.91501,0.00611
333.42522,0.01745
331.93543,0.02882
330.44564,0.05381
328.95585,0.03964
327.46606,0.03575
325.97627,0.03189
324.48649,0.03876
322.99670,0.03944
321.50691,0.04222
320.01712,0.04502
318.52733,0.06168
317.03754,0.08803
315.54776,0.07927
314.05797,0.07053
312.56818,0.10295
311.07839,0.11442
309.58860,0.08893
308.09881,0.06346
306.60902,0.03468
305.11924,0.02666
303.62945,0.03157
302.13966,0.03650
300.64987,0.03938
299.16008,0.00611
