1778.52000,0.00982
1777.03021,0.01514
1775.54042,0.01223
1774.05063,0.00503
1772.56085,0.00864
1771.07106,0.00954
1769.58127,0.00771
1768.09148,0.01061
1766.60169,0.00667
1765.11190,0.01138
1763.62212,0.00847
1762.13233,0.00715
1760.64254,0.00683
1759.15275,0.00536
1757.66296,0.00254
1756.17317,0.00191
1754.68339,0.00188
1753.19360,0.00816
1751.70381,0.00171
1750.21402,0.00097
1748.72423,0.00320
1747.23444,0.00447
1745.74465,0.00322
1744.25487,0.00277
1742.76508,0.00784
1741.27529,0.00587
1739.78550,0.00549
1738.29571,0.00495
1736.80592,0.00619
1735.31614,0.00254
1733.82635,0.00564
1732.33656,0.00661
1730.84677,0.00740
1729.35698,0.00959
1727.86719,0.01043
1726.37740,0.00284
1724.88762,0.00000
1723.39783,0.00601
1721.90804,0.00891
1720.41825,0.01006
1718.92846,0.01026
1717.43867,0.00851
1715.94889,0.01052
1714.45910,0.00254
1712.96931,0.00860
1711.47952,0.00918
1709.98973,0.00998
1708.49994,0.00335
1707.01016,0.00214
1705.52037,0.00095
1704.03058,0.00852
1702.54079,0.00375
1701.05100,0.00391
1699.56121,0.00232
1698.07142,0.00371
1696.58164,0.00688
1695.09185,0.00360
1693.60206,0.00565
1692.11227,0.01086
1690.62248,0.00254
1689.13269,0.00949
1687.64291,0.01352
1686.15312,0.01070
1684.66333,0.01144
1683.17354,0.01672
1681.68375,0.01496
1680.19396,0.01910
1678.70417,0.02190
1677.21439,0.02001
1675.72460,0.03090
1674.23481,0.03240
1672.74502,0.03156
1671.25523,0.04154
1669.76544,0.03957
1668.27566,0.04332
1666.78587,0.05259
1665.29608,0.04500
1663.80629,0.05765
1662.31650,0.06012
1660.82671,0.06634
1659.33693,0.06964
1657.84714,0.06924
1656.35735,0.06532
1654.86756,0.06594
1653.37777,0.08112
1651.88798,0.07335
1650.39819,0.06894
1648.90841,0.07221
1647.41862,0.05901
1645.92883,0.07136
1644.43904,0.08373
1642.94925,0.07728
1641.45946,0.07360
1639.96968,0.08565
1638.47989,0.08320
1636.99010,0.08666
1635.50031,0.08936
1634.01052,0.07892
1632.52073,0.08108
1631.03094,0.07580
1629.54116,0.07525
1628.05137,0.09005
1626.56158,0.08601
1625.07179,0.08260
1623.58200,0.08627
1622.09221,0.08309
1620.60243,0.08249
1619.11264,0.07937
1617.62285,0.08372
1616.13306,0.07711
1614.64327,0.06816
1613.15348,0.07278
1611.66370,0.07468
1610.17391,0.07818
1608.68412,0.08857
1607.19433,0.09623
1605.70454,0.09351
1604.21475,0.09219
1602.72496,0.09089
1601.23518,0.08766
1599.74539,0.08268
1598.25560,0.07929
1596.76581,0.08064
1595.27602,0.08575
1593.78623,0.08047
1592.29645,0.07757
1590.80666,0.07312
1589.31687,0.07027
1587.82708,0.06980
1586.33729,0.06955
1584.84750,0.07188
1583.35771,0.07462
1581.86793,0.06874
1580.37814,0.07369
1578.88835,0.06571
1577.39856,0.06089
1575.90877,0.05216
1574.41898,0.04935
1572.92920,0.05108
1571.43941,0.05048
1569.94962,0.04587
1568.45983,0.04129
1566.97004,0.02996
1565.48025,0.02965
1563.99047,0.04232
1562.50068,0.03714
1561.01089,0.03317
1559.52110,0.02373
1558.03131,0.02550
1556.54152,0.02356
1555.05173,0.02145
1553.56195,0.01406
1552.07216,0.01396
1550.58237,0.00407
1549.09258,0.01109
1547.60279,0.00301
1546.11300,0.00261
1544.62322,0.00970
1543.13343,0.00915
1541.64364,0.00254
1540.15385,0.00558
1538.66406,0.00864
1537.17427,0.00779
1535.68448,0.00638
1534.19470,0.00794
1532.70491,0.00776
1531.21512,0.01270
1529.72533,0.00432
1528.23554,0.01441
1526.74575,0.02296
1525.25597,0.02230
1523.76618,0.01323
1522.27639,0.02342
1520.78660,0.02185
1519.29681,0.03877
1517.80702,0.03921
1516.31724,0.04007
1514.82745,0.04489
1513.33766,0.05080
1511.84787,0.05674
1510.35808,0.05750
1508.86829,0.04807
1507.37850,0.05163
1505.88872,0.05167
1504.39893,0.04781
1502.90914,0.05282
1501.41935,0.06432
1499.92956,0.07055
1498.43977,0.07699
1496.94999,0.07207
1495.46020,0.09447
1493.97041,0.08882
1492.48062,0.10773
1490.99083,0.10231
1489.50104,0.12049
1488.01125,0.12121
1486.52147,0.12195
1485.03168,0.15846
1483.54189,0.20382
1482.05210,0.20306
1480.56231,0.22295
1479.07252,0.22185
1477.58274,0.22627
1476.09295,0.23425
1474.60316,0.23715
1473.11337,0.24164
1471.62358,0.24636
1470.13379,0.26464
1468.64401,0.27588
1467.15422,0.28832
1465.66443,0.30088
1464.17464,0.31347
1462.68485,0.34012
1461.19506,0.37778
1459.70527,0.44021
1458.21549,0.50424
1456.72570,0.52902
1455.23591,0.60742
1453.74612,0.63402
1452.25633,0.69067
1450.76654,0.71143
1449.27676,0.72022
1447.78697,0.70863
1446.29718,0.66682
1444.80739,0.65654
1443.31760,0.64629
1441.82781,0.59474
1440.33802,0.53339
1438.84824,0.50524
1437.35845,0.51168
1435.86866,0.49772
1434.37887,0.50479
1432.88908,0.57550
1431.39929,0.65232
1429.90951,0.71876
1428.41972,0.78502
1426.92993,0.84169
1425.44014,0.85577
1423.95035,0.87646
1422.46056,0.89717
1420.97078,0.93469
1419.48099,0.91805
1417.99120,0.95621
1416.50141,0.93293
1415.01162,0.88298
1413.52183,0.84150
1412.03204,0.76666
1410.54226,0.70774
1409.05247,0.65376
1407.56268,0.60354
1406.07289,0.55805
1404.58310,0.52642
1403.09331,0.49482
1401.60353,0.42525
1400.11374,0.38889
1398.62395,0.33625
1397.13416,0.28619
1395.64437,0.22143
1394.15458,0.20322
1392.66479,0.15912
1391.17501,0.13429
1389.68522,0.11969
1388.19543,0.09588
1386.70564,0.08378
1385.21585,0.07171
1383.72606,0.05720
1382.23628,0.03663
1380.74649,0.03238
1379.25670,0.01854
1377.76691,0.01276
1376.27712,0.00505
1374.78733,0.00522
1373.29755,0.00207
1371.80776,0.00254
1370.31797,0.00441
1368.82818,0.00433
1367.33839,0.00427
1365.84860,0.00542
1364.35881,0.02112
1362.86903,0.02624
1361.37924,0.06555
1359.88945,0.08800
1358.39966,0.09633
1356.90987,0.12216
1355.42008,0.15843
1353.93030,0.22298
1352.44051,0.26891
1350.95072,0.31487
1349.46093,0.34514
1347.97114,0.44061
1346.48135,0.50981
1344.99156,0.59100
1343.50178,0.66731
1342.01199,0.72047
1340.52220,0.80664
1339.03241,0.80881
1337.54262,0.83122
1336.05283,0.84118
1334.56305,0.85117
1333.07326,0.88308
1331.58347,0.89341
1330.09368,0.85860
1328.60389,0.85033
1327.11410,0.79515
1325.62432,0.74452
1324.13453,0.73867
1322.64474,0.72048
1321.15495,0.68876
1319.66516,0.66993
1318.17537,0.65112
1316.68558,0.60632
1315.19580,0.55231
1313.70601,0.52209
1312.21622,0.48541
1310.72643,0.45465
1309.23664,0.42567
1307.74685,0.39024
1306.25707,0.36112
1304.76728,0.34105
1303.27749,0.32100
1301.78770,0.26073
1300.29791,0.21737
1298.80812,0.20545
1297.31834,0.17548
1295.82855,0.15811
1294.33876,0.13075
1292.84897,0.10125
1291.35918,0.08277
1289.86939,0.08866
1288.37960,0.09457
1286.88982,0.08598
1285.40003,0.07839
1283.91024,0.06081
1282.42045,0.06191
1280.93066,0.04556
1279.44087,0.04670
1277.95109,0.04355
1276.46130,0.03827
1274.97151,0.03684
1273.48172,0.03543
1271.99193,0.03571
1270.50214,0.02561
1269.01235,0.01828
1267.52257,0.02688
1266.03278,0.01725
1264.54299,0.01647
1263.05320,0.03025
1261.56341,0.02314
1260.07362,0.01605
1258.58384,0.01046
1257.09405,0.00273
1255.60426,0.00288
1254.11447,0.00581
1252.62468,0.00640
1251.13489,0.00937
1249.64511,0.00254
1248.15532,0.01501
1246.66553,0.01237
1245.17574,0.00976
1243.68595,0.01111
1242.19616,0.00579
1240.70637,0.00718
1239.21659,0.01802
1237.72680,0.01435
1236.23701,0.01895
1234.74722,0.02908
1233.25743,0.02479
1231.76764,0.02053
1230.27786,0.02935
1228.78807,0.01169
1227.29828,0.00838
1225.80849,0.00254
1224.31870,0.00764
1222.82891,0.00765
1221.33912,0.01456
1219.84934,0.02572
1218.35955,0.03690
1216.86976,0.04466
1215.37997,0.05795
1213.89018,0.06262
1212.40039,0.06850
1210.91061,0.07361
1209.42082,0.06421
1207.93103,0.06545
1206.44124,0.06670
1204.95145,0.06975
1203.46166,0.06673
1201.97188,0.05510
1200.48209,0.06117
1198.99230,0.04860
1197.50251,0.04548
1196.01272,0.04003
1194.52293,0.03883
1193.03314,0.03765
1191.54336,0.03934
1190.05357,0.02240
1188.56378,0.02178
1187.07399,0.04474
1185.58420,0.02336
1184.09441,0.01319
1182.60463,0.00785
1181.11484,0.00254
1179.62505,0.00548
1178.13526,0.01866
1176.64547,0.01968
1175.15568,0.02190
1173.66589,0.01571
1172.17611,0.01072
1170.68632,0.01095
1169.19653,0.01121
1167.70674,0.01395
1166.21695,0.02319
1164.72716,0.03284
1163.23738,0.02956
1161.74759,0.04123
1160.25780,0.05900
1158.76801,0.05864
1157.27822,0.05830
1155.78843,0.05730
1154.29865,0.06300
1152.80886,0.07559
1151.31907,0.08684
1149.82928,0.12009
1148.33949,0.11528
1146.84970,0.11806
1145.35991,0.12085
1143.87013,0.13555
1142.38034,0.14556
1140.89055,0.14872
1139.40076,0.14995
1137.91097,0.18614
1136.42118,0.19212
1134.93140,0.19872
1133.44161,0.20534
1131.95182,0.22239
1130.46203,0.24260
1128.97224,0.23378
1127.48245,0.22498
1125.99266,0.21876
1124.50288,0.23023
1123.01309,0.22347
1121.52330,0.21673
1120.03351,0.23259
1118.54372,0.22492
1117.05393,0.22590
1115.56415,0.23025
1114.07436,0.22540
1112.58457,0.22882
1111.09478,0.23226
1109.60499,0.22060
1108.11520,0.23960
1106.62542,0.23270
1105.13563,0.23781
1103.64584,0.21722
1102.15605,0.21569
1100.66626,0.21076
1099.17647,0.20584
1097.68668,0.19752
1096.19690,0.19668
1094.70711,0.22080
1093.21732,0.20862
1091.72753,0.19843
1090.23774,0.19022
1088.74795,0.18204
1087.25817,0.17368
1085.76838,0.16221
1084.27859,0.18708
1082.78880,0.17605
1081.29901,0.18821
1079.80922,0.18528
1078.31943,0.19169
1076.82965,0.19813
1075.33986,0.20979
1073.85007,0.21304
1072.36028,0.22298
1070.87049,0.25121
1069.38070,0.27691
1067.89092,0.29841
1066.40113,0.31994
1064.91134,0.38341
1063.42155,0.46437
1061.93176,0.55636
1060.44197,0.61852
1058.95219,0.70643
1057.46240,0.74881
1055.97261,0.79122
1054.48282,0.87606
1052.99303,0.94718
1051.50324,0.96099
1050.01345,0.94910
1048.52367,0.87598
1047.03388,0.85756
1045.54409,0.83917
1044.05430,0.80696
1042.56451,0.73276
1041.07472,0.69706
1039.58494,0.64313
1038.09515,0.59550
1036.60536,0.55300
1035.11557,0.51053
1033.62578,0.44078
1032.13599,0.40189
1030.64620,0.36066
1029.15642,0.30101
1027.66663,0.27858
1026.17684,0.25617
1024.68705,0.23016
1023.19726,0.19946
1021.70747,0.16250
1020.21769,0.13950
1018.72790,0.12242
1017.23811,0.11223
1015.74832,0.10207
1014.25853,0.09841
1012.76874,0.09026
1011.27896,0.06662
1009.78917,0.07481
1008.29938,0.05337
1006.80959,0.04973
1005.31980,0.04612
1003.83001,0.03025
1002.34022,0.02482
1000.85044,0.03178
999.36065,0.03660
997.87086,0.04302
996.38107,0.04946
994.89128,0.06652
993.40149,0.09323
991.91171,0.11840
990.42192,0.14182
988.93213,0.15171
987.44234,0.15830
985.95255,0.16490
984.46276,0.15779
982.97297,0.13892
981.48319,0.12361
979.99340,0.08613
978.50361,0.07194
977.01382,0.05778
975.52403,0.05513
974.03424,0.04249
972.54446,0.03497
971.05467,0.01197
969.56488,0.00254
968.07509,0.00516
966.58530,0.00779
965.09551,0.00388
963.60573,0.00195
962.11594,0.00334
960.62615,0.00771
959.13636,0.00463
957.64657,0.00158
956.15678,0.01046
954.66699,0.01544
953.17721,0.01612
951.68742,0.01937
950.19763,0.02432
948.70784,0.02929
947.21805,0.03949
945.72826,0.05246
944.23848,0.08096
942.74869,0.09045
941.25890,0.11605
939.76911,0.11891
938.27932,0.12179
936.78953,0.14904
935.29974,0.16826
933.80996,0.17867
932.32017,0.20324
930.83038,0.21007
929.34059,0.21692
927.85080,0.23606
926.36101,0.25543
924.87123,0.28915
923.38144,0.35372
921.89165,0.38287
920.40186,0.41205
918.91207,0.51459
917.42228,0.63619
915.93250,0.79355
914.44271,1.00238
912.95292,1.09617
911.46313,1.18999
909.97334,1.42029
908.48355,1.63922
906.99376,1.84503
905.50398,1.89908
904.01419,1.94953
902.52440,2.00000
901.03461,1.97893
899.54482,1.96259
898.05503,1.82749
896.56525,1.61369
895.07546,1.46990
893.58567,1.32614
892.09588,1.04211
890.60609,0.79110
889.11630,0.61196
887.62651,0.44621
886.13673,0.37756
884.64694,0.30894
883.15715,0.23338
881.66736,0.16353
880.17757,0.11550
878.68778,0.11323
877.19800,0.11100
875.70821,0.04988
874.21842,0.03984
872.72863,0.03355
871.23884,0.04182
869.74905,0.02821
868.25927,0.01463
866.76948,0.01531
865.27969,0.02720
863.78990,0.02047
862.30011,0.03358
860.81032,0.04525
859.32053,0.05695
857.83075,0.07485
856.34096,0.08924
854.85117,0.12034
853.36138,0.12280
851.87159,0.12823
850.38180,0.13369
848.89202,0.14820
847.40223,0.16607
845.91244,0.19025
844.42265,0.19197
842.93286,0.19371
841.44307,0.21501
839.95329,0.23928
838.46350,0.25101
836.97371,0.25433
835.48392,0.25619
833.99413,0.25807
832.50434,0.24869
831.01455,0.24091
829.52477,0.22058
828.03498,0.18850
826.54519,0.17391
825.05540,0.15935
823.56561,0.14284
822.07582,0.13657
820.58604,0.13504
819.09625,0.11939
817.60646,0.10377
816.11667,0.12018
814.62688,0.12502
813.13709,0.12596
811.64730,0.13655
810.15752,0.13773
808.66773,0.13894
807.17794,0.11838
805.68815,0.13475
804.19836,0.13760
802.70857,0.13498
801.21879,0.13238
799.72900,0.12273
798.23921,0.11390
796.74942,0.13375
795.25963,0.12919
793.76984,0.12464
792.28006,0.12552
790.79027,0.14704
789.30048,0.14129
787.81069,0.18289
786.32090,0.19770
784.83111,0.21254
783.34132,0.27031
781.85154,0.29609
780.36175,0.33623
778.87196,0.35568
777.38217,0.37516
775.89238,0.39495
774.40259,0.40377
772.91281,0.40378
771.42302,0.37898
769.93323,0.35420
768.44344,0.30696
766.95365,0.26446
765.46386,0.20510
763.97407,0.16834
762.48429,0.15653
760.99450,0.14476
759.50471,0.12927
758.01492,0.11165
756.52513,0.10721
755.03534,0.09778
753.54556,0.08838
752.05577,0.09010
750.56598,0.07495
749.07619,0.05276
747.58640,0.04365
746.09661,0.03456
744.60683,0.03110
743.11704,0.02432
741.62725,0.01265
740.13746,0.01014
738.64767,0.00765
737.15788,0.00724
735.66809,0.00254
734.17831,0.01618
732.68852,0.01571
731.19873,0.01525
729.70894,0.01227
728.21915,0.00460
726.72936,0.01062
725.23958,0.00566
723.74979,0.00808
722.26000,0.01053
720.77021,0.00918
719.28042,0.00254
717.79063,0.01205
716.30084,0.01038
714.81106,0.00874
713.32127,0.00751
711.83148,0.02477
710.34169,0.02535
708.85190,0.02391
707.36211,0.02248
705.87233,0.03099
704.38254,0.04189
702.89275,0.04632
701.40296,0.03959
699.91317,0.03289
698.42338,0.04977
696.93360,0.08021
695.44381,0.09694
693.95402,0.09406
692.46423,0.09120
690.97444,0.12371
689.48465,0.13504
687.99486,0.16700
686.50508,0.17337
685.01529,0.17976
683.52550,0.22004
682.03571,0.24111
680.54592,0.26082
679.05613,0.25857
677.56635,0.25634
676.07656,0.24825
674.58677,0.22683
673.09698,0.21623
671.60719,0.21262
670.11740,0.20904
668.62761,0.17377
667.13783,0.15561
665.64804,0.13521
664.15825,0.11484
662.66846,0.10499
661.17867,0.06710
659.68888,0.04905
658.19910,0.04635
656.70931,0.04366
655.21952,0.03904
653.72973,0.04622
652.23994,0.04263
650.75015,0.05163
649.26037,0.06065
647.77058,0.04358
646.28079,0.03203
644.79100,0.04368
643.30121,0.04680
641.81142,0.04995
640.32163,0.05303
638.83185,0.01922
637.34206,0.01311
635.85227,0.00782
634.36248,0.00254
632.87269,0.00936
631.38290,0.00971
629.89312,0.01284
628.40333,0.01619
626.91354,0.01957
625.42375,0.00628
623.93396,0.02560
622.44417,0.02600
620.95438,0.02643
619.46460,0.02187
617.97481,0.04070
616.48502,0.04915
614.99523,0.06606
613.50544,0.08300
612.01565,0.11429
610.52587,0.13422
609.03608,0.15437
607.54629,0.16817
606.05650,0.18198
604.56671,0.25129
603.07692,0.32003
601.58714,0.33696
600.09735,0.35391
598.60756,0.40957
597.11777,0.40144
595.62798,0.41356
594.13819,0.40106
592.64840,0.38858
591.15862,0.35011
589.66883,0.32149
588.17904,0.27207
586.68925,0.23338
585.19946,0.19471
583.70967,0.15479
582.21989,0.11745
580.73010,0.09829
579.24031,0.07916
577.75052,0.06427
576.26073,0.06138
574.77094,0.04339
573.28115,0.04732
571.79137,0.05128
570.30158,0.05045
568.81179,0.08164
567.32200,0.08910
565.83221,0.09659
564.34242,0.10665
562.85264,0.11890
561.36285,0.13745
559.87306,0.14532
558.38327,0.15322
556.89348,0.16379
555.40369,0.17596
553.91391,0.16911
552.42412,0.16228
550.93433,0.18414
549.44454,0.17617
547.95475,0.18375
546.46496,0.18104
544.97517,0.17835
543.48539,0.19562
541.99560,0.22704
540.50581,0.24386
539.01602,0.26071
537.52623,0.29554
536.03644,0.35102
534.54666,0.37078
533.05687,0.39106
531.56708,0.41136
530.07729,0.45338
528.58750,0.49896
527.09771,0.53857
525.60792,0.57821
524.11814,0.65449
522.62835,0.71960
521.13856,0.75371
519.64877,0.75791
518.15898,0.76212
516.66919,0.79317
515.17941,0.81795
513.68962,0.80948
512.19983,0.80103
510.71004,0.77228
509.22025,0.73217
507.73046,0.68384
506.24068,0.62375
504.75089,0.56368
503.26110,0.45946
501.77131,0.37588
500.28152,0.33228
498.79173,0.28870
497.30194,0.22208
495.81216,0.15980
494.32237,0.14584
492.83258,0.13191
491.34279,0.11132
489.85300,0.10019
488.36321,0.09025
486.87343,0.07592
485.38364,0.06162
483.89385,0.07983
482.40406,0.10376
480.91427,0.10739
479.42448,0.11105
477.93469,0.12562
476.44491,0.12432
474.95512,0.14856
473.46533,0.17283
471.97554,0.19791
470.48575,0.21378
468.99596,0.19846
467.50618,0.18660
466.01639,0.17476
464.52660,0.13340
463.03681,0.10639
461.54702,0.10051
460.05723,0.09466
458.56745,0.06360
457.07766,0.02353
455.58787,0.02492
454.09808,0.02632
452.60829,0.02383
451.11850,0.01959
449.62871,0.01105
448.13893,0.00254
446.64914,0.02581
445.15935,0.01808
443.66956,0.00644
442.17977,0.02291
440.68998,0.03940
439.20020,0.03490
437.71041,0.03907
436.22062,0.02648
434.73083,0.01390
433.24104,0.02462
431.75125,0.04204
430.26146,0.03317
428.77168,0.02432
427.28189,0.03985
425.79210,0.05402
424.30231,0.05212
422.81252,0.05024
421.32273,0.03660
419.83295,0.03065
418.34316,0.02423
416.85337,0.01783
415.36358,0.00350
413.87379,0.02690
412.38400,0.03058
410.89422,0.03429
409.40443,0.03341
407.91464,0.03374
406.42485,0.04036
404.93506,0.04554
403.44527,0.05075
401.95548,0.03977
400.46570,0.03138
398.97591,0.03096
397.48612,0.03056
395.99633,0.02106
394.50654,0.02002
393.01675,0.03364
391.52697,0.04728
390.03718,0.01745
388.54739,0.01494
387.05760,0.01294
385.56781,0.01098
384.07802,0.02503
382.58824,0.02066
381.09845,0.02975
379.60866,0.03887
378.11887,0.01494
376.62908,0.00457
375.13929,0.00354
373.64950,0.00254
372.15972,0.01857
370.66993,0.04307
369.18014,0.03303
367.69035,0.02301
366.20056,0.02378
364.71077,0.02928
363.22099,0.02499
361.73120,0.02072
360.24141,0.04711
358.75162,0.06664
357.26183,0.06333
355.77204,0.06004
354.28225,0.05040
352.79247,0.04843
351.30268,0.04737
349.81289,0.04634
348.32310,0.03875
346.83331,0.05631
345.34352,0.04769
343.85374,0.03910
342.36395,0.04613
340.87416,0.02492
339.38437,0.01796
337.89458,0.01103
336.40479,0.01463
334.91501,0.02944
333.42522,0.02483
331.93543,0.02025
330.44564,0.00254
328.95585,0.00812
327.46606,0.00823
325.97627,0.00836
324.48649,0.00940
322.99670,0.01851
321.50691,0.02794
320.01712,0.03739
318.52733,0.04500
317.03754,0.04890
315.54776,0.06147
314.05797,0.07406
312.56818,0.06272
311.07839,0.07438
309.58860,0.06956
308.09881,0.06477
306.60902,0.03625
305.11924,0.04702
303.62945,0.04014
302.13966,0.03328
300.64987,0.00270
299.16008,0.00254
