1778.52000,0.01839
1777.03021,0.00884
1775.54042,0.01402
1774.05063,0.01426
1772.56085,0.00995
1771.07106,0.01063
1769.58127,0.01134
1768.09148,0.01167
1766.60169,0.00785
1765.11190,0.01261
1763.62212,0.00486
1762.13233,0.00330
1760.64254,0.00714
1759.15275,0.01378
1757.66296,0.00772
1756.17317,0.01421
1754.68339,0.01038
1753.19360,0.01016
1751.70381,0.00538
1750.21402,0.00421
1748.72423,0.00983
1747.23444,0.00692
1745.74465,0.00602
1744.25487,0.00494
1742.76508,0.00489
1741.27529,0.00287
1739.78550,0.01181
1738.29571,0.00268
1736.80592,0.00351
1735.31614,0.01160
1733.82635,0.01215
1732.33656,0.00895
1730.84677,0.01830
1729.35698,0.02211
1727.86719,0.00207
1726.37740,0.00553
1724.88762,0.00384
1723.39783,0.01231
1721.90804,0.00450
1720.41825,0.01025
1718.92846,0.00248
1717.43867,0.00330
1715.94889,0.00547
1714.45910,0.00568
1712.96931,0.00711
1711.47952,0.00000
1709.98973,0.00644
1708.49994,0.00595
1707.01016,0.00439
1705.52037,0.00285
1704.03058,0.00103
1702.54079,0.00322
1701.05100,0.00882
1699.56121,0.01045
1698.07142,0.00237
1696.58164,0.00784
1695.09185,0.00378
1693.60206,0.00611
1692.11227,0.01443
1690.62248,0.00567
1689.13269,0.00330
1687.64291,0.01185
1686.15312,0.01087
1684.66333,0.02484
1683.17354,0.01596
1681.68375,0.01943
1680.19396,0.01298
1678.70417,0.02346
1677.21439,0.02621
1675.72460,0.03555
1674.23481,0.03635
1672.74502,0.03460
1671.25523,0.03645
1669.76544,0.05105
1668.27566,0.04201
1666.78587,0.04492
1665.29608,0.04826
1663.80629,0.06236
1662.31650,0.06435
1660.82671,0.06159
1659.33693,0.06920
1657.84714,0.06391
1656.35735,0.05943
1654.86756,0.06632
1653.37777,0.07561
1651.88798,0.07698
1650.39819,0.07478
1648.90841,0.07898
1647.41862,0.07604
1645.92883,0.08078
1644.43904,0.08554
1642.94925,0.08606
1641.45946,0.08759
1639.96968,0.08536
1638.47989,0.08137
1636.99010,0.08496
1635.50031,0.08042
1634.01052,0.06855
1632.52073,0.07897
1631.03094,0.08047
1629.54116,0.08995
1628.05137,0.08096
1626.56158,0.09963
1625.07179,0.10720
1623.58200,0.10324
1622.09221,0.09733
1620.60243,0.09541
1619.11264,0.09651
1617.62285,0.09046
1616.13306,0.09717
1614.64327,0.09138
1613.15348,0.08421
1611.66370,0.08304
1610.17391,0.08805
1608.68412,0.08374
1607.19433,0.10094
1605.70454,0.09986
1604.21475,0.09841
1602.72496,0.09698
1601.23518,0.09279
1599.74539,0.08842
1598.25560,0.08269
1596.76581,0.08295
1595.27602,0.07348
1593.78623,0.07657
1592.29645,0.07730
1590.80666,0.08601
1589.31687,0.07942
1587.82708,0.07963
1586.33729,0.07388
1584.84750,0.07533
1583.35771,0.06884
1581.86793,0.08704
1580.37814,0.07543
1578.88835,0.07756
1577.39856,0.06460
1575.90877,0.06380
1574.41898,0.06959
1572.92920,0.05949
1571.43941,0.05080
1569.94962,0.04960
1568.45983,0.04842
1566.97004,0.05155
1565.48025,0.05290
1563.99047,0.04175
1562.50068,0.03818
1561.01089,0.03543
1559.52110,0.02694
1558.03131,0.02543
1556.54152,0.03528
1555.05173,0.03283
1553.56195,0.02164
1552.07216,0.01426
1550.58237,0.02262
1549.09258,0.01688
1547.60279,0.00738
1546.11300,0.01223
1544.62322,0.00278
1543.13343,0.00330
1541.64364,0.01364
1540.15385,0.01127
1538.66406,0.00892
1537.17427,0.02132
1535.68448,0.02320
1534.19470,0.02948
1532.70491,0.02067
1531.21512,0.02123
1529.72533,0.01723
1528.23554,0.01704
1526.74575,0.01350
1525.25597,0.03006
1523.76618,0.03532
1522.27639,0.03005
1520.78660,0.03078
1519.29681,0.03551
1517.80702,0.04105
1516.31724,0.03747
1514.82745,0.03750
1513.33766,0.04700
1511.84787,0.05652
1510.35808,0.04886
1508.86829,0.03744
1507.37850,0.04236
1505.88872,0.03338
1504.39893,0.03318
1502.90914,0.04672
1501.41935,0.05213
1499.92956,0.06155
1498.43977,0.05129
1496.94999,0.06871
1495.46020,0.06626
1493.97041,0.09686
1492.48062,0.09088
1490.99083,0.09944
1489.50104,0.11797
1488.01125,0.12459
1486.52147,0.13124
1485.03168,0.15442
1483.54189,0.16529
1482.05210,0.19130
1480.56231,0.21595
1479.07252,0.20759
1477.58274,0.22015
1476.09295,0.22378
1474.60316,0.21510
1473.11337,0.22654
1471.62358,0.22626
1470.13379,0.23695
1468.64401,0.24925
1467.15422,0.28744
1465.66443,0.28228
1464.17464,0.27715
1462.68485,0.34664
1461.19506,0.37876
1459.70527,0.40891
1458.21549,0.45758
1456.72570,0.51224
1455.23591,0.56335
1453.74612,0.57072
1452.25633,0.60537
1450.76654,0.62850
1449.27676,0.62978
1447.78697,0.63267
1446.29718,0.60932
1444.80739,0.60122
1443.31760,0.59314
1441.82781,0.56092
1440.33802,0.52076
1438.84824,0.49297
1437.35845,0.45147
1435.86866,0.45514
1434.37887,0.47297
1432.88908,0.53617
1431.39929,0.55444
1429.90951,0.64733
1428.41972,0.69330
1426.92993,0.75699
1425.44014,0.78073
1423.95035,0.79455
1422.46056,0.80838
1420.97078,0.86581
1419.48099,0.84508
1417.99120,0.84249
1416.50141,0.85741
1415.01162,0.86501
1413.52183,0.81195
1412.03204,0.77106
1410.54226,0.69060
1409.05247,0.64140
1407.56268,0.59680
1406.07289,0.53591
1404.58310,0.50587
1403.09331,0.47586
1401.60353,0.41962
1400.11374,0.36578
1398.62395,0.34718
1397.13416,0.28922
1395.64437,0.24540
1394.15458,0.21812
1392.66479,0.17953
1391.17501,0.14394
1389.68522,0.11912
1388.19543,0.10287
1386.70564,0.09252
1385.21585,0.08219
1383.72606,0.07178
1382.23628,0.03892
1380.74649,0.02976
1379.25670,0.01863
1377.76691,0.01309
1376.27712,0.00201
1374.78733,0.01203
1373.29755,0.00776
1371.80776,0.00330
1370.31797,0.00567
1368.82818,0.00567
1367.33839,0.00570
1365.84860,0.01112
1364.35881,0.01736
1362.86903,0.04550
1361.37924,0.06730
1359.88945,0.08197
1358.39966,0.10362
1356.90987,0.13166
1355.42008,0.16669
1353.93030,0.22024
1352.44051,0.24796
1350.95072,0.27570
1349.46093,0.35796
1347.97114,0.41937
1346.48135,0.49074
1344.99156,0.58362
1343.50178,0.62521
1342.01199,0.68134
1340.52220,0.74803
1339.03241,0.81356
1337.54262,0.86100
1336.05283,0.86979
1334.56305,0.87859
1333.07326,0.91458
1331.58347,0.91876
1330.09368,0.93310
1328.60389,0.93017
1327.11410,0.87992
1325.62432,0.84660
1324.13453,0.81151
1322.64474,0.79733
1321.15495,0.73584
1319.66516,0.72221
1318.17537,0.70860
1316.68558,0.66070
1315.19580,0.59154
1313.70601,0.54429
1312.21622,0.51119
1310.72643,0.47413
1309.23664,0.47289
1307.74685,0.43986
1306.25707,0.42933
1304.76728,0.39694
1303.27749,0.36457
1301.78770,0.31532
1300.29791,0.25914
1298.80812,0.21630
1297.31834,0.17150
1295.82855,0.16511
1294.33876,0.15099
1292.84897,0.13371
1291.35918,0.10730
1289.86939,0.10061
1288.37960,0.09395
1286.88982,0.09188
1285.40003,0.08347
1283.91024,0.07091
1282.42045,0.07409
1280.93066,0.06277
1279.44087,0.05287
1277.95109,0.04557
1276.46130,0.04825
1274.97151,0.04418
1273.48172,0.04014
1271.99193,0.03613
1270.50214,0.04288
1269.01235,0.02280
1267.52257,0.01866
1266.03278,0.02289
1264.54299,0.03332
1263.05320,0.03661
1261.56341,0.02868
1260.07362,0.02078
1258.58384,0.01021
1257.09405,0.00544
1255.60426,0.00606
1254.11447,0.02680
1252.62468,0.01156
1251.13489,0.00330
1249.64511,0.01598
1248.15532,0.01735
1246.66553,0.01785
1245.17574,0.01837
1243.68595,0.00887
1242.19616,0.00635
1240.70637,0.01102
1239.21659,0.01453
1237.72680,0.01944
1236.23701,0.01543
1234.74722,0.01920
1233.25743,0.01793
1231.76764,0.01667
1230.27786,0.01912
1228.78807,0.01324
1227.29828,0.01673
1225.80849,0.01388
1224.31870,0.00330
1222.82891,0.02445
1221.33912,0.02533
1219.84934,0.02971
1218.35955,0.03412
1216.86976,0.04621
1215.37997,0.06608
1213.89018,0.07881
1212.40039,0.08222
1210.91061,0.07949
1209.42082,0.07917
1207.93103,0.07101
1206.44124,0.06288
1204.95145,0.06482
1203.46166,0.04251
1201.97188,0.05782
1200.48209,0.05725
1198.99230,0.05470
1197.50251,0.04801
1196.01272,0.03915
1194.52293,0.03409
1193.03314,0.02906
1191.54336,0.02465
1190.05357,0.02981
1188.56378,0.01589
1187.07399,0.00579
1185.58420,0.02076
1184.09441,0.02423
1182.60463,0.02265
1181.11484,0.02109
1179.62505,0.01050
1178.13526,0.01366
1176.64547,0.01725
1175.15568,0.02503
1173.66589,0.02250
1172.17611,0.01680
1170.68632,0.01004
1169.19653,0.00330
1167.70674,0.02153
1166.21695,0.02189
1164.72716,0.04056
1163.23738,0.04832
1161.74759,0.05253
1160.25780,0.06033
1158.76801,0.06717
1157.27822,0.07403
1155.78843,0.08331
1154.29865,0.08604
1152.80886,0.08501
1151.31907,0.10211
1149.82928,0.10910
1148.33949,0.12167
1146.84970,0.12382
1145.35991,0.12600
1143.87013,0.14939
1142.38034,0.14635
1140.89055,0.15645
1139.40076,0.16738
1137.91097,0.16839
1136.42118,0.19070
1134.93140,0.19165
1133.44161,0.19263
1131.95182,0.21263
1130.46203,0.22648
1128.97224,0.23559
1127.48245,0.20911
1125.99266,0.25188
1124.50288,0.23739
1123.01309,0.23197
1121.52330,0.22657
1120.03351,0.21155
1118.54372,0.21386
1117.05393,0.21679
1115.56415,0.22114
1114.07436,0.22869
1112.58457,0.21349
1111.09478,0.19832
1109.60499,0.21032
1108.11520,0.22334
1106.62542,0.22027
1105.13563,0.22498
1103.64584,0.20864
1102.15605,0.19709
1100.66626,0.19252
1099.17647,0.18798
1097.68668,0.18625
1096.19690,0.16863
1094.70711,0.18763
1093.21732,0.18378
1091.72753,0.17658
1090.23774,0.16939
1088.74795,0.16224
1087.25817,0.16485
1085.76838,0.16788
1084.27859,0.17691
1082.78880,0.17164
1081.29901,0.18210
1079.80922,0.18702
1078.31943,0.19425
1076.82965,0.20151
1075.33986,0.18999
1073.85007,0.19222
1072.36028,0.21059
1070.87049,0.22719
1069.38070,0.24640
1067.89092,0.26643
1066.40113,0.28648
1064.91134,0.33938
1063.42155,0.39071
1061.93176,0.49080
1060.44197,0.61558
1058.95219,0.70617
1057.46240,0.75213
1055.97261,0.79811
1054.48282,0.85993
1052.99303,0.90327
1051.50324,0.95241
1050.01345,0.93453
1048.52367,0.89838
1047.03388,0.87856
1045.54409,0.85877
1044.05430,0.85253
1042.56451,0.79121
1041.07472,0.72414
1039.58494,0.64696
1038.09515,0.56801
1036.60536,0.53135
1035.11557,0.49472
1033.62578,0.44448
1032.13599,0.37796
1030.64620,0.33811
1029.15642,0.29392
1027.66663,0.26765
1026.17684,0.24140
1024.68705,0.22751
1023.19726,0.18779
1021.70747,0.16002
1020.21769,0.11994
1018.72790,0.13400
1017.23811,0.11864
1015.74832,0.10330
1014.25853,0.08540
1012.76874,0.08702
1011.27896,0.08230
1009.78917,0.06168
1008.29938,0.04985
1006.80959,0.04132
1005.31980,0.03281
1003.83001,0.01945
1002.34022,0.01269
1000.85044,0.02006
999.36065,0.03125
997.87086,0.03579
996.38107,0.04036
994.89128,0.06732
993.40149,0.08536
991.91171,0.09090
990.42192,0.10023
988.93213,0.13884
987.44234,0.14116
985.95255,0.14350
984.46276,0.11972
982.97297,0.12261
981.48319,0.09509
979.99340,0.07933
978.50361,0.06926
977.01382,0.05922
975.52403,0.04791
974.03424,0.04100
972.54446,0.02158
971.05467,0.00775
969.56488,0.00330
968.07509,0.00309
966.58530,0.00289
965.09551,0.01178
963.60573,0.01612
962.11594,0.00397
960.62615,0.00617
959.13636,0.00779
957.64657,0.00944
956.15678,0.00753
954.66699,0.01022
953.17721,0.01413
951.68742,0.02801
950.19763,0.03345
948.70784,0.03893
947.21805,0.05009
945.72826,0.06506
944.23848,0.08801
942.74869,0.10998
941.25890,0.12025
939.76911,0.12457
938.27932,0.12892
936.78953,0.15795
935.29974,0.17309
933.80996,0.17910
932.32017,0.17996
930.83038,0.18750
929.34059,0.19508
927.85080,0.19163
926.36101,0.23894
924.87123,0.29323
923.38144,0.35052
921.89165,0.37711
920.40186,0.40372
918.91207,0.49272
917.42228,0.63008
915.93250,0.77721
914.44271,0.97429
912.95292,1.08138
911.46313,1.18850
909.97334,1.38426
908.48355,1.61028
906.99376,1.78381
905.50398,1.94105
904.01419,1.97052
902.52440,2.00000
901.03461,1.99002
899.54482,1.90786
898.05503,1.76168
896.56525,1.62466
895.07546,1.50677
893.58567,1.38890
892.09588,1.12306
890.60609,0.88131
889.11630,0.63700
887.62651,0.48482
886.13673,0.42386
884.64694,0.36292
883.15715,0.27048
881.66736,0.19259
880.17757,0.13719
878.68778,0.12121
877.19800,0.10525
875.70821,0.08971
874.21842,0.06087
872.72863,0.05155
871.23884,0.02196
869.74905,0.01865
868.25927,0.01536
866.76948,0.00594
865.27969,0.01245
863.78990,0.04066
862.30011,0.04662
860.81032,0.04475
859.32053,0.04290
857.83075,0.05948
856.34096,0.09219
854.85117,0.10106
853.36138,0.12447
851.87159,0.13069
850.38180,0.13694
848.89202,0.15565
847.40223,0.18274
845.91244,0.17563
844.42265,0.18765
842.93286,0.19969
841.44307,0.22846
839.95329,0.24831
838.46350,0.26659
836.97371,0.26460
835.48392,0.27457
833.99413,0.28457
832.50434,0.28444
831.01455,0.26862
829.52477,0.23234
828.03498,0.19967
826.54519,0.19108
825.05540,0.18252
823.56561,0.16444
822.07582,0.14877
820.58604,0.14286
819.09625,0.13132
817.60646,0.11979
816.11667,0.10899
814.62688,0.12188
813.13709,0.12346
811.64730,0.14813
810.15752,0.15165
808.66773,0.15519
807.17794,0.15248
805.68815,0.13429
804.19836,0.14217
802.70857,0.14451
801.21879,0.14688
799.72900,0.13634
798.23921,0.13378
796.74942,0.11911
795.25963,0.12087
793.76984,0.12266
792.28006,0.15242
790.79027,0.16132
789.30048,0.16467
787.81069,0.17501
786.32090,0.20247
784.83111,0.22997
783.34132,0.25549
781.85154,0.28940
780.36175,0.32910
778.87196,0.33689
777.38217,0.34471
775.89238,0.37394
774.40259,0.38509
772.91281,0.36185
771.42302,0.35813
769.93323,0.35443
768.44344,0.31495
766.95365,0.26057
765.46386,0.22214
763.97407,0.16483
762.48429,0.14344
760.99450,0.12209
759.50471,0.13526
758.01492,0.10689
756.52513,0.09844
755.03534,0.09209
753.54556,0.08577
752.05577,0.09569
750.56598,0.06724
749.07619,0.05413
747.58640,0.05019
746.09661,0.04628
744.60683,0.03403
743.11704,0.02420
741.62725,0.02116
740.13746,0.01893
738.64767,0.01673
737.15788,0.01475
735.66809,0.01458
734.17831,0.00330
732.68852,0.00421
731.19873,0.00514
729.70894,0.01624
728.21915,0.00528
726.72936,0.00330
725.23958,0.01668
723.74979,0.01486
722.26000,0.01306
720.77021,0.00164
719.28042,0.00345
717.79063,0.00210
716.30084,0.00853
714.81106,0.01499
713.32127,0.00595
711.83148,0.01484
710.34169,0.01998
708.85190,0.01976
707.36211,0.01958
705.87233,0.01663
704.38254,0.01410
702.89275,0.03129
701.40296,0.02583
699.91317,0.02039
698.42338,0.03924
696.93360,0.07363
695.44381,0.08438
693.95402,0.09166
692.46423,0.09897
690.97444,0.11078
689.48465,0.12262
687.99486,0.14681
686.50508,0.16197
685.01529,0.17716
683.52550,0.20262
682.03571,0.21477
680.54592,0.23252
679.05613,0.22841
677.56635,0.22432
676.07656,0.22941
674.58677,0.22119
673.09698,0.20783
671.60719,0.19499
670.11740,0.18217
668.62761,0.16191
667.13783,0.15163
665.64804,0.13948
664.15825,0.12735
662.66846,0.08511
661.17867,0.07373
659.68888,0.05023
658.19910,0.03442
656.70931,0.01864
655.21952,0.01710
653.72973,0.01677
652.23994,0.01747
650.75015,0.01948
649.26037,0.02152
647.77058,0.03919
646.28079,0.03799
644.79100,0.02409
643.30121,0.02771
641.81142,0.03136
640.32163,0.02787
638.83185,0.02460
637.34206,0.00902
635.85227,0.00998
634.36248,0.01096
632.87269,0.00899
631.38290,0.00922
629.89312,0.01545
628.40333,0.00936
626.91354,0.00330
625.42375,0.01512
623.93396,0.03054
622.44417,0.02520
620.95438,0.01988
619.46460,0.04373
617.97481,0.04810
616.48502,0.07359
614.99523,0.08508
613.50544,0.09659
612.01565,0.11956
610.52587,0.15509
609.03608,0.19442
607.54629,0.22034
606.05650,0.24630
604.56671,0.26819
603.07692,0.31259
601.58714,0.34240
600.09735,0.37222
598.60756,0.40993
597.11777,0.44130
595.62798,0.43668
594.13819,0.41340
592.64840,0.39013
591.15862,0.36232
589.66883,0.30051
588.17904,0.27712
586.68925,0.24917
585.19946,0.22125
583.70967,0.15934
582.21989,0.11735
580.73010,0.09169
579.24031,0.06605
577.75052,0.07128
576.26073,0.06439
574.77094,0.06866
573.28115,0.06490
571.79137,0.06117
570.30158,0.05577
568.81179,0.05476
567.32200,0.05886
565.83221,0.06298
564.34242,0.11337
562.85264,0.13196
561.36285,0.14579
559.87306,0.15538
558.38327,0.16499
556.89348,0.15184
555.40369,0.17314
553.91391,0.18501
552.42412,0.19690
550.93433,0.21687
549.44454,0.19529
547.95475,0.21671
546.46496,0.22133
544.97517,0.22599
543.48539,0.23792
541.99560,0.27594
540.50581,0.28534
539.01602,0.29476
537.52623,0.32927
536.03644,0.38807
534.54666,0.42323
533.05687,0.43622
531.56708,0.44925
530.07729,0.53738
528.58750,0.56686
527.09771,0.59587
525.60792,0.62490
524.11814,0.67216
522.62835,0.73953
521.13856,0.81428
519.64877,0.82809
518.15898,0.84193
516.66919,0.84574
515.17941,0.86430
513.68962,0.86120
512.19983,0.85812
510.71004,0.83279
509.22025,0.77545
507.73046,0.74619
506.24068,0.69029
504.75089,0.63442
503.26110,0.49483
501.77131,0.37356
500.28152,0.32940
498.79173,0.28526
497.30194,0.24900
495.81216,0.19109
494.32237,0.16105
492.83258,0.13103
491.34279,0.11595
489.85300,0.12258
488.36321,0.11431
486.87343,0.09553
485.38364,0.07677
483.89385,0.07335
482.40406,0.10019
480.91427,0.10557
479.42448,0.11097
477.93469,0.12117
476.44491,0.16203
474.95512,0.18292
473.46533,0.20384
471.97554,0.22170
470.48575,0.20138
468.99596,0.18826
467.50618,0.18609
466.01639,0.18396
464.52660,0.11699
463.03681,0.08566
461.54702,0.08548
460.05723,0.08533
458.56745,0.05168
457.07766,0.03696
455.58787,0.03379
454.09808,0.03065
452.60829,0.03569
451.11850,0.03558
449.62871,0.02465
448.13893,0.01375
446.64914,0.02962
445.15935,0.02364
443.66956,0.02067
442.17977,0.02408
440.68998,0.02752
439.20020,0.03397
437.71041,0.01796
436.22062,0.02008
434.73083,0.02222
433.24104,0.01802
431.75125,0.03533
430.26146,0.04013
428.77168,0.04495
427.28189,0.05457
425.79210,0.04830
424.30231,0.04614
422.81252,0.04399
421.32273,0.05928
419.83295,0.02963
418.34316,0.02597
416.85337,0.02233
415.36358,0.00330
413.87379,0.03059
412.38400,0.03523
410.89422,0.03989
409.40443,0.06665
407.91464,0.05147
406.42485,0.04367
404.93506,0.03987
403.44527,0.03610
401.95548,0.04329
400.46570,0.03977
398.97591,0.04323
397.48612,0.04671
395.99633,0.06036
394.50654,0.04141
393.01675,0.03502
391.52697,0.02866
390.03718,0.01953
388.54739,0.01102
387.05760,0.01559
385.56781,0.02019
384.07802,0.01764
382.58824,0.02786
381.09845,0.03252
379.60866,0.03721
378.11887,0.02164
376.62908,0.00330
375.13929,0.00252
373.64950,0.00170
372.15972,0.00734
370.66993,0.02473
369.18014,0.02003
367.69035,0.01536
366.20056,0.01250
364.71077,0.01782
363.22099,0.01938
361.73120,0.02097
360.24141,0.03113
358.75162,0.04152
357.26183,0.03930
355.77204,0.03711
354.28225,0.04836
352.79247,0.04631
351.30268,0.05314
349.81289,0.05999
348.32310,0.06338
346.83331,0.06064
345.34352,0.06955
343.85374,0.07848
342.36395,0.07223
340.87416,0.04530
339.38437,0.03720
337.89458,0.02913
336.40479,0.00526
334.91501,0.00330
333.42522,0.00959
331.93543,0.01590
330.44564,0.01975
328.95585,0.03217
327.46606,0.02900
325.97627,0.02586
324.48649,0.03813
322.99670,0.04127
321.50691,0.03668
320.01712,0.03212
318.52733,0.04925
317.03754,0.05229
315.54776,0.06530
314.05797,0.07834
312.56818,0.07846
311.07839,0.09154
309.58860,0.07063
308.09881,0.04975
306.60902,0.01198
305.11924,0.01839
303.62945,0.02880
302.13966,0.03924
300.64987,0.01430
299.16008,0.00330
