1778.52000,0.01708
1777.03021,0.01459
1775.54042,0.01380
1774.05063,0.01760
1772.56085,0.01541
1771.07106,0.02407
1769.58127,0.02025
1768.09148,0.01093
1766.60169,0.02014
1765.11190,0.01688
1763.62212,0.00931
1762.13233,0.01763
1760.64254,0.01180
1759.15275,0.01512
1757.66296,0.00934
1756.17317,0.00814
1754.68339,-0.00000
1753.19360,0.01135
1751.70381,0.01576
1750.21402,0.01225
1748.72423,0.01767
1747.23444,0.01302
1745.74465,0.00574
1744.25487,0.00811
1742.76508,0.00737
1741.27529,0.01531
1739.78550,0.00934
1738.29571,0.01745
1736.80592,0.01262
1735.31614,0.01165
1733.82635,0.01555
1732.33656,0.01732
1730.84677,0.01910
1729.35698,0.02164
1727.86719,0.00809
1726.37740,0.01572
1724.88762,0.01592
1723.39783,0.02024
1721.90804,0.01015
1720.41825,0.00827
1718.92846,0.01246
1717.43867,0.01451
1715.94889,0.01033
1714.45910,0.02747
1712.96931,0.01555
1711.47952,0.01183
1709.98973,0.01366
1708.49994,0.00902
1707.01016,0.01186
1705.52037,0.01472
1704.03058,0.01689
1702.54079,0.00922
1701.05100,0.02586
1699.56121,0.01464
1698.07142,0.01954
1696.58164,0.00934
1695.09185,0.02052
1693.60206,0.03005
1692.11227,0.02567
1690.62248,0.01914
1689.13269,0.02370
1687.64291,0.03044
1686.15312,0.03144
1684.66333,0.03439
1683.17354,0.02751
1681.68375,0.03939
1680.19396,0.04506
1678.70417,0.03344
1677.21439,0.02954
1675.72460,0.05306
1674.23481,0.05161
1672.74502,0.05403
1671.25523,0.05744
1669.76544,0.06327
1668.27566,0.06816
1666.78587,0.06011
1665.29608,0.06265
1663.80629,0.07915
1662.31650,0.07958
1660.82671,0.09469
1659.33693,0.08603
1657.84714,0.07404
1656.35735,0.07192
1654.86756,0.08713
1653.37777,0.09227
1651.88798,0.08974
1650.39819,0.07906
1648.90841,0.08067
1647.41862,0.07581
1645.92883,0.07711
1644.43904,0.07843
1642.94925,0.08133
1641.45946,0.09748
1639.96968,0.09851
1638.47989,0.07746
1636.99010,0.09633
1635.50031,0.08493
1634.01052,0.09111
1632.52073,0.07015
1631.03094,0.10353
1629.54116,0.10906
1628.05137,0.09683
1626.56158,0.10217
1625.07179,0.10632
1623.58200,0.11820
1622.09221,0.10799
1620.60243,0.10405
1619.11264,0.11167
1617.62285,0.09480
1616.13306,0.08613
1614.64327,0.09094
1613.15348,0.09361
1611.66370,0.09125
1610.17391,0.09686
1608.68412,0.09744
1607.19433,0.11366
1605.70454,0.10492
1604.21475,0.10305
1602.72496,0.10121
1601.23518,0.09518
1599.74539,0.09470
1598.25560,0.09017
1596.76581,0.08590
1595.27602,0.08766
1593.78623,0.08007
1592.29645,0.09317
1590.80666,0.09020
1589.31687,0.08461
1587.82708,0.07640
1586.33729,0.07182
1584.84750,0.08120
1583.35771,0.08796
1581.86793,0.07840
1580.37814,0.08738
1578.88835,0.08652
1577.39856,0.07343
1575.90877,0.06590
1574.41898,0.06511
1572.92920,0.06507
1571.43941,0.06771
1569.94962,0.05702
1568.45983,0.04636
1566.97004,0.04786
1565.48025,0.05107
1563.99047,0.05070
1562.50068,0.04242
1561.01089,0.03296
1559.52110,0.04636
1558.03131,0.03431
1556.54152,0.02325
1555.05173,0.03600
1553.56195,0.02138
1552.07216,0.03321
1550.58237,0.02561
1549.09258,0.01322
1547.60279,0.02345
1546.11300,0.00895
1544.62322,0.01178
1543.13343,0.01679
1541.64364,0.00934
1540.15385,0.01116
1538.66406,0.01301
1537.17427,0.02077
1535.68448,0.02519
1534.19470,0.02627
1532.70491,0.00935
1531.21512,0.01600
1529.72533,0.02028
1528.23554,0.02578
1526.74575,0.02842
1525.25597,0.02028
1523.76618,0.03066
1522.27639,0.03602
1520.78660,0.03155
1519.29681,0.04969
1517.80702,0.04119
1516.31724,0.04833
1514.82745,0.04516
1513.33766,0.04622
1511.84787,0.04730
1510.35808,0.05285
1508.86829,0.04690
1507.37850,0.05899
1505.88872,0.03385
1504.39893,0.04263
1502.90914,0.06176
1501.41935,0.07563
1499.92956,0.09265
1498.43977,0.09023
1496.94999,0.06884
1495.46020,0.09050
1493.97041,0.08887
1492.48062,0.11346
1490.99083,0.13231
1489.50104,0.13388
1488.01125,0.14256
1486.52147,0.15127
1485.03168,0.17045
1483.54189,0.17933
1482.05210,0.20000
1480.56231,0.23176
1479.07252,0.25056
1477.58274,0.25280
1476.09295,0.25483
1474.60316,0.25063
1473.11337,0.27482
1471.62358,0.26081
1470.13379,0.29082
1468.64401,0.28960
1467.15422,0.32614
1465.66443,0.33903
1464.17464,0.35195
1462.68485,0.39024
1461.19506,0.44082
1459.70527,0.49117
1458.21549,0.52690
1456.72570,0.59677
1455.23591,0.62437
1453.74612,0.63686
1452.25633,0.68277
1450.76654,0.70252
1449.27676,0.71219
1447.78697,0.72285
1446.29718,0.69556
1444.80739,0.68789
1443.31760,0.68023
1441.82781,0.63596
1440.33802,0.60540
1438.84824,0.52345
1437.35845,0.49775
1435.86866,0.51317
1434.37887,0.51635
1432.88908,0.55225
1431.39929,0.61509
1429.90951,0.70486
1428.41972,0.78818
1426.92993,0.80831
1425.44014,0.85634
1423.95035,0.88145
1422.46056,0.90658
1420.97078,0.94916
1419.48099,0.93240
1417.99120,0.93177
1416.50141,0.96025
1415.01162,0.93948
1413.52183,0.89158
1412.03204,0.84274
1410.54226,0.74803
1409.05247,0.69107
1407.56268,0.63870
1406.07289,0.57193
1404.58310,0.55446
1403.09331,0.53701
1401.60353,0.46815
1400.11374,0.41230
1398.62395,0.37786
1397.13416,0.31365
1395.64437,0.26772
1394.15458,0.22398
1392.66479,0.19084
1391.17501,0.15965
1389.68522,0.13520
1388.19543,0.12425
1386.70564,0.11499
1385.21585,0.10577
1383.72606,0.08286
1382.23628,0.05158
1380.74649,0.04651
1379.25670,0.03738
1377.76691,0.02082
1376.27712,0.01318
1374.78733,0.00701
1373.29755,0.01367
1371.80776,0.01099
1370.31797,0.02203
1368.82818,0.01567
1367.33839,0.00934
1365.84860,0.02409
1364.35881,0.03142
1362.86903,0.05607
1361.37924,0.08388
1359.88945,0.10449
1358.39966,0.11576
1356.90987,0.13114
1355.42008,0.18260
1353.93030,0.23119
1352.44051,0.26791
1350.95072,0.30466
1349.46093,0.34780
1347.97114,0.43926
1346.48135,0.49951
1344.99156,0.57060
1343.50178,0.63402
1342.01199,0.70540
1340.52220,0.76262
1339.03241,0.81146
1337.54262,0.87378
1336.05283,0.89022
1334.56305,0.90668
1333.07326,0.96691
1331.58347,1.00482
1330.09368,1.00693
1328.60389,0.98144
1327.11410,0.92809
1325.62432,0.87093
1324.13453,0.84046
1322.64474,0.81242
1321.15495,0.79474
1319.66516,0.77095
1318.17537,0.74719
1316.68558,0.68128
1315.19580,0.60193
1313.70601,0.54664
1312.21622,0.53199
1310.72643,0.50150
1309.23664,0.46478
1307.74685,0.43602
1306.25707,0.41907
1304.76728,0.39144
1303.27749,0.36383
1301.78770,0.30225
1300.29791,0.25775
1298.80812,0.22505
1297.31834,0.19382
1295.82855,0.16189
1294.33876,0.14152
1292.84897,0.12046
1291.35918,0.10278
1289.86939,0.10099
1288.37960,0.09922
1286.88982,0.09964
1285.40003,0.08615
1283.91024,0.08109
1282.42045,0.07510
1280.93066,0.05711
1279.44087,0.05164
1277.95109,0.04308
1276.46130,0.04847
1274.97151,0.04813
1273.48172,0.04780
1271.99193,0.04078
1270.50214,0.03185
1269.01235,0.04025
1267.52257,0.01888
1266.03278,0.03022
1264.54299,0.02619
1263.05320,0.04335
1261.56341,0.04130
1260.07362,0.03927
1258.58384,0.01948
1257.09405,0.00934
1255.60426,0.01045
1254.11447,0.02049
1252.62468,0.01901
1251.13489,0.01491
1249.64511,0.01108
1248.15532,0.02484
1246.66553,0.02551
1245.17574,0.02622
1243.68595,0.01313
1242.19616,0.01664
1240.70637,0.02403
1239.21659,0.00885
1237.72680,0.03220
1236.23701,0.04043
1234.74722,0.02706
1233.25743,0.02632
1231.76764,0.02562
1230.27786,0.04115
1228.78807,0.04422
1227.29828,0.02568
1225.80849,0.02039
1224.31870,0.01031
1222.82891,0.01288
1221.33912,0.03206
1219.84934,0.03853
1218.35955,0.04503
1216.86976,0.06404
1215.37997,0.09774
1213.89018,0.08628
1212.40039,0.09335
1210.91061,0.09155
1209.42082,0.08497
1207.93103,0.08010
1206.44124,0.07525
1204.95145,0.07331
1203.46166,0.07044
1201.97188,0.05557
1200.48209,0.06451
1198.99230,0.04585
1197.50251,0.04908
1196.01272,0.05353
1194.52293,0.04527
1193.03314,0.03704
1191.54336,0.03364
1190.05357,0.01536
1188.56378,0.03075
1187.07399,0.02742
1185.58420,0.03540
1184.09441,0.04005
1182.60463,0.03463
1181.11484,0.02924
1179.62505,0.02651
1178.13526,0.02500
1176.64547,0.01391
1175.15568,0.00934
1173.66589,0.02634
1172.17611,0.03015
1170.68632,0.02016
1169.19653,0.01020
1167.70674,0.03306
1166.21695,0.04226
1164.72716,0.04907
1163.23738,0.07081
1161.74759,0.07286
1160.25780,0.07999
1158.76801,0.08426
1157.27822,0.08855
1155.78843,0.08758
1154.29865,0.09913
1152.80886,0.11214
1151.31907,0.12398
1149.82928,0.13224
1148.33949,0.12178
1146.84970,0.13333
1145.35991,0.14491
1143.87013,0.15518
1142.38034,0.17990
1140.89055,0.16548
1139.40076,0.19337
1137.91097,0.19101
1136.42118,0.22881
1134.93140,0.23442
1133.44161,0.24007
1131.95182,0.25631
1130.46203,0.26272
1128.97224,0.27348
1127.48245,0.27753
1125.99266,0.28065
1124.50288,0.26625
1123.01309,0.25993
1121.52330,0.25363
1120.03351,0.23618
1118.54372,0.23846
1117.05393,0.25206
1115.56415,0.26977
1114.07436,0.26443
1112.58457,0.26392
1111.09478,0.26344
1109.60499,0.24592
1108.11520,0.24741
1106.62542,0.27512
1105.13563,0.25454
1103.64584,0.23736
1102.15605,0.24159
1100.66626,0.23779
1099.17647,0.23402
1097.68668,0.22270
1096.19690,0.20660
1094.70711,0.22537
1093.21732,0.22470
1091.72753,0.21131
1090.23774,0.21309
1088.74795,0.21490
1087.25817,0.20375
1085.76838,0.20728
1084.27859,0.21012
1082.78880,0.20241
1081.29901,0.22669
1079.80922,0.23561
1078.31943,0.23446
1076.82965,0.23333
1075.33986,0.24256
1073.85007,0.22827
1072.36028,0.24861
1070.87049,0.27257
1069.38070,0.30377
1067.89092,0.32490
1066.40113,0.34605
1064.91134,0.37084
1063.42155,0.45020
1061.93176,0.54184
1060.44197,0.66955
1058.95219,0.81772
1057.46240,0.86137
1055.97261,0.90504
1054.48282,0.98767
1052.99303,1.02971
1051.50324,1.05592
1050.01345,1.04442
1048.52367,1.04736
1047.03388,1.02557
1045.54409,1.00381
1044.05430,0.97293
1042.56451,0.89522
1041.07472,0.81297
1039.58494,0.72570
1038.09515,0.65287
1036.60536,0.60842
1035.11557,0.56400
1033.62578,0.52368
1032.13599,0.44686
1030.64620,0.37055
1029.15642,0.33535
1027.66663,0.30030
1026.17684,0.26528
1024.68705,0.26573
1023.19726,0.22534
1021.70747,0.19748
1020.21769,0.15810
1018.72790,0.15624
1017.23811,0.14083
1015.74832,0.12544
1014.25853,0.12125
1012.76874,0.12381
1011.27896,0.11967
1009.78917,0.11002
1008.29938,0.09800
1006.80959,0.07987
1005.31980,0.06177
1003.83001,0.04333
1002.34022,0.03381
1000.85044,0.02767
999.36065,0.04367
997.87086,0.05080
996.38107,0.05796
994.89128,0.05937
993.40149,0.06417
991.91171,0.09399
990.42192,0.11855
988.93213,0.12943
987.44234,0.13721
985.95255,0.14502
984.46276,0.15141
982.97297,0.13836
981.48319,0.09000
979.99340,0.08491
978.50361,0.07981
977.01382,0.07472
975.52403,0.06962
974.03424,0.06453
972.54446,0.05943
971.05467,0.05434
969.56488,0.04924
968.07509,0.04415
966.58530,0.03905
965.09551,0.03396
963.60573,0.02886
962.11594,0.02377
960.62615,0.01867
959.13636,0.01358
957.64657,0.00848
956.15678,0.01391
954.66699,0.02417
953.17721,0.02676
951.68742,0.02361
950.19763,0.02661
948.70784,0.02963
947.21805,0.05780
945.72826,0.06123
944.23848,0.09305
942.74869,0.08788
941.25890,0.12383
939.76911,0.12988
938.27932,0.13596
936.78953,0.16478
935.29974,0.16430
933.80996,0.19003
932.32017,0.21291
930.83038,0.19929
929.34059,0.18568
927.85080,0.22209
926.36101,0.22921
924.87123,0.29451
923.38144,0.35069
921.89165,0.38672
920.40186,0.42277
918.91207,0.48480
917.42228,0.62760
915.93250,0.75385
914.44271,0.97865
912.95292,1.08739
911.46313,1.19617
909.97334,1.38307
908.48355,1.61542
906.99376,1.76368
905.50398,1.91797
904.01419,1.95897
902.52440,2.00000
901.03461,1.97196
899.54482,1.90934
898.05503,1.77224
896.56525,1.61931
895.07546,1.49439
893.58567,1.36951
892.09588,1.09504
890.60609,0.85641
889.11630,0.63991
887.62651,0.47294
886.13673,0.42616
884.64694,0.37940
883.15715,0.28196
881.66736,0.18262
880.17757,0.13233
878.68778,0.12088
877.19800,0.10945
875.70821,0.08206
874.21842,0.03812
872.72863,0.04394
871.23884,0.03129
869.74905,0.02106
868.25927,0.01086
866.76948,0.00934
865.27969,0.01864
863.78990,0.04647
862.30011,0.05054
860.81032,0.04093
859.32053,0.03134
857.83075,0.07129
856.34096,0.09732
854.85117,0.10559
853.36138,0.12567
851.87159,0.12750
850.38180,0.12935
848.89202,0.16224
847.40223,0.17976
845.91244,0.17953
844.42265,0.18797
842.93286,0.19644
841.44307,0.22680
839.95329,0.24180
838.46350,0.26116
836.97371,0.26467
835.48392,0.27494
833.99413,0.28524
832.50434,0.29724
831.01455,0.27754
829.52477,0.21918
828.03498,0.19977
826.54519,0.18051
825.05540,0.16127
823.56561,0.17149
822.07582,0.14569
820.58604,0.13001
819.09625,0.11988
817.60646,0.10977
816.11667,0.09825
814.62688,0.13097
813.13709,0.14112
811.64730,0.14505
810.15752,0.15273
808.66773,0.16044
807.17794,0.14497
805.68815,0.15213
804.19836,0.14656
802.70857,0.15148
801.21879,0.15642
799.72900,0.14252
798.23921,0.11687
796.74942,0.11792
795.25963,0.11599
793.76984,0.11408
792.28006,0.14909
790.79027,0.14615
789.30048,0.19154
787.81069,0.20019
786.32090,0.22303
784.83111,0.24591
783.34132,0.26592
781.85154,0.30230
780.36175,0.34495
778.87196,0.35903
777.38217,0.37313
775.89238,0.39639
774.40259,0.40861
772.91281,0.41390
771.42302,0.39769
769.93323,0.38152
768.44344,0.36885
766.95365,0.29204
765.46386,0.24505
763.97407,0.19545
762.48429,0.16990
760.99450,0.14437
759.50471,0.13930
758.01492,0.14170
756.52513,0.12755
755.03534,0.11774
753.54556,0.10796
752.05577,0.10325
750.56598,0.09087
749.07619,0.06963
747.58640,0.06234
746.09661,0.05509
744.60683,0.03896
743.11704,0.03440
741.62725,0.03803
740.13746,0.03087
738.64767,0.02373
737.15788,0.01374
735.66809,0.01338
734.17831,0.01929
732.68852,0.02271
731.19873,0.02615
729.70894,0.01796
728.21915,0.01435
726.72936,0.01466
725.23958,0.03590
723.74979,0.02916
722.26000,0.02245
720.77021,0.02261
719.28042,0.00934
717.79063,0.02967
716.30084,0.02239
714.81106,0.01514
713.32127,0.01368
711.83148,0.04036
710.34169,0.04760
708.85190,0.03936
707.36211,0.03115
705.87233,0.03437
704.38254,0.04652
702.89275,0.03801
701.40296,0.04600
699.91317,0.05401
698.42338,0.07466
696.93360,0.09606
695.44381,0.12829
693.95402,0.13279
692.46423,0.13732
690.97444,0.15593
689.48465,0.15942
687.99486,0.17832
686.50508,0.18775
685.01529,0.19721
683.52550,0.23805
682.03571,0.24671
680.54592,0.27414
679.05613,0.27168
677.56635,0.26924
676.07656,0.27679
674.58677,0.25986
673.09698,0.24968
671.60719,0.23244
670.11740,0.21522
668.62761,0.19022
667.13783,0.18038
665.64804,0.16395
664.15825,0.14755
662.66846,0.13250
661.17867,0.10305
659.68888,0.07050
658.19910,0.05384
656.70931,0.03720
655.21952,0.01938
653.72973,0.01456
652.23994,0.04991
650.75015,0.04911
649.26037,0.04833
647.77058,0.05106
646.28079,0.04877
644.79100,0.03905
643.30121,0.04006
641.81142,0.04108
640.32163,0.05283
638.83185,0.03552
637.34206,0.02761
635.85227,0.01996
634.36248,0.01234
632.87269,0.03524
631.38290,0.03533
629.89312,0.01863
628.40333,0.01397
626.91354,0.00934
625.42375,0.04899
623.93396,0.04468
622.44417,0.04281
620.95438,0.04095
619.46460,0.05931
617.97481,0.05655
616.48502,0.08745
614.99523,0.10144
613.50544,0.11545
612.01565,0.13297
610.52587,0.15988
609.03608,0.21759
607.54629,0.22725
606.05650,0.23693
604.56671,0.26323
603.07692,0.33641
601.58714,0.36515
600.09735,0.39392
598.60756,0.43881
597.11777,0.45850
595.62798,0.46883
594.13819,0.44711
592.64840,0.42542
591.15862,0.40434
589.66883,0.33691
588.17904,0.28176
586.68925,0.26329
585.19946,0.24483
583.70967,0.17149
582.21989,0.13807
580.73010,0.11825
579.24031,0.09845
577.75052,0.07544
576.26073,0.06999
574.77094,0.06576
573.28115,0.06349
571.79137,0.06124
570.30158,0.03257
568.81179,0.05272
567.32200,0.06856
565.83221,0.08443
564.34242,0.11330
562.85264,0.11697
561.36285,0.15838
559.87306,0.16438
558.38327,0.17039
556.89348,0.17511
555.40369,0.20749
553.91391,0.20481
552.42412,0.20216
550.93433,0.24446
549.44454,0.20845
547.95475,0.22581
546.46496,0.22542
544.97517,0.22504
543.48539,0.25233
541.99560,0.28517
540.50581,0.30133
539.01602,0.31752
537.52623,0.35957
536.03644,0.39563
534.54666,0.41778
533.05687,0.44584
531.56708,0.47392
530.07729,0.52954
528.58750,0.59865
527.09771,0.60938
525.60792,0.62014
524.11814,0.68187
522.62835,0.71287
521.13856,0.77969
519.64877,0.79824
518.15898,0.81681
516.66919,0.82843
515.17941,0.83095
513.68962,0.83817
512.19983,0.84543
510.71004,0.83432
509.22025,0.77517
507.73046,0.71869
506.24068,0.68830
504.75089,0.65795
503.26110,0.45831
501.77131,0.36203
500.28152,0.32754
498.79173,0.29307
497.30194,0.23027
495.81216,0.17927
494.32237,0.16074
492.83258,0.14223
491.34279,0.10717
489.85300,0.12500
488.36321,0.11353
486.87343,0.10281
485.38364,0.09212
483.89385,0.07952
482.40406,0.10060
480.91427,0.09935
479.42448,0.09812
477.93469,0.12191
476.44491,0.16592
474.95512,0.18447
473.46533,0.20305
471.97554,0.18151
470.48575,0.19509
468.99596,0.19452
467.50618,0.19529
466.01639,0.19608
464.52660,0.12324
463.03681,0.10498
461.54702,0.09383
460.05723,0.08271
458.56745,0.04385
457.07766,0.02521
455.58787,0.02089
454.09808,0.01659
452.60829,0.05089
451.11850,0.03714
449.62871,0.02739
448.13893,0.01766
446.64914,0.01048
445.15935,0.00934
443.66956,0.02129
442.17977,0.01957
440.68998,0.01788
439.20020,0.03159
437.71041,0.01000
436.22062,0.01595
434.73083,0.02193
433.24104,0.02036
431.75125,0.04717
430.26146,0.04492
428.77168,0.04270
427.28189,0.05108
425.79210,0.06525
424.30231,0.05746
422.81252,0.04969
421.32273,0.06273
419.83295,0.03975
418.34316,0.04190
416.85337,0.04408
415.36358,0.01012
413.87379,0.01393
412.38400,0.02101
410.89422,0.02812
409.40443,0.04426
407.91464,0.03760
406.42485,0.04946
404.93506,0.04982
403.44527,0.05019
401.95548,0.03738
400.46570,0.05799
398.97591,0.04871
397.48612,0.03945
395.99633,0.04307
394.50654,0.05417
393.01675,0.04078
391.52697,0.02741
390.03718,0.02921
388.54739,0.03103
387.05760,0.02171
385.56781,0.01240
384.07802,0.01574
382.58824,0.03688
381.09845,0.03474
379.60866,0.03262
378.11887,0.02933
376.62908,0.01260
375.13929,0.00983
373.64950,0.00709
372.15972,0.02740
370.66993,0.04701
369.18014,0.03829
367.69035,0.02959
366.20056,0.02412
364.71077,0.05136
363.22099,0.04630
361.73120,0.04126
360.24141,0.05656
358.75162,0.07116
357.26183,0.06932
355.77204,0.06751
354.28225,0.08170
352.79247,0.05482
351.30268,0.07050
349.81289,0.08621
348.32310,0.09953
346.83331,0.10255
345.34352,0.09550
343.85374,0.08847
342.36395,0.11848
340.87416,0.06512
339.38437,0.06057
337.89458,0.05604
336.40479,0.02078
334.91501,0.01381
333.42522,0.02717
331.93543,0.04056
330.44564,0.05578
328.95585,0.03425
327.46606,0.04338
325.97627,0.05254
324.48649,0.05031
322.99670,0.04979
321.50691,0.04184
320.01712,0.03391
318.52733,0.08561
317.03754,0.07317
315.54776,0.07853
314.05797,0.08392
312.56818,0.09534
311.07839,0.07411
309.58860,0.06419
308.09881,0.05429
306.60902,0.03120
305.11924,0.00934
303.62945,0.01808
302.13966,0.02603
300.64987,0.01491
299.16008,0.00934
