1778.52000,0.00705
1777.03021,0.01530
1775.54042,0.00887
1774.05063,0.01234
1772.56085,0.00165
1771.07106,0.01329
1769.58127,0.00746
1768.09148,0.00774
1766.60169,0.01362
1765.11190,0.00863
1763.62212,0.01379
1762.13233,0.00454
1760.64254,0.01052
1759.15275,0.00942
1757.66296,0.00733
1756.17317,0.00527
1754.68339,0.01135
1753.19360,0.00578
1751.70381,0.00608
1750.21402,0.00563
1748.72423,0.00166
1747.23444,0.00913
1745.74465,0.00419
1744.25487,0.00765
1742.76508,0.00226
1741.27529,0.01640
1739.78550,0.02017
1738.29571,0.01636
1736.80592,0.01512
1735.31614,0.00578
1733.82635,0.00098
1732.33656,0.00000
1730.84677,0.00209
1729.35698,0.01510
1727.86719,0.01825
1726.37740,0.01306
1724.88762,0.01424
1723.39783,0.01290
1721.90804,0.01234
1720.41825,0.01207
1718.92846,0.00598
1717.43867,0.01311
1715.94889,0.00454
1714.45910,0.01236
1712.96931,0.01565
1711.47952,0.01871
1709.98973,0.00582
1708.49994,0.01070
1707.01016,0.01459
1705.52037,0.01851
1704.03058,0.01383
1702.54079,0.01018
1701.05100,0.00454
1699.56121,0.02020
1698.07142,0.02498
1696.58164,0.01331
1695.09185,0.01712
1693.60206,0.01792
1692.11227,0.02761
1690.62248,0.01731
1689.13269,0.02832
1687.64291,0.02718
1686.15312,0.03317
1684.66333,0.03538
1683.17354,0.04015
1681.68375,0.02188
1680.19396,0.02771
1678.70417,0.03052
1677.21439,0.03970
1675.72460,0.04434
1674.23481,0.04874
1672.74502,0.04785
1671.25523,0.04141
1669.76544,0.05020
1668.27566,0.05749
1666.78587,0.06151
1665.29608,0.07975
1663.80629,0.06532
1662.31650,0.08031
1660.82671,0.08063
1659.33693,0.08502
1657.84714,0.07804
1656.35735,0.08147
1654.86756,0.08163
1653.37777,0.09093
1651.88798,0.09317
1650.39819,0.08935
1648.90841,0.08859
1647.41862,0.07797
1645.92883,0.07637
1644.43904,0.07480
1642.94925,0.09568
1641.45946,0.09733
1639.96968,0.10584
1638.47989,0.09562
1636.99010,0.09759
1635.50031,0.09046
1634.01052,0.08563
1632.52073,0.08109
1631.03094,0.09050
1629.54116,0.09513
1628.05137,0.10206
1626.56158,0.09356
1625.07179,0.10586
1623.58200,0.10044
1622.09221,0.10113
1620.60243,0.11173
1619.11264,0.09296
1617.62285,0.11045
1616.13306,0.10313
1614.64327,0.10470
1613.15348,0.08450
1611.66370,0.08688
1610.17391,0.09030
1608.68412,0.08208
1607.19433,0.10507
1605.70454,0.12073
1604.21475,0.10789
1602.72496,0.09508
1601.23518,0.10803
1599.74539,0.09843
1598.25560,0.07847
1596.76581,0.09149
1595.27602,0.08805
1593.78623,0.09554
1592.29645,0.08075
1590.80666,0.09285
1589.31687,0.08114
1587.82708,0.08011
1586.33729,0.09203
1584.84750,0.08242
1583.35771,0.07740
1581.86793,0.07545
1580.37814,0.08620
1578.88835,0.07314
1577.39856,0.09357
1575.90877,0.08462
1574.41898,0.05491
1572.92920,0.05969
1571.43941,0.04498
1569.94962,0.04221
1568.45983,0.03946
1566.97004,0.05043
1565.48025,0.04367
1563.99047,0.03035
1562.50068,0.03176
1561.01089,0.01899
1559.52110,0.02704
1558.03131,0.01812
1556.54152,0.02672
1555.05173,0.03256
1553.56195,0.03411
1552.07216,0.01692
1550.58237,0.01751
1549.09258,0.00265
1547.60279,0.00785
1546.11300,0.00369
1544.62322,0.01907
1543.13343,0.01369
1541.64364,0.00454
1540.15385,0.00515
1538.66406,0.00578
1537.17427,0.02502
1535.68448,0.01919
1534.19470,0.01313
1532.70491,0.00456
1531.21512,0.01052
1529.72533,0.01219
1528.23554,0.02427
1526.74575,0.01484
1525.25597,0.02570
1523.76618,0.03102
1522.27639,0.04066
1520.78660,0.01941
1519.29681,0.04508
1517.80702,0.05252
1516.31724,0.04883
1514.82745,0.05175
1513.33766,0.05292
1511.84787,0.05412
1510.35808,0.04014
1508.86829,0.04392
1507.37850,0.03860
1505.88872,0.03482
1504.39893,0.04121
1502.90914,0.05700
1501.41935,0.06598
1499.92956,0.07421
1498.43977,0.07005
1496.94999,0.06744
1495.46020,0.08918
1493.97041,0.09042
1492.48062,0.10334
1490.99083,0.09777
1489.50104,0.11353
1488.01125,0.11562
1486.52147,0.11774
1485.03168,0.15258
1483.54189,0.18060
1482.05210,0.21955
1480.56231,0.21314
1479.07252,0.21234
1477.58274,0.24679
1476.09295,0.25820
1474.60316,0.26305
1473.11337,0.26589
1471.62358,0.26191
1470.13379,0.27494
1468.64401,0.27684
1467.15422,0.28231
1465.66443,0.30935
1464.17464,0.33642
1462.68485,0.33969
1461.19506,0.37339
1459.70527,0.42994
1458.21549,0.49690
1456.72570,0.58188
1455.23591,0.63977
1453.74612,0.69210
1452.25633,0.73330
1450.76654,0.73904
1449.27676,0.72224
1447.78697,0.69964
1446.29718,0.67377
1444.80739,0.67288
1443.31760,0.67203
1441.82781,0.62012
1440.33802,0.57102
1438.84824,0.55439
1437.35845,0.51421
1435.86866,0.50853
1434.37887,0.49907
1432.88908,0.55326
1431.39929,0.58923
1429.90951,0.68301
1428.41972,0.80318
1426.92993,0.81108
1425.44014,0.87985
1423.95035,0.91859
1422.46056,0.95737
1420.97078,1.00617
1419.48099,0.96730
1417.99120,0.96926
1416.50141,0.97023
1415.01162,0.94360
1413.52183,0.90431
1412.03204,0.83033
1410.54226,0.77968
1409.05247,0.70726
1407.56268,0.65413
1406.07289,0.60204
1404.58310,0.56949
1403.09331,0.53697
1401.60353,0.47101
1400.11374,0.41648
1398.62395,0.35817
1397.13416,0.32803
1395.64437,0.27002
1394.15458,0.23206
1392.66479,0.19515
1391.17501,0.17321
1389.68522,0.13609
1388.19543,0.09493
1386.70564,0.09157
1385.21585,0.08823
1383.72606,0.06692
1382.23628,0.04690
1380.74649,0.03502
1379.25670,0.04294
1377.76691,0.02882
1376.27712,0.00636
1374.78733,0.00700
1373.29755,0.01501
1371.80776,0.00454
1370.31797,0.00932
1368.82818,0.01107
1367.33839,0.01286
1365.84860,0.01365
1364.35881,0.02410
1362.86903,0.03077
1361.37924,0.06535
1359.88945,0.09032
1358.39966,0.12799
1356.90987,0.15301
1355.42008,0.17983
1353.93030,0.25205
1352.44051,0.28550
1350.95072,0.31898
1349.46093,0.40572
1347.97114,0.46435
1346.48135,0.51640
1344.99156,0.61513
1343.50178,0.69512
1342.01199,0.78198
1340.52220,0.83692
1339.03241,0.87719
1337.54262,0.93624
1336.05283,0.93713
1334.56305,0.93805
1333.07326,0.99388
1331.58347,0.97875
1330.09368,0.97759
1328.60389,0.97392
1327.11410,0.97128
1325.62432,0.90048
1324.13453,0.87559
1322.64474,0.86593
1321.15495,0.81827
1319.66516,0.79751
1318.17537,0.77677
1316.68558,0.72614
1315.19580,0.66160
1313.70601,0.61989
1312.21622,0.55387
1310.72643,0.50233
1309.23664,0.47286
1307.74685,0.45001
1306.25707,0.42363
1304.76728,0.40222
1303.27749,0.38084
1301.78770,0.35605
1300.29791,0.30062
1298.80812,0.26347
1297.31834,0.20682
1295.82855,0.17782
1294.33876,0.15392
1292.84897,0.12396
1291.35918,0.11126
1289.86939,0.11024
1288.37960,0.10925
1286.88982,0.08623
1285.40003,0.06602
1283.91024,0.06460
1282.42045,0.08069
1280.93066,0.06461
1279.44087,0.05489
1277.95109,0.05508
1276.46130,0.03704
1274.97151,0.03982
1273.48172,0.04262
1271.99193,0.04088
1270.50214,0.04753
1269.01235,0.04837
1267.52257,0.03784
1266.03278,0.03543
1264.54299,0.02621
1263.05320,0.03045
1261.56341,0.03154
1260.07362,0.03265
1258.58384,0.01364
1257.09405,0.00454
1255.60426,0.01273
1254.11447,0.01587
1252.62468,0.01396
1251.13489,0.01360
1249.64511,0.01225
1248.15532,0.02842
1246.66553,0.02724
1245.17574,0.02609
1243.68595,0.02535
1242.19616,0.02361
1240.70637,0.02114
1239.21659,0.02807
1237.72680,0.02286
1236.23701,0.02046
1234.74722,0.00693
1233.25743,0.00572
1231.76764,0.00454
1230.27786,0.02481
1228.78807,0.03420
1227.29828,0.03677
1225.80849,0.02897
1224.31870,0.01942
1222.82891,0.01294
1221.33912,0.01560
1219.84934,0.02197
1218.35955,0.02836
1216.86976,0.05240
1215.37997,0.05744
1213.89018,0.05972
1212.40039,0.07039
1210.91061,0.08590
1209.42082,0.07862
1207.93103,0.07999
1206.44124,0.08138
1204.95145,0.08558
1203.46166,0.08676
1201.97188,0.07352
1200.48209,0.07881
1198.99230,0.08665
1197.50251,0.08236
1196.01272,0.04488
1194.52293,0.03328
1193.03314,0.02170
1191.54336,0.01649
1190.05357,0.03132
1188.56378,0.02565
1187.07399,0.00454
1185.58420,0.02663
1184.09441,0.03151
1182.60463,0.03223
1181.11484,0.03297
1179.62505,0.02094
1178.13526,0.01882
1176.64547,0.02103
1175.15568,0.00882
1173.66589,0.02122
1172.17611,0.02223
1170.68632,0.02581
1169.19653,0.02941
1167.70674,0.01149
1166.21695,0.02020
1164.72716,0.03376
1163.23738,0.03011
1161.74759,0.03408
1160.25780,0.06850
1158.76801,0.06847
1157.27822,0.06846
1155.78843,0.07481
1154.29865,0.10628
1152.80886,0.11978
1151.31907,0.13153
1149.82928,0.11009
1148.33949,0.12924
1146.84970,0.13561
1145.35991,0.14201
1143.87013,0.13081
1142.38034,0.16551
1140.89055,0.16729
1139.40076,0.18101
1137.91097,0.18790
1136.42118,0.21460
1134.93140,0.21888
1133.44161,0.22319
1131.95182,0.23373
1130.46203,0.22832
1128.97224,0.23258
1127.48245,0.22950
1125.99266,0.22645
1124.50288,0.25004
1123.01309,0.25198
1121.52330,0.25395
1120.03351,0.24922
1118.54372,0.23945
1117.05393,0.24161
1115.56415,0.26053
1114.07436,0.26300
1112.58457,0.26422
1111.09478,0.26547
1109.60499,0.23556
1108.11520,0.22647
1106.62542,0.24984
1105.13563,0.22888
1103.64584,0.22619
1102.15605,0.25648
1100.66626,0.24104
1099.17647,0.22562
1097.68668,0.20453
1096.19690,0.22300
1094.70711,0.22401
1093.21732,0.21465
1091.72753,0.19568
1090.23774,0.18319
1088.74795,0.17074
1087.25817,0.18200
1085.76838,0.18772
1084.27859,0.19726
1082.78880,0.19846
1081.29901,0.19081
1079.80922,0.20397
1078.31943,0.19409
1076.82965,0.18424
1075.33986,0.23347
1073.85007,0.21174
1072.36028,0.23086
1070.87049,0.24923
1069.38070,0.28386
1067.89092,0.29747
1066.40113,0.31110
1064.91134,0.40030
1063.42155,0.46645
1061.93176,0.56711
1060.44197,0.64421
1058.95219,0.72742
1057.46240,0.77111
1055.97261,0.81482
1054.48282,0.94221
1052.99303,1.03034
1051.50324,1.02672
1050.01345,0.97750
1048.52367,1.00816
1047.03388,0.97432
1045.54409,0.94051
1044.05430,0.89240
1042.56451,0.82810
1041.07472,0.76026
1039.58494,0.69651
1038.09515,0.58817
1036.60536,0.56211
1035.11557,0.53607
1033.62578,0.48839
1032.13599,0.41943
1030.64620,0.35076
1029.15642,0.26613
1027.66663,0.25454
1026.17684,0.24297
1024.68705,0.22610
1023.19726,0.19202
1021.70747,0.15315
1020.21769,0.15080
1018.72790,0.14594
1017.23811,0.13984
1015.74832,0.13377
1014.25853,0.10921
1012.76874,0.10749
1011.27896,0.10833
1009.78917,0.09069
1008.29938,0.05787
1006.80959,0.03951
1005.31980,0.02118
1003.83001,0.01632
1002.34022,0.01933
1000.85044,0.04848
999.36065,0.05306
997.87086,0.05792
996.38107,0.06280
994.89128,0.07709
993.40149,0.08912
991.91171,0.10219
990.42192,0.10438
988.93213,0.13702
987.44234,0.15142
985.95255,0.16586
984.46276,0.15826
982.97297,0.13548
981.48319,0.12996
979.99340,0.09658
978.50361,0.08882
977.01382,0.08110
975.52403,0.05565
974.03424,0.04999
972.54446,0.04259
971.05467,0.00454
969.56488,0.00931
968.07509,0.00916
966.58530,0.00903
965.09551,0.01768
963.60573,0.01494
962.11594,0.00538
960.62615,0.00320
959.13636,0.00930
957.64657,0.01542
956.15678,0.02322
954.66699,0.02216
953.17721,0.01455
951.68742,0.02089
950.19763,0.02726
948.70784,0.03366
947.21805,0.06593
945.72826,0.08531
944.23848,0.08544
942.74869,0.10764
941.25890,0.14306
939.76911,0.14440
938.27932,0.14577
936.78953,0.16605
935.29974,0.17469
933.80996,0.17980
932.32017,0.19838
930.83038,0.20088
929.34059,0.20341
927.85080,0.24411
926.36101,0.30309
924.87123,0.33953
923.38144,0.41630
921.89165,0.45583
920.40186,0.49538
918.91207,0.60720
917.42228,0.74541
915.93250,0.91457
914.44271,1.12051
912.95292,1.23522
911.46313,1.34995
909.97334,1.54684
908.48355,1.74933
906.99376,1.91305
905.50398,2.00000
904.01419,1.98773
902.52440,1.97548
901.03461,1.91472
899.54482,1.88211
898.05503,1.76867
896.56525,1.57895
895.07546,1.46226
893.58567,1.34560
892.09588,1.07661
890.60609,0.82032
889.11630,0.63681
887.62651,0.42999
886.13673,0.38100
884.64694,0.33204
883.15715,0.24089
881.66736,0.19387
880.17757,0.13446
878.68778,0.11969
877.19800,0.10494
875.70821,0.08083
874.21842,0.05117
872.72863,0.04942
871.23884,0.03553
869.74905,0.02939
868.25927,0.02328
866.76948,0.03024
865.27969,0.01949
863.78990,0.03005
862.30011,0.05965
860.81032,0.06468
859.32053,0.06974
857.83075,0.07355
856.34096,0.09412
854.85117,0.10584
853.36138,0.12139
851.87159,0.12885
850.38180,0.13633
848.89202,0.17173
847.40223,0.17799
845.91244,0.19239
844.42265,0.20428
842.93286,0.21620
841.44307,0.23853
839.95329,0.25227
838.46350,0.25209
836.97371,0.24813
835.48392,0.25129
833.99413,0.25448
832.50434,0.25262
831.01455,0.25434
829.52477,0.25025
828.03498,0.22489
826.54519,0.21070
825.05540,0.19655
823.56561,0.17177
822.07582,0.12344
820.58604,0.12279
819.09625,0.12368
817.60646,0.12460
816.11667,0.11388
814.62688,0.10876
813.13709,0.12877
811.64730,0.12497
810.15752,0.12905
808.66773,0.13315
807.17794,0.13754
805.68815,0.13713
804.19836,0.14917
802.70857,0.15882
801.21879,0.16849
799.72900,0.14461
798.23921,0.13038
796.74942,0.11668
795.25963,0.11213
793.76984,0.10761
792.28006,0.13910
790.79027,0.15440
789.30048,0.15679
787.81069,0.19216
786.32090,0.21564
784.83111,0.23915
783.34132,0.27383
781.85154,0.29510
780.36175,0.33464
778.87196,0.35977
777.38217,0.38491
775.89238,0.39285
774.40259,0.38357
772.91281,0.37685
771.42302,0.36508
769.93323,0.35334
768.44344,0.30081
766.95365,0.25413
765.46386,0.22168
763.97407,0.17023
762.48429,0.15912
760.99450,0.14803
759.50471,0.14254
758.01492,0.11908
756.52513,0.10831
755.03534,0.09821
753.54556,0.08813
752.05577,0.06983
750.56598,0.07640
749.07619,0.05841
747.58640,0.05476
746.09661,0.05113
744.60683,0.03727
743.11704,0.02495
741.62725,0.00454
740.13746,0.00908
738.64767,0.01365
737.15788,0.02192
735.66809,0.01171
734.17831,0.00964
732.68852,0.01190
731.19873,0.01418
729.70894,0.01648
728.21915,0.00842
726.72936,0.00813
725.23958,0.00558
723.74979,0.00813
722.26000,0.01071
720.77021,0.00888
719.28042,0.01061
717.79063,0.00604
716.30084,0.00820
714.81106,0.01040
713.32127,0.00310
711.83148,0.01655
710.34169,0.02217
708.85190,0.02806
707.36211,0.03398
705.87233,0.03257
704.38254,0.03119
702.89275,0.04529
701.40296,0.05295
699.91317,0.06064
698.42338,0.05225
696.93360,0.06214
695.44381,0.07763
693.95402,0.08643
692.46423,0.09525
690.97444,0.11462
689.48465,0.15479
687.99486,0.18029
686.50508,0.18351
685.01529,0.18675
683.52550,0.19863
682.03571,0.21814
680.54592,0.26429
679.05613,0.25850
677.56635,0.25273
676.07656,0.23482
674.58677,0.25750
673.09698,0.22798
671.60719,0.21863
670.11740,0.20931
668.62761,0.17606
667.13783,0.15019
665.64804,0.15019
664.15825,0.15022
662.66846,0.11681
661.17867,0.06670
659.68888,0.05995
658.19910,0.05286
656.70931,0.04578
655.21952,0.04900
653.72973,0.03753
652.23994,0.06387
650.75015,0.05486
649.26037,0.04588
647.77058,0.02691
646.28079,0.02799
644.79100,0.03568
643.30121,0.02388
641.81142,0.01210
640.32163,0.03939
638.83185,0.04667
637.34206,0.02204
635.85227,0.01328
634.36248,0.00454
632.87269,0.01051
631.38290,0.02157
629.89312,0.02328
628.40333,0.02616
626.91354,0.02906
625.42375,0.01867
623.93396,0.01389
622.44417,0.01699
620.95438,0.02011
619.46460,0.02807
617.97481,0.04670
616.48502,0.06181
614.99523,0.06465
613.50544,0.06752
612.01565,0.09867
610.52587,0.15443
609.03608,0.18335
607.54629,0.19188
606.05650,0.20045
604.56671,0.26315
603.07692,0.29647
601.58714,0.32855
600.09735,0.36066
598.60756,0.40394
597.11777,0.42190
595.62798,0.41352
594.13819,0.41568
592.64840,0.41787
591.15862,0.40221
589.66883,0.32498
588.17904,0.24929
586.68925,0.21000
585.19946,0.17074
583.70967,0.16661
582.21989,0.10547
580.73010,0.08934
579.24031,0.07325
577.75052,0.07022
576.26073,0.07179
574.77094,0.05564
573.28115,0.05472
571.79137,0.05382
570.30158,0.02912
568.81179,0.06757
567.32200,0.07232
565.83221,0.07710
564.34242,0.09533
562.85264,0.11917
561.36285,0.12275
559.87306,0.13016
558.38327,0.13760
556.89348,0.16077
555.40369,0.16065
553.91391,0.17246
552.42412,0.18430
550.93433,0.18096
549.44454,0.18600
547.95475,0.21692
546.46496,0.21669
544.97517,0.21649
543.48539,0.22365
541.99560,0.24834
540.50581,0.25910
539.01602,0.26989
537.52623,0.31214
536.03644,0.36100
534.54666,0.38783
533.05687,0.40582
531.56708,0.42382
530.07729,0.46061
528.58750,0.52303
527.09771,0.54808
525.60792,0.57316
524.11814,0.63463
522.62835,0.69005
521.13856,0.75867
519.64877,0.76661
518.15898,0.77457
516.66919,0.76772
515.17941,0.73809
513.68962,0.76640
512.19983,0.79473
510.71004,0.74641
509.22025,0.70192
507.73046,0.65973
506.24068,0.60616
504.75089,0.55261
503.26110,0.42634
501.77131,0.33355
500.28152,0.30479
498.79173,0.27605
497.30194,0.20869
495.81216,0.15123
494.32237,0.13790
492.83258,0.12460
491.34279,0.09206
489.85300,0.06714
488.36321,0.07014
486.87343,0.06922
485.38364,0.06834
483.89385,0.07520
482.40406,0.11708
480.91427,0.10258
479.42448,0.08810
477.93469,0.11940
476.44491,0.13222
474.95512,0.14430
473.46533,0.15641
471.97554,0.18248
470.48575,0.19641
468.99596,0.16727
467.50618,0.17833
466.01639,0.18942
464.52660,0.14008
463.03681,0.11484
461.54702,0.09900
460.05723,0.08319
458.56745,0.04636
457.07766,0.03643
455.58787,0.02956
454.09808,0.02272
452.60829,0.04606
451.11850,0.00454
449.62871,0.01366
448.13893,0.02280
446.64914,0.02424
445.15935,0.03787
443.66956,0.01274
442.17977,0.01767
440.68998,0.02263
439.20020,0.01886
437.71041,0.03718
436.22062,0.03130
434.73083,0.02546
433.24104,0.03370
431.75125,0.03792
430.26146,0.04330
428.77168,0.04870
427.28189,0.01572
425.79210,0.02561
424.30231,0.03147
422.81252,0.03735
421.32273,0.03894
419.83295,0.04107
418.34316,0.02839
416.85337,0.01574
415.36358,0.00982
413.87379,0.00672
412.38400,0.00758
410.89422,0.00845
409.40443,0.03179
407.91464,0.01712
406.42485,0.01693
404.93506,0.02399
403.44527,0.03107
401.95548,0.02512
400.46570,0.02097
398.97591,0.03231
397.48612,0.04367
395.99633,0.04492
394.50654,0.02946
393.01675,0.02581
391.52697,0.02218
390.03718,0.02327
388.54739,0.02616
387.05760,0.03452
385.56781,0.04291
384.07802,0.01266
382.58824,0.02528
381.09845,0.01967
379.60866,0.01409
378.11887,0.03768
376.62908,0.00959
375.13929,0.01080
373.64950,0.01203
372.15972,0.00454
370.66993,0.02369
369.18014,0.02180
367.69035,0.01994
366.20056,0.01151
364.71077,0.02439
363.22099,0.01779
361.73120,0.01121
360.24141,0.01504
358.75162,0.04197
357.26183,0.06081
355.77204,0.07967
354.28225,0.07346
352.79247,0.07564
351.30268,0.07645
349.81289,0.07729
348.32310,0.06078
346.83331,0.05444
345.34352,0.06258
343.85374,0.07073
342.36395,0.07283
340.87416,0.08610
339.38437,0.07659
337.89458,0.06710
336.40479,0.03761
334.91501,0.04718
333.42522,0.04219
331.93543,0.03724
330.44564,0.00556
328.95585,0.00454
327.46606,0.02061
325.97627,0.03671
324.48649,0.07235
322.99670,0.07709
321.50691,0.07489
320.01712,0.07271
318.52733,0.07854
317.03754,0.04105
315.54776,0.03729
314.05797,0.03356
312.56818,0.05850
311.07839,0.04899
309.58860,0.03722
308.09881,0.02548
306.60902,0.05507
305.11924,0.04718
303.62945,0.03639
302.13966,0.02563
300.64987,0.00615
299.16008,0.00454
