1778.52000,0.00765
1777.03021,0.01322
1775.54042,0.00457
1774.05063,0.01579
1772.56085,0.00601
1771.07106,0.00000
1769.58127,0.00405
1768.09148,0.00369
1766.60169,0.00710
1765.11190,0.00889
1763.62212,0.00533
1762.13233,0.01114
1760.64254,0.00576
1759.15275,0.00578
1757.66296,0.00652
1756.17317,0.00028
1754.68339,0.01111
1753.19360,0.00585
1751.70381,0.00249
1750.21402,0.00265
1748.72423,0.01171
1747.23444,0.00258
1745.74465,0.00795
1744.25487,0.00774
1742.76508,0.00405
1741.27529,0.00482
1739.78550,0.01029
1738.29571,0.01064
1736.80592,0.00915
1735.31614,0.00652
1733.82635,0.00956
1732.33656,0.00632
1730.84677,0.00800
1729.35698,0.00925
1727.86719,0.01729
1726.37740,0.01344
1724.88762,0.01126
1723.39783,0.01470
1721.90804,0.01162
1720.41825,0.01465
1718.92846,0.00625
1717.43867,0.00652
1715.94889,0.01242
1714.45910,0.01437
1712.96931,0.02009
1711.47952,0.00785
1709.98973,0.01057
1708.49994,0.01543
1707.01016,0.01377
1705.52037,0.01213
1704.03058,0.01729
1702.54079,0.01360
1701.05100,0.01273
1699.56121,0.00652
1698.07142,0.01814
1696.58164,0.01787
1695.09185,0.01715
1693.60206,0.02020
1692.11227,0.01883
1690.62248,0.02006
1689.13269,0.02131
1687.64291,0.02539
1686.15312,0.03253
1684.66333,0.03338
1683.17354,0.02609
1681.68375,0.03633
1680.19396,0.03493
1678.70417,0.03798
1677.21439,0.04456
1675.72460,0.04626
1674.23481,0.04285
1672.74502,0.04763
1671.25523,0.04754
1669.76544,0.04466
1668.27566,0.05512
1666.78587,0.05860
1665.29608,0.06094
1663.80629,0.06236
1662.31650,0.07526
1660.82671,0.07253
1659.33693,0.06725
1657.84714,0.08629
1656.35735,0.07452
1654.86756,0.07422
1653.37777,0.06788
1651.88798,0.07253
1650.39819,0.07487
1648.90841,0.07186
1647.41862,0.07262
1645.92883,0.07141
1644.43904,0.07023
1642.94925,0.08390
1641.45946,0.08475
1639.96968,0.07465
1638.47989,0.07765
1636.99010,0.07624
1635.50031,0.08139
1634.01052,0.06251
1632.52073,0.07191
1631.03094,0.07643
1629.54116,0.07771
1628.05137,0.08555
1626.56158,0.09061
1625.07179,0.08962
1623.58200,0.08399
1622.09221,0.08468
1620.60243,0.08634
1619.11264,0.08778
1617.62285,0.08972
1616.13306,0.08490
1614.64327,0.07708
1613.15348,0.08142
1611.66370,0.08906
1610.17391,0.07850
1608.68412,0.08245
1607.19433,0.08782
1605.70454,0.09766
1604.21475,0.09397
1602.72496,0.09030
1601.23518,0.07942
1599.74539,0.09122
1598.25560,0.07081
1596.76581,0.07706
1595.27602,0.08075
1593.78623,0.06836
1592.29645,0.08612
1590.80666,0.07307
1589.31687,0.06728
1587.82708,0.07344
1586.33729,0.07447
1584.84750,0.07016
1583.35771,0.08129
1581.86793,0.08404
1580.37814,0.07443
1578.88835,0.07418
1577.39856,0.08354
1575.90877,0.05602
1574.41898,0.05421
1572.92920,0.06364
1571.43941,0.05814
1569.94962,0.05384
1568.45983,0.04956
1566.97004,0.05161
1565.48025,0.04271
1563.99047,0.05018
1562.50068,0.02941
1561.01089,0.04557
1559.52110,0.03770
1558.03131,0.03102
1556.54152,0.03557
1555.05173,0.04295
1553.56195,0.02653
1552.07216,0.02812
1550.58237,0.01549
1549.09258,0.00755
1547.60279,0.01995
1546.11300,0.01183
1544.62322,0.01260
1543.13343,0.02064
1541.64364,0.00652
1540.15385,0.01337
1538.66406,0.02025
1537.17427,0.01745
1535.68448,0.02006
1534.19470,0.02058
1532.70491,0.00735
1531.21512,0.01657
1529.72533,0.01179
1528.23554,0.02035
1526.74575,0.03034
1525.25597,0.03778
1523.76618,0.02937
1522.27639,0.03756
1520.78660,0.03713
1519.29681,0.02996
1517.80702,0.05504
1516.31724,0.04394
1514.82745,0.05085
1513.33766,0.04785
1511.84787,0.04489
1510.35808,0.04696
1508.86829,0.04836
1507.37850,0.05796
1505.88872,0.05357
1504.39893,0.06906
1502.90914,0.06495
1501.41935,0.09589
1499.92956,0.07151
1498.43977,0.06818
1496.94999,0.06954
1495.46020,0.09054
1493.97041,0.09241
1492.48062,0.10272
1490.99083,0.11375
1489.50104,0.10822
1488.01125,0.12128
1486.52147,0.13437
1485.03168,0.15554
1483.54189,0.18397
1482.05210,0.18580
1480.56231,0.21172
1479.07252,0.22995
1477.58274,0.22975
1476.09295,0.24849
1474.60316,0.22989
1473.11337,0.23630
1471.62358,0.23877
1470.13379,0.25364
1468.64401,0.26129
1467.15422,0.29349
1465.66443,0.30692
1464.17464,0.32036
1462.68485,0.33839
1461.19506,0.37162
1459.70527,0.41772
1458.21549,0.47342
1456.72570,0.55227
1455.23591,0.61409
1453.74612,0.65585
1452.25633,0.68526
1450.76654,0.70207
1449.27676,0.71564
1447.78697,0.67692
1446.29718,0.64780
1444.80739,0.64684
1443.31760,0.64591
1441.82781,0.61522
1440.33802,0.56214
1438.84824,0.51072
1437.35845,0.50860
1435.86866,0.48618
1434.37887,0.50279
1432.88908,0.52177
1431.39929,0.58491
1429.90951,0.67773
1428.41972,0.75306
1426.92993,0.82749
1425.44014,0.86643
1423.95035,0.89361
1422.46056,0.92080
1420.97078,0.93880
1419.48099,0.92202
1417.99120,0.95455
1416.50141,0.91142
1415.01162,0.84310
1413.52183,0.83763
1412.03204,0.77589
1410.54226,0.74314
1409.05247,0.69102
1407.56268,0.65949
1406.07289,0.59107
1404.58310,0.55947
1403.09331,0.52789
1401.60353,0.46025
1400.11374,0.41225
1398.62395,0.38156
1397.13416,0.31983
1395.64437,0.25719
1394.15458,0.22213
1392.66479,0.19737
1391.17501,0.16680
1389.68522,0.14256
1388.19543,0.11111
1386.70564,0.10349
1385.21585,0.09591
1383.72606,0.06149
1382.23628,0.06282
1380.74649,0.05835
1379.25670,0.02913
1377.76691,0.02727
1376.27712,0.00652
1374.78733,0.01919
1373.29755,0.02090
1371.80776,0.02194
1370.31797,0.02370
1368.82818,0.02292
1367.33839,0.02216
1365.84860,0.01628
1364.35881,0.03146
1362.86903,0.04175
1361.37924,0.07331
1359.88945,0.10654
1358.39966,0.12087
1356.90987,0.15602
1355.42008,0.18932
1353.93030,0.26118
1352.44051,0.28787
1350.95072,0.31458
1349.46093,0.37110
1347.97114,0.44095
1346.48135,0.49098
1344.99156,0.60666
1343.50178,0.65183
1342.01199,0.73276
1340.52220,0.77073
1339.03241,0.82508
1337.54262,0.84536
1336.05283,0.85690
1334.56305,0.86846
1333.07326,0.90913
1331.58347,0.91922
1330.09368,0.92093
1328.60389,0.91986
1327.11410,0.86323
1325.62432,0.79681
1324.13453,0.79908
1322.64474,0.75303
1321.15495,0.73363
1319.66516,0.70725
1318.17537,0.68089
1316.68558,0.63914
1315.19580,0.59087
1313.70601,0.52955
1312.21622,0.49114
1310.72643,0.47588
1309.23664,0.44406
1307.74685,0.42791
1306.25707,0.39637
1304.76728,0.37746
1303.27749,0.35858
1301.78770,0.32291
1300.29791,0.24990
1298.80812,0.21053
1297.31834,0.17050
1295.82855,0.14450
1294.33876,0.13580
1292.84897,0.11429
1291.35918,0.10027
1289.86939,0.09492
1288.37960,0.08960
1286.88982,0.08079
1285.40003,0.07364
1283.91024,0.05671
1282.42045,0.05405
1280.93066,0.05398
1279.44087,0.04670
1277.95109,0.04481
1276.46130,0.04154
1274.97151,0.04028
1273.48172,0.03905
1271.99193,0.03025
1270.50214,0.03409
1269.01235,0.02067
1267.52257,0.02525
1266.03278,0.02075
1264.54299,0.01884
1263.05320,0.01089
1261.56341,0.01218
1260.07362,0.01350
1258.58384,0.01379
1257.09405,0.01131
1255.60426,0.02706
1254.11447,0.02812
1252.62468,0.02057
1251.13489,0.01094
1249.64511,0.00554
1248.15532,0.01814
1246.66553,0.01232
1245.17574,0.00652
1243.68595,0.02667
1242.19616,0.02512
1240.70637,0.01518
1239.21659,0.02069
1237.72680,0.03672
1236.23701,0.04274
1234.74722,0.03361
1233.25743,0.02987
1231.76764,0.02615
1230.27786,0.02152
1228.78807,0.02813
1227.29828,0.02612
1225.80849,0.01689
1224.31870,0.00652
1222.82891,0.01331
1221.33912,0.01592
1219.84934,0.02603
1218.35955,0.03616
1216.86976,0.05169
1215.37997,0.05019
1213.89018,0.06973
1212.40039,0.07296
1210.91061,0.08975
1209.42082,0.08531
1207.93103,0.07073
1206.44124,0.05618
1204.95145,0.07494
1203.46166,0.07270
1201.97188,0.06394
1200.48209,0.05895
1198.99230,0.05374
1197.50251,0.05160
1196.01272,0.03336
1194.52293,0.03080
1193.03314,0.02826
1191.54336,0.01313
1190.05357,0.02652
1188.56378,0.01868
1187.07399,0.02581
1185.58420,0.01312
1184.09441,0.02590
1182.60463,0.02925
1181.11484,0.03263
1179.62505,0.02610
1178.13526,0.00652
1176.64547,0.01124
1175.15568,0.01738
1173.66589,0.00697
1172.17611,0.00685
1170.68632,0.01225
1169.19653,0.01768
1167.70674,0.01273
1166.21695,0.02205
1164.72716,0.02603
1163.23738,0.03657
1161.74759,0.02471
1160.25780,0.05866
1158.76801,0.04895
1157.27822,0.03927
1155.78843,0.05343
1154.29865,0.07906
1152.80886,0.07529
1151.31907,0.10097
1149.82928,0.10682
1148.33949,0.10359
1146.84970,0.09501
1145.35991,0.08645
1143.87013,0.12416
1142.38034,0.13878
1140.89055,0.15762
1139.40076,0.13795
1137.91097,0.16291
1136.42118,0.19350
1134.93140,0.18779
1133.44161,0.18212
1131.95182,0.22492
1130.46203,0.21637
1128.97224,0.19570
1127.48245,0.22293
1125.99266,0.22473
1124.50288,0.23543
1123.01309,0.22980
1121.52330,0.22419
1120.03351,0.21605
1118.54372,0.22964
1117.05393,0.22481
1115.56415,0.23588
1114.07436,0.22690
1112.58457,0.21782
1111.09478,0.20876
1109.60499,0.20241
1108.11520,0.20637
1106.62542,0.21595
1105.13563,0.22159
1103.64584,0.23005
1102.15605,0.20794
1100.66626,0.20291
1099.17647,0.19790
1097.68668,0.20459
1096.19690,0.18328
1094.70711,0.17834
1093.21732,0.18090
1091.72753,0.16012
1090.23774,0.15292
1088.74795,0.14574
1087.25817,0.15026
1085.76838,0.15318
1084.27859,0.15798
1082.78880,0.14903
1081.29901,0.16089
1079.80922,0.15386
1078.31943,0.15829
1076.82965,0.16275
1075.33986,0.17167
1073.85007,0.18855
1072.36028,0.19588
1070.87049,0.19039
1069.38070,0.20735
1067.89092,0.22783
1066.40113,0.24834
1064.91134,0.29130
1063.42155,0.35856
1061.93176,0.45295
1060.44197,0.50228
1058.95219,0.58807
1057.46240,0.62986
1055.97261,0.67167
1054.48282,0.76548
1052.99303,0.81353
1051.50324,0.79994
1050.01345,0.80997
1048.52367,0.80764
1047.03388,0.80312
1045.54409,0.79862
1044.05430,0.76647
1042.56451,0.69791
1041.07472,0.64479
1039.58494,0.60967
1038.09515,0.53067
1036.60536,0.50647
1035.11557,0.48228
1033.62578,0.43652
1032.13599,0.37186
1030.64620,0.30887
1029.15642,0.28163
1027.66663,0.26282
1026.17684,0.24404
1024.68705,0.21874
1023.19726,0.17618
1021.70747,0.15910
1020.21769,0.13130
1018.72790,0.13086
1017.23811,0.11958
1015.74832,0.10832
1014.25853,0.08996
1012.76874,0.09358
1011.27896,0.08952
1009.78917,0.09389
1008.29938,0.05858
1006.80959,0.04828
1005.31980,0.03801
1003.83001,0.01281
1002.34022,0.01333
1000.85044,0.01761
999.36065,0.01747
997.87086,0.02659
996.38107,0.03573
994.89128,0.04641
993.40149,0.04240
991.91171,0.06574
990.42192,0.07556
988.93213,0.09732
987.44234,0.10567
985.95255,0.11404
984.46276,0.09850
982.97297,0.08041
981.48319,0.06982
979.99340,0.05505
978.50361,0.05210
977.01382,0.04917
975.52403,0.03214
974.03424,0.02167
972.54446,0.02057
971.05467,0.01271
969.56488,0.00629
968.07509,0.00817
966.58530,0.01008
965.09551,0.01377
963.60573,0.01187
962.11594,0.01280
960.62615,0.00652
959.13636,0.01507
957.64657,0.02365
956.15678,0.02501
954.66699,0.00982
953.17721,0.02664
951.68742,0.03392
950.19763,0.04156
948.70784,0.04924
947.21805,0.05495
945.72826,0.08147
944.23848,0.09587
942.74869,0.12828
941.25890,0.13034
939.76911,0.13664
938.27932,0.14296
936.78953,0.16262
935.29974,0.18324
933.80996,0.18986
932.32017,0.18647
930.83038,0.18848
929.34059,0.19050
927.85080,0.22759
926.36101,0.25606
924.87123,0.29342
923.38144,0.34623
921.89165,0.36882
920.40186,0.39142
918.91207,0.51600
917.42228,0.62800
915.93250,0.77084
914.44271,0.97537
912.95292,1.11161
911.46313,1.24787
909.97334,1.42842
908.48355,1.62978
906.99376,1.79659
905.50398,1.91975
904.01419,1.91565
902.52440,1.91157
901.03461,2.00000
899.54482,1.98312
898.05503,1.84388
896.56525,1.67174
895.07546,1.54586
893.58567,1.42000
892.09588,1.09354
890.60609,0.89744
889.11630,0.66865
887.62651,0.49408
886.13673,0.42358
884.64694,0.35311
883.15715,0.28348
881.66736,0.19589
880.17757,0.14592
878.68778,0.12319
877.19800,0.10048
875.70821,0.06273
874.21842,0.05374
872.72863,0.02795
871.23884,0.02601
869.74905,0.02187
868.25927,0.01776
866.76948,0.01659
865.27969,0.02268
863.78990,0.03908
862.30011,0.04896
860.81032,0.05244
859.32053,0.05595
857.83075,0.07174
856.34096,0.07331
854.85117,0.10316
853.36138,0.09800
851.87159,0.11751
850.38180,0.13704
848.89202,0.13686
847.40223,0.14955
845.91244,0.15783
844.42265,0.17488
842.93286,0.19197
841.44307,0.20055
839.95329,0.19514
838.46350,0.20307
836.97371,0.19607
835.48392,0.21666
833.99413,0.23727
832.50434,0.22965
831.01455,0.21948
829.52477,0.20209
828.03498,0.17305
826.54519,0.15805
825.05540,0.14307
823.56561,0.13559
822.07582,0.11389
820.58604,0.09688
819.09625,0.08924
817.60646,0.08162
816.11667,0.08524
814.62688,0.10710
813.13709,0.10890
811.64730,0.10488
810.15752,0.11548
808.66773,0.12611
807.17794,0.11375
805.68815,0.11053
804.19836,0.12508
802.70857,0.12086
801.21879,0.11666
799.72900,0.10863
798.23921,0.09969
796.74942,0.09077
795.25963,0.09577
793.76984,0.10080
792.28006,0.11345
790.79027,0.13265
789.30048,0.14137
787.81069,0.16810
786.32090,0.18808
784.83111,0.20808
783.34132,0.21059
781.85154,0.24442
780.36175,0.30467
778.87196,0.30842
777.38217,0.31219
775.89238,0.34425
774.40259,0.34480
772.91281,0.32786
771.42302,0.32157
769.93323,0.31531
768.44344,0.28489
766.95365,0.25683
765.46386,0.22086
763.97407,0.17487
762.48429,0.16323
760.99450,0.15162
759.50471,0.13139
758.01492,0.09881
756.52513,0.09545
755.03534,0.08755
753.54556,0.07968
752.05577,0.07896
750.56598,0.06308
749.07619,0.05329
747.58640,0.04762
746.09661,0.04197
744.60683,0.02572
743.11704,0.01720
741.62725,0.01968
740.13746,0.01424
738.64767,0.00883
737.15788,0.00975
735.66809,0.01443
734.17831,0.00652
732.68852,0.00899
731.19873,0.01149
729.70894,0.02242
728.21915,0.01095
726.72936,0.00652
725.23958,0.01822
723.74979,0.02154
722.26000,0.02488
720.77021,0.02474
719.28042,0.00454
717.79063,0.00599
716.30084,0.00887
714.81106,0.01177
713.32127,0.00722
711.83148,0.01951
710.34169,0.03253
708.85190,0.02957
707.36211,0.02664
705.87233,0.03693
704.38254,0.02949
702.89275,0.03422
701.40296,0.03944
699.91317,0.04468
698.42338,0.06092
696.93360,0.08303
695.44381,0.10096
693.95402,0.10945
692.46423,0.11797
690.97444,0.13784
689.48465,0.15913
687.99486,0.17111
686.50508,0.18568
685.01529,0.20027
683.52550,0.22423
682.03571,0.25802
680.54592,0.25868
679.05613,0.25561
677.56635,0.25258
676.07656,0.26685
674.58677,0.26222
673.09698,0.24501
671.60719,0.22899
670.11740,0.21299
668.62761,0.19328
667.13783,0.17476
665.64804,0.15884
664.15825,0.14293
662.66846,0.11771
661.17867,0.08878
659.68888,0.06735
658.19910,0.06100
656.70931,0.05468
655.21952,0.04359
653.72973,0.05122
652.23994,0.05209
650.75015,0.04645
649.26037,0.04083
647.77058,0.04037
646.28079,0.02943
644.79100,0.03486
643.30121,0.03132
641.81142,0.02781
640.32163,0.04312
638.83185,0.04398
637.34206,0.01707
635.85227,0.01178
634.36248,0.00652
632.87269,0.01864
631.38290,0.01373
629.89312,0.01375
628.40333,0.01858
626.91354,0.02344
625.42375,0.01676
623.93396,0.02458
622.44417,0.02998
620.95438,0.03539
619.46460,0.04236
617.97481,0.05331
616.48502,0.05075
614.99523,0.07366
613.50544,0.09660
612.01565,0.12634
610.52587,0.15587
609.03608,0.17888
607.54629,0.19923
606.05650,0.21960
604.56671,0.29780
603.07692,0.32698
601.58714,0.35327
600.09735,0.37958
598.60756,0.40486
597.11777,0.42199
595.62798,0.41509
594.13819,0.41673
592.64840,0.41841
591.15862,0.37864
589.66883,0.30574
588.17904,0.25995
586.68925,0.22984
585.19946,0.19975
583.70967,0.16478
582.21989,0.11348
580.73010,0.09071
579.24031,0.06795
577.75052,0.05690
576.26073,0.04424
574.77094,0.05215
573.28115,0.04526
571.79137,0.03839
570.30158,0.05619
568.81179,0.05649
567.32200,0.05916
565.83221,0.06184
564.34242,0.07460
562.85264,0.09018
561.36285,0.10578
559.87306,0.11896
558.38327,0.13216
556.89348,0.12588
555.40369,0.13924
553.91391,0.12753
552.42412,0.11583
550.93433,0.15332
549.44454,0.15371
547.95475,0.15691
546.46496,0.15933
544.97517,0.16177
543.48539,0.17042
541.99560,0.21133
540.50581,0.22458
539.01602,0.23786
537.52623,0.28655
536.03644,0.34927
534.54666,0.34639
533.05687,0.38113
531.56708,0.41590
530.07729,0.46681
528.58750,0.53433
527.09771,0.56590
525.60792,0.59749
524.11814,0.65550
522.62835,0.73479
521.13856,0.78678
519.64877,0.78811
518.15898,0.78946
516.66919,0.81022
515.17941,0.80859
513.68962,0.80826
512.19983,0.80796
510.71004,0.73843
509.22025,0.74343
507.73046,0.66717
506.24068,0.60706
504.75089,0.54696
503.26110,0.45864
501.77131,0.35141
500.28152,0.31206
498.79173,0.27274
497.30194,0.21090
495.81216,0.15118
494.32237,0.12956
492.83258,0.10797
491.34279,0.09901
489.85300,0.08003
488.36321,0.09097
486.87343,0.07683
485.38364,0.06271
483.89385,0.03402
482.40406,0.07869
480.91427,0.08881
479.42448,0.09896
477.93469,0.09442
476.44491,0.11373
474.95512,0.13049
473.46533,0.14728
471.97554,0.15708
470.48575,0.16271
468.99596,0.16812
467.50618,0.15254
466.01639,0.13698
464.52660,0.11187
463.03681,0.08328
461.54702,0.06686
460.05723,0.05046
458.56745,0.03666
457.07766,0.03339
455.58787,0.02687
454.09808,0.02038
452.60829,0.04147
451.11850,0.00981
449.62871,0.00911
448.13893,0.00843
446.64914,0.02332
445.15935,0.00716
443.66956,0.00652
442.17977,0.00630
440.68998,0.00611
439.20020,0.03362
437.71041,0.03756
436.22062,0.02962
434.73083,0.02170
433.24104,0.01403
431.75125,0.04166
430.26146,0.02856
428.77168,0.01548
427.28189,0.02473
425.79210,0.04054
424.30231,0.03419
422.81252,0.02786
421.32273,0.03067
419.83295,0.02952
418.34316,0.02082
416.85337,0.01213
415.36358,0.02601
413.87379,0.01726
412.38400,0.01600
410.89422,0.01477
409.40443,0.02968
407.91464,0.03270
406.42485,0.03949
404.93506,0.02947
403.44527,0.01949
401.95548,0.02424
400.46570,0.02972
398.97591,0.04001
397.48612,0.05032
395.99633,0.04045
394.50654,0.04696
393.01675,0.04613
391.52697,0.04533
390.03718,0.01431
388.54739,0.01861
387.05760,0.02201
385.56781,0.02543
384.07802,0.01136
382.58824,0.03421
381.09845,0.03081
379.60866,0.02744
378.11887,0.02491
376.62908,0.00652
375.13929,0.01402
373.64950,0.02155
372.15972,0.03914
370.66993,0.02476
369.18014,0.01830
367.69035,0.01185
366.20056,0.01901
364.71077,0.02058
363.22099,0.01354
361.73120,0.00652
360.24141,0.02723
358.75162,0.05590
357.26183,0.05903
355.77204,0.06218
354.28225,0.06337
352.79247,0.06598
351.30268,0.06745
349.81289,0.06894
348.32310,0.04407
346.83331,0.04561
345.34352,0.04904
343.85374,0.05250
342.36395,0.05575
340.87416,0.03823
339.38437,0.04655
337.89458,0.05489
336.40479,0.03044
334.91501,0.04222
333.42522,0.02436
331.93543,0.00652
330.44564,0.03529
328.95585,0.04820
327.46606,0.04385
325.97627,0.03953
324.48649,0.07634
322.99670,0.05945
321.50691,0.04492
320.01712,0.03042
318.52733,0.05565
317.03754,0.05894
315.54776,0.05046
314.05797,0.04201
312.56818,0.03580
311.07839,0.05578
309.58860,0.05394
308.09881,0.05212
306.60902,0.04811
305.11924,0.06117
303.62945,0.04448
302.13966,0.02781
300.64987,0.00755
299.16008,0.00652
