1778.52000,0.02099
1777.03021,0.02072
1775.54042,0.01708
1774.05063,0.02542
1772.56085,0.01945
1771.07106,0.02425
1769.58127,0.02052
1768.09148,0.01123
1766.60169,0.01989
1765.11190,0.01861
1763.62212,0.01398
1762.13233,0.00917
1760.64254,0.00558
1759.15275,0.00579
1757.66296,0.00902
1756.17317,0.00909
1754.68339,0.01038
1753.19360,0.01288
1751.70381,0.00725
1750.21402,0.01259
1748.72423,0.00680
1747.23444,0.01438
1745.74465,0.01303
1744.25487,0.00691
1742.76508,0.01138
1741.27529,0.00511
1739.78550,0.02218
1738.29571,0.00919
1736.80592,0.01117
1735.31614,0.00579
1733.82635,0.01697
1732.33656,0.01701
1730.84677,0.00432
1729.35698,0.01616
1727.86719,0.01170
1726.37740,0.00685
1724.88762,0.00941
1723.39783,0.00840
1721.90804,0.01179
1720.41825,0.00984
1718.92846,0.01268
1717.43867,0.00579
1715.94889,0.00663
1714.45910,0.00822
1712.96931,0.01381
1711.47952,0.00747
1709.98973,0.01929
1708.49994,0.00742
1707.01016,0.00574
1705.52037,0.00408
1704.03058,0.00942
1702.54079,0.00841
1701.05100,0.01937
1699.56121,0.01661
1698.07142,0.02065
1696.58164,0.00579
1695.09185,0.01437
1693.60206,0.00882
1692.11227,0.01664
1690.62248,0.01354
1689.13269,0.01663
1687.64291,0.01417
1686.15312,0.02328
1684.66333,0.02306
1683.17354,0.02087
1681.68375,0.02129
1680.19396,0.02075
1678.70417,0.02281
1677.21439,0.02052
1675.72460,0.03638
1674.23481,0.02796
1672.74502,0.03570
1671.25523,0.04565
1669.76544,0.05145
1668.27566,0.05408
1666.78587,0.04778
1665.29608,0.04408
1663.80629,0.05376
1662.31650,0.05908
1660.82671,0.06482
1659.33693,0.07338
1657.84714,0.06503
1656.35735,0.06128
1654.86756,0.06075
1653.37777,0.06701
1651.88798,0.06612
1650.39819,0.07084
1648.90841,0.07379
1647.41862,0.07019
1645.92883,0.07717
1644.43904,0.08417
1642.94925,0.07865
1641.45946,0.07614
1639.96968,0.07167
1638.47989,0.07299
1636.99010,0.07613
1635.50031,0.06456
1634.01052,0.07353
1632.52073,0.06857
1631.03094,0.07600
1629.54116,0.08523
1628.05137,0.09430
1626.56158,0.08028
1625.07179,0.08899
1623.58200,0.08458
1622.09221,0.09474
1620.60243,0.08540
1619.11264,0.08744
1617.62285,0.08850
1616.13306,0.09059
1614.64327,0.08931
1613.15348,0.07731
1611.66370,0.08524
1610.17391,0.07946
1608.68412,0.08266
1607.19433,0.09465
1605.70454,0.09591
1604.21475,0.09321
1602.72496,0.09054
1601.23518,0.09008
1599.74539,0.07868
1598.25560,0.06811
1596.76581,0.08227
1595.27602,0.08330
1593.78623,0.07977
1592.29645,0.07428
1590.80666,0.07936
1589.31687,0.06934
1587.82708,0.08104
1586.33729,0.06230
1584.84750,0.06270
1583.35771,0.07688
1581.86793,0.08291
1580.37814,0.07860
1578.88835,0.06615
1577.39856,0.06230
1575.90877,0.05388
1574.41898,0.05903
1572.92920,0.05107
1571.43941,0.04591
1569.94962,0.04088
1568.45983,0.03587
1566.97004,0.03557
1565.48025,0.02971
1563.99047,0.03125
1562.50068,0.03023
1561.01089,0.03938
1559.52110,0.02865
1558.03131,0.03427
1556.54152,0.02079
1555.05173,0.01152
1553.56195,0.01701
1552.07216,0.00858
1550.58237,0.01990
1549.09258,0.01351
1547.60279,0.01134
1546.11300,0.00579
1544.62322,0.01633
1543.13343,0.00697
1541.64364,0.01524
1540.15385,0.01438
1538.66406,0.01354
1537.17427,0.00914
1535.68448,0.01207
1534.19470,0.01821
1532.70491,0.02418
1531.21512,0.01942
1529.72533,0.02484
1528.23554,0.02192
1526.74575,0.02659
1525.25597,0.03408
1523.76618,0.04238
1522.27639,0.03039
1520.78660,0.03676
1519.29681,0.03657
1517.80702,0.04696
1516.31724,0.04204
1514.82745,0.04552
1513.33766,0.04931
1511.84787,0.05313
1510.35808,0.05846
1508.86829,0.03275
1507.37850,0.04909
1505.88872,0.05390
1504.39893,0.03922
1502.90914,0.05324
1501.41935,0.08302
1499.92956,0.09052
1498.43977,0.09187
1496.94999,0.07671
1495.46020,0.10001
1493.97041,0.11478
1492.48062,0.11224
1490.99083,0.12267
1489.50104,0.14030
1488.01125,0.14888
1486.52147,0.15750
1485.03168,0.18794
1483.54189,0.20607
1482.05210,0.21704
1480.56231,0.22983
1479.07252,0.25301
1477.58274,0.26147
1476.09295,0.26656
1474.60316,0.25375
1473.11337,0.27304
1471.62358,0.27243
1470.13379,0.29954
1468.64401,0.30635
1467.15422,0.33051
1465.66443,0.35102
1464.17464,0.37155
1462.68485,0.39419
1461.19506,0.42761
1459.70527,0.46724
1458.21549,0.51545
1456.72570,0.60352
1455.23591,0.62509
1453.74612,0.64489
1452.25633,0.68942
1450.76654,0.68815
1449.27676,0.70882
1447.78697,0.70502
1446.29718,0.67594
1444.80739,0.66551
1443.31760,0.65510
1441.82781,0.61634
1440.33802,0.58536
1438.84824,0.52912
1437.35845,0.51054
1435.86866,0.48761
1434.37887,0.50414
1432.88908,0.54738
1431.39929,0.61017
1429.90951,0.69530
1428.41972,0.77686
1426.92993,0.79212
1425.44014,0.83110
1423.95035,0.85388
1422.46056,0.87668
1420.97078,0.92330
1419.48099,0.89645
1417.99120,0.91265
1416.50141,0.92888
1415.01162,0.90887
1413.52183,0.85921
1412.03204,0.79802
1410.54226,0.71375
1409.05247,0.66695
1407.56268,0.64109
1406.07289,0.57402
1404.58310,0.54223
1403.09331,0.51047
1401.60353,0.43730
1400.11374,0.39821
1398.62395,0.34800
1397.13416,0.30378
1395.64437,0.24047
1394.15458,0.21742
1392.66479,0.18144
1391.17501,0.16202
1389.68522,0.11912
1388.19543,0.12425
1386.70564,0.11148
1385.21585,0.09873
1383.72606,0.08840
1382.23628,0.06474
1380.74649,0.03712
1379.25670,0.02686
1377.76691,0.02459
1376.27712,0.01538
1374.78733,0.00618
1373.29755,0.00757
1371.80776,0.01157
1370.31797,0.01898
1368.82818,0.01238
1367.33839,0.00579
1365.84860,0.03267
1364.35881,0.03746
1362.86903,0.03789
1361.37924,0.07619
1359.88945,0.09121
1358.39966,0.12478
1356.90987,0.14563
1355.42008,0.17407
1353.93030,0.22663
1352.44051,0.25462
1350.95072,0.28264
1349.46093,0.33886
1347.97114,0.43276
1346.48135,0.49500
1344.99156,0.54572
1343.50178,0.62555
1342.01199,0.65520
1340.52220,0.74922
1339.03241,0.81178
1337.54262,0.83115
1336.05283,0.85751
1334.56305,0.88390
1333.07326,0.90434
1331.58347,0.91882
1330.09368,0.91361
1328.60389,0.92735
1327.11410,0.88713
1325.62432,0.82781
1324.13453,0.81871
1322.64474,0.78972
1321.15495,0.73545
1319.66516,0.72344
1318.17537,0.71145
1316.68558,0.65965
1315.19580,0.57600
1313.70601,0.56010
1312.21622,0.53028
1310.72643,0.48574
1309.23664,0.45617
1307.74685,0.44176
1306.25707,0.41782
1304.76728,0.39091
1303.27749,0.36402
1301.78770,0.32362
1300.29791,0.25634
1298.80812,0.22515
1297.31834,0.20473
1295.82855,0.15964
1294.33876,0.14824
1292.84897,0.12491
1291.35918,0.10539
1289.86939,0.09725
1288.37960,0.08913
1286.88982,0.08183
1285.40003,0.07575
1283.91024,0.08364
1282.42045,0.07303
1280.93066,0.06065
1279.44087,0.05646
1277.95109,0.04453
1276.46130,0.05194
1274.97151,0.04772
1273.48172,0.04353
1271.99193,0.04385
1270.50214,0.04040
1269.01235,0.03519
1267.52257,0.02721
1266.03278,0.02822
1264.54299,0.03224
1263.05320,0.03409
1261.56341,0.02212
1260.07362,0.01018
1258.58384,0.01171
1257.09405,0.00450
1255.60426,0.01519
1254.11447,0.01436
1252.62468,0.01455
1251.13489,0.00579
1249.64511,0.01332
1248.15532,0.01011
1246.66553,0.01241
1245.17574,0.01472
1243.68595,0.00721
1242.19616,0.02305
1240.70637,0.00744
1239.21659,0.00460
1237.72680,0.01582
1236.23701,0.02347
1234.74722,0.03852
1233.25743,0.02979
1231.76764,0.02108
1230.27786,0.03580
1228.78807,0.02266
1227.29828,0.01772
1225.80849,0.01200
1224.31870,0.00690
1222.82891,0.00879
1221.33912,0.01450
1219.84934,0.02292
1218.35955,0.03136
1216.86976,0.05227
1215.37997,0.07262
1213.89018,0.08542
1212.40039,0.08569
1210.91061,0.10013
1209.42082,0.08491
1207.93103,0.07709
1206.44124,0.06930
1204.95145,0.06591
1203.46166,0.07031
1201.97188,0.06896
1200.48209,0.06106
1198.99230,0.05259
1197.50251,0.05708
1196.01272,0.04348
1194.52293,0.03558
1193.03314,0.02770
1191.54336,0.03150
1190.05357,0.03572
1188.56378,0.02224
1187.07399,0.02113
1185.58420,0.03359
1184.09441,0.03433
1182.60463,0.02662
1181.11484,0.01893
1179.62505,0.00579
1178.13526,0.01201
1176.64547,0.00809
1175.15568,0.02153
1173.66589,0.02702
1172.17611,0.00744
1170.68632,0.00660
1169.19653,0.00579
1167.70674,0.02527
1166.21695,0.02704
1164.72716,0.03779
1163.23738,0.04738
1161.74759,0.05480
1160.25780,0.06404
1158.76801,0.06852
1157.27822,0.07302
1155.78843,0.07516
1154.29865,0.09326
1152.80886,0.09365
1151.31907,0.10443
1149.82928,0.10168
1148.33949,0.11390
1146.84970,0.11539
1145.35991,0.11690
1143.87013,0.13716
1142.38034,0.15166
1140.89055,0.14428
1139.40076,0.16601
1137.91097,0.16884
1136.42118,0.18324
1134.93140,0.19737
1133.44161,0.21152
1131.95182,0.23656
1130.46203,0.24050
1128.97224,0.25124
1127.48245,0.22555
1125.99266,0.23833
1124.50288,0.22246
1123.01309,0.22363
1121.52330,0.22483
1120.03351,0.21122
1118.54372,0.21177
1117.05393,0.22271
1115.56415,0.22948
1114.07436,0.22234
1112.58457,0.22717
1111.09478,0.23203
1109.60499,0.20603
1108.11520,0.21273
1106.62542,0.21746
1105.13563,0.20867
1103.64584,0.21723
1102.15605,0.20311
1100.66626,0.20106
1099.17647,0.19904
1097.68668,0.19435
1096.19690,0.18332
1094.70711,0.20537
1093.21732,0.20076
1091.72753,0.20075
1090.23774,0.19011
1088.74795,0.17949
1087.25817,0.17497
1085.76838,0.19976
1084.27859,0.15725
1082.78880,0.18567
1081.29901,0.19579
1079.80922,0.21430
1078.31943,0.21441
1076.82965,0.21455
1075.33986,0.21241
1073.85007,0.23142
1072.36028,0.22834
1070.87049,0.23345
1069.38070,0.28400
1067.89092,0.30530
1066.40113,0.32661
1064.91134,0.37425
1063.42155,0.45199
1061.93176,0.55544
1060.44197,0.67406
1058.95219,0.79888
1057.46240,0.84833
1055.97261,0.89781
1054.48282,0.97509
1052.99303,1.02232
1051.50324,1.06141
1050.01345,1.02583
1048.52367,0.97892
1047.03388,0.97924
1045.54409,0.97958
1044.05430,0.92358
1042.56451,0.86321
1041.07472,0.76224
1039.58494,0.69297
1038.09515,0.61395
1036.60536,0.56674
1035.11557,0.51954
1033.62578,0.46471
1032.13599,0.38400
1030.64620,0.34873
1029.15642,0.30751
1027.66663,0.28444
1026.17684,0.26139
1024.68705,0.23240
1023.19726,0.19884
1021.70747,0.15555
1020.21769,0.13559
1018.72790,0.13836
1017.23811,0.12811
1015.74832,0.11788
1014.25853,0.08448
1012.76874,0.09989
1011.27896,0.09382
1009.78917,0.07861
1008.29938,0.06123
1006.80959,0.05653
1005.31980,0.05185
1003.83001,0.02518
1002.34022,0.02304
1000.85044,0.02989
999.36065,0.03935
997.87086,0.04754
996.38107,0.05575
994.89128,0.07903
993.40149,0.06807
991.91171,0.08960
990.42192,0.12669
988.93213,0.15246
987.44234,0.15424
985.95255,0.15605
984.46276,0.15460
982.97297,0.13903
981.48319,0.11751
979.99340,0.08545
978.50361,0.07981
977.01382,0.07420
975.52403,0.06532
974.03424,0.04591
972.54446,0.03788
971.05467,0.01872
969.56488,0.00575
968.07509,0.00576
966.58530,0.00579
965.09551,0.01427
963.60573,0.01760
962.11594,0.01377
960.62615,0.02073
959.13636,0.01337
957.64657,0.00603
956.15678,0.01864
954.66699,0.02350
953.17721,0.01803
951.68742,0.03728
950.19763,0.03674
948.70784,0.03622
947.21805,0.05534
945.72826,0.06055
944.23848,0.09327
942.74869,0.09155
941.25890,0.10480
939.76911,0.12175
938.27932,0.13873
936.78953,0.16719
935.29974,0.16560
933.80996,0.19450
932.32017,0.19674
930.83038,0.19830
929.34059,0.19989
927.85080,0.21674
926.36101,0.25115
924.87123,0.29215
923.38144,0.34672
921.89165,0.38090
920.40186,0.41510
918.91207,0.51715
917.42228,0.64691
915.93250,0.80817
914.44271,0.99316
912.95292,1.11293
911.46313,1.23273
909.97334,1.45046
908.48355,1.64928
906.99376,1.78061
905.50398,1.95937
904.01419,1.97382
902.52440,1.98829
901.03461,2.00000
899.54482,1.91513
898.05503,1.77590
896.56525,1.61259
895.07546,1.48676
893.58567,1.36094
892.09588,1.12461
890.60609,0.87415
889.11630,0.64543
887.62651,0.45976
886.13673,0.41285
884.64694,0.36597
883.15715,0.26722
881.66736,0.19917
880.17757,0.14130
878.68778,0.13106
877.19800,0.12085
875.70821,0.07939
874.21842,0.05189
872.72863,0.04992
871.23884,0.04438
869.74905,0.03439
868.25927,0.02442
866.76948,0.01996
865.27969,0.01731
863.78990,0.04755
862.30011,0.05411
860.81032,0.05910
859.32053,0.06412
857.83075,0.08410
856.34096,0.09972
854.85117,0.12533
853.36138,0.14817
851.87159,0.15201
850.38180,0.15588
848.89202,0.18138
847.40223,0.19516
845.91244,0.21055
844.42265,0.21751
842.93286,0.22448
841.44307,0.24811
839.95329,0.26978
838.46350,0.28968
836.97371,0.31219
835.48392,0.31231
833.99413,0.31246
832.50434,0.31811
831.01455,0.27738
829.52477,0.24165
828.03498,0.22167
826.54519,0.21139
825.05540,0.20113
823.56561,0.18601
822.07582,0.16633
820.58604,0.15405
819.09625,0.14339
817.60646,0.13275
816.11667,0.12731
814.62688,0.14142
813.13709,0.15715
811.64730,0.15198
810.15752,0.16019
808.66773,0.16842
807.17794,0.17787
805.68815,0.15149
804.19836,0.15919
802.70857,0.16473
801.21879,0.17029
799.72900,0.13923
798.23921,0.14285
796.74942,0.14490
795.25963,0.14040
793.76984,0.13592
792.28006,0.16613
790.79027,0.17086
789.30048,0.19295
787.81069,0.23359
786.32090,0.23989
784.83111,0.24622
783.34132,0.28414
781.85154,0.31811
780.36175,0.35508
778.87196,0.38620
777.38217,0.41735
775.89238,0.41815
774.40259,0.40821
772.91281,0.43056
771.42302,0.41569
769.93323,0.40085
768.44344,0.36073
766.95365,0.29873
765.46386,0.23874
763.97407,0.19551
762.48429,0.17531
760.99450,0.15513
759.50471,0.14563
758.01492,0.14015
756.52513,0.11456
755.03534,0.10873
753.54556,0.10291
752.05577,0.09931
750.56598,0.07841
749.07619,0.06868
747.58640,0.06207
746.09661,0.05548
744.60683,0.04643
743.11704,0.04178
741.62725,0.03337
740.13746,0.02757
738.64767,0.02180
737.15788,0.03299
735.66809,0.03264
734.17831,0.01639
732.68852,0.02147
731.19873,0.02657
729.70894,0.01836
728.21915,0.00718
726.72936,0.03312
725.23958,0.02999
723.74979,0.03038
722.26000,0.03079
720.77021,0.02256
719.28042,0.00579
717.79063,0.01784
716.30084,0.01488
714.81106,0.01194
713.32127,0.02287
711.83148,0.04019
710.34169,0.03065
708.85190,0.03239
707.36211,0.03415
705.87233,0.03205
704.38254,0.03655
702.89275,0.04346
701.40296,0.04373
699.91317,0.04402
698.42338,0.05578
696.93360,0.08730
695.44381,0.11186
693.95402,0.11722
692.46423,0.12261
690.97444,0.14227
689.48465,0.16514
687.99486,0.19181
686.50508,0.19063
685.01529,0.18947
683.52550,0.21004
682.03571,0.23960
680.54592,0.25086
679.05613,0.25358
677.56635,0.25633
676.07656,0.28280
674.58677,0.23858
673.09698,0.22925
671.60719,0.21774
670.11740,0.20627
668.62761,0.17788
667.13783,0.15510
665.64804,0.15485
664.15825,0.15463
662.66846,0.11419
661.17867,0.10286
659.68888,0.06665
658.19910,0.06622
656.70931,0.06582
655.21952,0.03686
653.72973,0.02066
652.23994,0.03776
650.75015,0.04323
649.26037,0.04873
647.77058,0.04877
646.28079,0.04764
644.79100,0.03378
643.30121,0.03250
641.81142,0.03125
640.32163,0.04037
638.83185,0.03916
637.34206,0.01985
635.85227,0.02028
634.36248,0.02074
632.87269,0.01326
631.38290,0.00579
629.89312,0.02274
628.40333,0.01341
626.91354,0.00411
625.42375,0.00993
623.93396,0.02016
622.44417,0.02514
620.95438,0.03014
619.46460,0.03805
617.97481,0.05037
616.48502,0.08662
614.99523,0.09032
613.50544,0.09405
612.01565,0.10986
610.52587,0.15915
609.03608,0.19452
607.54629,0.22035
606.05650,0.24621
604.56671,0.26333
603.07692,0.32888
601.58714,0.35143
600.09735,0.37400
598.60756,0.43463
597.11777,0.44231
595.62798,0.44703
594.13819,0.43205
592.64840,0.41709
591.15862,0.39101
589.66883,0.33028
588.17904,0.28891
586.68925,0.24517
585.19946,0.20145
583.70967,0.14939
582.21989,0.10532
580.73010,0.08538
579.24031,0.06546
577.75052,0.06509
576.26073,0.06255
574.77094,0.05227
573.28115,0.05526
571.79137,0.05827
570.30158,0.05264
568.81179,0.05321
567.32200,0.07043
565.83221,0.08768
564.34242,0.11681
562.85264,0.13062
561.36285,0.14805
559.87306,0.15952
558.38327,0.17101
556.89348,0.17616
555.40369,0.20045
553.91391,0.20544
552.42412,0.21046
550.93433,0.24977
549.44454,0.19767
547.95475,0.23104
546.46496,0.22212
544.97517,0.21321
543.48539,0.26818
541.99560,0.29587
540.50581,0.29790
539.01602,0.29995
537.52623,0.34505
536.03644,0.38160
534.54666,0.40265
533.05687,0.41844
531.56708,0.43426
530.07729,0.49123
528.58750,0.56217
527.09771,0.58871
525.60792,0.61528
524.11814,0.64924
522.62835,0.69478
521.13856,0.74732
519.64877,0.75845
518.15898,0.76960
516.66919,0.80966
515.17941,0.80254
513.68962,0.80111
512.19983,0.79971
510.71004,0.81258
509.22025,0.74221
507.73046,0.72226
506.24068,0.66638
504.75089,0.61053
503.26110,0.46316
501.77131,0.35129
500.28152,0.30725
498.79173,0.26325
497.30194,0.19705
495.81216,0.16475
494.32237,0.14312
492.83258,0.12152
491.34279,0.11419
489.85300,0.10210
488.36321,0.10198
486.87343,0.09143
485.38364,0.08091
483.89385,0.05497
482.40406,0.09957
480.91427,0.10705
479.42448,0.11455
477.93469,0.12436
476.44491,0.17165
474.95512,0.18649
473.46533,0.20136
471.97554,0.18597
470.48575,0.18097
468.99596,0.19909
467.50618,0.18876
466.01639,0.17845
464.52660,0.13550
463.03681,0.11528
461.54702,0.10026
460.05723,0.08527
458.56745,0.03604
457.07766,0.02009
455.58787,0.01693
454.09808,0.01378
452.60829,0.03018
451.11850,0.04243
449.62871,0.03308
448.13893,0.02376
446.64914,0.00579
445.15935,0.00883
443.66956,0.01128
442.17977,0.01277
440.68998,0.01428
439.20020,0.01920
437.71041,0.02434
436.22062,0.02343
434.73083,0.02255
433.24104,0.02896
431.75125,0.02404
430.26146,0.03329
428.77168,0.04256
427.28189,0.04807
425.79210,0.05839
424.30231,0.05349
422.81252,0.04862
421.32273,0.03909
419.83295,0.03596
418.34316,0.02837
416.85337,0.02081
415.36358,0.00579
413.87379,0.01668
412.38400,0.02043
410.89422,0.02419
409.40443,0.04273
407.91464,0.04654
406.42485,0.04719
404.93506,0.04239
403.44527,0.03762
401.95548,0.03974
400.46570,0.04168
398.97591,0.04664
397.48612,0.05162
395.99633,0.03930
394.50654,0.03915
393.01675,0.02916
391.52697,0.01920
390.03718,0.01736
388.54739,0.02550
387.05760,0.01563
385.56781,0.00579
384.07802,0.00842
382.58824,0.01725
381.09845,0.01664
379.60866,0.01605
378.11887,0.01519
376.62908,0.01873
375.13929,0.00935
373.64950,0.00000
372.15972,0.01906
370.66993,0.03257
369.18014,0.03375
367.69035,0.03496
366.20056,0.01517
364.71077,0.05398
363.22099,0.04271
361.73120,0.03146
360.24141,0.07054
358.75162,0.08314
357.26183,0.07735
355.77204,0.07158
354.28225,0.06494
352.79247,0.07266
351.30268,0.07035
349.81289,0.06806
348.32310,0.08980
346.83331,0.06655
345.34352,0.07001
343.85374,0.07349
342.36395,0.08756
340.87416,0.06819
339.38437,0.04506
337.89458,0.02195
336.40479,0.01082
334.91501,0.01197
333.42522,0.00887
331.93543,0.00579
330.44564,0.01722
328.95585,0.02788
327.46606,0.02930
325.97627,0.03074
324.48649,0.03920
322.99670,0.02558
321.50691,0.03011
320.01712,0.03466
318.52733,0.05597
317.03754,0.02531
315.54776,0.04368
314.05797,0.06207
312.56818,0.07511
311.07839,0.07324
309.58860,0.05505
308.09881,0.03689
306.60902,0.02134
305.11924,0.02394
303.62945,0.01542
302.13966,0.00691
300.64987,0.00579
299.16008,0.00579
