1778.52000,0.01689
1777.03021,0.01237
1775.54042,0.01892
1774.05063,0.02099
1772.56085,0.02268
1771.07106,0.01661
1769.58127,0.00995
1768.09148,0.01499
1766.60169,0.02189
1765.11190,0.01715
1763.62212,0.01223
1762.13233,0.00631
1760.64254,0.00410
1759.15275,0.01644
1757.66296,0.01510
1756.17317,0.01276
1754.68339,0.02006
1753.19360,0.01879
1751.70381,0.00874
1750.21402,0.00854
1748.72423,0.01225
1747.23444,0.01251
1745.74465,0.00891
1744.25487,0.00410
1742.76508,0.00722
1741.27529,0.00688
1739.78550,0.01312
1738.29571,0.01448
1736.80592,0.01687
1735.31614,0.01807
1733.82635,0.00455
1732.33656,0.00846
1730.84677,0.01607
1729.35698,0.01061
1727.86719,0.01356
1726.37740,0.01224
1724.88762,0.01566
1723.39783,0.01398
1721.90804,0.01007
1720.41825,0.00946
1718.92846,0.01666
1717.43867,0.00934
1715.94889,0.00410
1714.45910,0.01817
1712.96931,0.00668
1711.47952,0.01097
1709.98973,0.00997
1708.49994,0.00878
1707.01016,0.00732
1705.52037,0.00588
1704.03058,0.01152
1702.54079,0.01330
1701.05100,0.01244
1699.56121,0.01427
1698.07142,0.00118
1696.58164,0.00740
1695.09185,0.01324
1693.60206,0.02013
1692.11227,0.01067
1690.62248,0.00410
1689.13269,0.02337
1687.64291,0.01218
1686.15312,0.02679
1684.66333,0.02322
1683.17354,0.02806
1681.68375,0.02596
1680.19396,0.01857
1678.70417,0.02226
1677.21439,0.02187
1675.72460,0.03605
1674.23481,0.03837
1672.74502,0.04216
1671.25523,0.04658
1669.76544,0.04959
1668.27566,0.04894
1666.78587,0.04668
1665.29608,0.05427
1663.80629,0.05984
1662.31650,0.07116
1660.82671,0.08394
1659.33693,0.06645
1657.84714,0.06167
1656.35735,0.07146
1654.86756,0.06878
1653.37777,0.06714
1651.88798,0.07639
1650.39819,0.07501
1648.90841,0.08123
1647.41862,0.07642
1645.92883,0.07286
1644.43904,0.06933
1642.94925,0.07646
1641.45946,0.07748
1639.96968,0.06849
1638.47989,0.07652
1636.99010,0.07311
1635.50031,0.07546
1634.01052,0.06759
1632.52073,0.08349
1631.03094,0.08530
1629.54116,0.07976
1628.05137,0.08959
1626.56158,0.08594
1625.07179,0.09828
1623.58200,0.09222
1622.09221,0.07657
1620.60243,0.08264
1619.11264,0.09548
1617.62285,0.08543
1616.13306,0.08195
1614.64327,0.07972
1613.15348,0.08550
1611.66370,0.07370
1610.17391,0.08015
1608.68412,0.08436
1607.19433,0.10150
1605.70454,0.09901
1604.21475,0.09306
1602.72496,0.08714
1601.23518,0.08861
1599.74539,0.07823
1598.25560,0.04987
1596.76581,0.06226
1595.27602,0.07673
1593.78623,0.07136
1592.29645,0.07421
1590.80666,0.07442
1589.31687,0.07199
1587.82708,0.06344
1586.33729,0.07294
1584.84750,0.08634
1583.35771,0.06273
1581.86793,0.08068
1580.37814,0.07390
1578.88835,0.06161
1577.39856,0.05426
1575.90877,0.05062
1574.41898,0.04987
1572.92920,0.05283
1571.43941,0.04455
1569.94962,0.04234
1568.45983,0.04015
1566.97004,0.03256
1565.48025,0.03318
1563.99047,0.03444
1562.50068,0.03716
1561.01089,0.03663
1559.52110,0.03571
1558.03131,0.02029
1556.54152,0.01839
1555.05173,0.03393
1553.56195,0.03024
1552.07216,0.01512
1550.58237,0.01823
1549.09258,0.02035
1547.60279,0.01717
1546.11300,0.01484
1544.62322,0.00639
1543.13343,0.00410
1541.64364,0.01031
1540.15385,0.01389
1538.66406,0.01749
1537.17427,0.00883
1535.68448,0.01678
1534.19470,0.03642
1532.70491,0.00880
1531.21512,0.01191
1529.72533,0.01811
1528.23554,0.02966
1526.74575,0.03222
1525.25597,0.03113
1523.76618,0.03231
1522.27639,0.03066
1520.78660,0.04560
1519.29681,0.04133
1517.80702,0.03627
1516.31724,0.04433
1514.82745,0.04320
1513.33766,0.04987
1511.84787,0.05657
1510.35808,0.05982
1508.86829,0.04200
1507.37850,0.04755
1505.88872,0.03940
1504.39893,0.04377
1502.90914,0.06044
1501.41935,0.06260
1499.92956,0.07891
1498.43977,0.07129
1496.94999,0.06636
1495.46020,0.08582
1493.97041,0.11021
1492.48062,0.12951
1490.99083,0.12652
1489.50104,0.15364
1488.01125,0.15653
1486.52147,0.15945
1485.03168,0.18030
1483.54189,0.21285
1482.05210,0.22495
1480.56231,0.24689
1479.07252,0.26252
1477.58274,0.27367
1476.09295,0.27297
1474.60316,0.28007
1473.11337,0.27431
1471.62358,0.28125
1470.13379,0.28659
1468.64401,0.30791
1467.15422,0.33458
1465.66443,0.35452
1464.17464,0.37449
1462.68485,0.40717
1461.19506,0.45338
1459.70527,0.48222
1458.21549,0.54363
1456.72570,0.58930
1455.23591,0.63827
1453.74612,0.68093
1452.25633,0.68000
1450.76654,0.72229
1449.27676,0.72756
1447.78697,0.71954
1446.29718,0.69456
1444.80739,0.67738
1443.31760,0.66023
1441.82781,0.62857
1440.33802,0.60758
1438.84824,0.54526
1437.35845,0.51387
1435.86866,0.51752
1434.37887,0.52732
1432.88908,0.57830
1431.39929,0.61047
1429.90951,0.70529
1428.41972,0.79237
1426.92993,0.80782
1425.44014,0.84480
1423.95035,0.86613
1422.46056,0.88750
1420.97078,0.90592
1419.48099,0.88936
1417.99120,0.90066
1416.50141,0.91670
1415.01162,0.90287
1413.52183,0.85345
1412.03204,0.80488
1410.54226,0.73279
1409.05247,0.65643
1407.56268,0.63863
1406.07289,0.59261
1404.58310,0.55306
1403.09331,0.51354
1401.60353,0.44446
1400.11374,0.38912
1398.62395,0.36267
1397.13416,0.30513
1395.64437,0.24065
1394.15458,0.22205
1392.66479,0.18710
1391.17501,0.14910
1389.68522,0.13098
1388.19543,0.11452
1386.70564,0.10965
1385.21585,0.10481
1383.72606,0.09129
1382.23628,0.06347
1380.74649,0.05061
1379.25670,0.02448
1377.76691,0.03132
1376.27712,0.01424
1374.78733,0.00824
1373.29755,0.00410
1371.80776,0.00447
1370.31797,0.00712
1368.82818,0.01092
1367.33839,0.01474
1365.84860,0.01828
1364.35881,0.02676
1362.86903,0.05450
1361.37924,0.07224
1359.88945,0.10269
1358.39966,0.11863
1356.90987,0.15486
1355.42008,0.17679
1353.93030,0.22720
1352.44051,0.25521
1350.95072,0.28325
1349.46093,0.35440
1347.97114,0.42456
1346.48135,0.50783
1344.99156,0.57128
1343.50178,0.63495
1342.01199,0.66938
1340.52220,0.73802
1339.03241,0.81896
1337.54262,0.85121
1336.05283,0.85872
1334.56305,0.86625
1333.07326,0.87196
1331.58347,0.91372
1330.09368,0.93791
1328.60389,0.92056
1327.11410,0.88851
1325.62432,0.82393
1324.13453,0.80441
1322.64474,0.77999
1321.15495,0.74865
1319.66516,0.72981
1318.17537,0.71100
1316.68558,0.64821
1315.19580,0.60099
1313.70601,0.52412
1312.21622,0.51216
1310.72643,0.48119
1309.23664,0.46580
1307.74685,0.44982
1306.25707,0.42077
1304.76728,0.39900
1303.27749,0.37726
1301.78770,0.33334
1300.29791,0.26385
1298.80812,0.22079
1297.31834,0.18185
1295.82855,0.17671
1294.33876,0.14253
1292.84897,0.11942
1291.35918,0.10085
1289.86939,0.10911
1288.37960,0.11739
1286.88982,0.08620
1285.40003,0.06894
1283.91024,0.08037
1282.42045,0.08036
1280.93066,0.05889
1279.44087,0.05729
1277.95109,0.05223
1276.46130,0.04680
1274.97151,0.04844
1273.48172,0.05012
1271.99193,0.04762
1270.50214,0.03572
1269.01235,0.03000
1267.52257,0.03248
1266.03278,0.02414
1264.54299,0.03630
1263.05320,0.02821
1261.56341,0.02107
1260.07362,0.01396
1258.58384,0.01127
1257.09405,0.00410
1255.60426,0.01414
1254.11447,0.01069
1252.62468,0.01280
1251.13489,0.01821
1249.64511,0.00583
1248.15532,0.01143
1246.66553,0.00907
1245.17574,0.00674
1243.68595,0.00877
1242.19616,0.01144
1240.70637,0.01638
1239.21659,0.00518
1237.72680,0.00935
1236.23701,0.01887
1234.74722,0.02923
1233.25743,0.02181
1231.76764,0.01441
1230.27786,0.03283
1228.78807,0.01913
1227.29828,0.02736
1225.80849,0.00410
1224.31870,0.01017
1222.82891,0.01994
1221.33912,0.02074
1219.84934,0.02995
1218.35955,0.03918
1216.86976,0.05049
1215.37997,0.06817
1213.89018,0.08014
1212.40039,0.09397
1210.91061,0.09105
1209.42082,0.08753
1207.93103,0.07719
1206.44124,0.06686
1204.95145,0.06486
1203.46166,0.05141
1201.97188,0.05784
1200.48209,0.06675
1198.99230,0.04519
1197.50251,0.05334
1196.01272,0.03735
1194.52293,0.03347
1193.03314,0.02961
1191.54336,0.01287
1190.05357,0.01131
1188.56378,0.02124
1187.07399,0.00847
1185.58420,0.00924
1184.09441,0.01780
1182.60463,0.01503
1181.11484,0.01229
1179.62505,0.01254
1178.13526,0.01056
1176.64547,0.00410
1175.15568,0.01288
1173.66589,0.00612
1172.17611,0.00410
1170.68632,0.00851
1169.19653,0.01294
1167.70674,0.01402
1166.21695,0.02249
1164.72716,0.03324
1163.23738,0.03214
1161.74759,0.03598
1160.25780,0.05294
1158.76801,0.05519
1157.27822,0.05747
1155.78843,0.07941
1154.29865,0.07600
1152.80886,0.09186
1151.31907,0.09485
1149.82928,0.10441
1148.33949,0.10969
1146.84970,0.11920
1145.35991,0.12873
1143.87013,0.13081
1142.38034,0.14725
1140.89055,0.14426
1139.40076,0.15072
1137.91097,0.16067
1136.42118,0.17803
1134.93140,0.19387
1133.44161,0.20973
1131.95182,0.21795
1130.46203,0.25116
1128.97224,0.23486
1127.48245,0.23516
1125.99266,0.21420
1124.50288,0.22970
1123.01309,0.23028
1121.52330,0.23089
1120.03351,0.21126
1118.54372,0.22092
1117.05393,0.22139
1115.56415,0.22496
1114.07436,0.23613
1112.58457,0.22705
1111.09478,0.21801
1109.60499,0.20509
1108.11520,0.21226
1106.62542,0.22130
1105.13563,0.21276
1103.64584,0.19073
1102.15605,0.20230
1100.66626,0.19976
1099.17647,0.19726
1097.68668,0.19170
1096.19690,0.18433
1094.70711,0.19888
1093.21732,0.19975
1091.72753,0.18385
1090.23774,0.17821
1088.74795,0.17260
1087.25817,0.17806
1085.76838,0.17025
1084.27859,0.17576
1082.78880,0.17352
1081.29901,0.18829
1079.80922,0.21189
1078.31943,0.21505
1076.82965,0.21822
1075.33986,0.22020
1073.85007,0.21012
1072.36028,0.22750
1070.87049,0.25554
1069.38070,0.28218
1067.89092,0.30341
1066.40113,0.32467
1064.91134,0.35650
1063.42155,0.45937
1061.93176,0.55347
1060.44197,0.67400
1058.95219,0.79599
1057.46240,0.85537
1055.97261,0.91477
1054.48282,0.96314
1052.99303,1.03016
1051.50324,1.03784
1050.01345,1.06336
1048.52367,1.03098
1047.03388,0.99483
1045.54409,0.95871
1044.05430,0.94809
1042.56451,0.87037
1041.07472,0.77424
1039.58494,0.68510
1038.09515,0.62075
1036.60536,0.57116
1035.11557,0.52159
1033.62578,0.47041
1032.13599,0.42090
1030.64620,0.35810
1029.15642,0.31232
1027.66663,0.27823
1026.17684,0.24416
1024.68705,0.23100
1023.19726,0.19227
1021.70747,0.18223
1020.21769,0.14007
1018.72790,0.12864
1017.23811,0.12420
1015.74832,0.11978
1014.25853,0.09880
1012.76874,0.09361
1011.27896,0.10605
1009.78917,0.09292
1008.29938,0.07020
1006.80959,0.05416
1005.31980,0.03814
1003.83001,0.02613
1002.34022,0.02418
1000.85044,0.02369
999.36065,0.03735
997.87086,0.05092
996.38107,0.06453
994.89128,0.07211
993.40149,0.09303
991.91171,0.10128
990.42192,0.13760
988.93213,0.16821
987.44234,0.17295
985.95255,0.17772
984.46276,0.16480
982.97297,0.14966
981.48319,0.12983
979.99340,0.08874
978.50361,0.08646
977.01382,0.08421
975.52403,0.08331
974.03424,0.04375
972.54446,0.03799
971.05467,0.02386
969.56488,0.00423
968.07509,0.00415
966.58530,0.00410
965.09551,0.01054
963.60573,0.01844
962.11594,0.01510
960.62615,0.00708
959.13636,0.01403
957.64657,0.02100
956.15678,0.00343
954.66699,0.01434
953.17721,0.01790
951.68742,0.03172
950.19763,0.04076
948.70784,0.04982
947.21805,0.05041
945.72826,0.07252
944.23848,0.08851
942.74869,0.09327
941.25890,0.13183
939.76911,0.13541
938.27932,0.13901
936.78953,0.17477
935.29974,0.16881
933.80996,0.17187
932.32017,0.18457
930.83038,0.18584
929.34059,0.18713
927.85080,0.20360
926.36101,0.23319
924.87123,0.28122
923.38144,0.33972
921.89165,0.37256
920.40186,0.40542
918.91207,0.51004
917.42228,0.62882
915.93250,0.78467
914.44271,1.01689
912.95292,1.11844
911.46313,1.22002
909.97334,1.45395
908.48355,1.63776
906.99376,1.81156
905.50398,1.95653
904.01419,1.97390
902.52440,1.99129
901.03461,2.00000
899.54482,1.91274
898.05503,1.77269
896.56525,1.60790
895.07546,1.49339
893.58567,1.37890
892.09588,1.12432
890.60609,0.85564
889.11630,0.63223
887.62651,0.48519
886.13673,0.42629
884.64694,0.36742
883.15715,0.27858
881.66736,0.19837
880.17757,0.13251
878.68778,0.12275
877.19800,0.11303
875.70821,0.08797
874.21842,0.06683
872.72863,0.04100
871.23884,0.03199
869.74905,0.02085
868.25927,0.00973
866.76948,0.01266
865.27969,0.01316
863.78990,0.05400
862.30011,0.05189
860.81032,0.05051
859.32053,0.04916
857.83075,0.08274
856.34096,0.09361
854.85117,0.11516
853.36138,0.13407
851.87159,0.13826
850.38180,0.14249
848.89202,0.18316
847.40223,0.18457
845.91244,0.19418
844.42265,0.20730
842.93286,0.22045
841.44307,0.23525
839.95329,0.27464
838.46350,0.27558
836.97371,0.28677
835.48392,0.29676
833.99413,0.30678
832.50434,0.31231
831.01455,0.28226
829.52477,0.24240
828.03498,0.19438
826.54519,0.19582
825.05540,0.19728
823.56561,0.18249
822.07582,0.15524
820.58604,0.15831
819.09625,0.13725
817.60646,0.11622
816.11667,0.11772
814.62688,0.12294
813.13709,0.14025
811.64730,0.15206
810.15752,0.14384
808.66773,0.13564
807.17794,0.16575
805.68815,0.15534
804.19836,0.15315
802.70857,0.14782
801.21879,0.14250
799.72900,0.14489
798.23921,0.13072
796.74942,0.13152
795.25963,0.13500
793.76984,0.13851
792.28006,0.16169
790.79027,0.16238
789.30048,0.16965
787.81069,0.17755
786.32090,0.20226
784.83111,0.22700
783.34132,0.29045
781.85154,0.30316
780.36175,0.35949
778.87196,0.37696
777.38217,0.39445
775.89238,0.40807
774.40259,0.41169
772.91281,0.41554
771.42302,0.40283
769.93323,0.39015
768.44344,0.35497
766.95365,0.27274
765.46386,0.24683
763.97407,0.19167
762.48429,0.17337
760.99450,0.15511
759.50471,0.14444
758.01492,0.12601
756.52513,0.10618
755.03534,0.10090
753.54556,0.09565
752.05577,0.08551
750.56598,0.06987
749.07619,0.04852
747.58640,0.04450
746.09661,0.04049
744.60683,0.02925
743.11704,0.02048
741.62725,0.00949
740.13746,0.01316
738.64767,0.01685
737.15788,0.00634
735.66809,0.01243
734.17831,0.00709
732.68852,0.00832
731.19873,0.00957
729.70894,0.00410
728.21915,0.00634
726.72936,0.00697
725.23958,0.01597
723.74979,0.01230
722.26000,0.00865
720.77021,0.00585
719.28042,0.00410
717.79063,0.02311
716.30084,0.01759
714.81106,0.01209
713.32127,0.00845
711.83148,0.02265
710.34169,0.01866
708.85190,0.01417
707.36211,0.00972
705.87233,0.03302
704.38254,0.03895
702.89275,0.03978
701.40296,0.03880
699.91317,0.03784
698.42338,0.05185
696.93360,0.08881
695.44381,0.09611
693.95402,0.10405
692.46423,0.11201
690.97444,0.12676
689.48465,0.15196
687.99486,0.17883
686.50508,0.19641
685.01529,0.21402
683.52550,0.21660
682.03571,0.22515
680.54592,0.23945
679.05613,0.25111
677.56635,0.26280
676.07656,0.27492
674.58677,0.25718
673.09698,0.22166
671.60719,0.20919
670.11740,0.19674
668.62761,0.18729
667.13783,0.16414
665.64804,0.15699
664.15825,0.14986
662.66846,0.09260
661.17867,0.08348
659.68888,0.06660
658.19910,0.05260
656.70931,0.03864
655.21952,0.02633
653.72973,0.02756
652.23994,0.02943
650.75015,0.03470
649.26037,0.03999
647.77058,0.04275
646.28079,0.04267
644.79100,0.04425
643.30121,0.03694
641.81142,0.02967
640.32163,0.04463
638.83185,0.03914
637.34206,0.01239
635.85227,0.01248
634.36248,0.01259
632.87269,0.01723
631.38290,0.01759
629.89312,0.01942
628.40333,0.01175
626.91354,0.00410
625.42375,0.02424
623.93396,0.02782
622.44417,0.03552
620.95438,0.04325
619.46460,0.02521
617.97481,0.04874
616.48502,0.08152
614.99523,0.08504
613.50544,0.08859
612.01565,0.12655
610.52587,0.14591
609.03608,0.20869
607.54629,0.21929
606.05650,0.22992
604.56671,0.25573
603.07692,0.31881
601.58714,0.34568
600.09735,0.37258
598.60756,0.39786
597.11777,0.44937
595.62798,0.45342
594.13819,0.42945
592.64840,0.40550
591.15862,0.37195
589.66883,0.31162
588.17904,0.27178
586.68925,0.24506
585.19946,0.21837
583.70967,0.17430
582.21989,0.11061
580.73010,0.09515
579.24031,0.07971
577.75052,0.06747
576.26073,0.05505
574.77094,0.05964
573.28115,0.06221
571.79137,0.06480
570.30158,0.06107
568.81179,0.04959
567.32200,0.06536
565.83221,0.08115
564.34242,0.12685
562.85264,0.14555
561.36285,0.16551
559.87306,0.17597
558.38327,0.18646
556.89348,0.16412
555.40369,0.18397
553.91391,0.19105
552.42412,0.19816
550.93433,0.22729
549.44454,0.21715
547.95475,0.21215
546.46496,0.21812
544.97517,0.22412
543.48539,0.25706
541.99560,0.28675
540.50581,0.30746
539.01602,0.32819
537.52623,0.32910
536.03644,0.38447
534.54666,0.41203
533.05687,0.43767
531.56708,0.46333
530.07729,0.51410
528.58750,0.56509
527.09771,0.57486
525.60792,0.58465
524.11814,0.62671
522.62835,0.67391
521.13856,0.77436
519.64877,0.77975
518.15898,0.78516
516.66919,0.79684
515.17941,0.82165
513.68962,0.82785
512.19983,0.83408
510.71004,0.82273
509.22025,0.75695
507.73046,0.70123
506.24068,0.65628
504.75089,0.61136
503.26110,0.48345
501.77131,0.36397
500.28152,0.31062
498.79173,0.25730
497.30194,0.20175
495.81216,0.17037
494.32237,0.14230
492.83258,0.11425
491.34279,0.09175
489.85300,0.09159
488.36321,0.09350
486.87343,0.07179
485.38364,0.05011
483.89385,0.05557
482.40406,0.09872
480.91427,0.10239
479.42448,0.10608
477.93469,0.11287
476.44491,0.16349
474.95512,0.18711
473.46533,0.21075
471.97554,0.20822
470.48575,0.19916
468.99596,0.22554
467.50618,0.21111
466.01639,0.19670
464.52660,0.14660
463.03681,0.09673
461.54702,0.09089
460.05723,0.08507
458.56745,0.04653
457.07766,0.01866
455.58787,0.01875
454.09808,0.01886
452.60829,0.02975
451.11850,0.02797
449.62871,0.02519
448.13893,0.02243
446.64914,0.01499
445.15935,0.00410
443.66956,0.02073
442.17977,0.01794
440.68998,0.01518
439.20020,0.00118
437.71041,0.02730
436.22062,0.02806
434.73083,0.02884
433.24104,0.01225
431.75125,0.02577
430.26146,0.03881
428.77168,0.05187
427.28189,0.04009
425.79210,0.04880
424.30231,0.04688
422.81252,0.04500
421.32273,0.04334
419.83295,0.04334
418.34316,0.03457
416.85337,0.02582
415.36358,0.00830
413.87379,0.00410
412.38400,0.01913
410.89422,0.03419
409.40443,0.03842
407.91464,0.04063
406.42485,0.05432
404.93506,0.05597
403.44527,0.05764
401.95548,0.04991
400.46570,0.02338
398.97591,0.03096
397.48612,0.03856
395.99633,0.05550
394.50654,0.05690
393.01675,0.05198
391.52697,0.04709
390.03718,0.01418
388.54739,0.03005
387.05760,0.02404
385.56781,0.01805
384.07802,0.00451
382.58824,0.01792
381.09845,0.01774
379.60866,0.01758
378.11887,0.00199
376.62908,0.00669
375.13929,0.00333
373.64950,0.00000
372.15972,0.01281
370.66993,0.02319
369.18014,0.02061
367.69035,0.01806
366.20056,0.01533
364.71077,0.02429
363.22099,0.01731
361.73120,0.01035
360.24141,0.05521
358.75162,0.06345
357.26183,0.05759
355.77204,0.05175
354.28225,0.06702
352.79247,0.05673
351.30268,0.05977
349.81289,0.06284
348.32310,0.07370
346.83331,0.06944
345.34352,0.07453
343.85374,0.07963
342.36395,0.08486
340.87416,0.06781
339.38437,0.04832
337.89458,0.02886
336.40479,0.00410
334.91501,0.01833
333.42522,0.01734
331.93543,0.01637
330.44564,0.01983
328.95585,0.04542
327.46606,0.04084
325.97627,0.03628
324.48649,0.03308
322.99670,0.04649
321.50691,0.04047
320.01712,0.03448
318.52733,0.07640
317.03754,0.05654
315.54776,0.05717
314.05797,0.05783
312.56818,0.08143
311.07839,0.07538
309.58860,0.05717
308.09881,0.03899
306.60902,0.01827
305.11924,0.02665
303.62945,0.02911
302.13966,0.03160
300.64987,0.00566
299.16008,0.00410
