1778.52000,0.01147
1777.03021,0.01396
1775.54042,0.01063
1774.05063,0.03145
1772.56085,0.01117
1771.07106,0.02340
1769.58127,0.01154
1768.09148,0.01164
1766.60169,0.01887
1765.11190,0.00835
1763.62212,0.01284
1762.13233,0.00288
1760.64254,0.01021
1759.15275,0.00436
1757.66296,0.01149
1756.17317,0.00518
1754.68339,0.01845
1753.19360,-0.00000
1751.70381,0.00113
1750.21402,0.01193
1748.72423,0.00397
1747.23444,0.01330
1745.74465,0.00589
1744.25487,0.01070
1742.76508,0.00436
1741.27529,0.01242
1739.78550,0.00629
1738.29571,0.01415
1736.80592,0.01391
1735.31614,0.01598
1733.82635,0.00715
1732.33656,0.00470
1730.84677,0.00963
1729.35698,0.01561
1727.86719,0.01348
1726.37740,0.01595
1724.88762,0.00778
1723.39783,0.02553
1721.90804,0.00167
1720.41825,0.01181
1718.92846,0.01233
1717.43867,0.00576
1715.94889,0.01241
1714.45910,0.00869
1712.96931,0.00524
1711.47952,0.01502
1709.98973,0.00705
1708.49994,0.01205
1707.01016,0.00819
1705.52037,0.00436
1704.03058,0.01995
1702.54079,0.00940
1701.05100,0.01514
1699.56121,0.02115
1698.07142,0.03150
1696.58164,0.02080
1695.09185,0.01597
1693.60206,0.02360
1692.11227,0.01881
1690.62248,0.02091
1689.13269,0.02049
1687.64291,0.02162
1686.15312,0.03141
1684.66333,0.03182
1683.17354,0.03455
1681.68375,0.03197
1680.19396,0.03830
1678.70417,0.03069
1677.21439,0.04773
1675.72460,0.04474
1674.23481,0.06666
1672.74502,0.05635
1671.25523,0.04811
1669.76544,0.06095
1668.27566,0.06443
1666.78587,0.07835
1665.29608,0.07807
1663.80629,0.08035
1662.31650,0.08038
1660.82671,0.08246
1659.33693,0.08101
1657.84714,0.07222
1656.35735,0.07335
1654.86756,0.07782
1653.37777,0.09297
1651.88798,0.09012
1650.39819,0.08247
1648.90841,0.09464
1647.41862,0.08374
1645.92883,0.08531
1644.43904,0.08689
1642.94925,0.07860
1641.45946,0.09776
1639.96968,0.08647
1638.47989,0.09375
1636.99010,0.07997
1635.50031,0.07663
1634.01052,0.08626
1632.52073,0.08626
1631.03094,0.09645
1629.54116,0.09651
1628.05137,0.10903
1626.56158,0.10837
1625.07179,0.11384
1623.58200,0.11348
1622.09221,0.10655
1620.60243,0.10752
1619.11264,0.11359
1617.62285,0.09784
1616.13306,0.09787
1614.64327,0.11163
1613.15348,0.09570
1611.66370,0.08615
1610.17391,0.09211
1608.68412,0.08921
1607.19433,0.10233
1605.70454,0.11142
1604.21475,0.10630
1602.72496,0.10122
1601.23518,0.09793
1599.74539,0.09873
1598.25560,0.07849
1596.76581,0.07502
1595.27602,0.08402
1593.78623,0.09051
1592.29645,0.08966
1590.80666,0.09568
1589.31687,0.06213
1587.82708,0.07023
1586.33729,0.07608
1584.84750,0.07484
1583.35771,0.07795
1581.86793,0.07473
1580.37814,0.08169
1578.88835,0.07065
1577.39856,0.06496
1575.90877,0.06006
1574.41898,0.05367
1572.92920,0.04145
1571.43941,0.04044
1569.94962,0.04186
1568.45983,0.04330
1566.97004,0.03398
1565.48025,0.03509
1563.99047,0.04207
1562.50068,0.03105
1561.01089,0.03147
1559.52110,0.03598
1558.03131,0.02402
1556.54152,0.02325
1555.05173,0.03418
1553.56195,0.01365
1552.07216,0.01880
1550.58237,0.00949
1549.09258,0.01087
1547.60279,0.00746
1546.11300,0.00508
1544.62322,0.01162
1543.13343,0.00142
1541.64364,0.00201
1540.15385,0.00529
1538.66406,0.00859
1537.17427,0.01256
1535.68448,0.00436
1534.19470,0.01875
1532.70491,0.00981
1531.21512,0.01410
1529.72533,0.02603
1528.23554,0.00701
1526.74575,0.02432
1525.25597,0.02642
1523.76618,0.01712
1522.27639,0.02308
1520.78660,0.02830
1519.29681,0.02643
1517.80702,0.04465
1516.31724,0.03344
1514.82745,0.04892
1513.33766,0.04969
1511.84787,0.05049
1510.35808,0.03227
1508.86829,0.04023
1507.37850,0.03932
1505.88872,0.04174
1504.39893,0.03759
1502.90914,0.04590
1501.41935,0.05524
1499.92956,0.07325
1498.43977,0.05294
1496.94999,0.05348
1495.46020,0.07892
1493.97041,0.09220
1492.48062,0.09560
1490.99083,0.09776
1489.50104,0.12406
1488.01125,0.12653
1486.52147,0.12901
1485.03168,0.13152
1483.54189,0.16656
1482.05210,0.21279
1480.56231,0.20597
1479.07252,0.22610
1477.58274,0.23407
1476.09295,0.23545
1474.60316,0.22722
1473.11337,0.24643
1471.62358,0.27480
1470.13379,0.26233
1468.64401,0.28186
1467.15422,0.31844
1465.66443,0.33549
1464.17464,0.35256
1462.68485,0.37321
1461.19506,0.40836
1459.70527,0.45216
1458.21549,0.48101
1456.72570,0.58936
1455.23591,0.61953
1453.74612,0.62763
1452.25633,0.68146
1450.76654,0.67743
1449.27676,0.68840
1447.78697,0.69051
1446.29718,0.66497
1444.80739,0.63983
1443.31760,0.61472
1441.82781,0.59331
1440.33802,0.53740
1438.84824,0.49726
1437.35845,0.47186
1435.86866,0.47112
1434.37887,0.50646
1432.88908,0.53953
1431.39929,0.59447
1429.90951,0.66035
1428.41972,0.76027
1426.92993,0.80107
1425.44014,0.81954
1423.95035,0.84680
1422.46056,0.87408
1420.97078,0.91979
1419.48099,0.90409
1417.99120,0.89501
1416.50141,0.94892
1415.01162,0.91348
1413.52183,0.86792
1412.03204,0.82136
1410.54226,0.72456
1409.05247,0.67525
1407.56268,0.59703
1406.07289,0.55616
1404.58310,0.52851
1403.09331,0.50089
1401.60353,0.43902
1400.11374,0.38529
1398.62395,0.35698
1397.13416,0.27970
1395.64437,0.24661
1394.15458,0.19553
1392.66479,0.16071
1391.17501,0.14801
1389.68522,0.14448
1388.19543,0.12015
1386.70564,0.11057
1385.21585,0.10102
1383.72606,0.08870
1382.23628,0.05989
1380.74649,0.03696
1379.25670,0.02471
1377.76691,0.03000
1376.27712,0.00714
1374.78733,0.00436
1373.29755,0.02130
1371.80776,0.02023
1370.31797,0.00548
1368.82818,0.00619
1367.33839,0.00692
1365.84860,0.02950
1364.35881,0.02673
1362.86903,0.03997
1361.37924,0.07812
1359.88945,0.10258
1358.39966,0.11869
1356.90987,0.14092
1355.42008,0.18171
1353.93030,0.23953
1352.44051,0.26437
1350.95072,0.28924
1349.46093,0.34637
1347.97114,0.43984
1346.48135,0.52241
1344.99156,0.60958
1343.50178,0.67544
1342.01199,0.69716
1340.52220,0.78465
1339.03241,0.87268
1337.54262,0.89320
1336.05283,0.89558
1334.56305,0.89799
1333.07326,0.95870
1331.58347,1.01258
1330.09368,0.99564
1328.60389,0.98736
1327.11410,0.93111
1325.62432,0.86245
1324.13453,0.85272
1322.64474,0.80290
1321.15495,0.80338
1319.66516,0.77138
1318.17537,0.73940
1316.68558,0.67749
1315.19580,0.62678
1313.70601,0.55196
1312.21622,0.52872
1310.72643,0.50093
1309.23664,0.47266
1307.74685,0.46269
1306.25707,0.41415
1304.76728,0.39332
1303.27749,0.37250
1301.78770,0.31439
1300.29791,0.26291
1298.80812,0.21780
1297.31834,0.17956
1295.82855,0.17589
1294.33876,0.16462
1292.84897,0.12722
1291.35918,0.10889
1289.86939,0.11039
1288.37960,0.11191
1286.88982,0.09391
1285.40003,0.08101
1283.91024,0.07727
1282.42045,0.06924
1280.93066,0.05997
1279.44087,0.05606
1277.95109,0.04100
1276.46130,0.04475
1274.97151,0.04852
1273.48172,0.05232
1271.99193,0.06097
1270.50214,0.03460
1269.01235,0.03949
1267.52257,0.02486
1266.03278,0.02345
1264.54299,0.03298
1263.05320,0.02959
1261.56341,0.01988
1260.07362,0.01019
1258.58384,0.01220
1257.09405,0.00561
1255.60426,0.00919
1254.11447,0.02093
1252.62468,0.01263
1251.13489,0.00436
1249.64511,0.01586
1248.15532,0.01545
1246.66553,0.01722
1245.17574,0.01902
1243.68595,0.01944
1242.19616,0.02116
1240.70637,0.00615
1239.21659,0.00487
1237.72680,0.02418
1236.23701,0.03031
1234.74722,0.03343
1233.25743,0.03275
1231.76764,0.03211
1230.27786,0.01752
1228.78807,0.01463
1227.29828,0.02269
1225.80849,0.01757
1224.31870,0.00537
1222.82891,0.00436
1221.33912,0.01451
1219.84934,0.02658
1218.35955,0.03869
1216.86976,0.05932
1215.37997,0.07718
1213.89018,0.08263
1212.40039,0.08683
1210.91061,0.05830
1209.42082,0.07956
1207.93103,0.07495
1206.44124,0.07037
1204.95145,0.07799
1203.46166,0.06457
1201.97188,0.06513
1200.48209,0.07461
1198.99230,0.06608
1197.50251,0.04184
1196.01272,0.04885
1194.52293,0.04611
1193.03314,0.04339
1191.54336,0.02458
1190.05357,0.02382
1188.56378,0.01090
1187.07399,0.02339
1185.58420,0.01864
1184.09441,0.03092
1182.60463,0.02470
1181.11484,0.01850
1179.62505,0.02400
1178.13526,0.02724
1176.64547,0.00436
1175.15568,0.01729
1173.66589,0.01274
1172.17611,0.00414
1170.68632,0.00424
1169.19653,0.00436
1167.70674,0.00874
1166.21695,0.02152
1164.72716,0.04701
1163.23738,0.05273
1161.74759,0.04223
1160.25780,0.05587
1158.76801,0.05252
1157.27822,0.04919
1155.78843,0.06240
1154.29865,0.07080
1152.80886,0.08177
1151.31907,0.09201
1149.82928,0.11420
1148.33949,0.12168
1146.84970,0.11257
1145.35991,0.10347
1143.87013,0.13236
1142.38034,0.15645
1140.89055,0.13969
1139.40076,0.16357
1137.91097,0.16920
1136.42118,0.19085
1134.93140,0.19983
1133.44161,0.20883
1131.95182,0.23157
1130.46203,0.24291
1128.97224,0.23345
1127.48245,0.23900
1125.99266,0.23594
1124.50288,0.24839
1123.01309,0.22976
1121.52330,0.21116
1120.03351,0.20896
1118.54372,0.21465
1117.05393,0.22012
1115.56415,0.22739
1114.07436,0.25271
1112.58457,0.24491
1111.09478,0.23715
1109.60499,0.21024
1108.11520,0.21585
1106.62542,0.22149
1105.13563,0.23984
1103.64584,0.21328
1102.15605,0.21392
1100.66626,0.20988
1099.17647,0.20586
1097.68668,0.19794
1096.19690,0.20146
1094.70711,0.19384
1093.21732,0.19716
1091.72753,0.17892
1090.23774,0.17556
1088.74795,0.17223
1087.25817,0.19392
1085.76838,0.17502
1084.27859,0.17037
1082.78880,0.18020
1081.29901,0.19641
1079.80922,0.18675
1078.31943,0.19654
1076.82965,0.20635
1075.33986,0.20945
1073.85007,0.22680
1072.36028,0.23808
1070.87049,0.25650
1069.38070,0.26605
1067.89092,0.27994
1066.40113,0.29386
1064.91134,0.34716
1063.42155,0.40023
1061.93176,0.52187
1060.44197,0.65547
1058.95219,0.74492
1057.46240,0.79072
1055.97261,0.83655
1054.48282,0.90982
1052.99303,0.95646
1051.50324,0.97291
1050.01345,0.99725
1048.52367,0.93123
1047.03388,0.92947
1045.54409,0.92774
1044.05430,0.90826
1042.56451,0.81339
1041.07472,0.75638
1039.58494,0.65293
1038.09515,0.57591
1036.60536,0.55186
1035.11557,0.52783
1033.62578,0.43946
1032.13599,0.39478
1030.64620,0.34734
1029.15642,0.30449
1027.66663,0.28515
1026.17684,0.26583
1024.68705,0.23144
1023.19726,0.18996
1021.70747,0.18379
1020.21769,0.14160
1018.72790,0.11999
1017.23811,0.11974
1015.74832,0.11952
1014.25853,0.10332
1012.76874,0.09755
1011.27896,0.09689
1009.78917,0.10971
1008.29938,0.08371
1006.80959,0.06726
1005.31980,0.05082
1003.83001,0.04445
1002.34022,0.04571
1000.85044,0.03760
999.36065,0.03816
997.87086,0.03810
996.38107,0.03806
994.89128,0.08490
993.40149,0.10586
991.91171,0.10476
990.42192,0.13846
988.93213,0.16203
987.44234,0.16811
985.95255,0.17422
984.46276,0.15140
982.97297,0.13141
981.48319,0.13022
979.99340,0.08869
978.50361,0.08121
977.01382,0.07375
975.52403,0.05260
974.03424,0.04900
972.54446,0.02410
971.05467,0.02283
969.56488,0.00432
968.07509,0.00447
966.58530,0.00436
965.09551,0.02545
963.60573,0.02193
962.11594,0.00626
960.62615,0.01396
959.13636,0.01458
957.64657,0.01523
956.15678,0.00270
954.66699,0.03005
953.17721,0.03103
951.68742,0.04421
950.19763,0.04270
948.70784,0.04120
947.21805,0.05116
945.72826,0.07511
944.23848,0.08994
942.74869,0.11191
941.25890,0.13212
939.76911,0.13801
938.27932,0.14393
936.78953,0.16777
935.29974,0.16574
933.80996,0.18658
932.32017,0.19628
930.83038,0.18581
929.34059,0.17537
927.85080,0.21637
926.36101,0.26527
924.87123,0.32866
923.38144,0.37329
921.89165,0.42149
920.40186,0.46973
918.91207,0.56597
917.42228,0.70997
915.93250,0.84866
914.44271,1.06076
912.95292,1.16776
911.46313,1.27479
909.97334,1.45421
908.48355,1.62882
906.99376,1.85196
905.50398,1.96238
904.01419,1.98118
902.52440,2.00000
901.03461,1.95918
899.54482,1.88639
898.05503,1.75447
896.56525,1.58601
895.07546,1.46772
893.58567,1.34946
892.09588,1.09170
890.60609,0.86698
889.11630,0.64075
887.62651,0.47600
886.13673,0.42730
884.64694,0.37862
883.15715,0.26649
881.66736,0.19756
880.17757,0.13854
878.68778,0.12374
877.19800,0.10895
875.70821,0.08353
874.21842,0.07641
872.72863,0.06805
871.23884,0.05082
869.74905,0.03984
868.25927,0.02889
866.76948,0.00539
865.27969,0.02432
863.78990,0.05748
862.30011,0.04929
860.81032,0.05395
859.32053,0.05863
857.83075,0.07438
856.34096,0.11808
854.85117,0.13413
853.36138,0.15376
851.87159,0.15412
850.38180,0.15451
848.89202,0.19732
847.40223,0.19623
845.91244,0.19110
844.42265,0.20847
842.93286,0.22586
841.44307,0.26524
839.95329,0.27646
838.46350,0.30370
836.97371,0.28196
835.48392,0.29922
833.99413,0.31650
832.50434,0.30246
831.01455,0.28666
829.52477,0.24067
828.03498,0.20232
826.54519,0.18812
825.05540,0.17394
823.56561,0.18518
822.07582,0.17942
820.58604,0.15186
819.09625,0.14832
817.60646,0.14480
816.11667,0.12493
814.62688,0.13809
813.13709,0.16169
811.64730,0.14011
810.15752,0.14979
808.66773,0.15950
807.17794,0.16364
805.68815,0.15359
804.19836,0.14281
802.70857,0.15032
801.21879,0.15787
799.72900,0.13903
798.23921,0.12859
796.74942,0.12682
795.25963,0.12570
793.76984,0.12460
792.28006,0.15083
790.79027,0.16667
789.30048,0.17821
787.81069,0.20984
786.32090,0.22766
784.83111,0.24550
783.34132,0.27822
781.85154,0.30944
780.36175,0.35414
778.87196,0.36282
777.38217,0.37152
775.89238,0.39522
774.40259,0.40574
772.91281,0.40537
771.42302,0.40845
769.93323,0.41156
768.44344,0.34881
766.95365,0.27592
765.46386,0.24724
763.97407,0.19852
762.48429,0.17839
760.99450,0.15829
759.50471,0.14291
758.01492,0.12476
756.52513,0.11730
755.03534,0.11291
753.54556,0.10854
752.05577,0.08795
750.56598,0.08236
749.07619,0.06131
747.58640,0.05667
746.09661,0.05204
744.60683,0.03081
743.11704,0.03525
741.62725,0.02600
740.13746,0.02897
738.64767,0.03196
737.15788,0.02507
735.66809,0.01059
734.17831,0.00908
732.68852,0.00671
731.19873,0.00436
729.70894,0.02727
728.21915,0.01034
726.72936,0.00842
725.23958,0.02564
723.74979,0.02028
722.26000,0.01495
720.77021,0.01040
719.28042,0.00436
717.79063,0.01510
716.30084,0.01812
714.81106,0.02116
713.32127,0.02156
711.83148,0.03240
710.34169,0.02625
708.85190,0.02495
707.36211,0.02367
705.87233,0.03334
704.38254,0.02475
702.89275,0.04360
701.40296,0.04306
699.91317,0.04254
698.42338,0.05690
696.93360,0.07534
695.44381,0.09483
693.95402,0.10177
692.46423,0.10873
690.97444,0.12169
689.48465,0.15829
687.99486,0.15682
686.50508,0.16858
685.01529,0.18037
683.52550,0.20538
682.03571,0.21722
680.54592,0.24508
679.05613,0.24681
677.56635,0.24856
676.07656,0.24526
674.58677,0.24325
673.09698,0.21918
671.60719,0.20517
670.11740,0.19117
668.62761,0.17352
667.13783,0.15996
665.64804,0.14947
664.15825,0.13901
662.66846,0.11866
661.17867,0.09428
659.68888,0.08059
658.19910,0.06387
656.70931,0.04718
655.21952,0.04169
653.72973,0.03088
652.23994,0.04829
650.75015,0.04769
649.26037,0.04712
647.77058,0.04378
646.28079,0.03005
644.79100,0.03387
643.30121,0.03581
641.81142,0.03777
640.32163,0.04852
638.83185,0.04355
637.34206,0.01727
635.85227,0.01489
634.36248,0.01253
632.87269,0.00436
631.38290,0.01682
629.89312,0.01635
628.40333,0.02023
626.91354,0.02413
625.42375,0.02653
623.93396,0.03708
622.44417,0.04448
620.95438,0.05191
619.46460,0.04248
617.97481,0.06252
616.48502,0.08970
614.99523,0.09849
613.50544,0.10731
612.01565,0.13202
610.52587,0.15777
609.03608,0.18507
607.54629,0.21113
606.05650,0.23721
604.56671,0.27448
603.07692,0.31508
601.58714,0.34441
600.09735,0.37376
598.60756,0.42129
597.11777,0.43635
595.62798,0.41207
594.13819,0.42972
592.64840,0.44739
591.15862,0.37494
589.66883,0.32792
588.17904,0.28295
586.68925,0.26390
585.19946,0.24487
583.70967,0.19109
582.21989,0.14469
580.73010,0.12295
579.24031,0.10123
577.75052,0.09883
576.26073,0.09798
574.77094,0.09005
573.28115,0.08290
571.79137,0.07578
570.30158,0.09331
568.81179,0.08801
567.32200,0.10203
565.83221,0.11608
564.34242,0.13168
562.85264,0.14298
561.36285,0.18199
559.87306,0.18940
558.38327,0.19685
556.89348,0.19682
555.40369,0.21917
553.91391,0.24344
552.42412,0.26774
550.93433,0.26705
549.44454,0.23618
547.95475,0.24671
546.46496,0.24382
544.97517,0.24094
543.48539,0.27059
541.99560,0.28757
540.50581,0.32032
539.01602,0.35309
537.52623,0.40671
536.03644,0.45603
534.54666,0.47440
533.05687,0.48150
531.56708,0.48863
530.07729,0.54465
528.58750,0.60247
527.09771,0.61653
525.60792,0.63060
524.11814,0.66184
522.62835,0.72104
521.13856,0.79117
519.64877,0.82718
518.15898,0.86322
516.66919,0.85903
515.17941,0.87646
513.68962,0.87994
512.19983,0.88345
510.71004,0.84229
509.22025,0.78237
507.73046,0.75269
506.24068,0.70362
504.75089,0.65456
503.26110,0.51476
501.77131,0.39632
500.28152,0.35381
498.79173,0.31133
497.30194,0.23587
495.81216,0.22898
494.32237,0.19648
492.83258,0.16400
491.34279,0.15744
489.85300,0.14456
488.36321,0.15430
486.87343,0.12737
485.38364,0.10048
483.89385,0.08185
482.40406,0.11810
480.91427,0.12910
479.42448,0.14013
477.93469,0.14573
476.44491,0.16658
474.95512,0.18695
473.46533,0.20735
471.97554,0.22599
470.48575,0.22714
468.99596,0.22933
467.50618,0.22088
466.01639,0.21245
464.52660,0.14972
463.03681,0.12484
461.54702,0.11572
460.05723,0.10664
458.56745,0.04197
457.07766,0.04054
455.58787,0.04334
454.09808,0.04615
452.60829,0.06511
451.11850,0.06582
449.62871,0.04802
448.13893,0.03024
446.64914,0.01528
445.15935,0.01938
443.66956,0.01691
442.17977,0.02843
440.68998,0.03997
439.20020,0.04189
437.71041,0.04612
436.22062,0.03755
434.73083,0.02900
433.24104,0.00436
431.75125,0.04716
430.26146,0.05494
428.77168,0.06274
427.28189,0.07464
425.79210,0.08072
424.30231,0.07552
422.81252,0.07035
421.32273,0.05061
419.83295,0.04586
418.34316,0.03823
416.85337,0.03062
415.36358,0.05159
413.87379,0.03553
412.38400,0.04398
410.89422,0.05247
409.40443,0.05577
407.91464,0.07915
406.42485,0.06143
404.93506,0.05567
403.44527,0.04993
401.95548,0.05640
400.46570,0.04106
398.97591,0.04034
397.48612,0.03965
395.99633,0.05993
394.50654,0.06729
393.01675,0.05093
391.52697,0.03460
390.03718,0.02400
388.54739,0.02918
387.05760,0.03006
385.56781,0.03097
384.07802,0.03521
382.58824,0.03642
381.09845,0.04960
379.60866,0.06279
378.11887,0.02650
376.62908,0.01613
375.13929,0.01024
373.64950,0.00436
372.15972,0.03538
370.66993,0.04382
369.18014,0.04135
367.69035,0.03889
366.20056,0.05170
364.71077,0.05158
363.22099,0.05199
361.73120,0.05243
360.24141,0.06915
358.75162,0.08334
357.26183,0.07700
355.77204,0.07068
354.28225,0.08216
352.79247,0.08300
351.30268,0.07765
349.81289,0.07232
348.32310,0.07805
346.83331,0.05995
345.34352,0.06168
343.85374,0.06342
342.36395,0.10049
340.87416,0.08553
339.38437,0.05663
337.89458,0.02776
336.40479,0.01338
334.91501,0.00436
333.42522,0.01677
331.93543,0.02921
330.44564,0.01349
328.95585,0.05771
327.46606,0.05258
325.97627,0.04747
324.48649,0.04301
322.99670,0.04950
321.50691,0.04688
320.01712,0.04428
318.52733,0.05643
317.03754,0.08333
315.54776,0.08817
314.05797,0.09303
312.56818,0.09867
311.07839,0.08480
309.58860,0.07005
308.09881,0.05534
306.60902,0.03696
305.11924,0.02597
303.62945,0.01844
302.13966,0.00758
300.64987,0.00436
299.16008,0.00436
