1778.52000,0.00157
1777.03021,0.01357
1775.54042,0.00615
1774.05063,0.01151
1772.56085,0.01208
1771.07106,0.00620
1769.58127,0.01205
1768.09148,0.00788
1766.60169,0.01064
1765.11190,0.01447
1763.62212,0.00640
1762.13233,0.00609
1760.64254,0.00623
1759.15275,0.00932
1757.66296,0.00887
1756.17317,0.00845
1754.68339,0.01475
1753.19360,0.01124
1751.70381,0.00796
1750.21402,0.00889
1748.72423,0.00838
1747.23444,0.00936
1745.74465,0.01140
1744.25487,0.00636
1742.76508,0.01556
1741.27529,0.01663
1739.78550,0.01103
1738.29571,0.01278
1736.80592,0.01580
1735.31614,0.01989
1733.82635,0.01230
1732.33656,0.01372
1730.84677,0.01349
1729.35698,0.01496
1727.86719,0.01436
1726.37740,0.01964
1724.88762,0.00654
1723.39783,0.01437
1721.90804,0.01408
1720.41825,0.00775
1718.92846,0.00959
1717.43867,0.00623
1715.94889,0.02419
1714.45910,0.01353
1712.96931,0.01397
1711.47952,0.01674
1709.98973,0.00866
1708.49994,0.01712
1707.01016,0.01505
1705.52037,0.01300
1704.03058,0.01107
1702.54079,0.00834
1701.05100,0.00793
1699.56121,0.01569
1698.07142,0.00843
1696.58164,0.00935
1695.09185,0.01509
1693.60206,0.00623
1692.11227,0.01257
1690.62248,0.01119
1689.13269,0.02949
1687.64291,0.02649
1686.15312,0.02540
1684.66333,0.02328
1683.17354,0.01052
1681.68375,0.02602
1680.19396,0.02000
1678.70417,0.02676
1677.21439,0.02831
1675.72460,0.03951
1674.23481,0.04634
1672.74502,0.04671
1671.25523,0.04983
1669.76544,0.04398
1668.27566,0.04547
1666.78587,0.05116
1665.29608,0.06503
1663.80629,0.07036
1662.31650,0.07780
1660.82671,0.08547
1659.33693,0.07163
1657.84714,0.08227
1656.35735,0.08103
1654.86756,0.07437
1653.37777,0.07735
1651.88798,0.07617
1650.39819,0.07795
1648.90841,0.09083
1647.41862,0.08282
1645.92883,0.08268
1644.43904,0.08257
1642.94925,0.09680
1641.45946,0.08638
1639.96968,0.08916
1638.47989,0.10011
1636.99010,0.09917
1635.50031,0.09031
1634.01052,0.08462
1632.52073,0.09316
1631.03094,0.08437
1629.54116,0.10320
1628.05137,0.09404
1626.56158,0.09494
1625.07179,0.09378
1623.58200,0.09724
1622.09221,0.09988
1620.60243,0.09774
1619.11264,0.10043
1617.62285,0.10336
1616.13306,0.10735
1614.64327,0.08147
1613.15348,0.08489
1611.66370,0.09083
1610.17391,0.09638
1608.68412,0.09862
1607.19433,0.11237
1605.70454,0.11486
1604.21475,0.11193
1602.72496,0.10903
1601.23518,0.09131
1599.74539,0.09243
1598.25560,0.07162
1596.76581,0.08931
1595.27602,0.08443
1593.78623,0.08899
1592.29645,0.09985
1590.80666,0.07874
1589.31687,0.08463
1587.82708,0.07695
1586.33729,0.08434
1584.84750,0.07378
1583.35771,0.07474
1581.86793,0.08305
1580.37814,0.08050
1578.88835,0.06502
1577.39856,0.07193
1575.90877,0.07573
1574.41898,0.08227
1572.92920,0.05685
1571.43941,0.06344
1569.94962,0.05322
1568.45983,0.04303
1566.97004,0.04174
1565.48025,0.05198
1563.99047,0.04865
1562.50068,0.03929
1561.01089,0.03684
1559.52110,0.03421
1558.03131,0.01927
1556.54152,0.03530
1555.05173,0.03316
1553.56195,0.02832
1552.07216,0.01745
1550.58237,0.01036
1549.09258,0.02086
1547.60279,0.01278
1546.11300,0.01057
1544.62322,0.01236
1543.13343,0.00623
1541.64364,0.01858
1540.15385,0.01600
1538.66406,0.01345
1537.17427,0.00852
1535.68448,0.01853
1534.19470,0.01727
1532.70491,0.02545
1531.21512,0.01880
1529.72533,0.01009
1528.23554,0.02503
1526.74575,0.02974
1525.25597,0.01839
1523.76618,0.02566
1522.27639,0.02271
1520.78660,0.03191
1519.29681,0.03299
1517.80702,0.03931
1516.31724,0.04398
1514.82745,0.04638
1513.33766,0.04807
1511.84787,0.04979
1510.35808,0.06396
1508.86829,0.05057
1507.37850,0.04932
1505.88872,0.05291
1504.39893,0.06153
1502.90914,0.04740
1501.41935,0.04980
1499.92956,0.06749
1498.43977,0.06764
1496.94999,0.08224
1495.46020,0.08892
1493.97041,0.09457
1492.48062,0.10255
1490.99083,0.10115
1489.50104,0.11106
1488.01125,0.10688
1486.52147,0.10273
1485.03168,0.15912
1483.54189,0.18502
1482.05210,0.19776
1480.56231,0.21074
1479.07252,0.21183
1477.58274,0.22465
1476.09295,0.21512
1474.60316,0.22297
1473.11337,0.23899
1471.62358,0.24312
1470.13379,0.24853
1468.64401,0.26066
1467.15422,0.28556
1465.66443,0.28843
1464.17464,0.29132
1462.68485,0.33114
1461.19506,0.34631
1459.70527,0.40059
1458.21549,0.49860
1456.72570,0.51280
1455.23591,0.56026
1453.74612,0.60377
1452.25633,0.63100
1450.76654,0.65428
1449.27676,0.66650
1447.78697,0.66223
1446.29718,0.64419
1444.80739,0.63997
1443.31760,0.63577
1441.82781,0.59000
1440.33802,0.52585
1438.84824,0.46465
1437.35845,0.46786
1435.86866,0.45584
1434.37887,0.48252
1432.88908,0.52887
1431.39929,0.58319
1429.90951,0.65552
1428.41972,0.74961
1426.92993,0.76449
1425.44014,0.80009
1423.95035,0.82840
1422.46056,0.85673
1420.97078,0.87714
1419.48099,0.90426
1417.99120,0.89566
1416.50141,0.88709
1415.01162,0.85700
1413.52183,0.81983
1412.03204,0.76010
1410.54226,0.72653
1409.05247,0.68107
1407.56268,0.62100
1406.07289,0.56555
1404.58310,0.53322
1403.09331,0.50092
1401.60353,0.43634
1400.11374,0.40963
1398.62395,0.37750
1397.13416,0.30714
1395.64437,0.25813
1394.15458,0.22022
1392.66479,0.18401
1391.17501,0.15640
1389.68522,0.13257
1388.19543,0.11378
1386.70564,0.10066
1385.21585,0.08756
1383.72606,0.05756
1382.23628,0.05120
1380.74649,0.04194
1379.25670,0.03333
1377.76691,0.01157
1376.27712,0.02726
1374.78733,0.01286
1373.29755,0.00623
1371.80776,0.01281
1370.31797,0.01376
1368.82818,0.01579
1367.33839,0.01784
1365.84860,0.02702
1364.35881,0.02932
1362.86903,0.04148
1361.37924,0.06871
1359.88945,0.09408
1358.39966,0.10275
1356.90987,0.11667
1355.42008,0.16282
1353.93030,0.22153
1352.44051,0.25820
1350.95072,0.29490
1349.46093,0.35222
1347.97114,0.41688
1346.48135,0.49933
1344.99156,0.54815
1343.50178,0.64089
1342.01199,0.69122
1340.52220,0.77585
1339.03241,0.81849
1337.54262,0.81015
1336.05283,0.82963
1334.56305,0.84913
1333.07326,0.92699
1331.58347,0.91686
1330.09368,0.90570
1328.60389,0.90042
1327.11410,0.85440
1325.62432,0.83370
1324.13453,0.79567
1322.64474,0.78024
1321.15495,0.77613
1319.66516,0.74120
1318.17537,0.70630
1316.68558,0.64895
1315.19580,0.58388
1313.70601,0.56337
1312.21622,0.53222
1310.72643,0.51239
1309.23664,0.45641
1307.74685,0.41717
1306.25707,0.37713
1304.76728,0.36586
1303.27749,0.35461
1301.78770,0.29624
1300.29791,0.24061
1298.80812,0.21971
1297.31834,0.19444
1295.82855,0.16230
1294.33876,0.14858
1292.84897,0.12694
1291.35918,0.10427
1289.86939,0.10139
1288.37960,0.09853
1286.88982,0.09434
1285.40003,0.10731
1283.91024,0.08727
1282.42045,0.07771
1280.93066,0.05772
1279.44087,0.05574
1277.95109,0.04291
1276.46130,0.03971
1274.97151,0.04177
1273.48172,0.04386
1271.99193,0.03885
1270.50214,0.03868
1269.01235,0.02286
1267.52257,0.03172
1266.03278,0.02619
1264.54299,0.04096
1263.05320,0.04091
1261.56341,0.03607
1260.07362,0.03126
1258.58384,0.02814
1257.09405,0.02735
1255.60426,0.02637
1254.11447,0.03085
1252.62468,0.02073
1251.13489,0.00623
1249.64511,0.01189
1248.15532,0.01758
1246.66553,0.01827
1245.17574,0.01898
1243.68595,0.02599
1242.19616,0.01735
1240.70637,0.02691
1239.21659,0.02856
1237.72680,0.02459
1236.23701,0.02461
1234.74722,0.02444
1233.25743,0.02263
1231.76764,0.02084
1230.27786,0.02284
1228.78807,0.02382
1227.29828,0.01060
1225.80849,0.01581
1224.31870,0.01016
1222.82891,0.00726
1221.33912,0.02153
1219.84934,0.02881
1218.35955,0.03612
1216.86976,0.06301
1215.37997,0.05646
1213.89018,0.06520
1212.40039,0.06477
1210.91061,0.07293
1209.42082,0.07212
1207.93103,0.06862
1206.44124,0.06515
1204.95145,0.06337
1203.46166,0.05429
1201.97188,0.07159
1200.48209,0.04918
1198.99230,0.05210
1197.50251,0.04312
1196.01272,0.04315
1194.52293,0.04217
1193.03314,0.04121
1191.54336,0.03588
1190.05357,0.03120
1188.56378,0.02592
1187.07399,0.04052
1185.58420,0.03027
1184.09441,0.02653
1182.60463,0.01935
1181.11484,0.01221
1179.62505,0.00623
1178.13526,0.01729
1176.64547,0.02315
1175.15568,0.02987
1173.66589,0.02595
1172.17611,0.02142
1170.68632,0.01473
1169.19653,0.00806
1167.70674,0.02388
1166.21695,0.03702
1164.72716,0.04474
1163.23738,0.03722
1161.74759,0.05795
1160.25780,0.09020
1158.76801,0.07993
1157.27822,0.06969
1155.78843,0.07797
1154.29865,0.07373
1152.80886,0.08875
1151.31907,0.11236
1149.82928,0.13705
1148.33949,0.13165
1146.84970,0.14007
1145.35991,0.14852
1143.87013,0.16828
1142.38034,0.17531
1140.89055,0.17923
1139.40076,0.18590
1137.91097,0.19969
1136.42118,0.21288
1134.93140,0.21543
1133.44161,0.21800
1131.95182,0.24005
1130.46203,0.25626
1128.97224,0.25012
1127.48245,0.26116
1125.99266,0.26385
1124.50288,0.25674
1123.01309,0.25844
1121.52330,0.26016
1120.03351,0.26754
1118.54372,0.24590
1117.05393,0.24372
1115.56415,0.25891
1114.07436,0.26221
1112.58457,0.25352
1111.09478,0.24485
1109.60499,0.23818
1108.11520,0.24284
1106.62542,0.24897
1105.13563,0.27500
1103.64584,0.24982
1102.15605,0.25290
1100.66626,0.23990
1099.17647,0.22692
1097.68668,0.23258
1096.19690,0.22299
1094.70711,0.21929
1093.21732,0.22752
1091.72753,0.21006
1090.23774,0.19848
1088.74795,0.18693
1087.25817,0.21198
1085.76838,0.18835
1084.27859,0.20551
1082.78880,0.19676
1081.29901,0.21021
1079.80922,0.20486
1078.31943,0.20340
1076.82965,0.20196
1075.33986,0.21822
1073.85007,0.24139
1072.36028,0.23888
1070.87049,0.22928
1069.38070,0.27824
1067.89092,0.29901
1066.40113,0.31980
1064.91134,0.37343
1063.42155,0.44026
1061.93176,0.54913
1060.44197,0.62688
1058.95219,0.68040
1057.46240,0.72830
1055.97261,0.77622
1054.48282,0.87622
1052.99303,0.99653
1051.50324,1.00668
1050.01345,1.00013
1048.52367,0.95953
1047.03388,0.93809
1045.54409,0.91666
1044.05430,0.88554
1042.56451,0.81577
1041.07472,0.76755
1039.58494,0.71413
1038.09515,0.63732
1036.60536,0.60548
1035.11557,0.57366
1033.62578,0.51825
1032.13599,0.44906
1030.64620,0.37947
1029.15642,0.32141
1027.66663,0.30539
1026.17684,0.28940
1024.68705,0.24667
1023.19726,0.19184
1021.70747,0.17090
1020.21769,0.15103
1018.72790,0.13808
1017.23811,0.13373
1015.74832,0.12940
1014.25853,0.11548
1012.76874,0.10451
1011.27896,0.09294
1009.78917,0.09059
1008.29938,0.07488
1006.80959,0.05804
1005.31980,0.04123
1003.83001,0.04337
1002.34022,0.03089
1000.85044,0.03098
999.36065,0.03339
997.87086,0.03134
996.38107,0.02930
994.89128,0.04287
993.40149,0.06001
991.91171,0.07153
990.42192,0.10210
988.93213,0.11200
987.44234,0.11262
985.95255,0.11326
984.46276,0.10316
982.97297,0.10270
981.48319,0.10623
979.99340,0.07049
978.50361,0.06216
977.01382,0.05385
975.52403,0.04472
974.03424,0.02956
972.54446,0.02739
971.05467,0.01917
969.56488,0.00764
968.07509,0.00699
966.58530,0.00638
965.09551,0.02532
963.60573,0.00623
962.11594,0.01148
960.62615,0.01383
959.13636,0.01620
957.64657,0.01860
956.15678,0.01621
954.66699,0.03036
953.17721,0.02718
951.68742,0.02382
950.19763,0.03093
948.70784,0.03807
947.21805,0.05589
945.72826,0.07290
944.23848,0.08575
942.74869,0.11243
941.25890,0.14268
939.76911,0.14066
938.27932,0.13866
936.78953,0.16146
935.29974,0.16944
933.80996,0.18162
932.32017,0.20449
930.83038,0.20762
929.34059,0.21078
927.85080,0.23519
926.36101,0.26254
924.87123,0.27884
923.38144,0.35370
921.89165,0.37768
920.40186,0.40168
918.91207,0.50671
917.42228,0.61532
915.93250,0.73316
914.44271,0.94238
912.95292,1.04709
911.46313,1.15183
909.97334,1.34920
908.48355,1.58925
906.99376,1.76639
905.50398,1.88418
904.01419,1.92057
902.52440,1.95698
901.03461,2.00000
899.54482,1.95942
898.05503,1.83440
896.56525,1.66571
895.07546,1.53405
893.58567,1.40242
892.09588,1.10753
890.60609,0.86346
889.11630,0.64075
887.62651,0.48788
886.13673,0.42096
884.64694,0.35407
883.15715,0.26504
881.66736,0.16349
880.17757,0.11736
878.68778,0.10042
877.19800,0.08351
875.70821,0.06233
874.21842,0.04285
872.72863,0.03594
871.23884,0.03010
869.74905,0.02365
868.25927,0.01723
866.76948,0.00623
865.27969,0.00987
863.78990,0.02649
862.30011,0.02808
860.81032,0.03471
859.32053,0.04137
857.83075,0.05746
856.34096,0.07148
854.85117,0.08804
853.36138,0.10942
851.87159,0.11275
850.38180,0.11610
848.89202,0.13777
847.40223,0.15653
845.91244,0.15462
844.42265,0.17490
842.93286,0.19520
841.44307,0.19378
839.95329,0.20200
838.46350,0.24264
836.97371,0.23586
835.48392,0.23318
833.99413,0.23052
832.50434,0.24638
831.01455,0.22464
829.52477,0.21149
828.03498,0.18666
826.54519,0.16918
825.05540,0.15171
823.56561,0.13887
822.07582,0.12124
820.58604,0.12747
819.09625,0.12317
817.60646,0.11889
816.11667,0.10595
814.62688,0.09430
813.13709,0.10817
811.64730,0.13315
810.15752,0.13380
808.66773,0.13447
807.17794,0.12795
805.68815,0.12773
804.19836,0.13527
802.70857,0.13582
801.21879,0.13640
799.72900,0.10952
798.23921,0.10210
796.74942,0.12899
795.25963,0.11942
793.76984,0.10987
792.28006,0.14729
790.79027,0.12681
789.30048,0.14086
787.81069,0.17542
786.32090,0.19860
784.83111,0.22182
783.34132,0.24453
781.85154,0.26977
780.36175,0.31323
778.87196,0.33696
777.38217,0.36070
775.89238,0.36117
774.40259,0.38381
772.91281,0.37617
771.42302,0.36970
769.93323,0.36325
768.44344,0.30592
766.95365,0.26095
765.46386,0.20848
763.97407,0.14683
762.48429,0.14426
760.99450,0.14172
759.50471,0.12384
758.01492,0.09699
756.52513,0.10759
755.03534,0.09835
753.54556,0.08913
752.05577,0.08914
750.56598,0.07056
749.07619,0.05723
747.58640,0.04790
746.09661,0.03859
744.60683,0.03161
743.11704,0.01943
741.62725,0.01834
740.13746,0.02523
738.64767,0.03214
737.15788,0.03217
735.66809,0.01592
734.17831,0.02123
732.68852,0.01757
731.19873,0.01394
729.70894,0.02141
728.21915,0.00779
726.72936,0.01730
725.23958,0.02097
723.74979,0.02248
722.26000,0.02401
720.77021,0.01542
719.28042,0.00623
717.79063,0.00658
716.30084,0.01030
714.81106,0.01404
713.32127,0.02031
711.83148,0.03518
710.34169,0.03586
708.85190,0.03719
707.36211,0.03854
705.87233,0.03072
704.38254,0.04654
702.89275,0.03584
701.40296,0.04116
699.91317,0.04649
698.42338,0.06952
696.93360,0.08588
695.44381,0.09892
693.95402,0.11199
692.46423,0.12508
690.97444,0.13756
689.48465,0.16408
687.99486,0.19396
686.50508,0.19889
685.01529,0.20384
683.52550,0.24654
682.03571,0.27548
680.54592,0.27454
679.05613,0.27666
677.56635,0.27880
676.07656,0.27814
674.58677,0.28127
673.09698,0.24784
671.60719,0.23471
670.11740,0.22160
668.62761,0.17549
667.13783,0.16535
665.64804,0.14615
664.15825,0.12697
662.66846,0.09747
661.17867,0.06924
659.68888,0.04899
658.19910,0.04172
656.70931,0.03447
655.21952,0.03707
653.72973,0.03865
652.23994,0.04841
650.75015,0.05756
649.26037,0.06674
647.77058,0.04374
646.28079,0.03478
644.79100,0.05156
643.30121,0.04985
641.81142,0.04818
640.32163,0.04767
638.83185,0.03945
637.34206,0.00826
635.85227,0.00766
634.36248,0.00676
632.87269,0.00623
631.38290,0.02359
629.89312,0.02738
628.40333,0.02138
626.91354,0.01539
625.42375,0.02156
623.93396,0.02461
622.44417,0.03103
620.95438,0.03748
619.46460,0.04019
617.97481,0.04208
616.48502,0.06386
614.99523,0.07500
613.50544,0.08616
612.01565,0.11366
610.52587,0.16814
609.03608,0.19631
607.54629,0.20715
606.05650,0.21802
604.56671,0.27866
603.07692,0.35480
601.58714,0.37431
600.09735,0.39384
598.60756,0.42719
597.11777,0.46475
595.62798,0.46282
594.13819,0.44377
592.64840,0.42475
591.15862,0.37668
589.66883,0.33596
588.17904,0.29108
586.68925,0.26348
585.19946,0.23589
583.70967,0.18272
582.21989,0.11243
580.73010,0.10823
579.24031,0.10405
577.75052,0.07753
576.26073,0.05291
574.77094,0.04295
573.28115,0.04545
571.79137,0.04798
570.30158,0.04541
568.81179,0.08697
567.32200,0.08915
565.83221,0.09135
564.34242,0.12860
562.85264,0.13994
561.36285,0.13542
559.87306,0.13991
558.38327,0.14443
556.89348,0.17322
555.40369,0.17779
553.91391,0.19021
552.42412,0.20267
550.93433,0.19434
549.44454,0.19043
547.95475,0.21434
546.46496,0.20525
544.97517,0.19619
543.48539,0.23962
541.99560,0.23081
540.50581,0.25359
539.01602,0.27639
537.52623,0.35337
536.03644,0.41887
534.54666,0.44614
533.05687,0.45294
531.56708,0.45977
530.07729,0.53331
528.58750,0.58346
527.09771,0.60645
525.60792,0.62947
524.11814,0.72443
522.62835,0.77614
521.13856,0.83665
519.64877,0.83008
518.15898,0.82353
516.66919,0.87157
515.17941,0.87217
513.68962,0.86685
512.19983,0.86154
510.71004,0.84947
509.22025,0.83449
507.73046,0.75953
506.24068,0.68774
504.75089,0.61597
503.26110,0.52415
501.77131,0.41877
500.28152,0.37142
498.79173,0.32410
497.30194,0.24116
495.81216,0.15845
494.32237,0.14382
492.83258,0.12920
491.34279,0.11179
489.85300,0.11280
488.36321,0.11447
486.87343,0.09180
485.38364,0.06915
483.89385,0.08092
482.40406,0.12929
480.91427,0.11947
479.42448,0.10967
477.93469,0.13345
476.44491,0.14011
474.95512,0.14983
473.46533,0.15957
471.97554,0.16525
470.48575,0.18037
468.99596,0.18046
467.50618,0.17127
466.01639,0.16210
464.52660,0.11397
463.03681,0.11687
461.54702,0.09983
460.05723,0.08281
458.56745,0.04627
457.07766,0.03924
455.58787,0.03818
454.09808,0.03715
452.60829,0.02955
451.11850,0.01028
449.62871,0.01621
448.13893,0.02218
446.64914,0.00861
445.15935,0.00804
443.66956,0.00623
442.17977,0.00924
440.68998,0.01227
439.20020,0.02902
437.71041,0.02530
436.22062,0.01952
434.73083,0.01376
433.24104,0.01576
431.75125,0.01235
430.26146,0.02015
428.77168,0.02797
427.28189,0.03257
425.79210,0.02298
424.30231,0.02795
422.81252,0.03294
421.32273,0.03805
419.83295,0.03420
418.34316,0.01982
416.85337,0.00546
415.36358,0.01067
413.87379,0.01612
412.38400,0.02671
410.89422,0.03732
409.40443,0.02591
407.91464,0.02413
406.42485,0.02363
404.93506,0.02849
403.44527,0.03337
401.95548,0.04067
400.46570,0.03881
398.97591,0.03445
397.48612,0.03013
395.99633,0.00910
394.50654,0.00419
393.01675,0.01219
391.52697,0.01799
390.03718,0.01983
388.54739,0.00623
387.05760,0.00546
385.56781,0.00470
384.07802,0.00992
382.58824,0.00994
381.09845,0.02169
379.60866,0.03346
378.11887,0.02560
376.62908,0.00000
375.13929,0.00494
373.64950,0.00991
372.15972,0.01825
370.66993,0.01323
369.18014,0.01607
367.69035,0.01894
366.20056,0.01691
364.71077,0.03729
363.22099,0.03259
361.73120,0.02792
360.24141,0.04481
358.75162,0.06277
357.26183,0.06434
355.77204,0.06593
354.28225,0.07539
352.79247,0.07358
351.30268,0.06374
349.81289,0.05393
348.32310,0.06307
346.83331,0.06428
345.34352,0.06081
343.85374,0.05737
342.36395,0.03858
340.87416,0.02693
339.38437,0.02586
337.89458,0.02481
336.40479,0.04584
334.91501,0.04724
333.42522,0.03696
331.93543,0.02671
330.44564,0.00623
328.95585,0.03324
327.46606,0.03048
325.97627,0.02774
324.48649,0.05629
322.99670,0.02778
321.50691,0.04372
320.01712,0.05969
318.52733,0.07975
317.03754,0.07936
315.54776,0.07282
314.05797,0.06630
312.56818,0.08918
311.07839,0.07487
309.58860,0.05619
308.09881,0.03754
306.60902,0.05236
305.11924,0.06240
303.62945,0.04758
302.13966,0.03278
300.64987,0.00672
299.16008,0.00623
