1778.52000,0.01173
1777.03021,0.00295
1775.54042,0.01679
1774.05063,0.01589
1772.56085,0.01144
1771.07106,0.01372
1769.58127,0.01939
1768.09148,0.00517
1766.60169,0.01647
1765.11190,0.01706
1763.62212,0.01074
1762.13233,0.00557
1760.64254,0.00847
1759.15275,0.01072
1757.66296,0.00919
1756.17317,0.00881
1754.68339,0.01673
1753.19360,0.00991
1751.70381,0.01787
1750.21402,0.01088
1748.72423,0.01509
1747.23444,0.01083
1745.74465,0.01308
1744.25487,0.00574
1742.76508,0.01104
1741.27529,0.01077
1739.78550,0.01567
1738.29571,0.01590
1736.80592,0.01950
1735.31614,0.01039
1733.82635,0.01964
1732.33656,0.00657
1730.84677,0.02347
1729.35698,0.01693
1727.86719,0.01331
1726.37740,0.01240
1724.88762,0.00928
1723.39783,0.00261
1721.90804,0.01094
1720.41825,0.00499
1718.92846,0.01002
1717.43867,0.00948
1715.94889,0.00919
1714.45910,0.00557
1712.96931,0.01305
1711.47952,0.00915
1709.98973,0.00908
1708.49994,0.01350
1707.01016,0.01113
1705.52037,0.00878
1704.03058,0.01864
1702.54079,0.01556
1701.05100,0.00311
1699.56121,0.01233
1698.07142,0.01106
1696.58164,0.00557
1695.09185,0.01467
1693.60206,0.01842
1692.11227,0.01259
1690.62248,0.00924
1689.13269,0.00883
1687.64291,0.01268
1686.15312,0.02305
1684.66333,0.03477
1683.17354,0.01858
1681.68375,0.02767
1680.19396,0.02226
1678.70417,0.03498
1677.21439,0.03431
1675.72460,0.04104
1674.23481,0.04422
1672.74502,0.04251
1671.25523,0.03813
1669.76544,0.05212
1668.27566,0.05159
1666.78587,0.05333
1665.29608,0.06358
1663.80629,0.07029
1662.31650,0.07142
1660.82671,0.08399
1659.33693,0.08495
1657.84714,0.07431
1656.35735,0.07219
1654.86756,0.07524
1653.37777,0.08055
1651.88798,0.08387
1650.39819,0.08498
1648.90841,0.08387
1647.41862,0.07966
1645.92883,0.08353
1644.43904,0.08742
1642.94925,0.10050
1641.45946,0.10108
1639.96968,0.09252
1638.47989,0.10523
1636.99010,0.09806
1635.50031,0.09605
1634.01052,0.08603
1632.52073,0.08541
1631.03094,0.09869
1629.54116,0.09566
1628.05137,0.09468
1626.56158,0.10691
1625.07179,0.10776
1623.58200,0.10707
1622.09221,0.11400
1620.60243,0.11023
1619.11264,0.11364
1617.62285,0.11237
1616.13306,0.09928
1614.64327,0.09829
1613.15348,0.09464
1611.66370,0.09079
1610.17391,0.09233
1608.68412,0.11469
1607.19433,0.11471
1605.70454,0.11945
1604.21475,0.12154
1602.72496,0.12365
1601.23518,0.11237
1599.74539,0.09977
1598.25560,0.09770
1596.76581,0.09365
1595.27602,0.09252
1593.78623,0.10529
1592.29645,0.09303
1590.80666,0.10294
1589.31687,0.10347
1587.82708,0.08816
1586.33729,0.09680
1584.84750,0.08847
1583.35771,0.09402
1581.86793,0.08529
1580.37814,0.09246
1578.88835,0.06969
1577.39856,0.08272
1575.90877,0.06537
1574.41898,0.07263
1572.92920,0.05153
1571.43941,0.05102
1569.94962,0.05601
1568.45983,0.06102
1566.97004,0.04806
1565.48025,0.03557
1563.99047,0.05017
1562.50068,0.03616
1561.01089,0.03291
1559.52110,0.04445
1558.03131,0.04303
1556.54152,0.02488
1555.05173,0.03872
1553.56195,0.03492
1552.07216,0.02690
1550.58237,0.02427
1549.09258,0.01719
1547.60279,0.01886
1546.11300,0.00557
1544.62322,0.02176
1543.13343,0.01719
1541.64364,0.00817
1540.15385,0.01147
1538.66406,0.01479
1537.17427,0.01367
1535.68448,0.02331
1534.19470,0.03028
1532.70491,0.02185
1531.21512,0.02217
1529.72533,0.01155
1528.23554,0.02578
1526.74575,0.03355
1525.25597,0.03597
1523.76618,0.02546
1522.27639,0.03687
1520.78660,0.02260
1519.29681,0.02781
1517.80702,0.04131
1516.31724,0.04835
1514.82745,0.03709
1513.33766,0.04407
1511.84787,0.05107
1510.35808,0.04725
1508.86829,0.04436
1507.37850,0.05065
1505.88872,0.03729
1504.39893,0.04878
1502.90914,0.05291
1501.41935,0.06266
1499.92956,0.07109
1498.43977,0.06881
1496.94999,0.05403
1495.46020,0.07483
1493.97041,0.09207
1492.48062,0.11046
1490.99083,0.11389
1489.50104,0.13121
1488.01125,0.13950
1486.52147,0.14781
1485.03168,0.16587
1483.54189,0.19670
1482.05210,0.21995
1480.56231,0.23161
1479.07252,0.24552
1477.58274,0.25431
1476.09295,0.26201
1474.60316,0.24938
1473.11337,0.27658
1471.62358,0.28480
1470.13379,0.28634
1468.64401,0.31585
1467.15422,0.32034
1465.66443,0.33715
1464.17464,0.35399
1462.68485,0.38337
1461.19506,0.44475
1459.70527,0.47038
1458.21549,0.51437
1456.72570,0.58521
1455.23591,0.62970
1453.74612,0.66347
1452.25633,0.67804
1450.76654,0.70516
1449.27676,0.70189
1447.78697,0.70223
1446.29718,0.68537
1444.80739,0.67223
1443.31760,0.65910
1441.82781,0.62264
1440.33802,0.58330
1438.84824,0.55002
1437.35845,0.48970
1435.86866,0.51080
1434.37887,0.52432
1432.88908,0.57566
1431.39929,0.63305
1429.90951,0.71954
1428.41972,0.78503
1426.92993,0.83400
1425.44014,0.87114
1423.95035,0.90228
1422.46056,0.93343
1420.97078,0.97959
1419.48099,0.95803
1417.99120,0.93202
1416.50141,0.94807
1415.01162,0.92769
1413.52183,0.87135
1412.03204,0.85572
1410.54226,0.74911
1409.05247,0.69083
1407.56268,0.63458
1406.07289,0.60742
1404.58310,0.56564
1403.09331,0.52388
1401.60353,0.46236
1400.11374,0.41339
1398.62395,0.36824
1397.13416,0.30993
1395.64437,0.26147
1394.15458,0.22199
1392.66479,0.20422
1391.17501,0.16165
1389.68522,0.13185
1388.19543,0.12377
1386.70564,0.10911
1385.21585,0.09448
1383.72606,0.08043
1382.23628,0.05522
1380.74649,0.03071
1379.25670,0.03552
1377.76691,0.01106
1376.27712,0.02105
1374.78733,0.00514
1373.29755,0.00557
1371.80776,0.01706
1370.31797,0.01516
1368.82818,0.01407
1367.33839,0.01301
1365.84860,0.01968
1364.35881,0.03800
1362.86903,0.06082
1361.37924,0.07629
1359.88945,0.10877
1358.39966,0.12809
1356.90987,0.15659
1355.42008,0.18468
1353.93030,0.23447
1352.44051,0.27166
1350.95072,0.30887
1349.46093,0.37886
1347.97114,0.45760
1346.48135,0.56699
1344.99156,0.60374
1343.50178,0.69485
1342.01199,0.74059
1340.52220,0.81297
1339.03241,0.89901
1337.54262,0.92179
1336.05283,0.93935
1334.56305,0.95693
1333.07326,0.99611
1331.58347,0.99864
1330.09368,0.98331
1328.60389,0.99931
1327.11410,0.94938
1325.62432,0.90707
1324.13453,0.85919
1322.64474,0.83459
1321.15495,0.79817
1319.66516,0.77776
1318.17537,0.75737
1316.68558,0.70693
1315.19580,0.62633
1313.70601,0.57662
1312.21622,0.56337
1310.72643,0.52466
1309.23664,0.52152
1307.74685,0.48509
1306.25707,0.44332
1304.76728,0.41879
1303.27749,0.39428
1301.78770,0.34543
1300.29791,0.29191
1298.80812,0.22544
1297.31834,0.20349
1295.82855,0.17128
1294.33876,0.17398
1292.84897,0.13287
1291.35918,0.12153
1289.86939,0.11983
1288.37960,0.11815
1286.88982,0.10129
1285.40003,0.09116
1283.91024,0.08799
1282.42045,0.08953
1280.93066,0.06428
1279.44087,0.05559
1277.95109,0.05251
1276.46130,0.05282
1274.97151,0.05236
1273.48172,0.05193
1271.99193,0.03062
1270.50214,0.03728
1269.01235,0.02898
1267.52257,0.03860
1266.03278,0.03751
1264.54299,0.03107
1263.05320,0.01863
1261.56341,0.02230
1260.07362,0.02601
1258.58384,0.00670
1257.09405,0.01425
1255.60426,0.01892
1254.11447,0.01556
1252.62468,0.00619
1251.13489,0.00557
1249.64511,0.02329
1248.15532,0.02337
1246.66553,0.01945
1245.17574,0.01555
1243.68595,0.00765
1242.19616,0.02930
1240.70637,0.01988
1239.21659,0.01407
1237.72680,0.02215
1236.23701,0.03047
1234.74722,0.01154
1233.25743,0.02327
1231.76764,0.03502
1230.27786,0.02846
1228.78807,0.03489
1227.29828,0.03173
1225.80849,0.00557
1224.31870,0.02157
1222.82891,0.02441
1221.33912,0.02951
1219.84934,0.03396
1218.35955,0.03844
1216.86976,0.06060
1215.37997,0.07183
1213.89018,0.08711
1212.40039,0.08900
1210.91061,0.08756
1209.42082,0.07787
1207.93103,0.07939
1206.44124,0.08093
1204.95145,0.06639
1203.46166,0.06530
1201.97188,0.06199
1200.48209,0.06542
1198.99230,0.05389
1197.50251,0.04283
1196.01272,0.03895
1194.52293,0.03431
1193.03314,0.02970
1191.54336,0.02075
1190.05357,0.02479
1188.56378,0.01902
1187.07399,0.01372
1185.58420,0.01873
1184.09441,0.02175
1182.60463,0.01418
1181.11484,0.00662
1179.62505,0.00950
1178.13526,0.00993
1176.64547,0.00950
1175.15568,0.01915
1173.66589,0.00915
1172.17611,0.00521
1170.68632,0.00538
1169.19653,0.00557
1167.70674,0.01066
1166.21695,0.03031
1164.72716,0.03031
1163.23738,0.04934
1161.74759,0.04134
1160.25780,0.04499
1158.76801,0.06264
1157.27822,0.08031
1155.78843,0.07598
1154.29865,0.08442
1152.80886,0.09356
1151.31907,0.10720
1149.82928,0.11459
1148.33949,0.11687
1146.84970,0.11739
1145.35991,0.11792
1143.87013,0.14487
1142.38034,0.16871
1140.89055,0.16016
1139.40076,0.17622
1137.91097,0.18493
1136.42118,0.20775
1134.93140,0.21483
1133.44161,0.22193
1131.95182,0.24460
1130.46203,0.26327
1128.97224,0.26207
1127.48245,0.23964
1125.99266,0.25972
1124.50288,0.24227
1123.01309,0.24407
1121.52330,0.24589
1120.03351,0.22850
1118.54372,0.23395
1117.05393,0.25351
1115.56415,0.23463
1114.07436,0.26140
1112.58457,0.25263
1111.09478,0.24389
1109.60499,0.23092
1108.11520,0.23900
1106.62542,0.25560
1105.13563,0.24673
1103.64584,0.24706
1102.15605,0.25993
1100.66626,0.24912
1099.17647,0.23834
1097.68668,0.22691
1096.19690,0.22892
1094.70711,0.22916
1093.21732,0.21825
1091.72753,0.21542
1090.23774,0.21574
1088.74795,0.21608
1087.25817,0.22338
1085.76838,0.22086
1084.27859,0.22396
1082.78880,0.21680
1081.29901,0.23091
1079.80922,0.26918
1078.31943,0.26086
1076.82965,0.25257
1075.33986,0.25246
1073.85007,0.26177
1072.36028,0.26841
1070.87049,0.29007
1069.38070,0.33790
1067.89092,0.36452
1066.40113,0.39117
1064.91134,0.45048
1063.42155,0.50579
1061.93176,0.63738
1060.44197,0.77122
1058.95219,0.88385
1057.46240,0.93266
1055.97261,0.98150
1054.48282,1.02980
1052.99303,1.11167
1051.50324,1.15488
1050.01345,1.11874
1048.52367,1.08038
1047.03388,1.07213
1045.54409,1.06390
1044.05430,1.02159
1042.56451,0.92811
1041.07472,0.82280
1039.58494,0.76134
1038.09515,0.65719
1036.60536,0.63155
1035.11557,0.60594
1033.62578,0.53094
1032.13599,0.47742
1030.64620,0.40672
1029.15642,0.35146
1027.66663,0.32295
1026.17684,0.29446
1024.68705,0.26835
1023.19726,0.23443
1021.70747,0.20144
1020.21769,0.18389
1018.72790,0.17308
1017.23811,0.15972
1015.74832,0.14638
1014.25853,0.11395
1012.76874,0.11285
1011.27896,0.12407
1009.78917,0.10737
1008.29938,0.07973
1006.80959,0.06990
1005.31980,0.06008
1003.83001,0.04303
1002.34022,0.04925
1000.85044,0.05930
999.36065,0.05753
997.87086,0.06416
996.38107,0.07081
994.89128,0.10377
993.40149,0.11081
991.91171,0.13799
990.42192,0.16185
988.93213,0.19759
987.44234,0.19734
985.95255,0.19713
984.46276,0.18441
982.97297,0.15473
981.48319,0.14028
979.99340,0.12048
978.50361,0.11010
977.01382,0.09974
975.52403,0.07465
974.03424,0.06010
972.54446,0.03617
971.05467,0.02390
969.56488,0.01300
968.07509,0.00927
966.58530,0.00557
965.09551,0.01385
963.60573,0.02439
962.11594,0.00925
960.62615,0.00821
959.13636,0.01111
957.64657,0.01404
956.15678,0.02269
954.66699,0.01482
953.17721,0.02822
951.68742,0.03784
950.19763,0.03753
948.70784,0.03725
947.21805,0.05588
945.72826,0.06605
944.23848,0.09725
942.74869,0.09382
941.25890,0.12597
939.76911,0.13612
938.27932,0.14629
936.78953,0.16734
935.29974,0.16537
933.80996,0.17595
932.32017,0.19148
930.83038,0.19149
929.34059,0.19152
927.85080,0.19683
926.36101,0.23481
924.87123,0.30189
923.38144,0.33500
921.89165,0.38255
920.40186,0.43013
918.91207,0.50155
917.42228,0.63962
915.93250,0.79852
914.44271,1.00193
912.95292,1.11391
911.46313,1.22592
909.97334,1.42762
908.48355,1.65415
906.99376,1.83421
905.50398,1.95682
904.01419,1.97840
902.52440,2.00000
901.03461,1.98250
899.54482,1.89145
898.05503,1.75750
896.56525,1.58736
895.07546,1.47515
893.58567,1.36296
892.09588,1.09428
890.60609,0.85783
889.11630,0.62945
887.62651,0.47599
886.13673,0.42139
884.64694,0.36681
883.15715,0.25547
881.66736,0.18797
880.17757,0.14174
878.68778,0.12214
877.19800,0.10256
875.70821,0.08234
874.21842,0.04649
872.72863,0.05650
871.23884,0.03635
869.74905,0.02976
868.25927,0.02318
866.76948,0.00557
865.27969,0.01436
863.78990,0.03346
862.30011,0.04699
860.81032,0.05641
859.32053,0.06586
857.83075,0.09288
856.34096,0.09958
854.85117,0.14565
853.36138,0.13921
851.87159,0.14442
850.38180,0.14965
848.89202,0.17234
847.40223,0.19506
845.91244,0.20238
844.42265,0.21542
842.93286,0.22849
841.44307,0.27769
839.95329,0.28354
838.46350,0.30931
836.97371,0.30090
835.48392,0.30537
833.99413,0.30986
832.50434,0.33014
831.01455,0.28918
829.52477,0.25920
828.03498,0.22254
826.54519,0.21899
825.05540,0.21547
823.56561,0.20682
822.07582,0.18636
820.58604,0.17732
819.09625,0.15645
817.60646,0.13561
816.11667,0.14140
814.62688,0.13402
813.13709,0.16468
811.64730,0.16495
810.15752,0.17039
808.66773,0.17585
807.17794,0.17463
805.68815,0.18439
804.19836,0.17562
802.70857,0.17693
801.21879,0.17827
799.72900,0.15817
798.23921,0.15665
796.74942,0.14867
795.25963,0.14608
793.76984,0.14351
792.28006,0.17674
790.79027,0.18675
789.30048,0.19722
787.81069,0.23321
786.32090,0.25313
784.83111,0.27307
783.34132,0.31024
781.85154,0.36154
780.36175,0.40771
778.87196,0.42439
777.38217,0.44110
775.89238,0.45872
774.40259,0.46363
772.91281,0.46341
771.42302,0.44545
769.93323,0.42751
768.44344,0.39159
766.95365,0.31322
765.46386,0.27489
763.97407,0.20752
762.48429,0.18691
760.99450,0.16632
759.50471,0.15984
758.01492,0.14466
756.52513,0.12325
755.03534,0.12087
753.54556,0.11851
752.05577,0.11148
750.56598,0.07496
749.07619,0.06105
747.58640,0.06125
746.09661,0.06147
744.60683,0.03936
743.11704,0.04209
741.62725,0.02763
740.13746,0.02639
738.64767,0.02517
737.15788,0.02665
735.66809,0.02123
734.17831,0.00824
732.68852,0.00689
731.19873,0.00557
729.70894,0.01402
728.21915,0.00820
726.72936,0.00664
725.23958,0.03010
723.74979,0.02229
722.26000,0.01450
720.77021,0.00517
719.28042,0.01332
717.79063,0.00675
716.30084,0.00959
714.81106,0.01245
713.32127,0.00505
711.83148,0.01802
710.34169,0.02275
708.85190,0.02671
707.36211,0.03070
705.87233,0.03125
704.38254,0.03115
702.89275,0.03622
701.40296,0.02946
699.91317,0.02273
698.42338,0.06253
696.93360,0.07150
695.44381,0.11336
693.95402,0.11499
692.46423,0.11666
690.97444,0.13466
689.48465,0.15627
687.99486,0.16874
686.50508,0.18257
685.01529,0.19643
683.52550,0.22127
682.03571,0.22444
680.54592,0.25067
679.05613,0.26004
677.56635,0.26943
676.07656,0.25996
674.58677,0.25140
673.09698,0.23393
671.60719,0.22195
670.11740,0.21000
668.62761,0.18366
667.13783,0.16360
665.64804,0.14691
664.15825,0.13025
662.66846,0.10043
661.17867,0.07420
659.68888,0.07237
658.19910,0.06051
656.70931,0.04867
655.21952,0.02455
653.72973,0.03266
652.23994,0.03721
650.75015,0.04000
649.26037,0.04281
647.77058,0.05817
646.28079,0.04136
644.79100,0.04424
643.30121,0.04525
641.81142,0.04628
640.32163,0.03404
638.83185,0.04932
637.34206,0.02773
635.85227,0.02037
634.36248,0.01302
632.87269,0.02102
631.38290,0.03374
629.89312,0.00557
628.40333,0.00745
626.91354,0.00936
625.42375,0.02873
623.93396,0.02353
622.44417,0.03814
620.95438,0.05278
619.46460,0.05146
617.97481,0.06290
616.48502,0.08264
614.99523,0.08586
613.50544,0.08911
612.01565,0.12882
610.52587,0.15783
609.03608,0.20139
607.54629,0.22575
606.05650,0.25013
604.56671,0.26157
603.07692,0.31686
601.58714,0.35283
600.09735,0.38882
598.60756,0.43323
597.11777,0.45463
595.62798,0.46174
594.13819,0.44350
592.64840,0.42528
591.15862,0.39267
589.66883,0.32497
588.17904,0.28257
586.68925,0.26188
585.19946,0.24121
583.70967,0.15685
582.21989,0.12483
580.73010,0.10938
579.24031,0.09395
577.75052,0.07721
576.26073,0.07278
574.77094,0.07666
573.28115,0.07419
571.79137,0.07174
570.30158,0.06585
568.81179,0.06758
567.32200,0.09036
565.83221,0.11317
564.34242,0.13398
562.85264,0.15594
561.36285,0.19044
559.87306,0.18897
558.38327,0.18752
556.89348,0.19392
555.40369,0.22785
553.91391,0.22983
552.42412,0.23184
550.93433,0.25242
549.44454,0.22138
547.95475,0.25454
546.46496,0.26122
544.97517,0.26793
543.48539,0.30138
541.99560,0.29976
540.50581,0.31671
539.01602,0.33369
537.52623,0.38468
536.03644,0.44620
534.54666,0.47242
533.05687,0.47933
531.56708,0.48625
530.07729,0.56308
528.58750,0.62249
527.09771,0.63340
525.60792,0.64434
524.11814,0.69711
522.62835,0.75930
521.13856,0.83448
519.64877,0.84652
518.15898,0.85858
516.66919,0.90813
515.17941,0.90783
513.68962,0.90856
512.19983,0.90932
510.71004,0.88495
509.22025,0.83981
507.73046,0.81482
506.24068,0.75351
504.75089,0.69224
503.26110,0.53897
501.77131,0.41592
500.28152,0.36109
498.79173,0.30628
497.30194,0.26267
495.81216,0.22848
494.32237,0.19141
492.83258,0.15436
491.34279,0.12762
489.85300,0.13892
488.36321,0.12385
486.87343,0.11027
485.38364,0.09671
483.89385,0.10609
482.40406,0.13853
480.91427,0.14046
479.42448,0.14243
477.93469,0.15414
476.44491,0.19584
474.95512,0.22628
473.46533,0.25673
471.97554,0.26743
470.48575,0.23074
468.99596,0.24014
467.50618,0.23313
466.01639,0.22615
464.52660,0.18487
463.03681,0.12483
461.54702,0.11557
460.05723,0.10633
458.56745,0.07297
457.07766,0.05059
455.58787,0.05116
454.09808,0.05174
452.60829,0.07304
451.11850,0.04159
449.62871,0.03677
448.13893,0.03198
446.64914,0.03213
445.15935,0.03052
443.66956,0.03429
442.17977,0.03127
440.68998,0.02828
439.20020,0.01826
437.71041,0.03555
436.22062,0.02928
434.73083,0.02303
433.24104,0.02764
431.75125,0.02938
430.26146,0.04657
428.77168,0.06378
427.28189,0.05709
425.79210,0.08419
424.30231,0.07497
422.81252,0.06579
421.32273,0.05562
419.83295,0.03988
418.34316,0.03882
416.85337,0.03778
415.36358,0.00557
413.87379,0.02247
412.38400,0.02823
410.89422,0.03400
409.40443,0.05769
407.91464,0.04429
406.42485,0.05081
404.93506,0.05020
403.44527,0.04961
401.95548,0.04793
400.46570,0.03174
398.97591,0.03347
397.48612,0.03521
395.99633,0.03922
394.50654,0.03587
393.01675,0.03177
391.52697,0.02769
390.03718,0.02642
388.54739,0.02452
387.05760,0.01503
385.56781,0.00557
384.07802,0.03779
382.58824,0.03092
381.09845,0.03211
379.60866,0.03333
378.11887,0.02631
376.62908,0.01461
375.13929,0.00729
373.64950,0.00000
372.15972,0.00873
370.66993,0.02821
369.18014,0.01943
367.69035,0.01068
366.20056,0.02375
364.71077,0.01873
363.22099,0.01922
361.73120,0.01973
360.24141,0.04877
358.75162,0.04206
357.26183,0.04119
355.77204,0.04035
354.28225,0.07217
352.79247,0.06444
351.30268,0.06669
349.81289,0.06896
348.32310,0.05974
346.83331,0.07916
345.34352,0.07479
343.85374,0.07045
342.36395,0.07944
340.87416,0.05827
339.38437,0.04942
337.89458,0.04059
336.40479,0.03514
334.91501,0.00557
333.42522,0.01463
331.93543,0.02371
330.44564,0.02980
328.95585,0.03412
327.46606,0.03154
325.97627,0.02898
324.48649,0.04726
322.99670,0.03627
321.50691,0.03604
320.01712,0.03583
318.52733,0.07007
317.03754,0.05851
315.54776,0.05759
314.05797,0.05670
312.56818,0.07539
311.07839,0.08472
309.58860,0.06355
308.09881,0.04240
306.60902,0.03325
305.11924,0.02747
303.62945,0.02954
302.13966,0.03163
300.64987,0.00669
299.16008,0.00557
