1778.52000,0.01238
1777.03021,0.01066
1775.54042,0.01690
1774.05063,0.01566
1772.56085,0.02389
1771.07106,0.01711
1769.58127,0.01723
1768.09148,0.02145
1766.60169,0.01582
1765.11190,0.01172
1763.62212,0.00678
1762.13233,0.00423
1760.64254,0.01200
1759.15275,0.00628
1757.66296,0.00745
1756.17317,0.00800
1754.68339,0.01372
1753.19360,0.01582
1751.70381,0.01151
1750.21402,0.00142
1748.72423,0.01690
1747.23444,0.00343
1745.74465,0.01209
1744.25487,0.01540
1742.76508,0.01166
1741.27529,0.01074
1739.78550,0.01176
1738.29571,0.00466
1736.80592,0.00952
1735.31614,0.01355
1733.82635,0.01975
1732.33656,0.01159
1730.84677,0.02171
1729.35698,0.02433
1727.86719,0.00937
1726.37740,0.01505
1724.88762,0.00229
1723.39783,0.01553
1721.90804,0.02020
1720.41825,0.01074
1718.92846,0.01117
1717.43867,0.00346
1715.94889,0.01811
1714.45910,0.00423
1712.96931,0.00964
1711.47952,0.01100
1709.98973,0.01539
1708.49994,0.01079
1707.01016,0.00900
1705.52037,0.00724
1704.03058,0.01559
1702.54079,0.01172
1701.05100,0.01497
1699.56121,0.01352
1698.07142,0.01788
1696.58164,0.00854
1695.09185,0.01510
1693.60206,0.00537
1692.11227,0.01090
1690.62248,0.00423
1689.13269,0.00475
1687.64291,0.00423
1686.15312,0.02540
1684.66333,0.01419
1683.17354,0.03348
1681.68375,0.01866
1680.19396,0.01697
1678.70417,0.02366
1677.21439,0.02416
1675.72460,0.03176
1674.23481,0.03639
1672.74502,0.03717
1671.25523,0.03175
1669.76544,0.04611
1668.27566,0.04010
1666.78587,0.05064
1665.29608,0.05648
1663.80629,0.05397
1662.31650,0.05771
1660.82671,0.06749
1659.33693,0.06634
1657.84714,0.06071
1656.35735,0.06112
1654.86756,0.07142
1653.37777,0.05942
1651.88798,0.07063
1650.39819,0.07392
1648.90841,0.07552
1647.41862,0.07435
1645.92883,0.07127
1644.43904,0.06822
1642.94925,0.07271
1641.45946,0.07807
1639.96968,0.08432
1638.47989,0.08351
1636.99010,0.06749
1635.50031,0.08433
1634.01052,0.07286
1632.52073,0.08030
1631.03094,0.07489
1629.54116,0.07766
1628.05137,0.08882
1626.56158,0.09078
1625.07179,0.09813
1623.58200,0.09563
1622.09221,0.09186
1620.60243,0.08405
1619.11264,0.08763
1617.62285,0.09016
1616.13306,0.07425
1614.64327,0.07941
1613.15348,0.07772
1611.66370,0.07734
1610.17391,0.07635
1608.68412,0.08654
1607.19433,0.08774
1605.70454,0.08917
1604.21475,0.08795
1602.72496,0.08675
1601.23518,0.09620
1599.74539,0.08013
1598.25560,0.06387
1596.76581,0.06052
1595.27602,0.06921
1593.78623,0.07577
1592.29645,0.08022
1590.80666,0.08254
1589.31687,0.06792
1587.82708,0.07201
1586.33729,0.06346
1584.84750,0.06888
1583.35771,0.06832
1581.86793,0.06949
1580.37814,0.07134
1578.88835,0.06634
1577.39856,0.05965
1575.90877,0.05319
1574.41898,0.05535
1572.92920,0.04658
1571.43941,0.03397
1569.94962,0.03706
1568.45983,0.04017
1566.97004,0.04481
1565.48025,0.03810
1563.99047,0.03226
1562.50068,0.03654
1561.01089,0.02711
1559.52110,0.02414
1558.03131,0.01840
1556.54152,0.01226
1555.05173,0.02396
1553.56195,0.01894
1552.07216,0.01051
1550.58237,0.01627
1549.09258,0.01240
1547.60279,0.00576
1546.11300,0.00000
1544.62322,0.00071
1543.13343,0.01050
1541.64364,0.00379
1540.15385,0.00815
1538.66406,0.01255
1537.17427,0.00548
1535.68448,0.00423
1534.19470,0.01499
1532.70491,0.00752
1531.21512,0.01425
1529.72533,0.00555
1528.23554,0.01425
1526.74575,0.01783
1525.25597,0.03088
1523.76618,0.01970
1522.27639,0.03043
1520.78660,0.02337
1519.29681,0.02128
1517.80702,0.02414
1516.31724,0.04184
1514.82745,0.03767
1513.33766,0.03986
1511.84787,0.04207
1510.35808,0.03239
1508.86829,0.03025
1507.37850,0.03500
1505.88872,0.03806
1504.39893,0.04221
1502.90914,0.04768
1501.41935,0.06777
1499.92956,0.07500
1498.43977,0.06036
1496.94999,0.04531
1495.46020,0.07623
1493.97041,0.10288
1492.48062,0.10272
1490.99083,0.10215
1489.50104,0.13317
1488.01125,0.13222
1486.52147,0.13130
1485.03168,0.15766
1483.54189,0.18705
1482.05210,0.21003
1480.56231,0.22272
1479.07252,0.22965
1477.58274,0.22994
1476.09295,0.23735
1474.60316,0.23232
1473.11337,0.24836
1471.62358,0.24424
1470.13379,0.26269
1468.64401,0.28438
1467.15422,0.31125
1465.66443,0.32332
1464.17464,0.33543
1462.68485,0.39478
1461.19506,0.42754
1459.70527,0.43327
1458.21549,0.50944
1456.72570,0.58499
1455.23591,0.61527
1453.74612,0.64879
1452.25633,0.67203
1450.76654,0.71397
1449.27676,0.70464
1447.78697,0.70563
1446.29718,0.66822
1444.80739,0.65563
1443.31760,0.64306
1441.82781,0.61710
1440.33802,0.56841
1438.84824,0.53691
1437.35845,0.50759
1435.86866,0.52079
1434.37887,0.50247
1432.88908,0.56101
1431.39929,0.62967
1429.90951,0.71166
1428.41972,0.78337
1426.92993,0.83021
1425.44014,0.89080
1423.95035,0.89186
1422.46056,0.89293
1420.97078,0.94759
1419.48099,0.94947
1417.99120,0.94235
1416.50141,0.96639
1415.01162,0.94902
1413.52183,0.88445
1412.03204,0.83815
1410.54226,0.76267
1409.05247,0.70977
1407.56268,0.64271
1406.07289,0.60617
1404.58310,0.56643
1403.09331,0.52671
1401.60353,0.47714
1400.11374,0.41515
1398.62395,0.38302
1397.13416,0.31527
1395.64437,0.26044
1394.15458,0.22473
1392.66479,0.18496
1391.17501,0.16669
1389.68522,0.13234
1388.19543,0.11776
1386.70564,0.10546
1385.21585,0.09319
1383.72606,0.09006
1382.23628,0.05991
1380.74649,0.03064
1379.25670,0.03145
1377.76691,0.02520
1376.27712,0.00180
1374.78733,0.01213
1373.29755,0.01711
1371.80776,0.00903
1370.31797,0.00332
1368.82818,0.00376
1367.33839,0.00423
1365.84860,0.01764
1364.35881,0.03171
1362.86903,0.05354
1361.37924,0.07968
1359.88945,0.10092
1358.39966,0.11380
1356.90987,0.16019
1355.42008,0.20533
1353.93030,0.23266
1352.44051,0.26593
1350.95072,0.29922
1349.46093,0.36097
1347.97114,0.45689
1346.48135,0.53007
1344.99156,0.57816
1343.50178,0.66062
1342.01199,0.71112
1340.52220,0.80586
1339.03241,0.84653
1337.54262,0.91256
1336.05283,0.93020
1334.56305,0.94787
1333.07326,0.97168
1331.58347,0.96633
1330.09368,0.95584
1328.60389,0.97393
1327.11410,0.91583
1325.62432,0.89726
1324.13453,0.85274
1322.64474,0.80502
1321.15495,0.79490
1319.66516,0.76236
1318.17537,0.72985
1316.68558,0.68609
1315.19580,0.61939
1313.70601,0.56924
1312.21622,0.53028
1310.72643,0.51732
1309.23664,0.46338
1307.74685,0.45883
1306.25707,0.42104
1304.76728,0.40173
1303.27749,0.38245
1301.78770,0.32476
1300.29791,0.26968
1298.80812,0.23158
1297.31834,0.19607
1295.82855,0.16468
1294.33876,0.15262
1292.84897,0.13565
1291.35918,0.10690
1289.86939,0.10490
1288.37960,0.10292
1286.88982,0.09785
1285.40003,0.09367
1283.91024,0.09402
1282.42045,0.07421
1280.93066,0.05808
1279.44087,0.04734
1277.95109,0.05401
1276.46130,0.04460
1274.97151,0.05132
1273.48172,0.05806
1271.99193,0.05044
1270.50214,0.02890
1269.01235,0.03528
1267.52257,0.02624
1266.03278,0.03288
1264.54299,0.03290
1263.05320,0.02500
1261.56341,0.02989
1260.07362,0.03481
1258.58384,0.00423
1257.09405,0.00801
1255.60426,0.01289
1254.11447,0.01371
1252.62468,0.00748
1251.13489,0.00620
1249.64511,0.01812
1248.15532,0.03565
1246.66553,0.03227
1245.17574,0.02891
1243.68595,0.01753
1242.19616,0.01111
1240.70637,0.01330
1239.21659,0.00242
1237.72680,0.02459
1236.23701,0.03668
1234.74722,0.03206
1233.25743,0.03218
1231.76764,0.03233
1230.27786,0.02992
1228.78807,0.02239
1227.29828,0.02411
1225.80849,0.01920
1224.31870,0.00423
1222.82891,0.01360
1221.33912,0.02513
1219.84934,0.02800
1218.35955,0.03090
1216.86976,0.04873
1215.37997,0.06938
1213.89018,0.08447
1212.40039,0.08542
1210.91061,0.07545
1209.42082,0.08546
1207.93103,0.07382
1206.44124,0.06220
1204.95145,0.07379
1203.46166,0.06501
1201.97188,0.06462
1200.48209,0.05567
1198.99230,0.04997
1197.50251,0.05696
1196.01272,0.04035
1194.52293,0.03343
1193.03314,0.02654
1191.54336,0.03147
1190.05357,0.02763
1188.56378,0.01330
1187.07399,0.02389
1185.58420,0.02076
1184.09441,0.02474
1182.60463,0.01533
1181.11484,0.00595
1179.62505,0.00721
1178.13526,0.00893
1176.64547,0.00423
1175.15568,0.01894
1173.66589,0.00599
1172.17611,0.01516
1170.68632,0.01202
1169.19653,0.00891
1167.70674,0.01258
1166.21695,0.02421
1164.72716,0.03179
1163.23738,0.05443
1161.74759,0.03759
1160.25780,0.04975
1158.76801,0.05624
1157.27822,0.06277
1155.78843,0.07221
1154.29865,0.09563
1152.80886,0.10211
1151.31907,0.11979
1149.82928,0.11301
1148.33949,0.11764
1146.84970,0.11510
1145.35991,0.11258
1143.87013,0.13638
1142.38034,0.14433
1140.89055,0.17161
1139.40076,0.16951
1137.91097,0.18225
1136.42118,0.18299
1134.93140,0.20200
1133.44161,0.22104
1131.95182,0.22378
1130.46203,0.24737
1128.97224,0.23621
1127.48245,0.24568
1125.99266,0.24401
1124.50288,0.23013
1123.01309,0.23152
1121.52330,0.23293
1120.03351,0.21118
1118.54372,0.22509
1117.05393,0.24739
1115.56415,0.24117
1114.07436,0.22574
1112.58457,0.23106
1111.09478,0.23639
1109.60499,0.22232
1108.11520,0.21944
1106.62542,0.23955
1105.13563,0.23672
1103.64584,0.21974
1102.15605,0.21867
1100.66626,0.21409
1099.17647,0.20953
1097.68668,0.20681
1096.19690,0.20219
1094.70711,0.19953
1093.21732,0.20698
1091.72753,0.19513
1090.23774,0.19554
1088.74795,0.19598
1087.25817,0.18914
1085.76838,0.18683
1084.27859,0.19614
1082.78880,0.19990
1081.29901,0.19595
1079.80922,0.21069
1078.31943,0.21366
1076.82965,0.21665
1075.33986,0.22954
1073.85007,0.23108
1072.36028,0.23521
1070.87049,0.24023
1069.38070,0.27897
1067.89092,0.30669
1066.40113,0.33442
1064.91134,0.37732
1063.42155,0.45974
1061.93176,0.55978
1060.44197,0.67659
1058.95219,0.79256
1057.46240,0.84846
1055.97261,0.90438
1054.48282,0.96311
1052.99303,1.01715
1051.50324,1.06648
1050.01345,1.03749
1048.52367,1.00960
1047.03388,0.98967
1045.54409,0.96977
1044.05430,0.94860
1042.56451,0.85362
1041.07472,0.79987
1039.58494,0.71459
1038.09515,0.63621
1036.60536,0.59305
1035.11557,0.54992
1033.62578,0.49479
1032.13599,0.43883
1030.64620,0.37001
1029.15642,0.32032
1027.66663,0.29566
1026.17684,0.27102
1024.68705,0.25918
1023.19726,0.22741
1021.70747,0.19716
1020.21769,0.17101
1018.72790,0.14467
1017.23811,0.14122
1015.74832,0.13779
1014.25853,0.11538
1012.76874,0.08978
1011.27896,0.10306
1009.78917,0.08631
1008.29938,0.07367
1006.80959,0.05943
1005.31980,0.04523
1003.83001,0.02771
1002.34022,0.01924
1000.85044,0.02883
999.36065,0.03951
997.87086,0.04560
996.38107,0.05171
994.89128,0.07384
993.40149,0.08784
991.91171,0.10078
990.42192,0.12148
988.93213,0.14865
987.44234,0.14900
985.95255,0.14938
984.46276,0.14184
982.97297,0.12960
981.48319,0.11503
979.99340,0.09017
978.50361,0.07650
977.01382,0.06286
975.52403,0.05160
974.03424,0.04401
972.54446,0.02465
971.05467,0.01196
969.56488,0.00423
968.07509,0.00432
966.58530,0.00444
965.09551,0.02601
963.60573,0.01154
962.11594,0.02263
960.62615,0.00370
959.13636,0.01297
957.64657,0.02226
956.15678,0.01815
954.66699,0.03425
953.17721,0.02183
951.68742,0.03282
950.19763,0.03912
948.70784,0.04544
947.21805,0.05844
945.72826,0.08434
944.23848,0.09696
942.74869,0.10273
941.25890,0.13579
939.76911,0.13904
938.27932,0.14230
936.78953,0.14817
935.29974,0.18820
933.80996,0.18059
932.32017,0.19641
930.83038,0.20012
929.34059,0.20385
927.85080,0.20944
926.36101,0.24939
924.87123,0.29881
923.38144,0.35234
921.89165,0.38077
920.40186,0.40923
918.91207,0.50576
917.42228,0.63580
915.93250,0.76437
914.44271,1.00479
912.95292,1.10700
911.46313,1.20923
909.97334,1.41431
908.48355,1.60266
906.99376,1.78160
905.50398,1.93137
904.01419,1.96567
902.52440,2.00000
901.03461,1.99915
899.54482,1.93070
898.05503,1.79402
896.56525,1.63546
895.07546,1.50108
893.58567,1.36672
892.09588,1.14577
890.60609,0.88728
889.11630,0.65415
887.62651,0.50819
886.13673,0.43856
884.64694,0.36896
883.15715,0.26429
881.66736,0.18132
880.17757,0.12671
878.68778,0.11323
877.19800,0.09977
875.70821,0.08366
874.21842,0.06607
872.72863,0.05258
871.23884,0.02259
869.74905,0.02739
868.25927,0.03222
866.76948,0.00423
865.27969,0.02451
863.78990,0.03623
862.30011,0.04432
860.81032,0.04557
859.32053,0.04684
857.83075,0.07303
856.34096,0.09668
854.85117,0.10575
853.36138,0.12386
851.87159,0.13234
850.38180,0.14083
848.89202,0.16632
847.40223,0.20384
845.91244,0.19116
844.42265,0.20523
842.93286,0.21933
841.44307,0.23012
839.95329,0.24286
838.46350,0.27152
836.97371,0.27422
835.48392,0.28533
833.99413,0.29645
832.50434,0.30760
831.01455,0.26275
829.52477,0.22178
828.03498,0.19801
826.54519,0.18071
825.05540,0.16343
823.56561,0.16571
822.07582,0.15298
820.58604,0.14865
819.09625,0.13533
817.60646,0.12204
816.11667,0.11435
814.62688,0.13824
813.13709,0.14090
811.64730,0.14938
810.15752,0.15005
808.66773,0.15074
807.17794,0.15629
805.68815,0.15005
804.19836,0.14642
802.70857,0.15902
801.21879,0.17164
799.72900,0.14661
798.23921,0.12182
796.74942,0.12217
795.25963,0.12941
793.76984,0.13668
792.28006,0.15320
790.79027,0.17511
789.30048,0.18266
787.81069,0.19496
786.32090,0.22274
784.83111,0.25055
783.34132,0.27537
781.85154,0.29614
780.36175,0.33904
778.87196,0.35395
777.38217,0.36889
775.89238,0.39276
774.40259,0.40828
772.91281,0.40043
771.42302,0.38928
769.93323,0.37814
768.44344,0.32228
766.95365,0.25979
765.46386,0.23166
763.97407,0.17308
762.48429,0.16132
760.99450,0.14958
759.50471,0.12864
758.01492,0.13047
756.52513,0.11150
755.03534,0.10319
753.54556,0.09490
752.05577,0.09511
750.56598,0.06895
749.07619,0.05096
747.58640,0.05017
746.09661,0.04941
744.60683,0.03707
743.11704,0.02713
741.62725,0.03223
740.13746,0.03371
738.64767,0.03521
737.15788,0.02214
735.66809,0.02412
734.17831,0.00423
732.68852,0.00838
731.19873,0.01256
729.70894,0.01998
728.21915,0.00510
726.72936,0.02225
725.23958,0.01410
723.74979,0.01691
722.26000,0.01976
720.77021,0.01339
719.28042,0.00319
717.79063,0.00924
716.30084,0.01188
714.81106,0.01454
713.32127,0.01916
711.83148,0.01994
710.34169,0.02633
708.85190,0.02716
707.36211,0.02801
705.87233,0.03361
704.38254,0.03858
702.89275,0.04359
701.40296,0.04046
699.91317,0.03735
698.42338,0.05638
696.93360,0.08595
695.44381,0.09944
693.95402,0.10609
692.46423,0.11277
690.97444,0.12912
689.48465,0.15087
687.99486,0.16771
686.50508,0.18263
685.01529,0.19758
683.52550,0.22608
682.03571,0.23829
680.54592,0.24601
679.05613,0.25344
677.56635,0.26089
676.07656,0.26847
674.58677,0.26256
673.09698,0.21438
671.60719,0.20765
670.11740,0.20094
668.62761,0.17172
667.13783,0.16400
665.64804,0.15414
664.15825,0.14432
662.66846,0.11348
661.17867,0.07193
659.68888,0.06625
658.19910,0.05866
656.70931,0.05110
655.21952,0.03026
653.72973,0.02554
652.23994,0.02942
650.75015,0.03656
649.26037,0.04371
647.77058,0.04596
646.28079,0.04608
644.79100,0.04064
643.30121,0.03727
641.81142,0.03392
640.32163,0.04680
638.83185,0.05520
637.34206,0.01854
635.85227,0.01186
634.36248,0.00519
632.87269,0.00423
631.38290,0.02224
629.89312,0.01365
628.40333,0.00863
626.91354,0.00364
625.42375,0.01444
623.93396,0.02871
622.44417,0.03355
620.95438,0.03842
619.46460,0.05984
617.97481,0.05124
616.48502,0.07721
614.99523,0.08454
613.50544,0.09189
612.01565,0.13876
610.52587,0.16676
609.03608,0.21497
607.54629,0.22886
606.05650,0.24277
604.56671,0.26894
603.07692,0.33420
601.58714,0.37576
600.09735,0.41735
598.60756,0.43890
597.11777,0.47678
595.62798,0.47883
594.13819,0.45505
592.64840,0.43129
591.15862,0.39886
589.66883,0.34713
588.17904,0.29607
586.68925,0.26511
585.19946,0.23417
583.70967,0.17760
582.21989,0.13544
580.73010,0.10983
579.24031,0.08425
577.75052,0.08144
576.26073,0.07587
574.77094,0.08985
573.28115,0.07778
571.79137,0.06573
570.30158,0.05661
568.81179,0.06511
567.32200,0.07567
565.83221,0.08626
564.34242,0.12639
562.85264,0.15345
561.36285,0.16443
559.87306,0.17103
558.38327,0.17766
556.89348,0.19129
555.40369,0.20688
553.91391,0.21884
552.42412,0.23083
550.93433,0.24605
549.44454,0.21795
547.95475,0.21777
546.46496,0.23758
544.97517,0.25741
543.48539,0.25687
541.99560,0.28277
540.50581,0.30224
539.01602,0.32174
537.52623,0.38441
536.03644,0.39688
534.54666,0.43255
533.05687,0.45204
531.56708,0.47155
530.07729,0.55795
528.58750,0.58900
527.09771,0.61352
525.60792,0.63807
524.11814,0.71126
522.62835,0.77009
521.13856,0.80727
519.64877,0.82987
518.15898,0.85250
516.66919,0.87772
515.17941,0.88473
513.68962,0.88124
512.19983,0.87777
510.71004,0.85437
509.22025,0.78849
507.73046,0.77393
506.24068,0.72226
504.75089,0.67062
503.26110,0.51940
501.77131,0.39181
500.28152,0.34432
498.79173,0.29685
497.30194,0.25349
495.81216,0.19447
494.32237,0.17820
492.83258,0.16196
491.34279,0.12878
489.85300,0.14606
488.36321,0.13762
486.87343,0.12522
485.38364,0.11285
483.89385,0.10706
482.40406,0.12103
480.91427,0.12741
479.42448,0.13381
477.93469,0.15043
476.44491,0.18790
474.95512,0.20049
473.46533,0.21311
471.97554,0.21265
470.48575,0.21587
468.99596,0.23500
467.50618,0.21895
466.01639,0.20292
464.52660,0.12981
463.03681,0.12328
461.54702,0.11870
460.05723,0.11414
458.56745,0.07334
457.07766,0.04285
455.58787,0.03859
454.09808,0.03434
452.60829,0.07520
451.11850,0.05619
449.62871,0.05073
448.13893,0.04530
446.64914,0.04418
445.15935,0.00423
443.66956,0.04432
442.17977,0.04149
440.68998,0.03870
439.20020,0.05739
437.71041,0.05872
436.22062,0.05428
434.73083,0.04986
433.24104,0.03130
431.75125,0.02092
430.26146,0.03814
428.77168,0.05539
427.28189,0.07020
425.79210,0.07430
424.30231,0.07563
422.81252,0.07698
421.32273,0.06248
419.83295,0.04993
418.34316,0.03976
416.85337,0.02962
415.36358,0.01457
413.87379,0.02874
412.38400,0.04013
410.89422,0.05156
409.40443,0.07674
407.91464,0.04957
406.42485,0.05183
404.93506,0.05155
403.44527,0.05128
401.95548,0.05169
400.46570,0.05104
398.97591,0.04495
397.48612,0.03888
395.99633,0.06127
394.50654,0.06866
393.01675,0.05386
391.52697,0.03909
390.03718,0.03088
388.54739,0.02506
387.05760,0.02541
385.56781,0.02578
384.07802,0.02273
382.58824,0.03646
381.09845,0.04634
379.60866,0.05625
378.11887,0.03055
376.62908,0.00423
375.13929,0.00481
373.64950,0.00541
372.15972,0.00765
370.66993,0.03138
369.18014,0.03097
367.69035,0.03058
366.20056,0.03655
364.71077,0.04276
363.22099,0.02903
361.73120,0.01532
360.24141,0.04844
358.75162,0.05882
357.26183,0.05012
355.77204,0.04145
354.28225,0.05599
352.79247,0.06088
351.30268,0.05679
349.81289,0.05272
348.32310,0.07100
346.83331,0.06870
345.34352,0.07254
343.85374,0.07640
342.36395,0.09757
340.87416,0.06101
339.38437,0.04370
337.89458,0.02640
336.40479,0.00430
334.91501,0.02323
333.42522,0.02039
331.93543,0.01758
330.44564,0.02649
328.95585,0.03220
327.46606,0.02398
325.97627,0.01579
324.48649,0.04098
322.99670,0.03529
321.50691,0.04014
320.01712,0.04501
318.52733,0.05527
317.03754,0.04903
315.54776,0.06954
314.05797,0.09007
312.56818,0.07875
311.07839,0.07389
309.58860,0.05360
308.09881,0.03334
306.60902,0.01825
305.11924,0.02078
303.62945,0.01486
302.13966,0.00423
300.64987,0.01398
299.16008,0.00423
