1778.52000,0.02481
1777.03021,0.01871
1775.54042,0.01861
1774.05063,0.01948
1772.56085,0.02574
1771.07106,0.02729
1769.58127,0.02635
1768.09148,0.02638
1766.60169,0.01289
1765.11190,0.01549
1763.62212,0.01654
1762.13233,0.02390
1760.64254,0.02154
1759.15275,0.01070
1757.66296,0.00775
1756.17317,0.00577
1754.68339,0.00004
1753.19360,0.00000
1751.70381,0.00817
1750.21402,0.01763
1748.72423,0.02207
1747.23444,0.00166
1745.74465,0.01528
1744.25487,0.01319
1742.76508,0.00766
1741.27529,0.01128
1739.78550,0.00674
1738.29571,0.02111
1736.80592,0.01221
1735.31614,0.00775
1733.82635,0.02236
1732.33656,0.01369
1730.84677,0.01355
1729.35698,0.00746
1727.86719,0.02468
1726.37740,0.00982
1724.88762,0.01671
1723.39783,0.01386
1721.90804,0.01576
1720.41825,0.00981
1718.92846,0.01302
1717.43867,0.00775
1715.94889,0.02277
1714.45910,0.02901
1712.96931,0.01417
1711.47952,0.02644
1709.98973,0.02204
1708.49994,0.01453
1707.01016,0.01018
1705.52037,0.00586
1704.03058,0.02706
1702.54079,0.01713
1701.05100,0.01540
1699.56121,0.01684
1698.07142,0.02240
1696.58164,0.00910
1695.09185,0.03486
1693.60206,0.02350
1692.11227,0.00775
1690.62248,0.01249
1689.13269,0.01884
1687.64291,0.02049
1686.15312,0.04325
1684.66333,0.03047
1683.17354,0.02432
1681.68375,0.02607
1680.19396,0.02563
1678.70417,0.03247
1677.21439,0.03303
1675.72460,0.04023
1674.23481,0.04745
1672.74502,0.03864
1671.25523,0.04559
1669.76544,0.05919
1668.27566,0.06179
1666.78587,0.06126
1665.29608,0.05226
1663.80629,0.05588
1662.31650,0.06959
1660.82671,0.07105
1659.33693,0.08450
1657.84714,0.07279
1656.35735,0.06205
1654.86756,0.06519
1653.37777,0.07842
1651.88798,0.06524
1650.39819,0.06026
1648.90841,0.06885
1647.41862,0.06990
1645.92883,0.07019
1644.43904,0.07051
1642.94925,0.07101
1641.45946,0.08287
1639.96968,0.07460
1638.47989,0.09092
1636.99010,0.07861
1635.50031,0.07923
1634.01052,0.07106
1632.52073,0.06072
1631.03094,0.07117
1629.54116,0.09771
1628.05137,0.08240
1626.56158,0.06995
1625.07179,0.08019
1623.58200,0.08825
1622.09221,0.08059
1620.60243,0.07170
1619.11264,0.08362
1617.62285,0.06407
1616.13306,0.08548
1614.64327,0.07984
1613.15348,0.07579
1611.66370,0.07964
1610.17391,0.07974
1608.68412,0.09151
1607.19433,0.09764
1605.70454,0.08459
1604.21475,0.08589
1602.72496,0.08721
1601.23518,0.08526
1599.74539,0.08521
1598.25560,0.08299
1596.76581,0.07985
1595.27602,0.09026
1593.78623,0.07647
1592.29645,0.08914
1590.80666,0.05524
1589.31687,0.06545
1587.82708,0.07221
1586.33729,0.06137
1584.84750,0.08078
1583.35771,0.08762
1581.86793,0.08409
1580.37814,0.06548
1578.88835,0.06232
1577.39856,0.07524
1575.90877,0.07779
1574.41898,0.07124
1572.92920,0.05307
1571.43941,0.06923
1569.94962,0.06401
1568.45983,0.05882
1566.97004,0.04358
1565.48025,0.04096
1563.99047,0.03741
1562.50068,0.03893
1561.01089,0.03071
1559.52110,0.03196
1558.03131,0.03891
1556.54152,0.02824
1555.05173,0.03996
1553.56195,0.01959
1552.07216,0.02726
1550.58237,0.02866
1549.09258,0.02599
1547.60279,0.03311
1546.11300,0.01412
1544.62322,0.00775
1543.13343,0.02033
1541.64364,0.01342
1540.15385,0.01410
1538.66406,0.01479
1537.17427,0.03157
1535.68448,0.01783
1534.19470,0.01640
1532.70491,0.00775
1531.21512,0.04066
1529.72533,0.02827
1528.23554,0.03353
1526.74575,0.05015
1525.25597,0.05357
1523.76618,0.03467
1522.27639,0.03656
1520.78660,0.03345
1519.29681,0.04012
1517.80702,0.05563
1516.31724,0.05951
1514.82745,0.05870
1513.33766,0.05665
1511.84787,0.05463
1510.35808,0.05357
1508.86829,0.07269
1507.37850,0.06413
1505.88872,0.05151
1504.39893,0.05653
1502.90914,0.04962
1501.41935,0.06729
1499.92956,0.06767
1498.43977,0.06177
1496.94999,0.08959
1495.46020,0.09980
1493.97041,0.09556
1492.48062,0.10897
1490.99083,0.08997
1489.50104,0.10690
1488.01125,0.10763
1486.52147,0.10839
1485.03168,0.15372
1483.54189,0.15814
1482.05210,0.17204
1480.56231,0.17935
1479.07252,0.17535
1477.58274,0.18366
1476.09295,0.20930
1474.60316,0.21703
1473.11337,0.23296
1471.62358,0.22814
1470.13379,0.21044
1468.64401,0.24187
1467.15422,0.26483
1465.66443,0.27680
1464.17464,0.28879
1462.68485,0.30993
1461.19506,0.33865
1459.70527,0.37653
1458.21549,0.43679
1456.72570,0.48416
1455.23591,0.57028
1453.74612,0.57268
1452.25633,0.62454
1450.76654,0.64305
1449.27676,0.65497
1447.78697,0.66251
1446.29718,0.65653
1444.80739,0.63862
1443.31760,0.62073
1441.82781,0.54841
1440.33802,0.48901
1438.84824,0.46994
1437.35845,0.43200
1435.86866,0.44635
1434.37887,0.47300
1432.88908,0.54154
1431.39929,0.58367
1429.90951,0.63936
1428.41972,0.71805
1426.92993,0.73223
1425.44014,0.78044
1423.95035,0.81655
1422.46056,0.85268
1420.97078,0.90128
1419.48099,0.87560
1417.99120,0.89465
1416.50141,0.88445
1415.01162,0.85758
1413.52183,0.84806
1412.03204,0.75325
1410.54226,0.69403
1409.05247,0.66160
1407.56268,0.61754
1406.07289,0.57005
1404.58310,0.54242
1403.09331,0.51481
1401.60353,0.45448
1400.11374,0.40331
1398.62395,0.36884
1397.13416,0.27648
1395.64437,0.26347
1394.15458,0.19540
1392.66479,0.18119
1391.17501,0.14842
1389.68522,0.12890
1388.19543,0.11035
1386.70564,0.10678
1385.21585,0.10324
1383.72606,0.06682
1382.23628,0.05309
1380.74649,0.03341
1379.25670,0.03264
1377.76691,0.01710
1376.27712,0.01921
1374.78733,0.01725
1373.29755,0.03106
1371.80776,0.00775
1370.31797,0.03311
1368.82818,0.03064
1367.33839,0.02819
1365.84860,0.03316
1364.35881,0.02746
1362.86903,0.05610
1361.37924,0.06146
1359.88945,0.09329
1358.39966,0.11854
1356.90987,0.14255
1355.42008,0.17225
1353.93030,0.22181
1352.44051,0.25550
1350.95072,0.28921
1349.46093,0.38796
1347.97114,0.41936
1346.48135,0.48920
1344.99156,0.56472
1343.50178,0.62610
1342.01199,0.69192
1340.52220,0.79176
1339.03241,0.83968
1337.54262,0.80010
1336.05283,0.82131
1334.56305,0.84255
1333.07326,0.90788
1331.58347,0.90996
1330.09368,0.88845
1328.60389,0.87925
1327.11410,0.84771
1325.62432,0.79983
1324.13453,0.77780
1322.64474,0.76649
1321.15495,0.75142
1319.66516,0.71923
1318.17537,0.68706
1316.68558,0.62957
1315.19580,0.57021
1313.70601,0.52694
1312.21622,0.49313
1310.72643,0.49304
1309.23664,0.46180
1307.74685,0.40698
1306.25707,0.37831
1304.76728,0.36132
1303.27749,0.34435
1301.78770,0.28710
1300.29791,0.23209
1298.80812,0.18686
1297.31834,0.17502
1295.82855,0.15818
1294.33876,0.14545
1292.84897,0.11259
1291.35918,0.11250
1289.86939,0.09686
1288.37960,0.08124
1286.88982,0.08752
1285.40003,0.08564
1283.91024,0.07560
1282.42045,0.07944
1280.93066,0.06378
1279.44087,0.06295
1277.95109,0.06025
1276.46130,0.07237
1274.97151,0.06484
1273.48172,0.05734
1271.99193,0.01318
1270.50214,0.03076
1269.01235,0.03859
1267.52257,0.04047
1266.03278,0.02507
1264.54299,0.03361
1263.05320,0.02832
1261.56341,0.02149
1260.07362,0.01468
1258.58384,0.02458
1257.09405,0.01939
1255.60426,0.02840
1254.11447,0.03428
1252.62468,0.02507
1251.13489,0.01715
1249.64511,0.02279
1248.15532,0.01271
1246.66553,0.01022
1245.17574,0.00775
1243.68595,0.03064
1242.19616,0.04600
1240.70637,0.03809
1239.21659,0.02674
1237.72680,0.05320
1236.23701,0.03214
1234.74722,0.04259
1233.25743,0.03496
1231.76764,0.02736
1230.27786,0.05299
1228.78807,0.02639
1227.29828,0.04829
1225.80849,0.02363
1224.31870,0.00781
1222.82891,0.00775
1221.33912,0.01219
1219.84934,0.02106
1218.35955,0.02996
1216.86976,0.06029
1215.37997,0.04752
1213.89018,0.07884
1212.40039,0.05762
1210.91061,0.06696
1209.42082,0.08576
1207.93103,0.06524
1206.44124,0.04474
1204.95145,0.06929
1203.46166,0.05294
1201.97188,0.03220
1200.48209,0.04549
1198.99230,0.02983
1197.50251,0.03562
1196.01272,0.01309
1194.52293,0.01687
1193.03314,0.02068
1191.54336,0.02310
1190.05357,0.01578
1188.56378,0.03745
1187.07399,0.02231
1185.58420,0.02483
1184.09441,0.01005
1182.60463,0.00900
1181.11484,0.00797
1179.62505,0.00775
1178.13526,0.01250
1176.64547,0.03365
1175.15568,0.01390
1173.66589,0.01306
1172.17611,0.01413
1170.68632,0.01571
1169.19653,0.01730
1167.70674,0.00775
1166.21695,0.02166
1164.72716,0.04221
1163.23738,0.00926
1161.74759,0.03270
1160.25780,0.04923
1158.76801,0.06043
1157.27822,0.07166
1155.78843,0.06874
1154.29865,0.09104
1152.80886,0.08062
1151.31907,0.09415
1149.82928,0.09889
1148.33949,0.12317
1146.84970,0.12922
1145.35991,0.13529
1143.87013,0.13037
1142.38034,0.13492
1140.89055,0.13729
1139.40076,0.13118
1137.91097,0.15218
1136.42118,0.19240
1134.93140,0.19581
1133.44161,0.19925
1131.95182,0.21310
1130.46203,0.23233
1128.97224,0.22010
1127.48245,0.22584
1125.99266,0.24955
1124.50288,0.25156
1123.01309,0.24305
1121.52330,0.23456
1120.03351,0.22122
1118.54372,0.21546
1117.05393,0.24373
1115.56415,0.23990
1114.07436,0.23233
1112.58457,0.23139
1111.09478,0.23048
1109.60499,0.20283
1108.11520,0.24320
1106.62542,0.23386
1105.13563,0.26673
1103.64584,0.23194
1102.15605,0.21039
1100.66626,0.20052
1099.17647,0.19068
1097.68668,0.19030
1096.19690,0.18239
1094.70711,0.18489
1093.21732,0.18239
1091.72753,0.16574
1090.23774,0.16800
1088.74795,0.17029
1087.25817,0.16977
1085.76838,0.16455
1084.27859,0.13764
1082.78880,0.15640
1081.29901,0.15849
1079.80922,0.17793
1078.31943,0.16544
1076.82965,0.15297
1075.33986,0.17721
1073.85007,0.18226
1072.36028,0.17978
1070.87049,0.18016
1069.38070,0.19348
1067.89092,0.20556
1066.40113,0.21766
1064.91134,0.29748
1063.42155,0.34143
1061.93176,0.40838
1060.44197,0.49898
1058.95219,0.54552
1057.46240,0.57572
1055.97261,0.60594
1054.48282,0.73283
1052.99303,0.79144
1051.50324,0.80694
1050.01345,0.83820
1048.52367,0.79740
1047.03388,0.79125
1045.54409,0.78512
1044.05430,0.74124
1042.56451,0.70368
1041.07472,0.66049
1039.58494,0.59716
1038.09515,0.56944
1036.60536,0.52663
1035.11557,0.48384
1033.62578,0.44832
1032.13599,0.38071
1030.64620,0.33265
1029.15642,0.29437
1027.66663,0.27406
1026.17684,0.25377
1024.68705,0.25240
1023.19726,0.20729
1021.70747,0.18016
1020.21769,0.12219
1018.72790,0.11588
1017.23811,0.10896
1015.74832,0.10207
1014.25853,0.06971
1012.76874,0.07829
1011.27896,0.07588
1009.78917,0.08011
1008.29938,0.09286
1006.80959,0.07274
1005.31980,0.05264
1003.83001,0.04878
1002.34022,0.01252
1000.85044,0.01784
999.36065,0.02224
997.87086,0.02462
996.38107,0.02702
994.89128,0.02299
993.40149,0.03158
991.91171,0.07137
990.42192,0.08127
988.93213,0.07640
987.44234,0.08288
985.95255,0.08939
984.46276,0.10380
982.97297,0.08171
981.48319,0.06594
979.99340,0.04359
978.50361,0.05274
977.01382,0.06192
975.52403,0.03712
974.03424,0.02336
972.54446,0.01278
971.05467,0.01545
969.56488,0.00775
968.07509,0.00904
966.58530,0.01035
965.09551,0.01421
963.60573,0.00959
962.11594,0.01066
960.62615,0.01365
959.13636,0.02186
957.64657,0.03009
956.15678,0.02685
954.66699,0.01923
953.17721,0.02045
951.68742,0.02485
950.19763,0.03556
948.70784,0.04630
947.21805,0.05518
945.72826,0.06723
944.23848,0.09441
942.74869,0.09675
941.25890,0.09502
939.76911,0.10890
938.27932,0.12280
936.78953,0.16333
935.29974,0.17996
933.80996,0.20480
932.32017,0.21203
930.83038,0.20623
929.34059,0.20044
927.85080,0.24553
926.36101,0.28057
924.87123,0.29202
923.38144,0.34757
921.89165,0.38645
920.40186,0.42537
918.91207,0.50744
917.42228,0.62070
915.93250,0.74311
914.44271,0.96062
912.95292,1.06672
911.46313,1.17284
909.97334,1.33816
908.48355,1.60678
906.99376,1.78412
905.50398,1.89223
904.01419,1.91976
902.52440,1.94732
901.03461,1.98813
899.54482,2.00000
898.05503,1.92091
896.56525,1.70805
895.07546,1.57533
893.58567,1.44264
892.09588,1.14453
890.60609,0.90721
889.11630,0.68188
887.62651,0.54882
886.13673,0.47685
884.64694,0.40491
883.15715,0.28388
881.66736,0.20412
880.17757,0.15523
878.68778,0.14195
877.19800,0.12869
875.70821,0.08964
874.21842,0.05407
872.72863,0.04277
871.23884,0.01859
869.74905,0.01805
868.25927,0.01753
866.76948,0.02207
865.27969,0.00775
863.78990,0.05238
862.30011,0.03218
860.81032,0.04381
859.32053,0.05545
857.83075,0.07815
856.34096,0.09394
854.85117,0.08362
853.36138,0.09820
851.87159,0.09172
850.38180,0.08525
848.89202,0.11974
847.40223,0.14418
845.91244,0.14787
844.42265,0.16763
842.93286,0.18743
841.44307,0.16726
839.95329,0.17419
838.46350,0.18713
836.97371,0.21961
835.48392,0.22882
833.99413,0.23806
832.50434,0.21332
831.01455,0.20151
829.52477,0.18752
828.03498,0.17450
826.54519,0.16119
825.05540,0.14791
823.56561,0.13686
822.07582,0.09655
820.58604,0.11136
819.09625,0.10746
817.60646,0.10358
816.11667,0.08919
814.62688,0.09623
813.13709,0.09416
811.64730,0.10156
810.15752,0.11686
808.66773,0.13218
807.17794,0.10943
805.68815,0.10749
804.19836,0.11564
802.70857,0.12130
801.21879,0.12699
799.72900,0.10688
798.23921,0.10223
796.74942,0.09697
795.25963,0.10401
793.76984,0.11108
792.28006,0.13675
790.79027,0.11711
789.30048,0.10316
787.81069,0.15534
786.32090,0.15608
784.83111,0.15684
783.34132,0.18297
781.85154,0.22833
780.36175,0.27592
778.87196,0.28874
777.38217,0.30159
775.89238,0.32438
774.40259,0.35664
772.91281,0.34045
771.42302,0.32884
769.93323,0.31725
768.44344,0.28193
766.95365,0.24033
765.46386,0.20064
763.97407,0.17609
762.48429,0.16526
760.99450,0.15446
759.50471,0.11550
758.01492,0.09986
756.52513,0.07481
755.03534,0.06252
753.54556,0.05027
752.05577,0.06716
750.56598,0.08218
749.07619,0.05347
747.58640,0.05438
746.09661,0.05531
744.60683,0.05438
743.11704,0.03332
741.62725,0.02709
740.13746,0.03111
738.64767,0.03516
737.15788,0.03120
735.66809,0.00775
734.17831,0.01942
732.68852,0.01318
731.19873,0.00695
729.70894,0.02633
728.21915,0.01552
726.72936,0.02235
725.23958,0.01977
723.74979,0.01375
722.26000,0.00775
720.77021,0.02807
719.28042,0.00844
717.79063,0.01434
716.30084,0.01506
714.81106,0.01581
713.32127,0.01769
711.83148,0.03218
710.34169,0.02655
708.85190,0.02803
707.36211,0.02953
705.87233,0.05010
704.38254,0.03733
702.89275,0.05763
701.40296,0.05247
699.91317,0.04732
698.42338,0.05543
696.93360,0.08213
695.44381,0.10823
693.95402,0.11830
692.46423,0.12839
690.97444,0.14511
689.48465,0.16250
687.99486,0.19564
686.50508,0.20032
685.01529,0.20503
683.52550,0.22220
682.03571,0.24379
680.54592,0.26384
679.05613,0.26644
677.56635,0.26907
676.07656,0.27565
674.58677,0.26684
673.09698,0.25143
671.60719,0.23070
670.11740,0.21000
668.62761,0.19782
667.13783,0.16614
665.64804,0.15779
664.15825,0.14946
662.66846,0.10967
661.17867,0.08975
659.68888,0.09566
658.19910,0.07814
656.70931,0.06065
655.21952,0.05341
653.72973,0.04589
652.23994,0.06640
650.75015,0.06286
649.26037,0.05934
647.77058,0.06168
646.28079,0.03633
644.79100,0.04564
643.30121,0.05906
641.81142,0.07251
640.32163,0.06835
638.83185,0.03967
637.34206,0.00880
635.85227,0.00826
634.36248,0.00775
632.87269,0.02880
631.38290,0.03004
629.89312,0.03603
628.40333,0.03339
626.91354,0.03077
625.42375,0.05289
623.93396,0.04104
622.44417,0.04416
620.95438,0.04731
619.46460,0.02640
617.97481,0.04518
616.48502,0.06336
614.99523,0.07856
613.50544,0.09380
612.01565,0.12905
610.52587,0.17125
609.03608,0.17097
607.54629,0.20032
606.05650,0.22968
604.56671,0.26758
603.07692,0.32218
601.58714,0.35619
600.09735,0.39022
598.60756,0.42223
597.11777,0.41585
595.62798,0.41926
594.13819,0.40664
592.64840,0.39404
591.15862,0.39973
589.66883,0.31572
588.17904,0.27549
586.68925,0.24631
585.19946,0.21715
583.70967,0.15465
582.21989,0.12680
580.73010,0.11235
579.24031,0.09793
577.75052,0.06921
576.26073,0.07105
574.77094,0.08205
573.28115,0.07119
571.79137,0.06036
570.30158,0.04782
568.81179,0.07087
567.32200,0.07947
565.83221,0.08810
564.34242,0.11092
562.85264,0.12180
561.36285,0.13900
559.87306,0.14347
558.38327,0.14797
556.89348,0.16808
555.40369,0.16775
553.91391,0.16414
552.42412,0.16055
550.93433,0.16376
549.44454,0.15754
547.95475,0.18220
546.46496,0.18769
544.97517,0.19320
543.48539,0.20251
541.99560,0.22286
540.50581,0.24293
539.01602,0.26302
537.52623,0.33696
536.03644,0.38103
534.54666,0.41127
533.05687,0.42122
531.56708,0.43120
530.07729,0.48292
528.58750,0.57087
527.09771,0.58785
525.60792,0.60486
524.11814,0.68532
522.62835,0.77211
521.13856,0.80603
519.64877,0.80472
518.15898,0.80343
516.66919,0.83585
515.17941,0.85099
513.68962,0.85261
512.19983,0.85425
510.71004,0.83262
509.22025,0.80504
507.73046,0.73466
506.24068,0.67171
504.75089,0.60878
503.26110,0.49629
501.77131,0.40713
500.28152,0.33247
498.79173,0.25783
497.30194,0.20211
495.81216,0.18356
494.32237,0.16819
492.83258,0.15284
491.34279,0.15357
489.85300,0.12819
488.36321,0.11166
486.87343,0.08917
485.38364,0.06670
483.89385,0.08329
482.40406,0.11471
480.91427,0.11734
479.42448,0.12000
477.93469,0.13638
476.44491,0.13893
474.95512,0.14875
473.46533,0.15859
471.97554,0.17161
470.48575,0.15002
468.99596,0.16025
467.50618,0.14343
466.01639,0.12663
464.52660,0.11773
463.03681,0.09973
461.54702,0.08852
460.05723,0.07733
458.56745,0.05531
457.07766,0.04590
455.58787,0.04738
454.09808,0.04889
452.60829,0.04176
451.11850,0.03403
449.62871,0.03435
448.13893,0.03469
446.64914,0.02986
445.15935,0.00775
443.66956,0.03485
442.17977,0.04339
440.68998,0.05197
439.20020,0.04828
437.71041,0.06383
436.22062,0.05595
434.73083,0.04809
433.24104,0.05836
431.75125,0.05292
430.26146,0.05804
428.77168,0.06319
427.28189,0.05058
425.79210,0.05058
424.30231,0.05943
422.81252,0.06829
421.32273,0.05641
419.83295,0.04896
418.34316,0.04169
416.85337,0.03444
415.36358,0.01604
413.87379,0.05423
412.38400,0.04663
410.89422,0.03906
409.40443,0.03671
407.91464,0.04257
406.42485,0.04625
404.93506,0.03610
403.44527,0.02598
401.95548,0.03571
400.46570,0.03855
398.97591,0.03401
397.48612,0.02949
395.99633,0.02170
394.50654,0.02557
393.01675,0.02775
391.52697,0.02961
390.03718,0.03322
388.54739,0.03120
387.05760,0.02983
385.56781,0.02848
384.07802,0.01205
382.58824,0.02991
381.09845,0.02638
379.60866,0.02288
378.11887,0.00775
376.62908,0.01874
375.13929,0.01873
373.64950,0.01875
372.15972,0.04460
370.66993,0.04813
369.18014,0.04146
367.69035,0.03480
366.20056,0.02913
364.71077,0.05245
363.22099,0.04147
361.73120,0.03052
360.24141,0.09043
358.75162,0.07827
357.26183,0.08392
355.77204,0.08960
354.28225,0.08034
352.79247,0.07647
351.30268,0.07891
349.81289,0.08138
348.32310,0.07380
346.83331,0.09741
345.34352,0.07697
343.85374,0.05656
342.36395,0.06387
340.87416,0.04162
339.38437,0.04269
337.89458,0.04378
336.40479,0.00775
334.91501,0.03028
333.42522,0.03710
331.93543,0.04394
330.44564,0.06120
328.95585,0.05361
327.46606,0.06021
325.97627,0.06684
324.48649,0.05366
322.99670,0.04680
321.50691,0.03477
320.01712,0.02276
318.52733,0.05721
317.03754,0.06525
315.54776,0.07047
314.05797,0.07572
312.56818,0.09800
311.07839,0.11274
309.58860,0.10500
308.09881,0.09729
306.60902,0.05009
305.11924,0.05958
303.62945,0.05146
302.13966,0.04337
300.64987,0.01296
299.16008,0.00775
