1778.52000,0.00679
1777.03021,0.01111
1775.54042,0.01566
1774.05063,0.02066
1772.56085,0.00674
1771.07106,0.00178
1769.58127,0.01260
1768.09148,0.01195
1766.60169,0.00643
1765.11190,0.01051
1763.62212,0.00376
1762.13233,0.00682
1760.64254,0.00459
1759.15275,0.00621
1757.66296,0.01126
1756.17317,0.00634
1754.68339,0.00526
1753.19360,0.01592
1751.70381,0.00000
1750.21402,0.00496
1748.72423,0.00675
1747.23444,0.00261
1745.74465,0.00466
1744.25487,0.00695
1742.76508,0.00884
1741.27529,0.01096
1739.78550,0.00907
1738.29571,0.00400
1736.80592,0.00514
1735.31614,0.00459
1733.82635,0.00466
1732.33656,0.00859
1730.84677,0.01062
1729.35698,0.00800
1727.86719,0.00646
1726.37740,0.01027
1724.88762,0.00474
1723.39783,0.01158
1721.90804,0.01078
1720.41825,0.01086
1718.92846,0.00840
1717.43867,0.00363
1715.94889,0.00591
1714.45910,0.00459
1712.96931,0.00966
1711.47952,0.01646
1709.98973,0.00732
1708.49994,0.01097
1707.01016,0.00635
1705.52037,0.00175
1704.03058,0.00534
1702.54079,0.00980
1701.05100,0.00534
1699.56121,0.01155
1698.07142,0.00459
1696.58164,0.01505
1695.09185,0.02043
1693.60206,0.01902
1692.11227,0.01445
1690.62248,0.01756
1689.13269,0.01494
1687.64291,0.01044
1686.15312,0.01937
1684.66333,0.02555
1683.17354,0.03538
1681.68375,0.02608
1680.19396,0.02127
1678.70417,0.02713
1677.21439,0.03428
1675.72460,0.04913
1674.23481,0.04591
1672.74502,0.04122
1671.25523,0.04932
1669.76544,0.05469
1668.27566,0.06114
1666.78587,0.06974
1665.29608,0.07731
1663.80629,0.07234
1662.31650,0.06930
1660.82671,0.08269
1659.33693,0.07587
1657.84714,0.08590
1656.35735,0.07786
1654.86756,0.09474
1653.37777,0.07291
1651.88798,0.08751
1650.39819,0.08169
1648.90841,0.08313
1647.41862,0.07374
1645.92883,0.07832
1644.43904,0.08292
1642.94925,0.09809
1641.45946,0.09795
1639.96968,0.09187
1638.47989,0.09051
1636.99010,0.09789
1635.50031,0.08188
1634.01052,0.09591
1632.52073,0.08655
1631.03094,0.08254
1629.54116,0.09345
1628.05137,0.09779
1626.56158,0.09469
1625.07179,0.10121
1623.58200,0.10498
1622.09221,0.09962
1620.60243,0.11003
1619.11264,0.10579
1617.62285,0.10986
1616.13306,0.09332
1614.64327,0.08978
1613.15348,0.09585
1611.66370,0.09066
1610.17391,0.09869
1608.68412,0.09887
1607.19433,0.09992
1605.70454,0.09781
1604.21475,0.09519
1602.72496,0.09259
1601.23518,0.09970
1599.74539,0.09023
1598.25560,0.09101
1596.76581,0.10010
1595.27602,0.08305
1593.78623,0.08453
1592.29645,0.08646
1590.80666,0.08672
1589.31687,0.07210
1587.82708,0.08241
1586.33729,0.08572
1584.84750,0.08138
1583.35771,0.07708
1581.86793,0.08173
1580.37814,0.07577
1578.88835,0.07516
1577.39856,0.07648
1575.90877,0.07889
1574.41898,0.06175
1572.92920,0.06229
1571.43941,0.05882
1569.94962,0.04983
1568.45983,0.04087
1566.97004,0.04726
1565.48025,0.03515
1563.99047,0.04116
1562.50068,0.03655
1561.01089,0.03240
1559.52110,0.03188
1558.03131,0.03267
1556.54152,0.03220
1555.05173,0.02835
1553.56195,0.02580
1552.07216,0.02477
1550.58237,0.01291
1549.09258,0.02086
1547.60279,0.01437
1546.11300,0.01854
1544.62322,0.02252
1543.13343,0.00737
1541.64364,0.00459
1540.15385,0.01331
1538.66406,0.02205
1537.17427,0.02262
1535.68448,0.01173
1534.19470,0.01512
1532.70491,0.01725
1531.21512,0.02324
1529.72533,0.02585
1528.23554,0.02891
1526.74575,0.02880
1525.25597,0.04382
1523.76618,0.03929
1522.27639,0.03542
1520.78660,0.03967
1519.29681,0.05628
1517.80702,0.04482
1516.31724,0.05680
1514.82745,0.04432
1513.33766,0.04933
1511.84787,0.05435
1510.35808,0.04642
1508.86829,0.04447
1507.37850,0.05489
1505.88872,0.04022
1504.39893,0.06090
1502.90914,0.06267
1501.41935,0.07936
1499.92956,0.08330
1498.43977,0.06705
1496.94999,0.07274
1495.46020,0.10592
1493.97041,0.10996
1492.48062,0.11019
1490.99083,0.12215
1489.50104,0.12051
1488.01125,0.12742
1486.52147,0.13434
1485.03168,0.16449
1483.54189,0.20404
1482.05210,0.21636
1480.56231,0.23956
1479.07252,0.27640
1477.58274,0.27304
1476.09295,0.27205
1474.60316,0.27662
1473.11337,0.28908
1471.62358,0.28135
1470.13379,0.30067
1468.64401,0.29342
1467.15422,0.33194
1465.66443,0.34261
1464.17464,0.35331
1462.68485,0.39404
1461.19506,0.43607
1459.70527,0.46855
1458.21549,0.53064
1456.72570,0.60978
1455.23591,0.64148
1453.74612,0.70385
1452.25633,0.71835
1450.76654,0.75502
1449.27676,0.75446
1447.78697,0.71476
1446.29718,0.70361
1444.80739,0.69578
1443.31760,0.68797
1441.82781,0.64156
1440.33802,0.57686
1438.84824,0.53156
1437.35845,0.53268
1435.86866,0.50637
1434.37887,0.51372
1432.88908,0.55621
1431.39929,0.64427
1429.90951,0.71746
1428.41972,0.77833
1426.92993,0.83454
1425.44014,0.89630
1423.95035,0.93170
1422.46056,0.96712
1420.97078,0.97298
1419.48099,0.95886
1417.99120,0.95838
1416.50141,0.91855
1415.01162,0.86043
1413.52183,0.85428
1412.03204,0.78770
1410.54226,0.74371
1409.05247,0.68122
1407.56268,0.64047
1406.07289,0.59314
1404.58310,0.55765
1403.09331,0.52219
1401.60353,0.45897
1400.11374,0.40344
1398.62395,0.36645
1397.13416,0.31607
1395.64437,0.26253
1394.15458,0.22881
1392.66479,0.19298
1391.17501,0.16846
1389.68522,0.13885
1388.19543,0.10671
1386.70564,0.10131
1385.21585,0.09594
1383.72606,0.05323
1382.23628,0.05631
1380.74649,0.04260
1379.25670,0.03636
1377.76691,0.02376
1376.27712,0.00459
1374.78733,0.01613
1373.29755,0.01301
1371.80776,0.00587
1370.31797,0.01065
1368.82818,0.01344
1367.33839,0.01624
1365.84860,0.04004
1364.35881,0.02513
1362.86903,0.03407
1361.37924,0.06688
1359.88945,0.08844
1358.39966,0.10725
1356.90987,0.13843
1355.42008,0.18411
1353.93030,0.24705
1352.44051,0.27511
1350.95072,0.30320
1349.46093,0.38175
1347.97114,0.43755
1346.48135,0.50190
1344.99156,0.57839
1343.50178,0.66152
1342.01199,0.72146
1340.52220,0.77504
1339.03241,0.82971
1337.54262,0.85056
1336.05283,0.87570
1334.56305,0.90085
1333.07326,0.90964
1331.58347,0.90867
1330.09368,0.89260
1328.60389,0.89998
1327.11410,0.87098
1325.62432,0.82497
1324.13453,0.80815
1322.64474,0.78178
1321.15495,0.74776
1319.66516,0.72921
1318.17537,0.71067
1316.68558,0.64246
1315.19580,0.59620
1313.70601,0.54571
1312.21622,0.53291
1310.72643,0.48161
1309.23664,0.48206
1307.74685,0.46508
1306.25707,0.42557
1304.76728,0.40023
1303.27749,0.37491
1301.78770,0.33695
1300.29791,0.28199
1298.80812,0.23621
1297.31834,0.18151
1295.82855,0.15365
1294.33876,0.13455
1292.84897,0.12675
1291.35918,0.09811
1289.86939,0.09537
1288.37960,0.09264
1286.88982,0.09047
1285.40003,0.07449
1283.91024,0.08557
1282.42045,0.07240
1280.93066,0.06054
1279.44087,0.05126
1277.95109,0.05391
1276.46130,0.06894
1274.97151,0.05813
1273.48172,0.04735
1271.99193,0.02477
1270.50214,0.03500
1269.01235,0.02142
1267.52257,0.02957
1266.03278,0.02327
1264.54299,0.03104
1263.05320,0.02627
1261.56341,0.02324
1260.07362,0.02023
1258.58384,0.00809
1257.09405,0.01236
1255.60426,0.01517
1254.11447,0.00459
1252.62468,0.02609
1251.13489,0.01654
1249.64511,0.02042
1248.15532,0.01220
1246.66553,0.00910
1245.17574,0.00603
1243.68595,0.01809
1242.19616,0.01677
1240.70637,0.01142
1239.21659,0.00440
1237.72680,0.01996
1236.23701,0.02001
1234.74722,0.02327
1233.25743,0.01890
1231.76764,0.01455
1230.27786,0.02725
1228.78807,0.03742
1227.29828,0.01356
1225.80849,0.00654
1224.31870,0.01891
1222.82891,0.00513
1221.33912,0.03295
1219.84934,0.03844
1218.35955,0.04396
1216.86976,0.05567
1215.37997,0.04272
1213.89018,0.07194
1212.40039,0.07500
1210.91061,0.08575
1209.42082,0.08332
1207.93103,0.07538
1206.44124,0.06747
1204.95145,0.07917
1203.46166,0.06981
1201.97188,0.06729
1200.48209,0.05160
1198.99230,0.05871
1197.50251,0.04775
1196.01272,0.03937
1194.52293,0.02505
1193.03314,0.01076
1191.54336,0.01245
1190.05357,0.02460
1188.56378,0.01762
1187.07399,0.02726
1185.58420,0.03842
1184.09441,0.01682
1182.60463,0.01493
1181.11484,0.01307
1179.62505,0.00730
1178.13526,0.01027
1176.64547,0.00540
1175.15568,0.00459
1173.66589,0.00558
1172.17611,0.01255
1170.68632,0.01230
1169.19653,0.01208
1167.70674,0.02530
1166.21695,0.02598
1164.72716,0.02541
1163.23738,0.01294
1161.74759,0.03221
1160.25780,0.04619
1158.76801,0.05391
1157.27822,0.06165
1155.78843,0.06910
1154.29865,0.08168
1152.80886,0.08811
1151.31907,0.09712
1149.82928,0.10807
1148.33949,0.10329
1146.84970,0.11174
1145.35991,0.12021
1143.87013,0.12019
1142.38034,0.15084
1140.89055,0.15959
1139.40076,0.15943
1137.91097,0.16674
1136.42118,0.20026
1134.93140,0.19825
1133.44161,0.19627
1131.95182,0.22390
1130.46203,0.21750
1128.97224,0.22198
1127.48245,0.20689
1125.99266,0.23930
1124.50288,0.23959
1123.01309,0.23853
1121.52330,0.23748
1120.03351,0.22380
1118.54372,0.23057
1117.05393,0.23162
1115.56415,0.22248
1114.07436,0.23635
1112.58457,0.22705
1111.09478,0.21776
1109.60499,0.20254
1108.11520,0.21694
1106.62542,0.22433
1105.13563,0.22706
1103.64584,0.22258
1102.15605,0.22047
1100.66626,0.21221
1099.17647,0.20397
1097.68668,0.20533
1096.19690,0.21332
1094.70711,0.18281
1093.21732,0.18318
1091.72753,0.19869
1090.23774,0.18538
1088.74795,0.17209
1087.25817,0.18640
1085.76838,0.18817
1084.27859,0.19827
1082.78880,0.20604
1081.29901,0.20874
1079.80922,0.21082
1078.31943,0.20813
1076.82965,0.20547
1075.33986,0.23657
1073.85007,0.24939
1072.36028,0.24478
1070.87049,0.25935
1069.38070,0.29693
1067.89092,0.31389
1066.40113,0.33087
1064.91134,0.38683
1063.42155,0.48560
1061.93176,0.57843
1060.44197,0.66958
1058.95219,0.77162
1057.46240,0.83366
1055.97261,0.89572
1054.48282,1.01251
1052.99303,1.07356
1051.50324,1.08717
1050.01345,1.05142
1048.52367,1.04974
1047.03388,1.01979
1045.54409,0.98985
1044.05430,0.96144
1042.56451,0.84449
1041.07472,0.79079
1039.58494,0.73073
1038.09515,0.63408
1036.60536,0.59600
1035.11557,0.55793
1033.62578,0.48647
1032.13599,0.41078
1030.64620,0.33809
1029.15642,0.31076
1027.66663,0.29027
1026.17684,0.26981
1024.68705,0.25234
1023.19726,0.22065
1021.70747,0.17811
1020.21769,0.15115
1018.72790,0.15145
1017.23811,0.13751
1015.74832,0.12360
1014.25853,0.11439
1012.76874,0.09095
1011.27896,0.09691
1009.78917,0.09373
1008.29938,0.06760
1006.80959,0.05117
1005.31980,0.03476
1003.83001,0.03233
1002.34022,0.04141
1000.85044,0.04455
999.36065,0.05389
997.87086,0.06219
996.38107,0.07052
994.89128,0.07248
993.40149,0.06638
991.91171,0.09245
990.42192,0.13088
988.93213,0.15189
987.44234,0.16185
985.95255,0.17183
984.46276,0.16971
982.97297,0.14249
981.48319,0.13488
979.99340,0.09111
978.50361,0.08493
977.01382,0.07877
975.52403,0.06807
974.03424,0.04291
972.54446,0.01246
971.05467,0.01076
969.56488,0.00654
968.07509,0.00989
966.58530,0.01327
965.09551,0.00848
963.60573,0.00755
962.11594,0.00472
960.62615,0.01858
959.13636,0.01458
957.64657,0.01061
956.15678,0.02625
954.66699,0.03573
953.17721,0.00459
951.68742,0.03195
950.19763,0.03156
948.70784,0.03119
947.21805,0.06799
945.72826,0.08523
944.23848,0.08568
942.74869,0.09723
941.25890,0.12901
939.76911,0.12985
938.27932,0.13072
936.78953,0.14853
935.29974,0.18446
933.80996,0.17997
932.32017,0.19104
930.83038,0.18809
929.34059,0.18516
927.85080,0.22398
926.36101,0.26601
924.87123,0.28295
923.38144,0.32248
921.89165,0.36863
920.40186,0.41480
918.91207,0.53103
917.42228,0.67495
915.93250,0.81890
914.44271,1.02970
912.95292,1.13645
911.46313,1.24322
909.97334,1.48283
908.48355,1.68160
906.99376,1.82952
905.50398,1.92213
904.01419,1.94824
902.52440,1.97437
901.03461,2.00000
899.54482,1.96967
898.05503,1.80442
896.56525,1.61513
895.07546,1.47941
893.58567,1.34370
892.09588,1.07702
890.60609,0.82844
889.11630,0.65184
887.62651,0.48420
886.13673,0.42290
884.64694,0.36163
883.15715,0.26792
881.66736,0.21043
880.17757,0.15849
878.68778,0.14616
877.19800,0.13386
875.70821,0.08029
874.21842,0.07102
872.72863,0.06986
871.23884,0.04765
869.74905,0.04047
868.25927,0.03332
866.76948,0.04524
865.27969,0.04611
863.78990,0.05979
862.30011,0.07008
860.81032,0.07294
859.32053,0.07583
857.83075,0.08364
856.34096,0.11233
854.85117,0.13274
853.36138,0.14361
851.87159,0.16130
850.38180,0.17902
848.89202,0.18932
847.40223,0.19921
845.91244,0.22317
844.42265,0.23535
842.93286,0.24755
841.44307,0.26988
839.95329,0.27926
838.46350,0.30292
836.97371,0.28318
835.48392,0.29912
833.99413,0.31508
832.50434,0.29967
831.01455,0.28940
829.52477,0.28915
828.03498,0.23976
826.54519,0.22338
825.05540,0.20703
823.56561,0.18857
822.07582,0.18078
820.58604,0.16450
819.09625,0.15421
817.60646,0.14393
816.11667,0.14135
814.62688,0.13496
813.13709,0.14753
811.64730,0.16503
810.15752,0.15860
808.66773,0.15220
807.17794,0.15806
805.68815,0.17587
804.19836,0.17347
802.70857,0.16930
801.21879,0.16514
799.72900,0.16453
798.23921,0.13647
796.74942,0.12335
795.25963,0.13121
793.76984,0.13910
792.28006,0.17223
790.79027,0.19305
789.30048,0.19089
787.81069,0.22155
786.32090,0.23871
784.83111,0.25589
783.34132,0.29130
781.85154,0.32673
780.36175,0.37943
778.87196,0.40022
777.38217,0.42104
775.89238,0.41825
774.40259,0.42826
772.91281,0.42021
771.42302,0.40823
769.93323,0.39629
768.44344,0.35360
766.95365,0.30371
765.46386,0.25724
763.97407,0.19739
762.48429,0.18621
760.99450,0.17504
759.50471,0.15379
758.01492,0.12809
756.52513,0.11562
755.03534,0.10763
753.54556,0.09968
752.05577,0.08983
750.56598,0.06957
749.07619,0.06041
747.58640,0.05010
746.09661,0.03981
744.60683,0.03860
743.11704,0.02634
741.62725,0.02773
740.13746,0.02307
738.64767,0.01844
737.15788,0.01118
735.66809,0.01436
734.17831,0.00459
732.68852,0.00804
731.19873,0.01152
729.70894,0.01640
728.21915,0.00684
726.72936,0.00560
725.23958,0.01950
723.74979,0.01203
722.26000,0.00459
720.77021,0.00705
719.28042,0.00995
717.79063,0.01331
716.30084,0.01105
714.81106,0.00881
713.32127,0.01565
711.83148,0.02123
710.34169,0.03045
708.85190,0.02714
707.36211,0.02385
705.87233,0.02911
704.38254,0.03885
702.89275,0.02649
701.40296,0.02851
699.91317,0.03056
698.42338,0.04679
696.93360,0.07453
695.44381,0.10699
693.95402,0.10296
692.46423,0.09896
690.97444,0.13851
689.48465,0.14977
687.99486,0.17341
686.50508,0.18344
685.01529,0.19350
683.52550,0.20976
682.03571,0.23136
680.54592,0.26129
679.05613,0.25228
677.56635,0.24331
676.07656,0.26032
674.58677,0.24607
673.09698,0.22206
671.60719,0.21349
670.11740,0.20496
668.62761,0.17761
667.13783,0.16284
665.64804,0.14778
664.15825,0.13274
662.66846,0.11974
661.17867,0.06655
659.68888,0.06424
658.19910,0.05760
656.70931,0.05099
655.21952,0.03449
653.72973,0.02867
652.23994,0.03138
650.75015,0.03987
649.26037,0.04838
647.77058,0.03903
646.28079,0.02226
644.79100,0.02467
643.30121,0.02817
641.81142,0.03169
640.32163,0.04226
638.83185,0.04115
637.34206,0.02111
635.85227,0.01984
634.36248,0.01858
632.87269,0.01586
631.38290,0.00955
629.89312,0.00858
628.40333,0.00657
626.91354,0.00459
625.42375,0.00902
623.93396,0.00795
622.44417,0.02360
620.95438,0.03928
619.46460,0.03445
617.97481,0.04092
616.48502,0.05422
614.99523,0.05936
613.50544,0.06452
612.01565,0.13217
610.52587,0.15090
609.03608,0.17241
607.54629,0.20204
606.05650,0.23169
604.56671,0.25753
603.07692,0.32257
601.58714,0.35420
600.09735,0.38587
598.60756,0.40031
597.11777,0.42415
595.62798,0.42545
594.13819,0.41794
592.64840,0.41045
591.15862,0.39862
589.66883,0.29997
588.17904,0.25499
586.68925,0.23419
585.19946,0.21341
583.70967,0.14913
582.21989,0.11318
580.73010,0.09812
579.24031,0.08308
577.75052,0.05976
576.26073,0.05711
574.77094,0.04257
573.28115,0.04615
571.79137,0.04975
570.30158,0.05933
568.81179,0.08745
567.32200,0.08442
565.83221,0.08141
564.34242,0.11174
562.85264,0.12634
561.36285,0.15160
559.87306,0.15976
558.38327,0.16794
556.89348,0.17135
555.40369,0.16713
553.91391,0.18581
552.42412,0.20451
550.93433,0.20504
549.44454,0.21135
547.95475,0.20767
546.46496,0.21689
544.97517,0.22614
543.48539,0.24425
541.99560,0.26344
540.50581,0.28511
539.01602,0.30680
537.52623,0.33841
536.03644,0.39601
534.54666,0.42256
533.05687,0.43818
531.56708,0.45381
530.07729,0.50726
528.58750,0.56456
527.09771,0.59538
525.60792,0.62622
524.11814,0.68785
522.62835,0.74482
521.13856,0.78436
519.64877,0.78881
518.15898,0.79327
516.66919,0.82650
515.17941,0.82740
513.68962,0.83236
512.19983,0.83735
510.71004,0.79745
509.22025,0.76588
507.73046,0.71709
506.24068,0.67332
504.75089,0.62958
503.26110,0.49402
501.77131,0.41020
500.28152,0.35834
498.79173,0.30650
497.30194,0.24149
495.81216,0.17161
494.32237,0.15134
492.83258,0.13110
491.34279,0.09130
489.85300,0.10176
488.36321,0.09713
486.87343,0.09040
485.38364,0.08369
483.89385,0.08041
482.40406,0.10036
480.91427,0.11000
479.42448,0.11967
477.93469,0.13926
476.44491,0.17357
474.95512,0.18938
473.46533,0.20521
471.97554,0.21511
470.48575,0.24504
468.99596,0.21709
467.50618,0.20929
466.01639,0.20151
464.52660,0.13937
463.03681,0.11365
461.54702,0.09764
460.05723,0.08166
458.56745,0.05665
457.07766,0.03742
455.58787,0.04364
454.09808,0.04989
452.60829,0.03158
451.11850,0.02819
449.62871,0.02759
448.13893,0.02702
446.64914,0.03776
445.15935,0.01807
443.66956,0.00459
442.17977,0.00967
440.68998,0.01477
439.20020,0.02979
437.71041,0.04867
436.22062,0.04650
434.73083,0.04435
433.24104,0.02605
431.75125,0.06248
430.26146,0.04018
428.77168,0.01791
427.28189,0.01418
425.79210,0.05007
424.30231,0.04405
422.81252,0.03805
421.32273,0.04038
419.83295,0.03996
418.34316,0.03244
416.85337,0.02494
415.36358,0.00459
413.87379,0.01752
412.38400,0.02516
410.89422,0.03282
409.40443,0.03370
407.91464,0.03119
406.42485,0.02424
404.93506,0.02508
403.44527,0.02594
401.95548,0.04120
400.46570,0.03178
398.97591,0.04155
397.48612,0.05135
395.99633,0.03967
394.50654,0.02163
393.01675,0.01904
391.52697,0.01648
390.03718,0.02703
388.54739,0.03506
387.05760,0.02097
385.56781,0.00690
384.07802,0.00459
382.58824,0.01316
381.09845,0.02708
379.60866,0.04102
378.11887,0.02688
376.62908,0.00171
375.13929,0.01583
373.64950,0.02997
372.15972,0.04637
370.66993,0.03257
369.18014,0.02519
367.69035,0.01782
366.20056,0.01091
364.71077,0.05147
363.22099,0.03234
361.73120,0.01325
360.24141,0.05175
358.75162,0.07836
357.26183,0.08189
355.77204,0.08545
354.28225,0.09085
352.79247,0.10946
351.30268,0.10512
349.81289,0.10079
348.32310,0.08372
346.83331,0.07604
345.34352,0.08339
343.85374,0.09076
342.36395,0.08847
340.87416,0.05300
339.38437,0.04757
337.89458,0.04216
336.40479,0.04423
334.91501,0.04142
333.42522,0.02299
331.93543,0.00459
330.44564,0.02324
328.95585,0.01467
327.46606,0.01773
325.97627,0.02081
324.48649,0.07676
322.99670,0.05739
321.50691,0.03356
320.01712,0.00977
318.52733,0.02346
317.03754,0.03696
315.54776,0.03675
314.05797,0.03657
312.56818,0.04014
311.07839,0.04011
309.58860,0.03234
308.09881,0.02460
306.60902,0.01421
305.11924,0.02109
303.62945,0.01991
302.13966,0.01875
300.64987,0.01911
299.16008,0.00459
