1778.52000,0.01274
1777.03021,0.00835
1775.54042,0.00887
1774.05063,0.00602
1772.56085,0.00532
1771.07106,0.01421
1769.58127,0.00675
1768.09148,0.00697
1766.60169,0.00636
1765.11190,0.01173
1763.62212,0.00777
1762.13233,0.00405
1760.64254,0.00354
1759.15275,0.00539
1757.66296,0.00791
1756.17317,0.00641
1754.68339,0.01322
1753.19360,0.00603
1751.70381,0.01204
1750.21402,0.00214
1748.72423,0.00607
1747.23444,0.01641
1745.74465,0.00126
1744.25487,0.00609
1742.76508,0.00415
1741.27529,0.00499
1739.78550,0.01415
1738.29571,0.01122
1736.80592,0.00852
1735.31614,0.00585
1733.82635,0.00958
1732.33656,0.00100
1730.84677,0.01540
1729.35698,0.00794
1727.86719,0.02027
1726.37740,0.00392
1724.88762,0.00418
1723.39783,0.01424
1721.90804,0.00796
1720.41825,0.00978
1718.92846,0.00354
1717.43867,0.00740
1715.94889,0.01234
1714.45910,0.01370
1712.96931,0.00912
1711.47952,0.00755
1709.98973,0.00493
1708.49994,0.00341
1707.01016,0.00169
1705.52037,-0.00000
1704.03058,0.00896
1702.54079,0.00753
1701.05100,0.01017
1699.56121,0.01346
1698.07142,0.01721
1696.58164,0.00354
1695.09185,0.00720
1693.60206,0.00620
1692.11227,0.00650
1690.62248,0.01151
1689.13269,0.01866
1687.64291,0.01840
1686.15312,0.02475
1684.66333,0.02411
1683.17354,0.02371
1681.68375,0.02609
1680.19396,0.02510
1678.70417,0.02859
1677.21439,0.03105
1675.72460,0.03523
1674.23481,0.03583
1672.74502,0.04324
1671.25523,0.04643
1669.76544,0.05667
1668.27566,0.05119
1666.78587,0.05998
1665.29608,0.05434
1663.80629,0.07168
1662.31650,0.06353
1660.82671,0.06753
1659.33693,0.06815
1657.84714,0.07921
1656.35735,0.07010
1654.86756,0.07462
1653.37777,0.08214
1651.88798,0.07310
1650.39819,0.07089
1648.90841,0.08741
1647.41862,0.08461
1645.92883,0.07938
1644.43904,0.07419
1642.94925,0.08166
1641.45946,0.09043
1639.96968,0.07606
1638.47989,0.08254
1636.99010,0.08735
1635.50031,0.08814
1634.01052,0.08173
1632.52073,0.09001
1631.03094,0.08684
1629.54116,0.08879
1628.05137,0.09098
1626.56158,0.09383
1625.07179,0.09670
1623.58200,0.10747
1622.09221,0.10125
1620.60243,0.08400
1619.11264,0.09887
1617.62285,0.09188
1616.13306,0.09213
1614.64327,0.09709
1613.15348,0.08421
1611.66370,0.08347
1610.17391,0.09148
1608.68412,0.08973
1607.19433,0.09948
1605.70454,0.09757
1604.21475,0.09408
1602.72496,0.09062
1601.23518,0.09685
1599.74539,0.08929
1598.25560,0.07921
1596.76581,0.09211
1595.27602,0.08887
1593.78623,0.08354
1592.29645,0.08226
1590.80666,0.06549
1589.31687,0.08340
1587.82708,0.07837
1586.33729,0.08719
1584.84750,0.07923
1583.35771,0.07173
1581.86793,0.08168
1580.37814,0.07741
1578.88835,0.08740
1577.39856,0.06299
1575.90877,0.06602
1574.41898,0.05249
1572.92920,0.06195
1571.43941,0.05484
1569.94962,0.04777
1568.45983,0.04071
1566.97004,0.04049
1565.48025,0.04879
1563.99047,0.04372
1562.50068,0.03209
1561.01089,0.04088
1559.52110,0.02079
1558.03131,0.03070
1556.54152,0.02363
1555.05173,0.02466
1553.56195,0.02954
1552.07216,0.03381
1550.58237,0.01662
1549.09258,0.01180
1547.60279,0.01975
1546.11300,0.00966
1544.62322,0.01170
1543.13343,0.01611
1541.64364,0.00354
1540.15385,0.00443
1538.66406,0.00533
1537.17427,0.02636
1535.68448,0.01551
1534.19470,0.01320
1532.70491,0.01410
1531.21512,0.01757
1529.72533,0.01618
1528.23554,0.00354
1526.74575,0.03106
1525.25597,0.02757
1523.76618,0.02899
1522.27639,0.01725
1520.78660,0.03402
1519.29681,0.04189
1517.80702,0.03810
1516.31724,0.04091
1514.82745,0.04524
1513.33766,0.04311
1511.84787,0.04100
1510.35808,0.04497
1508.86829,0.04621
1507.37850,0.05363
1505.88872,0.04747
1504.39893,0.04772
1502.90914,0.06244
1501.41935,0.05933
1499.92956,0.07623
1498.43977,0.06105
1496.94999,0.06695
1495.46020,0.08881
1493.97041,0.09453
1492.48062,0.10007
1490.99083,0.09756
1489.50104,0.11803
1488.01125,0.12364
1486.52147,0.12927
1485.03168,0.15598
1483.54189,0.16996
1482.05210,0.18948
1480.56231,0.20499
1479.07252,0.22776
1477.58274,0.24289
1476.09295,0.23530
1474.60316,0.24049
1473.11337,0.26208
1471.62358,0.26880
1470.13379,0.25344
1468.64401,0.27106
1467.15422,0.30443
1465.66443,0.31445
1464.17464,0.32448
1462.68485,0.35346
1461.19506,0.38247
1459.70527,0.41362
1458.21549,0.47903
1456.72570,0.54064
1455.23591,0.58632
1453.74612,0.61779
1452.25633,0.65927
1450.76654,0.67696
1449.27676,0.69064
1447.78697,0.69222
1446.29718,0.67874
1444.80739,0.67229
1443.31760,0.66587
1441.82781,0.59569
1440.33802,0.52298
1438.84824,0.48432
1437.35845,0.45737
1435.86866,0.45745
1434.37887,0.49752
1432.88908,0.53740
1431.39929,0.61046
1429.90951,0.68611
1428.41972,0.74179
1426.92993,0.80133
1425.44014,0.81582
1423.95035,0.86286
1422.46056,0.90992
1420.97078,0.91385
1419.48099,0.94119
1417.99120,0.93072
1416.50141,0.91048
1415.01162,0.87624
1413.52183,0.83182
1412.03204,0.76085
1410.54226,0.73944
1409.05247,0.68084
1407.56268,0.61016
1406.07289,0.57202
1404.58310,0.53380
1403.09331,0.49561
1401.60353,0.44309
1400.11374,0.39506
1398.62395,0.34769
1397.13416,0.28419
1395.64437,0.24707
1394.15458,0.20913
1392.66479,0.18311
1391.17501,0.13501
1389.68522,0.12265
1388.19543,0.10479
1386.70564,0.09535
1385.21585,0.08593
1383.72606,0.06155
1382.23628,0.05080
1380.74649,0.03030
1379.25670,0.02810
1377.76691,0.00615
1376.27712,0.01366
1374.78733,0.00354
1373.29755,0.02308
1371.80776,0.00586
1370.31797,0.00950
1368.82818,0.00742
1367.33839,0.00537
1365.84860,0.01661
1364.35881,0.01406
1362.86903,0.03959
1361.37924,0.06791
1359.88945,0.09647
1358.39966,0.11081
1356.90987,0.15090
1355.42008,0.17103
1353.93030,0.24135
1352.44051,0.27407
1350.95072,0.30682
1349.46093,0.38508
1347.97114,0.46252
1346.48135,0.54381
1344.99156,0.63043
1343.50178,0.68307
1342.01199,0.74806
1340.52220,0.84071
1339.03241,0.86621
1337.54262,0.86366
1336.05283,0.88580
1334.56305,0.90797
1333.07326,0.95248
1331.58347,0.94451
1330.09368,0.93570
1328.60389,0.93841
1327.11410,0.87438
1325.62432,0.82972
1324.13453,0.82824
1322.64474,0.81170
1321.15495,0.76158
1319.66516,0.75040
1318.17537,0.73924
1316.68558,0.67729
1315.19580,0.59326
1313.70601,0.56282
1312.21622,0.52837
1310.72643,0.51755
1309.23664,0.49016
1307.74685,0.45897
1306.25707,0.40676
1304.76728,0.39433
1303.27749,0.38192
1301.78770,0.32468
1300.29791,0.25492
1298.80812,0.22005
1297.31834,0.18435
1295.82855,0.17589
1294.33876,0.14598
1292.84897,0.11439
1291.35918,0.11111
1289.86939,0.10189
1288.37960,0.09270
1286.88982,0.09034
1285.40003,0.08290
1283.91024,0.08547
1282.42045,0.07723
1280.93066,0.05179
1279.44087,0.06209
1277.95109,0.05222
1276.46130,0.05534
1274.97151,0.05242
1273.48172,0.04953
1271.99193,0.04571
1270.50214,0.03064
1269.01235,0.04154
1267.52257,0.02418
1266.03278,0.03023
1264.54299,0.03227
1263.05320,0.02583
1261.56341,0.02228
1260.07362,0.01875
1258.58384,0.01408
1257.09405,0.02156
1255.60426,0.02310
1254.11447,0.01659
1252.62468,0.00883
1251.13489,0.01321
1249.64511,0.02122
1248.15532,0.00354
1246.66553,0.00536
1245.17574,0.00719
1243.68595,0.02001
1242.19616,0.02519
1240.70637,0.01658
1239.21659,0.01543
1237.72680,0.02812
1236.23701,0.03723
1234.74722,0.02255
1233.25743,0.02245
1231.76764,0.02238
1230.27786,0.02584
1228.78807,0.03698
1227.29828,0.02603
1225.80849,0.01150
1224.31870,0.01420
1222.82891,0.00354
1221.33912,0.01364
1219.84934,0.02866
1218.35955,0.04370
1216.86976,0.05536
1215.37997,0.06939
1213.89018,0.07259
1212.40039,0.09262
1210.91061,0.08163
1209.42082,0.07747
1207.93103,0.07875
1206.44124,0.08006
1204.95145,0.07300
1203.46166,0.07871
1201.97188,0.07233
1200.48209,0.06278
1198.99230,0.04880
1197.50251,0.04844
1196.01272,0.04322
1194.52293,0.04270
1193.03314,0.04221
1191.54336,0.04216
1190.05357,0.03746
1188.56378,0.03364
1187.07399,0.02261
1185.58420,0.04264
1184.09441,0.02486
1182.60463,0.01699
1181.11484,0.00914
1179.62505,0.00354
1178.13526,0.00823
1176.64547,0.01655
1175.15568,0.02489
1173.66589,0.00605
1172.17611,0.00658
1170.68632,0.00766
1169.19653,0.00877
1167.70674,0.01490
1166.21695,0.01722
1164.72716,0.03041
1163.23738,0.03491
1161.74759,0.03476
1160.25780,0.04292
1158.76801,0.05802
1157.27822,0.07314
1155.78843,0.07839
1154.29865,0.07708
1152.80886,0.10301
1151.31907,0.09112
1149.82928,0.09924
1148.33949,0.13353
1146.84970,0.13043
1145.35991,0.12735
1143.87013,0.12940
1142.38034,0.15103
1140.89055,0.14866
1139.40076,0.15333
1137.91097,0.16887
1136.42118,0.17678
1134.93140,0.18896
1133.44161,0.20117
1131.95182,0.19661
1130.46203,0.21865
1128.97224,0.21690
1127.48245,0.23856
1125.99266,0.23813
1124.50288,0.23135
1123.01309,0.23055
1121.52330,0.22977
1120.03351,0.22731
1118.54372,0.22318
1117.05393,0.22290
1115.56415,0.24007
1114.07436,0.23027
1112.58457,0.22262
1111.09478,0.21499
1109.60499,0.20782
1108.11520,0.20832
1106.62542,0.23031
1105.13563,0.22108
1103.64584,0.21124
1102.15605,0.21290
1100.66626,0.20501
1099.17647,0.19715
1097.68668,0.19059
1096.19690,0.18087
1094.70711,0.17733
1093.21732,0.18296
1091.72753,0.17459
1090.23774,0.17835
1088.74795,0.18214
1087.25817,0.16767
1085.76838,0.17767
1084.27859,0.18791
1082.78880,0.18627
1081.29901,0.19550
1079.80922,0.20602
1078.31943,0.19914
1076.82965,0.19228
1075.33986,0.20415
1073.85007,0.20201
1072.36028,0.22074
1070.87049,0.23311
1069.38070,0.25804
1067.89092,0.27928
1066.40113,0.30055
1064.91134,0.37212
1063.42155,0.45732
1061.93176,0.53425
1060.44197,0.64118
1058.95219,0.71901
1057.46240,0.74605
1055.97261,0.77312
1054.48282,0.87802
1052.99303,0.95382
1051.50324,0.98011
1050.01345,0.97815
1048.52367,0.93390
1047.03388,0.91381
1045.54409,0.89374
1044.05430,0.85722
1042.56451,0.75907
1041.07472,0.74004
1039.58494,0.67616
1038.09515,0.59935
1036.60536,0.56380
1035.11557,0.52827
1033.62578,0.47023
1032.13599,0.40436
1030.64620,0.35785
1029.15642,0.30520
1027.66663,0.28850
1026.17684,0.27183
1024.68705,0.25029
1023.19726,0.19944
1021.70747,0.16328
1020.21769,0.12906
1018.72790,0.12909
1017.23811,0.11597
1015.74832,0.10286
1014.25853,0.08872
1012.76874,0.08821
1011.27896,0.08220
1009.78917,0.07196
1008.29938,0.06472
1006.80959,0.05792
1005.31980,0.05116
1003.83001,0.03952
1002.34022,0.03365
1000.85044,0.03695
999.36065,0.04452
997.87086,0.04914
996.38107,0.05378
994.89128,0.06185
993.40149,0.08653
991.91171,0.10741
990.42192,0.13851
988.93213,0.16730
987.44234,0.16369
985.95255,0.16010
984.46276,0.14751
982.97297,0.15088
981.48319,0.12940
979.99340,0.09753
978.50361,0.09183
977.01382,0.08616
975.52403,0.06265
974.03424,0.05214
972.54446,0.01911
971.05467,0.02076
969.56488,0.00798
968.07509,0.00575
966.58530,0.00354
965.09551,0.01374
963.60573,0.00313
962.11594,0.00727
960.62615,0.01122
959.13636,0.01264
957.64657,0.01408
956.15678,0.01534
954.66699,0.01768
953.17721,0.02324
951.68742,0.03201
950.19763,0.03145
948.70784,0.03091
947.21805,0.04953
945.72826,0.07987
944.23848,0.10216
942.74869,0.10363
941.25890,0.11618
939.76911,0.11834
938.27932,0.12052
936.78953,0.15483
935.29974,0.18683
933.80996,0.17292
932.32017,0.18605
930.83038,0.19568
929.34059,0.20535
927.85080,0.24044
926.36101,0.25833
924.87123,0.29220
923.38144,0.34118
921.89165,0.38243
920.40186,0.42370
918.91207,0.52590
917.42228,0.62494
915.93250,0.79459
914.44271,1.00784
912.95292,1.12226
911.46313,1.23671
909.97334,1.41729
908.48355,1.66614
906.99376,1.84316
905.50398,1.93155
904.01419,1.95172
902.52440,1.97192
901.03461,2.00000
899.54482,1.94817
898.05503,1.84024
896.56525,1.61817
895.07546,1.48934
893.58567,1.36055
892.09588,1.08136
890.60609,0.82707
889.11630,0.64742
887.62651,0.47673
886.13673,0.41704
884.64694,0.35737
883.15715,0.27222
881.66736,0.18687
880.17757,0.12664
878.68778,0.10970
877.19800,0.09278
875.70821,0.05451
874.21842,0.04901
872.72863,0.03695
871.23884,0.00939
869.74905,0.01140
868.25927,0.01344
866.76948,0.00445
865.27969,0.01908
863.78990,0.02055
862.30011,0.03736
860.81032,0.04281
859.32053,0.04829
857.83075,0.07282
856.34096,0.09142
854.85117,0.11217
853.36138,0.10638
851.87159,0.12165
850.38180,0.13694
848.89202,0.13845
847.40223,0.14529
845.91244,0.18128
844.42265,0.18976
842.93286,0.19827
841.44307,0.20988
839.95329,0.22024
838.46350,0.24168
836.97371,0.23913
835.48392,0.25211
833.99413,0.26512
832.50434,0.24818
831.01455,0.22063
829.52477,0.21819
828.03498,0.17964
826.54519,0.16470
825.05540,0.14980
823.56561,0.15192
822.07582,0.11410
820.58604,0.10713
819.09625,0.11294
817.60646,0.11877
816.11667,0.11761
814.62688,0.11860
813.13709,0.12345
811.64730,0.12257
810.15752,0.12948
808.66773,0.13642
807.17794,0.12690
805.68815,0.13888
804.19836,0.13345
802.70857,0.13091
801.21879,0.12840
799.72900,0.12879
798.23921,0.11452
796.74942,0.12112
795.25963,0.12370
793.76984,0.12630
792.28006,0.14594
790.79027,0.14051
789.30048,0.15042
787.81069,0.17374
786.32090,0.18731
784.83111,0.20090
783.34132,0.23897
781.85154,0.27599
780.36175,0.32622
778.87196,0.34257
777.38217,0.35894
775.89238,0.38713
774.40259,0.37346
772.91281,0.38087
771.42302,0.37066
769.93323,0.36046
768.44344,0.30438
766.95365,0.26234
765.46386,0.22310
763.97407,0.15709
762.48429,0.14617
760.99450,0.13527
759.50471,0.11759
758.01492,0.09973
756.52513,0.09805
755.03534,0.08480
753.54556,0.07158
752.05577,0.06231
750.56598,0.06200
749.07619,0.03960
747.58640,0.04083
746.09661,0.04208
744.60683,0.02252
743.11704,0.00489
741.62725,0.01557
740.13746,0.01319
738.64767,0.01084
737.15788,0.01287
735.66809,0.01216
734.17831,0.01382
732.68852,0.00869
731.19873,0.00359
729.70894,0.00694
728.21915,0.00520
726.72936,0.01263
725.23958,0.00817
723.74979,0.01096
722.26000,0.01378
720.77021,0.00769
719.28042,0.00354
717.79063,0.01067
716.30084,0.01188
714.81106,0.01311
713.32127,0.01329
711.83148,0.01861
710.34169,0.02204
708.85190,0.02145
707.36211,0.02088
705.87233,0.01885
704.38254,0.03258
702.89275,0.04038
701.40296,0.03587
699.91317,0.03138
698.42338,0.05244
696.93360,0.07776
695.44381,0.08377
693.95402,0.09852
692.46423,0.11329
690.97444,0.12744
689.48465,0.13588
687.99486,0.15944
686.50508,0.17229
685.01529,0.18516
683.52550,0.21495
682.03571,0.22713
680.54592,0.24209
679.05613,0.25187
677.56635,0.26167
676.07656,0.26438
674.58677,0.23075
673.09698,0.22500
671.60719,0.21098
670.11740,0.19698
668.62761,0.17089
667.13783,0.14462
665.64804,0.13824
664.15825,0.13189
662.66846,0.10250
661.17867,0.07504
659.68888,0.05505
658.19910,0.05188
656.70931,0.04873
655.21952,0.03072
653.72973,0.04101
652.23994,0.03517
650.75015,0.04201
649.26037,0.04887
647.77058,0.04204
646.28079,0.03608
644.79100,0.03695
643.30121,0.03402
641.81142,0.03111
640.32163,0.04247
638.83185,0.04301
637.34206,0.01615
635.85227,0.01292
634.36248,0.00971
632.87269,0.00354
631.38290,0.01787
629.89312,0.01499
628.40333,0.01704
626.91354,0.01910
625.42375,0.02821
623.93396,0.03436
622.44417,0.03735
620.95438,0.04036
619.46460,0.04404
617.97481,0.05178
616.48502,0.05890
614.99523,0.06956
613.50544,0.08024
612.01565,0.11550
610.52587,0.15099
609.03608,0.16972
607.54629,0.19400
606.05650,0.21830
604.56671,0.26473
603.07692,0.31885
601.58714,0.35587
600.09735,0.39292
598.60756,0.42542
597.11777,0.44114
595.62798,0.45987
594.13819,0.44876
592.64840,0.43766
591.15862,0.39502
589.66883,0.31946
588.17904,0.25390
586.68925,0.24301
585.19946,0.23215
583.70967,0.16688
582.21989,0.12630
580.73010,0.10562
579.24031,0.08496
577.75052,0.05891
576.26073,0.05457
574.77094,0.06322
573.28115,0.05052
571.79137,0.03785
570.30158,0.04487
568.81179,0.09805
567.32200,0.09927
565.83221,0.10052
564.34242,0.10849
562.85264,0.13604
561.36285,0.14278
559.87306,0.14720
558.38327,0.15165
556.89348,0.17590
555.40369,0.19676
553.91391,0.19576
552.42412,0.19478
550.93433,0.19020
549.44454,0.19990
547.95475,0.22174
546.46496,0.21989
544.97517,0.21808
543.48539,0.23233
541.99560,0.25448
540.50581,0.27846
539.01602,0.30246
537.52623,0.32043
536.03644,0.39157
534.54666,0.41724
533.05687,0.43910
531.56708,0.46099
530.07729,0.47079
528.58750,0.53419
527.09771,0.56561
525.60792,0.59706
524.11814,0.68029
522.62835,0.72869
521.13856,0.77881
519.64877,0.78229
518.15898,0.78580
516.66919,0.82090
515.17941,0.83646
513.68962,0.82994
512.19983,0.82344
510.71004,0.80676
509.22025,0.77013
507.73046,0.68780
506.24068,0.62708
504.75089,0.56639
503.26110,0.47670
501.77131,0.38703
500.28152,0.34533
498.79173,0.30365
497.30194,0.20810
495.81216,0.15339
494.32237,0.13836
492.83258,0.12335
491.34279,0.10571
489.85300,0.08576
488.36321,0.08794
486.87343,0.08047
485.38364,0.07302
483.89385,0.06996
482.40406,0.11241
480.91427,0.10876
479.42448,0.10513
477.93469,0.11428
476.44491,0.14174
474.95512,0.15115
473.46533,0.16059
471.97554,0.18642
470.48575,0.17017
468.99596,0.18053
467.50618,0.16306
466.01639,0.14562
464.52660,0.09801
463.03681,0.08444
461.54702,0.07037
460.05723,0.05631
458.56745,0.04345
457.07766,0.02849
455.58787,0.01674
454.09808,0.00502
452.60829,0.01245
451.11850,0.00354
449.62871,0.01015
448.13893,0.01678
446.64914,0.00377
445.15935,0.01225
443.66956,0.00482
442.17977,0.00995
440.68998,0.01510
439.20020,0.03325
437.71041,0.03378
436.22062,0.02572
434.73083,0.01769
433.24104,0.00851
431.75125,0.01274
430.26146,0.01658
428.77168,0.02044
427.28189,0.03921
425.79210,0.02908
424.30231,0.02611
422.81252,0.02315
421.32273,0.03840
419.83295,0.03879
418.34316,0.03049
416.85337,0.02221
415.36358,0.00354
413.87379,0.00327
412.38400,0.01705
410.89422,0.03085
409.40443,0.03554
407.91464,0.03664
406.42485,0.05647
404.93506,0.04879
403.44527,0.04113
401.95548,0.04467
400.46570,0.04099
398.97591,0.03809
397.48612,0.03521
395.99633,0.01396
394.50654,0.02697
393.01675,0.03256
391.52697,0.03817
390.03718,0.01341
388.54739,0.01659
387.05760,0.02671
385.56781,0.03685
384.07802,0.00354
382.58824,0.01657
381.09845,0.01794
379.60866,0.01932
378.11887,0.00075
376.62908,0.00622
375.13929,0.00821
373.64950,0.01023
372.15972,0.01684
370.66993,0.03070
369.18014,0.02343
367.69035,0.01619
366.20056,0.03737
364.71077,0.03136
363.22099,0.03037
361.73120,0.02940
360.24141,0.07129
358.75162,0.07069
357.26183,0.06108
355.77204,0.05149
354.28225,0.06351
352.79247,0.07576
351.30268,0.07167
349.81289,0.06760
348.32310,0.03613
346.83331,0.05060
345.34352,0.06393
343.85374,0.07729
342.36395,0.05952
340.87416,0.02880
339.38437,0.01810
337.89458,0.00742
336.40479,0.00505
334.91501,0.00354
333.42522,0.00953
331.93543,0.01554
330.44564,0.01317
328.95585,0.02231
327.46606,0.01862
325.97627,0.01494
324.48649,0.04329
322.99670,0.02702
321.50691,0.02437
320.01712,0.02175
318.52733,0.04275
317.03754,0.04996
315.54776,0.05741
314.05797,0.06487
312.56818,0.07896
311.07839,0.07584
309.58860,0.06595
308.09881,0.05608
306.60902,0.05644
305.11924,0.04662
303.62945,0.03587
302.13966,0.02514
300.64987,0.01752
299.16008,0.00354
