1778.52000,0.02390
1777.03021,0.02405
1775.54042,0.01940
1774.05063,0.02719
1772.56085,0.01913
1771.07106,0.02628
1769.58127,0.02379
1768.09148,0.01719
1766.60169,0.01797
1765.11190,0.01233
1763.62212,0.00419
1762.13233,0.02206
1760.64254,0.01006
1759.15275,0.00705
1757.66296,0.00843
1756.17317,0.01283
1754.68339,0.01702
1753.19360,0.00974
1751.70381,0.00823
1750.21402,0.01732
1748.72423,0.01816
1747.23444,0.01558
1745.74465,0.00657
1744.25487,0.00403
1742.76508,0.00290
1741.27529,0.01076
1739.78550,0.01542
1738.29571,0.00516
1736.80592,0.01300
1735.31614,0.01258
1733.82635,0.01840
1732.33656,0.01643
1730.84677,0.01447
1729.35698,0.00978
1727.86719,0.00374
1726.37740,0.00669
1724.88762,0.00483
1723.39783,0.00737
1721.90804,0.00947
1720.41825,0.01712
1718.92846,0.00570
1717.43867,0.00557
1715.94889,0.00570
1714.45910,0.00723
1712.96931,0.00419
1711.47952,0.00578
1709.98973,0.00394
1708.49994,0.01270
1707.01016,0.00919
1705.52037,0.00570
1704.03058,0.00419
1702.54079,0.01195
1701.05100,0.01237
1699.56121,0.01466
1698.07142,0.00892
1696.58164,0.01263
1695.09185,0.01982
1693.60206,0.01186
1692.11227,0.01449
1690.62248,0.01853
1689.13269,0.01731
1687.64291,0.01933
1686.15312,0.02206
1684.66333,0.02091
1683.17354,0.02346
1681.68375,0.02788
1680.19396,0.02657
1678.70417,0.02758
1677.21439,0.03253
1675.72460,0.04349
1674.23481,0.03951
1672.74502,0.05051
1671.25523,0.04682
1669.76544,0.05626
1668.27566,0.05606
1666.78587,0.06532
1665.29608,0.06057
1663.80629,0.06918
1662.31650,0.06724
1660.82671,0.07660
1659.33693,0.08161
1657.84714,0.08342
1656.35735,0.06984
1654.86756,0.07860
1653.37777,0.07520
1651.88798,0.07549
1650.39819,0.07789
1648.90841,0.07547
1647.41862,0.07262
1645.92883,0.07612
1644.43904,0.07964
1642.94925,0.08377
1641.45946,0.07112
1639.96968,0.08334
1638.47989,0.08777
1636.99010,0.08164
1635.50031,0.09117
1634.01052,0.08209
1632.52073,0.08271
1631.03094,0.08449
1629.54116,0.08814
1628.05137,0.08261
1626.56158,0.07435
1625.07179,0.09003
1623.58200,0.09102
1622.09221,0.09226
1620.60243,0.08179
1619.11264,0.08377
1617.62285,0.08715
1616.13306,0.08181
1614.64327,0.07374
1613.15348,0.07582
1611.66370,0.09034
1610.17391,0.08832
1608.68412,0.09300
1607.19433,0.08942
1605.70454,0.08402
1604.21475,0.08681
1602.72496,0.08963
1601.23518,0.08615
1599.74539,0.08108
1598.25560,0.08983
1596.76581,0.06710
1595.27602,0.07015
1593.78623,0.07622
1592.29645,0.07978
1590.80666,0.06957
1589.31687,0.07157
1587.82708,0.06945
1586.33729,0.07357
1584.84750,0.07564
1583.35771,0.07222
1581.86793,0.07180
1580.37814,0.06498
1578.88835,0.07037
1577.39856,0.05968
1575.90877,0.06534
1574.41898,0.05700
1572.92920,0.03903
1571.43941,0.04385
1569.94962,0.04213
1568.45983,0.04044
1566.97004,0.04395
1565.48025,0.03392
1563.99047,0.04139
1562.50068,0.03002
1561.01089,0.02489
1559.52110,0.02231
1558.03131,0.02297
1556.54152,0.02182
1555.05173,0.02530
1553.56195,0.01545
1552.07216,0.01460
1550.58237,0.00803
1549.09258,0.01160
1547.60279,0.00484
1546.11300,0.01260
1544.62322,0.00037
1543.13343,0.00348
1541.64364,0.00845
1540.15385,0.00689
1538.66406,0.00535
1537.17427,0.00901
1535.68448,0.00419
1534.19470,0.02017
1532.70491,0.01156
1531.21512,0.02276
1529.72533,0.00914
1528.23554,0.01049
1526.74575,0.03096
1525.25597,0.02432
1523.76618,0.01562
1522.27639,0.01938
1520.78660,0.02591
1519.29681,0.03822
1517.80702,0.04067
1516.31724,0.04383
1514.82745,0.03620
1513.33766,0.04239
1511.84787,0.04861
1510.35808,0.04451
1508.86829,0.03629
1507.37850,0.04534
1505.88872,0.04775
1504.39893,0.05501
1502.90914,0.05631
1501.41935,0.05396
1499.92956,0.05761
1498.43977,0.05646
1496.94999,0.06315
1495.46020,0.08574
1493.97041,0.08397
1492.48062,0.09763
1490.99083,0.08947
1489.50104,0.10341
1488.01125,0.11324
1486.52147,0.12309
1485.03168,0.14561
1483.54189,0.17852
1482.05210,0.18223
1480.56231,0.19171
1479.07252,0.22308
1477.58274,0.21973
1476.09295,0.21526
1474.60316,0.23450
1473.11337,0.22847
1471.62358,0.24776
1470.13379,0.25995
1468.64401,0.26526
1467.15422,0.30279
1465.66443,0.30642
1464.17464,0.31008
1462.68485,0.32883
1461.19506,0.35979
1459.70527,0.41194
1458.21549,0.46756
1456.72570,0.50642
1455.23591,0.57428
1453.74612,0.62836
1452.25633,0.66407
1450.76654,0.66507
1449.27676,0.68127
1447.78697,0.68807
1446.29718,0.67855
1444.80739,0.66067
1443.31760,0.64281
1441.82781,0.57541
1440.33802,0.52896
1438.84824,0.47564
1437.35845,0.47662
1435.86866,0.46452
1434.37887,0.49246
1432.88908,0.54068
1431.39929,0.61467
1429.90951,0.66960
1428.41972,0.73951
1426.92993,0.80047
1425.44014,0.82626
1423.95035,0.84724
1422.46056,0.86825
1420.97078,0.88422
1419.48099,0.92046
1417.99120,0.91209
1416.50141,0.92124
1415.01162,0.86968
1413.52183,0.82481
1412.03204,0.77123
1410.54226,0.72158
1409.05247,0.67518
1407.56268,0.63639
1406.07289,0.56980
1404.58310,0.54038
1403.09331,0.51098
1401.60353,0.44997
1400.11374,0.41453
1398.62395,0.35610
1397.13416,0.31679
1395.64437,0.25865
1394.15458,0.21755
1392.66479,0.17210
1391.17501,0.15911
1389.68522,0.12222
1388.19543,0.10123
1386.70564,0.09924
1385.21585,0.09727
1383.72606,0.06048
1382.23628,0.05315
1380.74649,0.04102
1379.25670,0.02224
1377.76691,0.01683
1376.27712,0.00891
1374.78733,0.01850
1373.29755,0.00419
1371.80776,0.01816
1370.31797,0.00685
1368.82818,0.01352
1367.33839,0.02020
1365.84860,0.03220
1364.35881,0.02605
1362.86903,0.04201
1361.37924,0.06351
1359.88945,0.08159
1358.39966,0.11832
1356.90987,0.12540
1355.42008,0.16632
1353.93030,0.21877
1352.44051,0.25031
1350.95072,0.28187
1349.46093,0.36889
1347.97114,0.41016
1346.48135,0.50045
1344.99156,0.56546
1343.50178,0.64499
1342.01199,0.70338
1340.52220,0.77743
1339.03241,0.82552
1337.54262,0.83659
1336.05283,0.84539
1334.56305,0.85422
1333.07326,0.90309
1331.58347,0.90736
1330.09368,0.90890
1328.60389,0.88010
1327.11410,0.85040
1325.62432,0.80761
1324.13453,0.78072
1322.64474,0.78215
1321.15495,0.72678
1319.66516,0.70330
1318.17537,0.67984
1316.68558,0.61696
1315.19580,0.56951
1313.70601,0.51611
1312.21622,0.48389
1310.72643,0.47378
1309.23664,0.43379
1307.74685,0.40924
1306.25707,0.37297
1304.76728,0.35284
1303.27749,0.33272
1301.78770,0.27583
1300.29791,0.21391
1298.80812,0.19732
1297.31834,0.15775
1295.82855,0.17594
1294.33876,0.12883
1292.84897,0.10153
1291.35918,0.09288
1289.86939,0.08575
1288.37960,0.07864
1286.88982,0.07881
1285.40003,0.06335
1283.91024,0.07507
1282.42045,0.06633
1280.93066,0.05003
1279.44087,0.05538
1277.95109,0.04833
1276.46130,0.03969
1274.97151,0.03372
1273.48172,0.02778
1271.99193,0.03209
1270.50214,0.02677
1269.01235,0.01918
1267.52257,0.03576
1266.03278,0.02223
1264.54299,0.02252
1263.05320,0.03020
1261.56341,0.02434
1260.07362,0.01849
1258.58384,0.01429
1257.09405,0.02551
1255.60426,0.01353
1254.11447,0.00871
1252.62468,0.00735
1251.13489,0.00419
1249.64511,0.00674
1248.15532,0.00794
1246.66553,0.01434
1245.17574,0.02076
1243.68595,0.01054
1242.19616,0.02034
1240.70637,0.00418
1239.21659,0.02094
1237.72680,0.02897
1236.23701,0.03106
1234.74722,0.00602
1233.25743,0.01080
1231.76764,0.01560
1230.27786,0.02444
1228.78807,0.01607
1227.29828,0.00817
1225.80849,0.00973
1224.31870,0.00419
1222.82891,0.01099
1221.33912,0.01506
1219.84934,0.02157
1218.35955,0.02810
1216.86976,0.04029
1215.37997,0.05642
1213.89018,0.07464
1212.40039,0.06413
1210.91061,0.07365
1209.42082,0.07424
1207.93103,0.06357
1206.44124,0.05293
1204.95145,0.05772
1203.46166,0.06415
1201.97188,0.05266
1200.48209,0.04119
1198.99230,0.03711
1197.50251,0.03719
1196.01272,0.04075
1194.52293,0.03927
1193.03314,0.03782
1191.54336,0.03317
1190.05357,0.01980
1188.56378,0.01750
1187.07399,0.03385
1185.58420,0.02216
1184.09441,0.00774
1182.60463,0.00807
1181.11484,0.00842
1179.62505,0.00419
1178.13526,0.01509
1176.64547,0.01221
1175.15568,0.01948
1173.66589,0.02493
1172.17611,0.00878
1170.68632,0.01071
1169.19653,0.01267
1167.70674,0.00419
1166.21695,0.03146
1164.72716,0.02656
1163.23738,0.02720
1161.74759,0.04811
1160.25780,0.05984
1158.76801,0.06194
1157.27822,0.06406
1155.78843,0.07034
1154.29865,0.07987
1152.80886,0.08459
1151.31907,0.09394
1149.82928,0.10906
1148.33949,0.11500
1146.84970,0.11303
1145.35991,0.11109
1143.87013,0.12861
1142.38034,0.12890
1140.89055,0.16325
1139.40076,0.16129
1137.91097,0.17752
1136.42118,0.17768
1134.93140,0.18200
1133.44161,0.18634
1131.95182,0.20889
1130.46203,0.23513
1128.97224,0.22345
1127.48245,0.24721
1125.99266,0.24247
1124.50288,0.22488
1123.01309,0.22295
1121.52330,0.22105
1120.03351,0.21342
1118.54372,0.21961
1117.05393,0.21410
1115.56415,0.21828
1114.07436,0.23489
1112.58457,0.22877
1111.09478,0.22266
1109.60499,0.21474
1108.11520,0.23398
1106.62542,0.22772
1105.13563,0.24103
1103.64584,0.22654
1102.15605,0.20080
1100.66626,0.19682
1099.17647,0.19286
1097.68668,0.19640
1096.19690,0.18157
1094.70711,0.18838
1093.21732,0.19015
1091.72753,0.18298
1090.23774,0.18135
1088.74795,0.17975
1087.25817,0.16713
1085.76838,0.18282
1084.27859,0.16358
1082.78880,0.19267
1081.29901,0.17830
1079.80922,0.17431
1078.31943,0.17621
1076.82965,0.17814
1075.33986,0.17629
1073.85007,0.19034
1072.36028,0.20027
1070.87049,0.21506
1069.38070,0.25448
1067.89092,0.26817
1066.40113,0.28188
1064.91134,0.33472
1063.42155,0.39862
1061.93176,0.50027
1060.44197,0.58906
1058.95219,0.61209
1057.46240,0.65343
1055.97261,0.69480
1054.48282,0.81796
1052.99303,0.90664
1051.50324,0.92289
1050.01345,0.91547
1048.52367,0.89497
1047.03388,0.89036
1045.54409,0.88577
1044.05430,0.82877
1042.56451,0.77294
1041.07472,0.71966
1039.58494,0.70183
1038.09515,0.59869
1036.60536,0.56538
1035.11557,0.53209
1033.62578,0.47296
1032.13599,0.38785
1030.64620,0.34693
1029.15642,0.31616
1027.66663,0.29450
1026.17684,0.27286
1024.68705,0.24561
1023.19726,0.20642
1021.70747,0.16059
1020.21769,0.15227
1018.72790,0.14352
1017.23811,0.12858
1015.74832,0.11367
1014.25853,0.09349
1012.76874,0.09633
1011.27896,0.08701
1009.78917,0.08185
1008.29938,0.08109
1006.80959,0.07241
1005.31980,0.06376
1003.83001,0.02558
1002.34022,0.02376
1000.85044,0.02197
999.36065,0.01997
997.87086,0.02375
996.38107,0.02755
994.89128,0.04840
993.40149,0.05386
991.91171,0.09154
990.42192,0.09084
988.93213,0.11454
987.44234,0.11285
985.95255,0.11118
984.46276,0.10759
982.97297,0.10930
981.48319,0.10966
979.99340,0.07485
978.50361,0.06468
977.01382,0.05454
975.52403,0.03406
974.03424,0.02741
972.54446,0.01136
971.05467,0.01902
969.56488,0.00485
968.07509,0.00451
966.58530,0.00419
965.09551,0.01004
963.60573,0.01730
962.11594,0.01538
960.62615,0.00980
959.13636,0.01207
957.64657,0.01436
956.15678,0.02450
954.66699,0.03213
953.17721,0.01449
951.68742,0.02677
950.19763,0.03378
948.70784,0.04082
947.21805,0.06260
945.72826,0.07360
944.23848,0.09244
942.74869,0.10003
941.25890,0.12789
939.76911,0.13220
938.27932,0.13653
936.78953,0.15158
935.29974,0.17310
933.80996,0.19671
932.32017,0.20723
930.83038,0.21088
929.34059,0.21455
927.85080,0.24769
926.36101,0.26429
924.87123,0.30276
923.38144,0.34725
921.89165,0.38393
920.40186,0.42064
918.91207,0.50084
917.42228,0.62731
915.93250,0.77082
914.44271,0.97370
912.95292,1.07516
911.46313,1.17665
909.97334,1.37270
908.48355,1.59224
906.99376,1.77730
905.50398,1.90166
904.01419,1.94450
902.52440,1.98736
901.03461,2.00000
899.54482,1.98506
898.05503,1.89424
896.56525,1.70683
895.07546,1.56189
893.58567,1.41697
892.09588,1.14061
890.60609,0.88798
889.11630,0.66044
887.62651,0.51251
886.13673,0.44166
884.64694,0.37084
883.15715,0.26462
881.66736,0.19246
880.17757,0.12769
878.68778,0.10849
877.19800,0.08931
875.70821,0.07130
874.21842,0.04389
872.72863,0.01973
871.23884,0.02204
869.74905,0.01310
868.25927,0.00419
866.76948,0.02105
865.27969,0.02230
863.78990,0.02702
862.30011,0.03935
860.81032,0.04723
859.32053,0.05512
857.83075,0.05511
856.34096,0.08203
854.85117,0.09035
853.36138,0.09570
851.87159,0.10509
850.38180,0.11452
848.89202,0.11718
847.40223,0.13665
845.91244,0.16743
844.42265,0.16981
842.93286,0.17223
841.44307,0.19594
839.95329,0.20265
838.46350,0.23631
836.97371,0.23709
835.48392,0.23755
833.99413,0.23804
832.50434,0.24027
831.01455,0.21861
829.52477,0.21009
828.03498,0.17099
826.54519,0.15768
825.05540,0.14440
823.56561,0.12538
822.07582,0.12296
820.58604,0.12493
819.09625,0.11806
817.60646,0.11122
816.11667,0.10958
814.62688,0.09647
813.13709,0.12087
811.64730,0.12873
810.15752,0.12661
808.66773,0.12452
807.17794,0.11934
805.68815,0.10982
804.19836,0.12632
802.70857,0.11903
801.21879,0.11176
799.72900,0.09774
798.23921,0.10766
796.74942,0.11553
795.25963,0.11412
793.76984,0.11272
792.28006,0.13125
790.79027,0.12312
789.30048,0.12559
787.81069,0.18054
786.32090,0.18777
784.83111,0.19504
783.34132,0.22475
781.85154,0.26162
780.36175,0.28954
778.87196,0.31150
777.38217,0.33349
775.89238,0.33618
774.40259,0.36604
772.91281,0.35751
771.42302,0.34417
769.93323,0.33086
768.44344,0.27731
766.95365,0.25048
765.46386,0.19606
763.97407,0.16812
762.48429,0.15286
760.99450,0.13762
759.50471,0.11918
758.01492,0.09479
756.52513,0.08606
755.03534,0.08116
753.54556,0.07627
752.05577,0.07176
750.56598,0.06060
749.07619,0.04003
747.58640,0.04341
746.09661,0.04681
744.60683,0.03138
743.11704,0.02126
741.62725,0.01806
740.13746,0.01800
738.64767,0.01795
737.15788,0.01253
735.66809,0.01932
734.17831,0.00521
732.68852,0.00952
731.19873,0.01385
729.70894,0.01177
728.21915,0.00419
726.72936,0.00515
725.23958,0.01235
723.74979,0.01509
722.26000,0.01785
720.77021,0.00764
719.28042,0.00942
717.79063,0.00110
716.30084,0.00126
714.81106,0.00145
713.32127,0.01339
711.83148,0.02605
710.34169,0.00929
708.85190,0.01533
707.36211,0.02139
705.87233,0.03023
704.38254,0.04186
702.89275,0.03557
701.40296,0.03724
699.91317,0.03894
698.42338,0.04951
696.93360,0.07506
695.44381,0.09420
693.95402,0.10105
692.46423,0.10793
690.97444,0.13334
689.48465,0.15510
687.99486,0.15573
686.50508,0.16833
685.01529,0.18097
683.52550,0.20742
682.03571,0.22953
680.54592,0.24431
679.05613,0.26118
677.56635,0.27807
676.07656,0.26623
674.58677,0.23947
673.09698,0.20882
671.60719,0.19982
670.11740,0.19084
668.62761,0.17613
667.13783,0.15432
665.64804,0.13782
664.15825,0.12135
662.66846,0.11617
661.17867,0.08733
659.68888,0.05758
658.19910,0.04742
656.70931,0.03727
655.21952,0.03613
653.72973,0.02994
652.23994,0.03137
650.75015,0.03835
649.26037,0.04535
647.77058,0.04317
646.28079,0.03964
644.79100,0.04924
643.30121,0.04115
641.81142,0.03309
640.32163,0.04530
638.83185,0.03567
637.34206,0.00836
635.85227,0.00626
634.36248,0.00419
632.87269,0.01298
631.38290,0.00891
629.89312,0.01844
628.40333,0.02891
626.91354,0.03941
625.42375,0.02463
623.93396,0.03541
622.44417,0.03562
620.95438,0.03587
619.46460,0.02693
617.97481,0.03849
616.48502,0.05560
614.99523,0.06733
613.50544,0.07908
612.01565,0.12593
610.52587,0.14037
609.03608,0.17416
607.54629,0.18048
606.05650,0.18683
604.56671,0.22161
603.07692,0.31047
601.58714,0.33530
600.09735,0.36014
598.60756,0.39364
597.11777,0.42256
595.62798,0.41217
594.13819,0.38812
592.64840,0.36409
591.15862,0.35355
589.66883,0.28805
588.17904,0.24420
586.68925,0.22774
585.19946,0.21131
583.70967,0.14821
582.21989,0.11918
580.73010,0.10558
579.24031,0.09201
577.75052,0.07524
576.26073,0.06148
574.77094,0.05258
573.28115,0.04796
571.79137,0.04336
570.30158,0.03315
568.81179,0.06161
567.32200,0.06870
565.83221,0.07581
564.34242,0.09215
562.85264,0.09034
561.36285,0.11731
559.87306,0.11992
558.38327,0.12256
556.89348,0.13810
555.40369,0.15619
553.91391,0.16097
552.42412,0.16577
550.93433,0.16070
549.44454,0.17682
547.95475,0.19159
546.46496,0.18694
544.97517,0.18231
543.48539,0.19830
541.99560,0.20258
540.50581,0.23403
539.01602,0.26550
537.52623,0.30136
536.03644,0.36646
534.54666,0.39364
533.05687,0.40910
531.56708,0.42459
530.07729,0.45575
528.58750,0.52373
527.09771,0.53250
525.60792,0.54130
524.11814,0.64133
522.62835,0.70550
521.13856,0.73105
519.64877,0.73684
518.15898,0.74265
516.66919,0.79703
515.17941,0.82497
513.68962,0.83523
512.19983,0.84551
510.71004,0.78750
509.22025,0.77368
507.73046,0.69318
506.24068,0.62903
504.75089,0.56490
503.26110,0.48516
501.77131,0.35461
500.28152,0.31597
498.79173,0.27736
497.30194,0.22854
495.81216,0.16226
494.32237,0.14787
492.83258,0.13351
491.34279,0.12297
489.85300,0.10670
488.36321,0.07780
486.87343,0.07469
485.38364,0.07161
483.89385,0.08373
482.40406,0.10576
480.91427,0.10390
479.42448,0.10206
477.93469,0.11819
476.44491,0.13756
474.95512,0.14603
473.46533,0.15452
471.97554,0.16269
470.48575,0.17641
468.99596,0.18900
467.50618,0.17815
466.01639,0.16733
464.52660,0.11673
463.03681,0.09423
461.54702,0.09026
460.05723,0.08632
458.56745,0.05653
457.07766,0.04585
455.58787,0.03795
454.09808,0.03008
452.60829,0.04110
451.11850,0.01510
449.62871,0.01915
448.13893,0.02322
446.64914,0.02974
445.15935,0.03374
443.66956,0.00419
442.17977,0.01673
440.68998,0.02930
439.20020,0.04431
437.71041,0.03174
436.22062,0.02344
434.73083,0.01518
433.24104,0.03327
431.75125,0.05254
430.26146,0.04342
428.77168,0.03433
427.28189,0.02400
425.79210,0.04842
424.30231,0.04366
422.81252,0.03892
421.32273,0.03513
419.83295,0.03365
418.34316,0.03025
416.85337,0.02687
415.36358,0.00960
413.87379,0.01498
412.38400,0.02636
410.89422,0.03777
409.40443,0.05127
407.91464,0.04823
406.42485,0.03947
404.93506,0.04407
403.44527,0.04870
401.95548,0.04598
400.46570,0.03824
398.97591,0.03247
397.48612,0.02673
395.99633,0.01307
394.50654,0.01508
393.01675,0.02114
391.52697,0.02548
390.03718,0.02306
388.54739,0.02411
387.05760,0.01496
385.56781,0.00582
384.07802,0.00419
382.58824,0.00988
381.09845,0.01939
379.60866,0.02893
378.11887,0.00456
376.62908,0.00000
375.13929,0.00805
373.64950,0.01611
372.15972,0.03145
370.66993,0.02266
369.18014,0.01561
367.69035,0.00858
366.20056,0.02079
364.71077,0.01323
363.22099,0.01651
361.73120,0.01982
360.24141,0.04799
358.75162,0.09780
357.26183,0.07852
355.77204,0.05926
354.28225,0.05694
352.79247,0.06982
351.30268,0.05052
349.81289,0.03124
348.32310,0.05938
346.83331,0.04636
345.34352,0.04268
343.85374,0.03903
342.36395,0.05208
340.87416,0.04353
339.38437,0.02385
337.89458,0.00419
336.40479,0.01940
334.91501,0.01853
333.42522,0.01206
331.93543,0.00561
330.44564,0.01447
328.95585,0.00772
327.46606,0.01733
325.97627,0.02696
324.48649,0.03546
322.99670,0.01754
321.50691,0.01574
320.01712,0.01397
318.52733,0.03936
317.03754,0.04844
315.54776,0.04904
314.05797,0.04966
312.56818,0.07699
311.07839,0.07283
309.58860,0.07732
308.09881,0.08184
306.60902,0.06832
305.11924,0.04493
303.62945,0.02468
302.13966,0.00444
300.64987,0.00959
299.16008,0.00419
