1778.52000,0.02928
1777.03021,0.02607
1775.54042,0.03233
1774.05063,0.01972
1772.56085,0.01018
1771.07106,0.01073
1769.58127,0.02227
1768.09148,0.01403
1766.60169,0.01983
1765.11190,0.02657
1763.62212,0.03547
1762.13233,0.02549
1760.64254,0.00822
1759.15275,0.01567
1757.66296,0.02193
1756.17317,0.02120
1754.68339,0.01652
1753.19360,0.02133
1751.70381,0.01091
1750.21402,0.01881
1748.72423,0.01394
1747.23444,0.01975
1745.74465,0.01462
1744.25487,0.01713
1742.76508,0.01265
1741.27529,0.01796
1739.78550,0.01872
1738.29571,0.01645
1736.80592,0.02030
1735.31614,0.01046
1733.82635,0.01497
1732.33656,0.00000
1730.84677,0.01165
1729.35698,0.00655
1727.86719,0.01063
1726.37740,0.01534
1724.88762,0.02007
1723.39783,0.01050
1721.90804,0.01193
1720.41825,0.01522
1718.92846,0.01273
1717.43867,0.00631
1715.94889,0.01058
1714.45910,0.00756
1712.96931,0.00822
1711.47952,0.00806
1709.98973,0.00823
1708.49994,0.00994
1707.01016,0.01245
1705.52037,0.01497
1704.03058,0.00822
1702.54079,0.02033
1701.05100,0.01203
1699.56121,0.02846
1698.07142,0.02448
1696.58164,0.02143
1695.09185,0.02726
1693.60206,0.03220
1692.11227,0.02587
1690.62248,0.02354
1689.13269,0.02337
1687.64291,0.02901
1686.15312,0.03315
1684.66333,0.03763
1683.17354,0.04395
1681.68375,0.05092
1680.19396,0.05607
1678.70417,0.04753
1677.21439,0.05579
1675.72460,0.06407
1674.23481,0.05164
1672.74502,0.07125
1671.25523,0.06557
1669.76544,0.06877
1668.27566,0.06619
1666.78587,0.08376
1665.29608,0.06782
1663.80629,0.08270
1662.31650,0.08084
1660.82671,0.10369
1659.33693,0.08815
1657.84714,0.09642
1656.35735,0.09313
1654.86756,0.09565
1653.37777,0.07320
1651.88798,0.09254
1650.39819,0.08539
1648.90841,0.07642
1647.41862,0.07572
1645.92883,0.07351
1644.43904,0.07133
1642.94925,0.06887
1641.45946,0.08106
1639.96968,0.07469
1638.47989,0.08449
1636.99010,0.08030
1635.50031,0.07278
1634.01052,0.06223
1632.52073,0.06634
1631.03094,0.08603
1629.54116,0.08318
1628.05137,0.09651
1626.56158,0.08517
1625.07179,0.08057
1623.58200,0.07385
1622.09221,0.07173
1620.60243,0.09159
1619.11264,0.09348
1617.62285,0.10058
1616.13306,0.07753
1614.64327,0.08102
1613.15348,0.07783
1611.66370,0.07131
1610.17391,0.07945
1608.68412,0.06718
1607.19433,0.08665
1605.70454,0.09273
1604.21475,0.08892
1602.72496,0.08514
1601.23518,0.08794
1599.74539,0.09412
1598.25560,0.09544
1596.76581,0.09222
1595.27602,0.08444
1593.78623,0.08035
1592.29645,0.08970
1590.80666,0.08413
1589.31687,0.06578
1587.82708,0.06636
1586.33729,0.07703
1584.84750,0.07796
1583.35771,0.08746
1581.86793,0.08417
1580.37814,0.07299
1578.88835,0.06792
1577.39856,0.07416
1575.90877,0.06823
1574.41898,0.05104
1572.92920,0.05766
1571.43941,0.05790
1569.94962,0.05283
1568.45983,0.04778
1566.97004,0.05664
1565.48025,0.05423
1563.99047,0.03417
1562.50068,0.03211
1561.01089,0.03954
1559.52110,0.03418
1558.03131,0.03464
1556.54152,0.02507
1555.05173,0.05393
1553.56195,0.03434
1552.07216,0.02942
1550.58237,0.02116
1549.09258,0.00988
1547.60279,0.01112
1546.11300,0.00934
1544.62322,0.00880
1543.13343,0.00768
1541.64364,0.01115
1540.15385,0.01816
1538.66406,0.02519
1537.17427,0.01197
1535.68448,0.00822
1534.19470,0.02494
1532.70491,0.01425
1531.21512,0.01486
1529.72533,0.02677
1528.23554,0.00822
1526.74575,0.04011
1525.25597,0.03848
1523.76618,0.03596
1522.27639,0.04475
1520.78660,0.05417
1519.29681,0.03404
1517.80702,0.05143
1516.31724,0.05392
1514.82745,0.05429
1513.33766,0.05225
1511.84787,0.05023
1510.35808,0.04366
1508.86829,0.04779
1507.37850,0.05408
1505.88872,0.05307
1504.39893,0.06154
1502.90914,0.05845
1501.41935,0.07337
1499.92956,0.08161
1498.43977,0.06976
1496.94999,0.06463
1495.46020,0.08392
1493.97041,0.10598
1492.48062,0.11220
1490.99083,0.11663
1489.50104,0.10827
1488.01125,0.11350
1486.52147,0.11876
1485.03168,0.13914
1483.54189,0.16503
1482.05210,0.17661
1480.56231,0.19249
1479.07252,0.20839
1477.58274,0.21029
1476.09295,0.22898
1474.60316,0.22178
1473.11337,0.25821
1471.62358,0.23856
1470.13379,0.22900
1468.64401,0.25269
1467.15422,0.26238
1465.66443,0.27668
1464.17464,0.29099
1462.68485,0.31265
1461.19506,0.34958
1459.70527,0.39811
1458.21549,0.45491
1456.72570,0.51356
1455.23591,0.57467
1453.74612,0.59464
1452.25633,0.64147
1450.76654,0.66302
1449.27676,0.66112
1447.78697,0.62449
1446.29718,0.60922
1444.80739,0.60373
1443.31760,0.59827
1441.82781,0.56753
1440.33802,0.52705
1438.84824,0.46770
1437.35845,0.48520
1435.86866,0.43413
1434.37887,0.47637
1432.88908,0.51224
1431.39929,0.56155
1429.90951,0.64076
1428.41972,0.69866
1426.92993,0.79072
1425.44014,0.80049
1423.95035,0.82584
1422.46056,0.85121
1420.97078,0.87691
1419.48099,0.84836
1417.99120,0.82624
1416.50141,0.83921
1415.01162,0.75982
1413.52183,0.74723
1412.03204,0.71149
1410.54226,0.64071
1409.05247,0.60350
1407.56268,0.56966
1406.07289,0.52670
1404.58310,0.49931
1403.09331,0.47195
1401.60353,0.40163
1400.11374,0.35236
1398.62395,0.33087
1397.13416,0.27830
1395.64437,0.22027
1394.15458,0.20098
1392.66479,0.18233
1391.17501,0.15181
1389.68522,0.10364
1388.19543,0.09054
1386.70564,0.07809
1385.21585,0.06566
1383.72606,0.06300
1382.23628,0.03294
1380.74649,0.04314
1379.25670,0.03020
1377.76691,0.02063
1376.27712,0.02572
1374.78733,0.02200
1373.29755,0.02501
1371.80776,0.00822
1370.31797,0.02937
1368.82818,0.02783
1367.33839,0.02632
1365.84860,0.02711
1364.35881,0.04531
1362.86903,0.04555
1361.37924,0.06502
1359.88945,0.11987
1358.39966,0.12445
1356.90987,0.15314
1355.42008,0.19953
1353.93030,0.23498
1352.44051,0.27304
1350.95072,0.31112
1349.46093,0.37256
1347.97114,0.42212
1346.48135,0.51226
1344.99156,0.57926
1343.50178,0.64963
1342.01199,0.67551
1340.52220,0.76514
1339.03241,0.79961
1337.54262,0.78807
1336.05283,0.80704
1334.56305,0.82603
1333.07326,0.84993
1331.58347,0.83391
1330.09368,0.80603
1328.60389,0.80774
1327.11410,0.77595
1325.62432,0.72679
1324.13453,0.72645
1322.64474,0.71424
1321.15495,0.65845
1319.66516,0.65589
1318.17537,0.65335
1316.68558,0.57264
1315.19580,0.53403
1313.70601,0.48202
1312.21622,0.47273
1310.72643,0.45400
1309.23664,0.43317
1307.74685,0.41206
1306.25707,0.37024
1304.76728,0.34643
1303.27749,0.32265
1301.78770,0.28669
1300.29791,0.26296
1298.80812,0.20358
1297.31834,0.18294
1295.82855,0.15013
1294.33876,0.11460
1292.84897,0.10258
1291.35918,0.09363
1289.86939,0.09003
1288.37960,0.08646
1286.88982,0.06509
1285.40003,0.06873
1283.91024,0.04100
1282.42045,0.04683
1280.93066,0.04536
1279.44087,0.03935
1277.95109,0.04190
1276.46130,0.04173
1274.97151,0.03838
1273.48172,0.03506
1271.99193,0.05295
1270.50214,0.02818
1269.01235,0.02935
1267.52257,0.02658
1266.03278,0.01317
1264.54299,0.01533
1263.05320,0.02117
1261.56341,0.02399
1260.07362,0.02684
1258.58384,0.01568
1257.09405,0.01827
1255.60426,0.02454
1254.11447,0.03388
1252.62468,0.03319
1251.13489,0.01849
1249.64511,0.04041
1248.15532,0.01662
1246.66553,0.02030
1245.17574,0.02399
1243.68595,0.03260
1242.19616,0.02140
1240.70637,0.01054
1239.21659,0.02409
1237.72680,0.01572
1236.23701,0.01316
1234.74722,0.02679
1233.25743,0.02352
1231.76764,0.02027
1230.27786,0.04434
1228.78807,0.03733
1227.29828,0.03462
1225.80849,0.02430
1224.31870,0.00822
1222.82891,0.01333
1221.33912,0.02670
1219.84934,0.02499
1218.35955,0.02331
1216.86976,0.05017
1215.37997,0.06027
1213.89018,0.06858
1212.40039,0.08087
1210.91061,0.09166
1209.42082,0.05339
1207.93103,0.05981
1206.44124,0.06626
1204.95145,0.06068
1203.46166,0.07038
1201.97188,0.05083
1200.48209,0.04533
1198.99230,0.04656
1197.50251,0.04538
1196.01272,0.03904
1194.52293,0.03043
1193.03314,0.02185
1191.54336,0.01071
1190.05357,0.01300
1188.56378,0.02599
1187.07399,0.01827
1185.58420,0.01820
1184.09441,0.02639
1182.60463,0.02484
1181.11484,0.02332
1179.62505,0.02182
1178.13526,0.01272
1176.64547,0.00822
1175.15568,0.01813
1173.66589,0.02470
1172.17611,0.01880
1170.68632,0.01871
1169.19653,0.01865
1167.70674,0.00825
1166.21695,0.01190
1164.72716,0.02350
1163.23738,0.02628
1161.74759,0.04098
1160.25780,0.03619
1158.76801,0.04148
1157.27822,0.04680
1155.78843,0.05916
1154.29865,0.07764
1152.80886,0.07754
1151.31907,0.08235
1149.82928,0.08322
1148.33949,0.11033
1146.84970,0.10286
1145.35991,0.09542
1143.87013,0.10858
1142.38034,0.15135
1140.89055,0.17157
1139.40076,0.16895
1137.91097,0.17276
1136.42118,0.19245
1134.93140,0.20393
1133.44161,0.21543
1131.95182,0.23489
1130.46203,0.23547
1128.97224,0.22052
1127.48245,0.22755
1125.99266,0.22241
1124.50288,0.22430
1123.01309,0.23080
1121.52330,0.23732
1120.03351,0.25483
1118.54372,0.24433
1117.05393,0.24909
1115.56415,0.26424
1114.07436,0.27241
1112.58457,0.26810
1111.09478,0.26381
1109.60499,0.22144
1108.11520,0.23550
1106.62542,0.22305
1105.13563,0.25088
1103.64584,0.27141
1102.15605,0.24379
1100.66626,0.24014
1099.17647,0.23650
1097.68668,0.24433
1096.19690,0.20706
1094.70711,0.22072
1093.21732,0.19326
1091.72753,0.19417
1090.23774,0.17940
1088.74795,0.16466
1087.25817,0.16961
1085.76838,0.17275
1084.27859,0.16525
1082.78880,0.17728
1081.29901,0.17044
1079.80922,0.16453
1078.31943,0.17847
1076.82965,0.19243
1075.33986,0.19758
1073.85007,0.17958
1072.36028,0.20459
1070.87049,0.21102
1069.38070,0.23334
1067.89092,0.25096
1066.40113,0.26860
1064.91134,0.31050
1063.42155,0.40761
1061.93176,0.47243
1060.44197,0.53757
1058.95219,0.60244
1057.46240,0.63913
1055.97261,0.67584
1054.48282,0.76304
1052.99303,0.81581
1051.50324,0.80244
1050.01345,0.78514
1048.52367,0.78920
1047.03388,0.77347
1045.54409,0.75776
1044.05430,0.78416
1042.56451,0.68191
1041.07472,0.65134
1039.58494,0.62659
1038.09515,0.56405
1036.60536,0.53249
1035.11557,0.50094
1033.62578,0.47080
1032.13599,0.39312
1030.64620,0.31881
1029.15642,0.28661
1027.66663,0.27440
1026.17684,0.26221
1024.68705,0.23587
1023.19726,0.21261
1021.70747,0.17900
1020.21769,0.15853
1018.72790,0.15211
1017.23811,0.15028
1015.74832,0.14848
1014.25853,0.13939
1012.76874,0.12361
1011.27896,0.13164
1009.78917,0.11591
1008.29938,0.09655
1006.80959,0.07264
1005.31980,0.04876
1003.83001,0.05203
1002.34022,0.01234
1000.85044,0.04310
999.36065,0.02328
997.87086,0.03260
996.38107,0.04194
994.89128,0.05908
993.40149,0.06679
991.91171,0.06996
990.42192,0.08077
988.93213,0.11721
987.44234,0.11649
985.95255,0.11579
984.46276,0.10841
982.97297,0.09343
981.48319,0.08152
979.99340,0.04799
978.50361,0.05016
977.01382,0.05235
975.52403,0.02804
974.03424,0.02357
972.54446,0.03041
971.05467,0.01654
969.56488,0.00818
968.07509,0.00822
966.58530,0.00809
965.09551,0.02277
963.60573,0.01918
962.11594,0.01013
960.62615,0.01360
959.13636,0.02320
957.64657,0.03282
956.15678,0.04642
954.66699,0.02286
953.17721,0.03682
951.68742,0.03190
950.19763,0.03662
948.70784,0.04135
947.21805,0.05358
945.72826,0.08352
944.23848,0.09763
942.74869,0.13432
941.25890,0.14482
939.76911,0.15992
938.27932,0.17504
936.78953,0.16976
935.29974,0.18554
933.80996,0.19982
932.32017,0.20071
930.83038,0.20421
929.34059,0.20775
927.85080,0.24194
926.36101,0.26061
924.87123,0.28632
923.38144,0.36419
921.89165,0.39254
920.40186,0.42091
918.91207,0.55099
917.42228,0.63383
915.93250,0.77249
914.44271,1.02917
912.95292,1.15538
911.46313,1.28162
909.97334,1.52099
908.48355,1.71435
906.99376,1.87114
905.50398,1.96943
904.01419,1.98191
902.52440,1.99442
901.03461,1.95436
899.54482,2.00000
898.05503,1.87584
896.56525,1.64683
895.07546,1.52287
893.58567,1.39894
892.09588,1.11177
890.60609,0.86761
889.11630,0.61311
887.62651,0.47907
886.13673,0.41319
884.64694,0.34733
883.15715,0.24781
881.66736,0.17179
880.17757,0.13482
878.68778,0.11845
877.19800,0.10211
875.70821,0.09844
874.21842,0.07437
872.72863,0.03935
871.23884,0.03210
869.74905,0.02366
868.25927,0.01524
866.76948,0.01416
865.27969,0.00822
863.78990,0.02577
862.30011,0.04548
860.81032,0.04859
859.32053,0.05173
857.83075,0.08127
856.34096,0.06967
854.85117,0.10230
853.36138,0.09289
851.87159,0.09935
850.38180,0.10584
848.89202,0.13949
847.40223,0.14450
845.91244,0.17027
844.42265,0.17304
842.93286,0.17584
841.44307,0.18614
839.95329,0.19158
838.46350,0.20314
836.97371,0.20253
835.48392,0.21323
833.99413,0.22395
832.50434,0.20878
831.01455,0.21376
829.52477,0.19132
828.03498,0.14116
826.54519,0.13448
825.05540,0.12781
823.56561,0.10304
822.07582,0.09901
820.58604,0.08191
819.09625,0.07656
817.60646,0.07124
816.11667,0.07372
814.62688,0.09238
813.13709,0.10558
811.64730,0.09808
810.15752,0.09166
808.66773,0.08527
807.17794,0.10039
805.68815,0.09786
804.19836,0.09047
802.70857,0.09455
801.21879,0.09864
799.72900,0.08798
798.23921,0.09106
796.74942,0.08044
795.25963,0.07838
793.76984,0.07635
792.28006,0.08685
790.79027,0.10773
789.30048,0.11736
787.81069,0.15354
786.32090,0.16824
784.83111,0.18298
783.34132,0.20978
781.85154,0.23995
780.36175,0.26071
778.87196,0.27797
777.38217,0.29527
775.89238,0.32981
774.40259,0.31560
772.91281,0.31178
771.42302,0.32582
769.93323,0.33988
768.44344,0.29528
766.95365,0.26656
765.46386,0.23999
763.97407,0.20156
762.48429,0.17962
760.99450,0.15770
759.50471,0.13824
758.01492,0.12583
756.52513,0.09301
755.03534,0.09558
753.54556,0.09817
752.05577,0.08585
750.56598,0.07112
749.07619,0.07135
747.58640,0.05666
746.09661,0.04200
744.60683,0.03682
743.11704,0.03897
741.62725,0.03170
740.13746,0.02415
738.64767,0.01663
737.15788,0.02773
735.66809,0.02818
734.17831,0.00822
732.68852,0.01931
731.19873,0.03041
729.70894,0.02965
728.21915,0.02892
726.72936,0.00931
725.23958,0.03271
723.74979,0.02550
722.26000,0.01831
720.77021,0.02197
719.28042,0.01132
717.79063,0.00710
716.30084,0.01165
714.81106,0.01622
713.32127,0.00892
711.83148,0.01872
710.34169,0.03068
708.85190,0.03870
707.36211,0.04674
705.87233,0.03774
704.38254,0.04888
702.89275,0.04359
701.40296,0.04624
699.91317,0.04892
698.42338,0.06413
696.93360,0.09277
695.44381,0.09522
693.95402,0.10272
692.46423,0.11025
690.97444,0.15302
689.48465,0.14032
687.99486,0.16820
686.50508,0.17765
685.01529,0.18713
683.52550,0.23856
682.03571,0.27172
680.54592,0.26130
679.05613,0.25716
677.56635,0.25304
676.07656,0.25398
674.58677,0.24519
673.09698,0.24404
671.60719,0.22325
670.11740,0.20249
668.62761,0.18160
667.13783,0.17506
665.64804,0.17267
664.15825,0.17030
662.66846,0.11200
661.17867,0.06654
659.68888,0.05403
658.19910,0.04825
656.70931,0.04249
655.21952,0.05079
653.72973,0.04661
652.23994,0.05586
650.75015,0.05661
649.26037,0.05738
647.77058,0.04689
646.28079,0.02515
644.79100,0.02935
643.30121,0.02504
641.81142,0.02075
640.32163,0.02776
638.83185,0.00919
637.34206,0.00822
635.85227,0.00982
634.36248,0.01145
632.87269,0.01081
631.38290,0.03154
629.89312,0.02760
628.40333,0.01591
626.91354,0.00424
625.42375,0.00562
623.93396,0.01648
622.44417,0.02798
620.95438,0.03949
619.46460,0.03213
617.97481,0.05529
616.48502,0.07206
614.99523,0.06432
613.50544,0.05660
612.01565,0.13046
610.52587,0.16105
609.03608,0.18008
607.54629,0.19670
606.05650,0.21334
604.56671,0.28672
603.07692,0.32658
601.58714,0.35625
600.09735,0.38595
598.60756,0.40546
597.11777,0.41402
595.62798,0.44211
594.13819,0.43105
592.64840,0.42002
591.15862,0.38050
589.66883,0.32302
588.17904,0.26160
586.68925,0.22856
585.19946,0.19555
583.70967,0.14945
582.21989,0.13142
580.73010,0.10396
579.24031,0.07653
577.75052,0.04943
576.26073,0.05895
574.77094,0.03433
573.28115,0.04222
571.79137,0.05012
570.30158,0.07772
568.81179,0.05900
567.32200,0.05402
565.83221,0.04907
564.34242,0.08530
562.85264,0.11241
561.36285,0.09168
559.87306,0.10710
558.38327,0.12255
556.89348,0.13420
555.40369,0.14192
553.91391,0.14464
552.42412,0.14738
550.93433,0.14602
549.44454,0.17335
547.95475,0.17693
546.46496,0.16909
544.97517,0.16128
543.48539,0.20365
541.99560,0.21678
540.50581,0.22840
539.01602,0.24005
537.52623,0.29105
536.03644,0.33568
534.54666,0.34160
533.05687,0.37241
531.56708,0.40323
530.07729,0.46838
528.58750,0.54545
527.09771,0.57802
525.60792,0.61063
524.11814,0.67740
522.62835,0.75334
521.13856,0.80888
519.64877,0.82786
518.15898,0.84687
516.66919,0.84364
515.17941,0.83769
513.68962,0.82933
512.19983,0.82099
510.71004,0.75353
509.22025,0.74006
507.73046,0.70375
506.24068,0.65938
504.75089,0.61504
503.26110,0.43916
501.77131,0.37368
500.28152,0.32865
498.79173,0.28364
497.30194,0.21915
495.81216,0.15712
494.32237,0.13505
492.83258,0.11301
491.34279,0.07971
489.85300,0.08729
488.36321,0.07630
486.87343,0.07706
485.38364,0.07786
483.89385,0.07121
482.40406,0.10056
480.91427,0.08770
479.42448,0.07488
477.93469,0.10460
476.44491,0.11759
474.95512,0.13990
473.46533,0.16223
471.97554,0.15638
470.48575,0.13989
468.99596,0.17129
467.50618,0.17436
466.01639,0.17746
464.52660,0.13454
463.03681,0.07975
461.54702,0.06829
460.05723,0.05685
458.56745,0.04116
457.07766,0.02519
455.58787,0.03730
454.09808,0.04944
452.60829,0.04239
451.11850,0.00822
449.62871,0.01029
448.13893,0.01238
446.64914,0.03690
445.15935,0.00931
443.66956,0.01102
442.17977,0.01000
440.68998,0.00901
439.20020,0.03000
437.71041,0.02540
436.22062,0.03348
434.73083,0.04158
433.24104,0.02212
431.75125,0.05054
430.26146,0.03997
428.77168,0.02942
427.28189,0.00822
425.79210,0.05446
424.30231,0.04570
422.81252,0.03695
421.32273,0.05583
419.83295,0.05034
418.34316,0.03999
416.85337,0.02967
415.36358,0.01114
413.87379,0.03105
412.38400,0.03498
410.89422,0.03893
409.40443,0.02447
407.91464,0.02466
406.42485,0.02122
404.93506,0.01719
403.44527,0.01319
401.95548,0.03787
400.46570,0.03422
398.97591,0.04172
397.48612,0.04925
395.99633,0.06732
394.50654,0.03298
393.01675,0.03890
391.52697,0.04485
390.03718,0.04320
388.54739,0.04768
387.05760,0.02794
385.56781,0.00822
384.07802,0.04149
382.58824,0.05130
381.09845,0.05809
379.60866,0.06491
378.11887,0.03851
376.62908,0.03135
375.13929,0.02482
373.64950,0.01832
372.15972,0.03745
370.66993,0.04472
369.18014,0.04103
367.69035,0.03737
366.20056,0.01605
364.71077,0.02612
363.22099,0.01716
361.73120,0.00822
360.24141,0.01800
358.75162,0.06225
357.26183,0.06247
355.77204,0.06272
354.28225,0.07839
352.79247,0.10749
351.30268,0.08113
349.81289,0.05480
348.32310,0.07209
346.83331,0.03910
345.34352,0.04485
343.85374,0.05063
342.36395,0.04332
340.87416,0.03634
339.38437,0.03640
337.89458,0.03648
336.40479,0.01586
334.91501,0.03733
333.42522,0.02804
331.93543,0.01876
330.44564,0.02995
328.95585,0.00822
327.46606,0.01005
325.97627,0.01191
324.48649,0.04742
322.99670,0.08326
321.50691,0.06516
320.01712,0.04709
318.52733,0.02630
317.03754,0.04455
315.54776,0.03936
314.05797,0.03419
312.56818,0.03849
311.07839,0.02606
309.58860,0.03483
308.09881,0.04363
306.60902,0.01206
305.11924,0.03508
303.62945,0.03573
302.13966,0.03639
300.64987,0.02138
299.16008,0.00822
