1778.52000,0.00858
1777.03021,0.01057
1775.54042,0.00000
1774.05063,0.00602
1772.56085,0.01438
1771.07106,0.01779
1769.58127,0.01427
1768.09148,0.01641
1766.60169,0.01394
1765.11190,0.00917
1763.62212,0.01767
1762.13233,0.01659
1760.64254,0.00858
1759.15275,0.01319
1757.66296,0.01450
1756.17317,0.00987
1754.68339,0.01355
1753.19360,0.01262
1751.70381,0.00641
1750.21402,0.00652
1748.72423,0.00533
1747.23444,0.00615
1745.74465,0.00931
1744.25487,0.01018
1742.76508,0.00908
1741.27529,0.01000
1739.78550,0.00895
1738.29571,0.01058
1736.80592,0.00858
1735.31614,0.00983
1733.82635,0.00959
1732.33656,0.01897
1730.84677,0.01745
1729.35698,0.03019
1727.86719,0.01315
1726.37740,0.02263
1724.88762,0.00365
1723.39783,0.02197
1721.90804,0.02341
1720.41825,0.01627
1718.92846,0.00815
1717.43867,0.01298
1715.94889,0.01949
1714.45910,0.01012
1712.96931,0.00972
1711.47952,0.00769
1709.98973,0.01330
1708.49994,0.01563
1707.01016,0.01268
1705.52037,0.00975
1704.03058,0.02009
1702.54079,0.00993
1701.05100,0.02429
1699.56121,0.02312
1698.07142,0.01170
1696.58164,0.00858
1695.09185,0.02596
1693.60206,0.01952
1692.11227,0.02006
1690.62248,0.01764
1689.13269,0.03279
1687.64291,0.02115
1686.15312,0.03105
1684.66333,0.03237
1683.17354,0.02411
1681.68375,0.02481
1680.19396,0.02919
1678.70417,0.05014
1677.21439,0.04065
1675.72460,0.05603
1674.23481,0.05752
1672.74502,0.04379
1671.25523,0.04930
1669.76544,0.06345
1668.27566,0.04648
1666.78587,0.07028
1665.29608,0.06231
1663.80629,0.05767
1662.31650,0.07161
1660.82671,0.07033
1659.33693,0.09922
1657.84714,0.07249
1656.35735,0.07725
1654.86756,0.07706
1653.37777,0.07292
1651.88798,0.06782
1650.39819,0.08062
1648.90841,0.07059
1647.41862,0.07020
1645.92883,0.07049
1644.43904,0.07080
1642.94925,0.07180
1641.45946,0.07978
1639.96968,0.08215
1638.47989,0.09482
1636.99010,0.09028
1635.50031,0.07087
1634.01052,0.06439
1632.52073,0.06457
1631.03094,0.07206
1629.54116,0.07791
1628.05137,0.08809
1626.56158,0.08737
1625.07179,0.09396
1623.58200,0.08467
1622.09221,0.08336
1620.60243,0.08837
1619.11264,0.08180
1617.62285,0.08851
1616.13306,0.07769
1614.64327,0.06656
1613.15348,0.06672
1611.66370,0.08247
1610.17391,0.07704
1608.68412,0.07794
1607.19433,0.10303
1605.70454,0.09867
1604.21475,0.09665
1602.72496,0.09466
1601.23518,0.09501
1599.74539,0.07286
1598.25560,0.07127
1596.76581,0.06043
1595.27602,0.07347
1593.78623,0.08321
1592.29645,0.08073
1590.80666,0.07793
1589.31687,0.06291
1587.82708,0.05751
1586.33729,0.08559
1584.84750,0.08290
1583.35771,0.08586
1581.86793,0.06366
1580.37814,0.07230
1578.88835,0.07301
1577.39856,0.07607
1575.90877,0.06987
1574.41898,0.06602
1572.92920,0.05126
1571.43941,0.05143
1569.94962,0.05046
1568.45983,0.04952
1566.97004,0.04479
1565.48025,0.04307
1563.99047,0.03773
1562.50068,0.04500
1561.01089,0.04203
1559.52110,0.02914
1558.03131,0.03913
1556.54152,0.04849
1555.05173,0.03567
1553.56195,0.02619
1552.07216,0.02734
1550.58237,0.02089
1549.09258,0.01711
1547.60279,0.01270
1546.11300,0.01129
1544.62322,0.00858
1543.13343,0.01216
1541.64364,0.01842
1540.15385,0.01509
1538.66406,0.01178
1537.17427,0.03434
1535.68448,0.01187
1534.19470,0.02369
1532.70491,0.01069
1531.21512,0.02863
1529.72533,0.02540
1528.23554,0.02649
1526.74575,0.02927
1525.25597,0.02379
1523.76618,0.01304
1522.27639,0.02582
1520.78660,0.02671
1519.29681,0.04882
1517.80702,0.04511
1516.31724,0.05535
1514.82745,0.05202
1513.33766,0.04938
1511.84787,0.04677
1510.35808,0.05213
1508.86829,0.04327
1507.37850,0.05166
1505.88872,0.05080
1504.39893,0.04997
1502.90914,0.06274
1501.41935,0.07420
1499.92956,0.05820
1498.43977,0.05614
1496.94999,0.07033
1495.46020,0.09580
1493.97041,0.09282
1492.48062,0.09515
1490.99083,0.09685
1489.50104,0.09261
1488.01125,0.08476
1486.52147,0.07692
1485.03168,0.13470
1483.54189,0.18752
1482.05210,0.17711
1480.56231,0.19322
1479.07252,0.19478
1477.58274,0.18345
1476.09295,0.18870
1474.60316,0.18272
1473.11337,0.19630
1471.62358,0.21189
1470.13379,0.22884
1468.64401,0.23388
1467.15422,0.25849
1465.66443,0.26705
1464.17464,0.27565
1462.68485,0.29403
1461.19506,0.31808
1459.70527,0.35705
1458.21549,0.43281
1456.72570,0.49005
1455.23591,0.51916
1453.74612,0.57081
1452.25633,0.60295
1450.76654,0.62683
1449.27676,0.63285
1447.78697,0.62200
1446.29718,0.65125
1444.80739,0.63134
1443.31760,0.61145
1441.82781,0.54107
1440.33802,0.48562
1438.84824,0.46564
1437.35845,0.45662
1435.86866,0.46053
1434.37887,0.45785
1432.88908,0.50355
1431.39929,0.57941
1429.90951,0.63543
1428.41972,0.70207
1426.92993,0.72700
1425.44014,0.75857
1423.95035,0.80276
1422.46056,0.84697
1420.97078,0.83788
1419.48099,0.84836
1417.99120,0.86714
1416.50141,0.85513
1415.01162,0.82958
1413.52183,0.80769
1412.03204,0.72819
1410.54226,0.69972
1409.05247,0.65140
1407.56268,0.63425
1406.07289,0.55716
1404.58310,0.53244
1403.09331,0.50773
1401.60353,0.45059
1400.11374,0.40474
1398.62395,0.35295
1397.13416,0.29290
1395.64437,0.23917
1394.15458,0.23316
1392.66479,0.18511
1391.17501,0.14603
1389.68522,0.13015
1388.19543,0.11629
1386.70564,0.09798
1385.21585,0.07970
1383.72606,0.07121
1382.23628,0.04519
1380.74649,0.03741
1379.25670,0.02502
1377.76691,0.02192
1376.27712,0.00858
1374.78733,0.03152
1373.29755,0.02302
1371.80776,0.02580
1370.31797,0.02331
1368.82818,0.02101
1367.33839,0.01873
1365.84860,0.01564
1364.35881,0.03345
1362.86903,0.04002
1361.37924,0.07842
1359.88945,0.10259
1358.39966,0.10692
1356.90987,0.13776
1355.42008,0.16035
1353.93030,0.23199
1352.44051,0.25380
1350.95072,0.27564
1349.46093,0.35264
1347.97114,0.42537
1346.48135,0.49812
1344.99156,0.56759
1343.50178,0.61554
1342.01199,0.70460
1340.52220,0.79334
1339.03241,0.79467
1337.54262,0.79801
1336.05283,0.80667
1334.56305,0.81535
1333.07326,0.87010
1331.58347,0.89937
1330.09368,0.91475
1328.60389,0.88842
1327.11410,0.87106
1325.62432,0.80503
1324.13453,0.81356
1322.64474,0.76281
1321.15495,0.74290
1319.66516,0.71456
1318.17537,0.68624
1316.68558,0.62798
1315.19580,0.58630
1313.70601,0.51019
1312.21622,0.50069
1310.72643,0.49618
1309.23664,0.44234
1307.74685,0.40476
1306.25707,0.37978
1304.76728,0.35119
1303.27749,0.32262
1301.78770,0.27387
1300.29791,0.21156
1298.80812,0.18936
1297.31834,0.16221
1295.82855,0.15065
1294.33876,0.12190
1292.84897,0.11469
1291.35918,0.09625
1289.86939,0.09490
1288.37960,0.09356
1286.88982,0.08348
1285.40003,0.08501
1283.91024,0.10014
1282.42045,0.06164
1280.93066,0.05960
1279.44087,0.05030
1277.95109,0.05129
1276.46130,0.03938
1274.97151,0.04191
1273.48172,0.04446
1271.99193,0.04389
1270.50214,0.03572
1269.01235,0.03719
1267.52257,0.03040
1266.03278,0.05907
1264.54299,0.04471
1263.05320,0.04097
1261.56341,0.04123
1260.07362,0.04151
1258.58384,0.02791
1257.09405,0.02891
1255.60426,0.02297
1254.11447,0.02732
1252.62468,0.02475
1251.13489,0.01756
1249.64511,0.03093
1248.15532,0.01683
1246.66553,0.01270
1245.17574,0.00858
1243.68595,0.01860
1242.19616,0.04884
1240.70637,0.03703
1239.21659,0.04778
1237.72680,0.04961
1236.23701,0.04649
1234.74722,0.04340
1233.25743,0.03950
1231.76764,0.03562
1230.27786,0.02763
1228.78807,0.03491
1227.29828,0.02663
1225.80849,0.03130
1224.31870,0.02705
1222.82891,0.00858
1221.33912,0.03275
1219.84934,0.04633
1218.35955,0.05994
1216.86976,0.06894
1215.37997,0.07432
1213.89018,0.07542
1212.40039,0.09442
1210.91061,0.08795
1209.42082,0.07719
1207.93103,0.07044
1206.44124,0.06370
1204.95145,0.07853
1203.46166,0.08973
1201.97188,0.07379
1200.48209,0.04927
1198.99230,0.04730
1197.50251,0.02249
1196.01272,0.04375
1194.52293,0.03820
1193.03314,0.03268
1191.54336,0.04573
1190.05357,0.03496
1188.56378,0.05369
1187.07399,0.05290
1185.58420,0.04518
1184.09441,0.03020
1182.60463,0.01938
1181.11484,0.00858
1179.62505,0.01697
1178.13526,0.02439
1176.64547,0.02587
1175.15568,0.05123
1173.66589,0.04348
1172.17611,0.05431
1170.68632,0.04082
1169.19653,0.02735
1167.70674,0.03428
1166.21695,0.04785
1164.72716,0.05019
1163.23738,0.03102
1161.74759,0.04632
1160.25780,0.06728
1158.76801,0.07501
1157.27822,0.08277
1155.78843,0.09982
1154.29865,0.09339
1152.80886,0.09161
1151.31907,0.10940
1149.82928,0.11297
1148.33949,0.13710
1146.84970,0.13443
1145.35991,0.13178
1143.87013,0.14572
1142.38034,0.15769
1140.89055,0.15710
1139.40076,0.15653
1137.91097,0.17421
1136.42118,0.19688
1134.93140,0.20814
1133.44161,0.21943
1131.95182,0.21833
1130.46203,0.23745
1128.97224,0.23871
1127.48245,0.25390
1125.99266,0.23434
1124.50288,0.23965
1123.01309,0.23670
1121.52330,0.23377
1120.03351,0.24081
1118.54372,0.23925
1117.05393,0.23540
1115.56415,0.24086
1114.07436,0.26256
1112.58457,0.24405
1111.09478,0.22555
1109.60499,0.23309
1108.11520,0.25787
1106.62542,0.25916
1105.13563,0.25418
1103.64584,0.23299
1102.15605,0.23336
1100.66626,0.23110
1099.17647,0.22887
1097.68668,0.21474
1096.19690,0.20295
1094.70711,0.20410
1093.21732,0.20494
1091.72753,0.17534
1090.23774,0.19014
1088.74795,0.20497
1087.25817,0.19663
1085.76838,0.17077
1084.27859,0.17441
1082.78880,0.16714
1081.29901,0.17944
1079.80922,0.18778
1078.31943,0.17711
1076.82965,0.16646
1075.33986,0.19376
1073.85007,0.19061
1072.36028,0.20471
1070.87049,0.18836
1069.38070,0.23795
1067.89092,0.25179
1066.40113,0.26566
1064.91134,0.29544
1063.42155,0.35937
1061.93176,0.42995
1060.44197,0.51446
1058.95219,0.56124
1057.46240,0.59115
1055.97261,0.62108
1054.48282,0.73948
1052.99303,0.81981
1051.50324,0.84584
1050.01345,0.81922
1048.52367,0.82245
1047.03388,0.81808
1045.54409,0.81373
1044.05430,0.75972
1042.56451,0.68951
1041.07472,0.65376
1039.58494,0.62931
1038.09515,0.53167
1036.60536,0.52433
1035.11557,0.51700
1033.62578,0.46879
1032.13599,0.40835
1030.64620,0.36582
1029.15642,0.31802
1027.66663,0.28879
1026.17684,0.25958
1024.68705,0.22907
1023.19726,0.19958
1021.70747,0.16581
1020.21769,0.16386
1018.72790,0.11125
1017.23811,0.11879
1015.74832,0.12635
1014.25853,0.11556
1012.76874,0.11108
1011.27896,0.12054
1009.78917,0.11544
1008.29938,0.09017
1006.80959,0.07701
1005.31980,0.06387
1003.83001,0.03271
1002.34022,0.03833
1000.85044,0.05823
999.36065,0.00858
997.87086,0.02136
996.38107,0.03415
994.89128,0.04051
993.40149,0.06048
991.91171,0.05761
990.42192,0.09651
988.93213,0.12118
987.44234,0.11889
985.95255,0.11662
984.46276,0.12149
982.97297,0.11711
981.48319,0.09620
979.99340,0.06140
978.50361,0.05726
977.01382,0.05314
975.52403,0.03067
974.03424,0.03174
972.54446,0.02951
971.05467,0.02997
969.56488,0.00858
968.07509,0.01611
966.58530,0.02366
965.09551,0.01600
963.60573,0.00803
962.11594,0.02431
960.62615,0.01610
959.13636,0.02415
957.64657,0.03222
956.15678,0.05025
954.66699,0.03684
953.17721,0.04200
951.68742,0.05149
950.19763,0.04461
948.70784,0.03776
947.21805,0.06090
945.72826,0.06718
944.23848,0.08640
942.74869,0.13214
941.25890,0.14345
939.76911,0.15496
938.27932,0.16649
936.78953,0.17655
935.29974,0.18498
933.80996,0.19708
932.32017,0.21616
930.83038,0.21523
929.34059,0.21432
927.85080,0.23314
926.36101,0.25960
924.87123,0.28940
923.38144,0.35963
921.89165,0.38584
920.40186,0.41207
918.91207,0.50821
917.42228,0.58516
915.93250,0.74064
914.44271,0.93954
912.95292,1.04406
911.46313,1.14861
909.97334,1.36215
908.48355,1.57406
906.99376,1.75221
905.50398,1.87043
904.01419,1.89825
902.52440,1.92609
901.03461,2.00000
899.54482,1.98450
898.05503,1.87727
896.56525,1.66540
895.07546,1.54497
893.58567,1.42456
892.09588,1.09683
890.60609,0.91519
889.11630,0.66535
887.62651,0.52682
886.13673,0.45606
884.64694,0.38531
883.15715,0.27303
881.66736,0.19455
880.17757,0.12802
878.68778,0.11518
877.19800,0.10236
875.70821,0.07565
874.21842,0.07016
872.72863,0.02429
871.23884,0.00858
869.74905,0.01145
868.25927,0.01433
866.76948,0.01376
865.27969,0.03110
863.78990,0.03158
862.30011,0.04036
860.81032,0.04005
859.32053,0.03977
857.83075,0.05690
856.34096,0.09459
854.85117,0.07931
853.36138,0.09883
851.87159,0.10827
850.38180,0.11774
848.89202,0.13535
847.40223,0.12648
845.91244,0.13917
844.42265,0.14360
842.93286,0.14805
841.44307,0.16247
839.95329,0.19579
838.46350,0.18541
836.97371,0.19294
835.48392,0.20298
833.99413,0.21305
832.50434,0.20508
831.01455,0.19217
829.52477,0.18625
828.03498,0.14854
826.54519,0.15061
825.05540,0.15271
823.56561,0.12535
822.07582,0.10629
820.58604,0.10050
819.09625,0.09375
817.60646,0.08702
816.11667,0.09224
814.62688,0.09252
813.13709,0.11633
811.64730,0.11566
810.15752,0.11204
808.66773,0.10843
807.17794,0.11214
805.68815,0.11455
804.19836,0.12162
802.70857,0.12208
801.21879,0.12257
799.72900,0.09494
798.23921,0.09912
796.74942,0.10101
795.25963,0.10276
793.76984,0.10453
792.28006,0.11808
790.79027,0.11709
789.30048,0.11612
787.81069,0.15492
786.32090,0.16608
784.83111,0.17727
783.34132,0.19296
781.85154,0.22490
780.36175,0.27376
778.87196,0.27577
777.38217,0.27781
775.89238,0.31713
774.40259,0.32634
772.91281,0.31338
771.42302,0.32313
769.93323,0.33291
768.44344,0.26934
766.95365,0.23395
765.46386,0.20554
763.97407,0.15695
762.48429,0.14929
760.99450,0.14166
759.50471,0.13057
758.01492,0.10427
756.52513,0.08130
755.03534,0.08138
753.54556,0.08148
752.05577,0.07714
750.56598,0.08209
749.07619,0.06455
747.58640,0.05216
746.09661,0.03980
744.60683,0.03790
743.11704,0.03304
741.62725,0.02323
740.13746,0.02670
738.64767,0.03019
737.15788,0.02012
735.66809,0.02300
734.17831,0.03716
732.68852,0.03595
731.19873,0.03476
729.70894,0.00858
728.21915,0.03067
726.72936,0.02297
725.23958,0.02357
723.74979,0.02883
722.26000,0.03412
720.77021,0.03347
719.28042,0.02257
717.79063,0.01700
716.30084,0.01278
714.81106,0.00858
713.32127,0.02391
711.83148,0.03629
710.34169,0.05133
708.85190,0.05232
707.36211,0.05334
705.87233,0.04792
704.38254,0.07234
702.89275,0.05968
701.40296,0.05616
699.91317,0.05266
698.42338,0.08545
696.93360,0.10370
695.44381,0.10408
693.95402,0.10863
692.46423,0.11320
690.97444,0.15373
689.48465,0.17574
687.99486,0.18021
686.50508,0.18372
685.01529,0.18725
683.52550,0.24248
682.03571,0.25500
680.54592,0.27053
679.05613,0.26588
677.56635,0.26125
676.07656,0.27089
674.58677,0.23285
673.09698,0.23923
671.60719,0.24116
670.11740,0.24311
668.62761,0.18662
667.13783,0.17156
665.64804,0.15122
664.15825,0.13091
662.66846,0.11394
661.17867,0.07546
659.68888,0.06515
658.19910,0.06183
656.70931,0.05854
655.21952,0.04102
653.72973,0.05102
652.23994,0.04879
650.75015,0.06264
649.26037,0.07653
647.77058,0.05681
646.28079,0.04275
644.79100,0.02640
643.30121,0.04203
641.81142,0.05769
640.32163,0.06559
638.83185,0.03939
637.34206,0.00858
635.85227,0.00888
634.36248,0.00920
632.87269,0.02180
631.38290,0.01555
629.89312,0.04376
628.40333,0.03242
626.91354,0.02110
625.42375,0.04178
623.93396,0.03465
622.44417,0.03831
620.95438,0.04199
619.46460,0.03957
617.97481,0.03917
616.48502,0.05004
614.99523,0.05714
613.50544,0.06425
612.01565,0.10833
610.52587,0.13222
609.03608,0.18562
607.54629,0.18604
606.05650,0.18649
604.56671,0.26480
603.07692,0.33154
601.58714,0.35028
600.09735,0.36904
598.60756,0.36564
597.11777,0.42088
595.62798,0.41222
594.13819,0.39100
592.64840,0.36981
591.15862,0.33737
589.66883,0.29569
588.17904,0.25071
586.68925,0.23193
585.19946,0.21317
583.70967,0.15734
582.21989,0.11677
580.73010,0.09096
579.24031,0.06518
577.75052,0.06774
576.26073,0.07000
574.77094,0.05075
573.28115,0.04808
571.79137,0.04544
570.30158,0.03222
568.81179,0.05116
567.32200,0.06648
565.83221,0.08182
564.34242,0.08393
562.85264,0.08210
561.36285,0.09387
559.87306,0.09788
558.38327,0.10191
556.89348,0.11972
555.40369,0.12695
553.91391,0.14000
552.42412,0.15307
550.93433,0.16402
549.44454,0.11768
547.95475,0.17604
546.46496,0.17099
544.97517,0.16597
543.48539,0.19857
541.99560,0.20767
540.50581,0.21945
539.01602,0.23125
537.52623,0.31528
536.03644,0.36621
534.54666,0.35954
533.05687,0.38816
531.56708,0.41681
530.07729,0.48407
528.58750,0.49836
527.09771,0.53768
525.60792,0.57702
524.11814,0.65796
522.62835,0.72336
521.13856,0.77685
519.64877,0.76511
518.15898,0.75340
516.66919,0.83016
515.17941,0.80491
513.68962,0.80636
512.19983,0.80783
510.71004,0.74026
509.22025,0.73134
507.73046,0.69429
506.24068,0.62431
504.75089,0.55436
503.26110,0.47200
501.77131,0.36781
500.28152,0.32691
498.79173,0.28603
497.30194,0.20974
495.81216,0.15467
494.32237,0.13556
492.83258,0.11647
491.34279,0.09128
489.85300,0.08997
488.36321,0.06549
486.87343,0.06704
485.38364,0.06861
483.89385,0.08958
482.40406,0.07812
480.91427,0.08192
479.42448,0.08574
477.93469,0.13761
476.44491,0.11101
474.95512,0.13196
473.46533,0.15293
471.97554,0.14628
470.48575,0.15687
468.99596,0.16715
467.50618,0.15079
466.01639,0.13446
464.52660,0.07393
463.03681,0.07140
461.54702,0.06093
460.05723,0.05049
458.56745,0.03445
457.07766,0.03002
455.58787,0.02925
454.09808,0.02852
452.60829,0.02549
451.11850,0.01883
449.62871,0.01370
448.13893,0.00858
446.64914,0.02188
445.15935,0.01732
443.66956,0.02702
442.17977,0.01985
440.68998,0.01271
439.20020,0.01553
437.71041,0.03758
436.22062,0.02438
434.73083,0.01121
433.24104,0.01214
431.75125,0.05118
430.26146,0.04619
428.77168,0.04123
427.28189,0.05054
425.79210,0.06086
424.30231,0.06011
422.81252,0.05938
421.32273,0.06315
419.83295,0.05072
418.34316,0.03996
416.85337,0.02923
415.36358,0.00858
413.87379,0.02069
412.38400,0.03299
410.89422,0.04532
409.40443,0.02603
407.91464,0.03327
406.42485,0.02132
404.93506,0.03407
403.44527,0.04684
401.95548,0.02967
400.46570,0.04795
398.97591,0.04490
397.48612,0.04188
395.99633,0.00757
394.50654,0.02264
393.01675,0.02300
391.52697,0.02338
390.03718,0.02726
388.54739,0.01560
387.05760,0.01208
385.56781,0.00858
384.07802,0.01685
382.58824,0.03242
381.09845,0.03411
379.60866,0.03582
378.11887,0.01967
376.62908,0.03170
375.13929,0.02967
373.64950,0.02767
372.15972,0.01725
370.66993,0.03898
369.18014,0.02446
367.69035,0.00997
366.20056,0.01486
364.71077,0.04031
363.22099,0.02355
361.73120,0.00681
360.24141,0.03382
358.75162,0.07013
357.26183,0.06772
355.77204,0.06532
354.28225,0.05301
352.79247,0.06723
351.30268,0.07137
349.81289,0.07553
348.32310,0.05272
346.83331,0.04086
345.34352,0.04211
343.85374,0.04339
342.36395,0.06738
340.87416,0.02316
339.38437,0.03262
337.89458,0.04211
336.40479,0.02148
334.91501,0.03533
333.42522,0.03859
331.93543,0.04188
330.44564,0.02864
328.95585,0.05086
327.46606,0.02971
325.97627,0.00858
324.48649,0.05679
322.99670,0.05004
321.50691,0.03537
320.01712,0.02072
318.52733,0.06041
317.03754,0.06436
315.54776,0.05822
314.05797,0.05212
312.56818,0.05680
311.07839,0.08899
309.58860,0.09322
308.09881,0.09748
306.60902,0.07112
305.11924,0.06334
303.62945,0.05243
302.13966,0.04154
300.64987,0.01131
299.16008,0.00858
