1778.52000,0.01990
1777.03021,0.01318
1775.54042,0.01969
1774.05063,0.02525
1772.56085,0.02316
1771.07106,0.02230
1769.58127,0.02410
1768.09148,0.02160
1766.60169,0.01409
1765.11190,0.01620
1763.62212,0.02049
1762.13233,0.01617
1760.64254,0.00587
1759.15275,0.01624
1757.66296,0.01415
1756.17317,0.01881
1754.68339,0.01437
1753.19360,0.01331
1751.70381,0.01780
1750.21402,0.01055
1748.72423,0.01485
1747.23444,0.01389
1745.74465,0.01751
1744.25487,0.01564
1742.76508,0.01403
1741.27529,0.02805
1739.78550,0.01425
1738.29571,0.02016
1736.80592,0.01816
1735.31614,0.00587
1733.82635,0.01512
1732.33656,0.02344
1730.84677,0.02265
1729.35698,0.01037
1727.86719,0.00099
1726.37740,0.01180
1724.88762,0.02192
1723.39783,0.01141
1721.90804,0.01389
1720.41825,0.01928
1718.92846,0.01388
1717.43867,0.00587
1715.94889,0.02057
1714.45910,0.01464
1712.96931,0.01401
1711.47952,0.01533
1709.98973,0.01860
1708.49994,0.00652
1707.01016,0.01020
1705.52037,0.01389
1704.03058,0.00933
1702.54079,0.01272
1701.05100,0.01445
1699.56121,0.01164
1698.07142,0.01678
1696.58164,0.01786
1695.09185,0.02569
1693.60206,0.01457
1692.11227,0.01236
1690.62248,0.01474
1689.13269,0.02123
1687.64291,0.02437
1686.15312,0.02634
1684.66333,0.03242
1683.17354,0.03444
1681.68375,0.02760
1680.19396,0.02966
1678.70417,0.03464
1677.21439,0.03699
1675.72460,0.04369
1674.23481,0.04777
1672.74502,0.04372
1671.25523,0.05577
1669.76544,0.06473
1668.27566,0.05547
1666.78587,0.06711
1665.29608,0.07134
1663.80629,0.06623
1662.31650,0.08155
1660.82671,0.08153
1659.33693,0.07721
1657.84714,0.07051
1656.35735,0.06888
1654.86756,0.07856
1653.37777,0.09571
1651.88798,0.09223
1650.39819,0.08445
1648.90841,0.08294
1647.41862,0.08050
1645.92883,0.08348
1644.43904,0.08648
1642.94925,0.09491
1641.45946,0.08680
1639.96968,0.08976
1638.47989,0.08746
1636.99010,0.08878
1635.50031,0.08148
1634.01052,0.08118
1632.52073,0.08401
1631.03094,0.08543
1629.54116,0.09888
1628.05137,0.09627
1626.56158,0.09680
1625.07179,0.10744
1623.58200,0.11835
1622.09221,0.12231
1620.60243,0.09509
1619.11264,0.09526
1617.62285,0.10698
1616.13306,0.08175
1614.64327,0.09616
1613.15348,0.09043
1611.66370,0.08352
1610.17391,0.09488
1608.68412,0.10626
1607.19433,0.10327
1605.70454,0.10294
1604.21475,0.10059
1602.72496,0.09826
1601.23518,0.10233
1599.74539,0.09273
1598.25560,0.07739
1596.76581,0.09305
1595.27602,0.09265
1593.78623,0.07474
1592.29645,0.09407
1590.80666,0.08870
1589.31687,0.08887
1587.82708,0.07395
1586.33729,0.08185
1584.84750,0.07705
1583.35771,0.08597
1581.86793,0.08434
1580.37814,0.09282
1578.88835,0.08860
1577.39856,0.06760
1575.90877,0.06199
1574.41898,0.05472
1572.92920,0.05275
1571.43941,0.04817
1569.94962,0.04758
1568.45983,0.04701
1566.97004,0.03962
1565.48025,0.04546
1563.99047,0.02948
1562.50068,0.03321
1561.01089,0.05545
1559.52110,0.03929
1558.03131,0.04021
1556.54152,0.03948
1555.05173,0.03300
1553.56195,0.03735
1552.07216,0.02684
1550.58237,0.02068
1549.09258,0.01838
1547.60279,0.01947
1546.11300,0.02034
1544.62322,0.00587
1543.13343,0.01699
1541.64364,0.00797
1540.15385,0.01026
1538.66406,0.01257
1537.17427,0.02331
1535.68448,0.02351
1534.19470,0.02685
1532.70491,0.02494
1531.21512,0.01465
1529.72533,0.02118
1528.23554,0.02222
1526.74575,0.01680
1525.25597,0.03974
1523.76618,0.03821
1522.27639,0.03118
1520.78660,0.03186
1519.29681,0.03017
1517.80702,0.06139
1516.31724,0.06430
1514.82745,0.04371
1513.33766,0.05195
1511.84787,0.06022
1510.35808,0.05338
1508.86829,0.06002
1507.37850,0.05203
1505.88872,0.04647
1504.39893,0.05149
1502.90914,0.06158
1501.41935,0.06810
1499.92956,0.08544
1498.43977,0.07760
1496.94999,0.07626
1495.46020,0.10544
1493.97041,0.12024
1492.48062,0.11034
1490.99083,0.13022
1489.50104,0.13669
1488.01125,0.14955
1486.52147,0.16242
1485.03168,0.18433
1483.54189,0.22307
1482.05210,0.21885
1480.56231,0.25115
1479.07252,0.27460
1477.58274,0.26349
1476.09295,0.27546
1474.60316,0.27328
1473.11337,0.29922
1471.62358,0.29589
1470.13379,0.31468
1468.64401,0.32004
1467.15422,0.34224
1465.66443,0.36145
1464.17464,0.38070
1462.68485,0.41137
1461.19506,0.47784
1459.70527,0.50399
1458.21549,0.53450
1456.72570,0.61713
1455.23591,0.65944
1453.74612,0.69290
1452.25633,0.74751
1450.76654,0.76300
1449.27676,0.77228
1447.78697,0.74533
1446.29718,0.72008
1444.80739,0.69738
1443.31760,0.67470
1441.82781,0.64544
1440.33802,0.60564
1438.84824,0.57115
1437.35845,0.53116
1435.86866,0.53681
1434.37887,0.56506
1432.88908,0.61542
1431.39929,0.66869
1429.90951,0.75823
1428.41972,0.83508
1426.92993,0.87569
1425.44014,0.90600
1423.95035,0.92049
1422.46056,0.93500
1420.97078,0.98460
1419.48099,1.00036
1417.99120,0.96020
1416.50141,1.00867
1415.01162,0.98873
1413.52183,0.94792
1412.03204,0.87977
1410.54226,0.77970
1409.05247,0.70344
1407.56268,0.66225
1406.07289,0.61868
1404.58310,0.59026
1403.09331,0.56187
1401.60353,0.47636
1400.11374,0.41656
1398.62395,0.38392
1397.13416,0.33810
1395.64437,0.27477
1394.15458,0.22948
1392.66479,0.20173
1391.17501,0.17113
1389.68522,0.15064
1388.19543,0.14146
1386.70564,0.12077
1385.21585,0.10011
1383.72606,0.08884
1382.23628,0.07567
1380.74649,0.03708
1379.25670,0.02948
1377.76691,0.03535
1376.27712,0.01388
1374.78733,0.00587
1373.29755,0.02449
1371.80776,0.02560
1370.31797,0.02505
1368.82818,0.02081
1367.33839,0.01660
1365.84860,0.02045
1364.35881,0.02960
1362.86903,0.05271
1361.37924,0.07560
1359.88945,0.08723
1358.39966,0.12073
1356.90987,0.16386
1355.42008,0.18997
1353.93030,0.25596
1352.44051,0.26771
1350.95072,0.27948
1349.46093,0.36283
1347.97114,0.45797
1346.48135,0.53848
1344.99156,0.61134
1343.50178,0.67798
1342.01199,0.72255
1340.52220,0.81300
1339.03241,0.86579
1337.54262,0.89483
1336.05283,0.91296
1334.56305,0.93112
1333.07326,0.97296
1331.58347,1.01890
1330.09368,1.00484
1328.60389,0.95239
1327.11410,0.94150
1325.62432,0.87757
1324.13453,0.85688
1322.64474,0.79276
1321.15495,0.75891
1319.66516,0.75715
1318.17537,0.75541
1316.68558,0.66809
1315.19580,0.60145
1313.70601,0.55140
1312.21622,0.52082
1310.72643,0.49291
1309.23664,0.46766
1307.74685,0.44075
1306.25707,0.40547
1304.76728,0.38810
1303.27749,0.37075
1301.78770,0.31537
1300.29791,0.26697
1298.80812,0.22989
1297.31834,0.20147
1295.82855,0.17716
1294.33876,0.14591
1292.84897,0.13125
1291.35918,0.10293
1289.86939,0.10116
1288.37960,0.09942
1286.88982,0.10239
1285.40003,0.07728
1283.91024,0.08366
1282.42045,0.07925
1280.93066,0.04630
1279.44087,0.05274
1277.95109,0.03977
1276.46130,0.04290
1274.97151,0.03801
1273.48172,0.03315
1271.99193,0.05028
1270.50214,0.02926
1269.01235,0.03012
1267.52257,0.02595
1266.03278,0.02877
1264.54299,0.03762
1263.05320,0.01984
1261.56341,0.02502
1260.07362,0.03021
1258.58384,0.00987
1257.09405,0.00539
1255.60426,0.00886
1254.11447,0.00587
1252.62468,0.01148
1251.13489,0.01424
1249.64511,0.00789
1248.15532,0.01814
1246.66553,0.01556
1245.17574,0.01301
1243.68595,0.00892
1242.19616,0.01710
1240.70637,0.01666
1239.21659,0.01048
1237.72680,0.02378
1236.23701,0.03758
1234.74722,0.04084
1233.25743,0.03212
1231.76764,0.02342
1230.27786,0.03563
1228.78807,0.03443
1227.29828,0.00587
1225.80849,0.02082
1224.31870,0.01659
1222.82891,0.02895
1221.33912,0.03389
1219.84934,0.03729
1218.35955,0.04072
1216.86976,0.06278
1215.37997,0.07982
1213.89018,0.09377
1212.40039,0.07772
1210.91061,0.10012
1209.42082,0.08628
1207.93103,0.08460
1206.44124,0.08294
1204.95145,0.07854
1203.46166,0.06936
1201.97188,0.07005
1200.48209,0.06837
1198.99230,0.05662
1197.50251,0.05138
1196.01272,0.03488
1194.52293,0.03413
1193.03314,0.03341
1191.54336,0.02226
1190.05357,0.01906
1188.56378,0.02261
1187.07399,0.01730
1185.58420,0.02690
1184.09441,0.02308
1182.60463,0.02144
1181.11484,0.01983
1179.62505,0.01608
1178.13526,0.01716
1176.64547,0.01249
1175.15568,0.00545
1173.66589,0.01116
1172.17611,0.01666
1170.68632,0.01125
1169.19653,0.00587
1167.70674,0.02657
1166.21695,0.03745
1164.72716,0.05508
1163.23738,0.04752
1161.74759,0.06615
1160.25780,0.07569
1158.76801,0.07901
1157.27822,0.08235
1155.78843,0.07947
1154.29865,0.09270
1152.80886,0.11701
1151.31907,0.11924
1149.82928,0.11886
1148.33949,0.12259
1146.84970,0.13186
1145.35991,0.14116
1143.87013,0.16536
1142.38034,0.16558
1140.89055,0.17807
1139.40076,0.18386
1137.91097,0.19088
1136.42118,0.22121
1134.93140,0.22743
1133.44161,0.23368
1131.95182,0.25496
1130.46203,0.27410
1128.97224,0.28942
1127.48245,0.26059
1125.99266,0.26660
1124.50288,0.25918
1123.01309,0.25539
1121.52330,0.25163
1120.03351,0.24381
1118.54372,0.25162
1117.05393,0.25345
1115.56415,0.27835
1114.07436,0.27086
1112.58457,0.26004
1111.09478,0.24924
1109.60499,0.25287
1108.11520,0.25461
1106.62542,0.25541
1105.13563,0.26007
1103.64584,0.26260
1102.15605,0.23778
1100.66626,0.23747
1099.17647,0.23719
1097.68668,0.22516
1096.19690,0.23574
1094.70711,0.23240
1093.21732,0.22357
1091.72753,0.22149
1090.23774,0.22532
1088.74795,0.22916
1087.25817,0.22499
1085.76838,0.23357
1084.27859,0.22273
1082.78880,0.22079
1081.29901,0.22584
1079.80922,0.24724
1078.31943,0.24525
1076.82965,0.24329
1075.33986,0.26860
1073.85007,0.27857
1072.36028,0.29169
1070.87049,0.29115
1069.38070,0.32016
1067.89092,0.33611
1066.40113,0.35208
1064.91134,0.40229
1063.42155,0.52600
1061.93176,0.62741
1060.44197,0.71683
1058.95219,0.87206
1057.46240,0.91795
1055.97261,0.96387
1054.48282,1.01113
1052.99303,1.07042
1051.50324,1.12469
1050.01345,1.14225
1048.52367,1.07964
1047.03388,1.05271
1045.54409,1.02580
1044.05430,0.97671
1042.56451,0.91851
1041.07472,0.82793
1039.58494,0.74986
1038.09515,0.66869
1036.60536,0.62908
1035.11557,0.58950
1033.62578,0.51992
1032.13599,0.44533
1030.64620,0.39574
1029.15642,0.35097
1027.66663,0.32627
1026.17684,0.30160
1024.68705,0.26458
1023.19726,0.23071
1021.70747,0.20263
1020.21769,0.18562
1018.72790,0.16887
1017.23811,0.15970
1015.74832,0.15057
1014.25853,0.12020
1012.76874,0.10403
1011.27896,0.10565
1009.78917,0.11305
1008.29938,0.08255
1006.80959,0.06419
1005.31980,0.04585
1003.83001,0.05480
1002.34022,0.04287
1000.85044,0.04106
999.36065,0.05175
997.87086,0.05779
996.38107,0.06385
994.89128,0.08710
993.40149,0.11206
991.91171,0.14184
990.42192,0.14452
988.93213,0.18515
987.44234,0.18272
985.95255,0.18030
984.46276,0.16771
982.97297,0.15346
981.48319,0.13851
979.99340,0.11638
978.50361,0.09788
977.01382,0.07941
975.52403,0.06311
974.03424,0.04180
972.54446,0.02220
971.05467,0.00982
969.56488,0.00587
968.07509,0.01290
966.58530,0.01995
965.09551,0.02354
963.60573,0.01251
962.11594,0.00486
960.62615,0.00497
959.13636,0.00474
957.64657,0.00453
956.15678,0.01114
954.66699,0.01802
953.17721,0.01267
951.68742,0.01143
950.19763,0.01994
948.70784,0.02847
947.21805,0.03739
945.72826,0.06290
944.23848,0.08867
942.74869,0.09934
941.25890,0.12060
939.76911,0.12364
938.27932,0.12670
936.78953,0.16652
935.29974,0.16386
933.80996,0.17467
932.32017,0.18023
930.83038,0.18317
929.34059,0.18613
927.85080,0.20353
926.36101,0.23127
924.87123,0.27992
923.38144,0.32620
921.89165,0.37815
920.40186,0.43012
918.91207,0.49327
917.42228,0.64529
915.93250,0.78845
914.44271,0.97798
912.95292,1.09681
911.46313,1.21568
909.97334,1.43624
908.48355,1.62562
906.99376,1.78285
905.50398,1.95379
904.01419,1.97217
902.52440,1.99058
901.03461,2.00000
899.54482,1.91293
898.05503,1.73392
896.56525,1.60391
895.07546,1.45521
893.58567,1.30652
892.09588,1.10096
890.60609,0.87429
889.11630,0.63108
887.62651,0.48345
886.13673,0.42481
884.64694,0.36618
883.15715,0.28106
881.66736,0.19091
880.17757,0.15097
878.68778,0.12606
877.19800,0.10117
875.70821,0.08267
874.21842,0.06300
872.72863,0.04191
871.23884,0.03476
869.74905,0.02788
868.25927,0.02103
866.76948,0.00676
865.27969,0.01748
863.78990,0.03447
862.30011,0.04452
860.81032,0.05255
859.32053,0.06060
857.83075,0.06713
856.34096,0.10344
854.85117,0.12370
853.36138,0.12477
851.87159,0.13510
850.38180,0.14547
848.89202,0.18286
847.40223,0.20228
845.91244,0.21043
844.42265,0.22197
842.93286,0.23353
841.44307,0.24536
839.95329,0.29442
838.46350,0.30294
836.97371,0.29611
835.48392,0.30287
833.99413,0.30966
832.50434,0.31995
831.01455,0.29208
829.52477,0.24936
828.03498,0.22227
826.54519,0.20732
825.05540,0.19240
823.56561,0.19275
822.07582,0.18689
820.58604,0.18104
819.09625,0.16646
817.60646,0.15190
816.11667,0.16053
814.62688,0.14422
813.13709,0.15603
811.64730,0.16810
810.15752,0.16842
808.66773,0.16877
807.17794,0.17059
805.68815,0.16643
804.19836,0.15701
802.70857,0.16190
801.21879,0.16681
799.72900,0.14354
798.23921,0.15486
796.74942,0.14724
795.25963,0.15213
793.76984,0.15704
792.28006,0.17087
790.79027,0.19504
789.30048,0.21515
787.81069,0.25185
786.32090,0.26709
784.83111,0.28235
783.34132,0.30929
781.85154,0.34801
780.36175,0.38171
778.87196,0.41736
777.38217,0.45303
775.89238,0.45847
774.40259,0.44713
772.91281,0.47663
771.42302,0.46162
769.93323,0.44663
768.44344,0.39337
766.95365,0.32644
765.46386,0.27563
763.97407,0.22244
762.48429,0.19797
760.99450,0.17352
759.50471,0.17587
758.01492,0.15567
756.52513,0.14558
755.03534,0.14511
753.54556,0.14467
752.05577,0.11185
750.56598,0.08985
749.07619,0.08612
747.58640,0.07845
746.09661,0.07081
744.60683,0.06788
743.11704,0.05800
741.62725,0.04071
740.13746,0.03653
738.64767,0.03237
737.15788,0.04660
735.66809,0.00587
734.17831,0.00792
732.68852,0.01456
731.19873,0.02122
729.70894,0.01518
728.21915,0.01805
726.72936,0.00773
725.23958,0.01102
723.74979,0.01650
722.26000,0.02200
720.77021,0.01455
719.28042,0.00786
717.79063,0.01703
716.30084,0.01074
714.81106,0.00447
713.32127,0.02453
711.83148,0.03286
710.34169,0.03184
708.85190,0.02917
707.36211,0.02652
705.87233,0.04238
704.38254,0.04602
702.89275,0.04368
701.40296,0.04173
699.91317,0.03980
698.42338,0.05482
696.93360,0.10156
695.44381,0.10174
693.95402,0.10567
692.46423,0.10963
690.97444,0.13149
689.48465,0.15578
687.99486,0.18010
686.50508,0.18739
685.01529,0.19470
683.52550,0.22053
682.03571,0.24662
680.54592,0.25641
679.05613,0.26862
677.56635,0.28086
676.07656,0.28232
674.58677,0.27059
673.09698,0.23488
671.60719,0.22597
670.11740,0.21708
668.62761,0.19152
667.13783,0.18352
665.64804,0.17002
664.15825,0.15654
662.66846,0.13565
661.17867,0.09148
659.68888,0.06367
658.19910,0.06098
656.70931,0.05831
655.21952,0.04113
653.72973,0.05135
652.23994,0.04935
650.75015,0.05086
649.26037,0.05239
647.77058,0.05671
646.28079,0.04952
644.79100,0.05004
643.30121,0.04987
641.81142,0.04972
640.32163,0.03927
638.83185,0.04589
637.34206,0.02900
635.85227,0.01743
634.36248,0.00587
632.87269,0.02517
631.38290,0.02073
629.89312,0.01438
628.40333,0.01047
626.91354,0.00657
625.42375,0.01639
623.93396,0.03656
622.44417,0.03622
620.95438,0.03590
619.46460,0.03717
617.97481,0.06487
616.48502,0.08420
614.99523,0.09815
613.50544,0.11212
612.01565,0.11975
610.52587,0.16414
609.03608,0.19847
607.54629,0.21686
606.05650,0.23528
604.56671,0.26080
603.07692,0.29354
601.58714,0.33928
600.09735,0.38504
598.60756,0.40898
597.11777,0.44854
595.62798,0.45212
594.13819,0.42823
592.64840,0.40436
591.15862,0.37127
589.66883,0.31516
588.17904,0.27443
586.68925,0.24946
585.19946,0.22451
583.70967,0.17618
582.21989,0.13219
580.73010,0.11260
579.24031,0.09303
577.75052,0.07600
576.26073,0.07029
574.77094,0.07396
573.28115,0.06985
571.79137,0.06577
570.30158,0.06111
568.81179,0.05816
567.32200,0.07035
565.83221,0.08257
564.34242,0.11643
562.85264,0.13902
561.36285,0.16404
559.87306,0.16459
558.38327,0.16516
556.89348,0.17153
555.40369,0.18704
553.91391,0.20401
552.42412,0.22101
550.93433,0.25148
549.44454,0.22939
547.95475,0.22821
546.46496,0.23618
544.97517,0.24418
543.48539,0.25676
541.99560,0.29001
540.50581,0.30372
539.01602,0.31746
537.52623,0.33350
536.03644,0.41655
534.54666,0.44656
533.05687,0.46111
531.56708,0.47569
530.07729,0.50937
528.58750,0.58919
527.09771,0.59123
525.60792,0.59329
524.11814,0.63836
522.62835,0.70170
521.13856,0.80852
519.64877,0.81321
518.15898,0.81791
516.66919,0.85590
515.17941,0.85141
513.68962,0.84394
512.19983,0.83650
510.71004,0.83401
509.22025,0.77631
507.73046,0.75634
506.24068,0.72006
504.75089,0.68380
503.26110,0.52776
501.77131,0.37607
500.28152,0.33340
498.79173,0.29076
497.30194,0.22246
495.81216,0.17938
494.32237,0.16491
492.83258,0.15046
491.34279,0.12930
489.85300,0.11154
488.36321,0.10316
486.87343,0.09889
485.38364,0.09464
483.89385,0.07745
482.40406,0.11671
480.91427,0.11566
479.42448,0.11463
477.93469,0.13908
476.44491,0.16162
474.95512,0.18912
473.46533,0.21664
471.97554,0.23542
470.48575,0.24077
468.99596,0.23103
467.50618,0.21651
466.01639,0.20201
464.52660,0.14840
463.03681,0.11065
461.54702,0.09887
460.05723,0.08711
458.56745,0.04776
457.07766,0.03749
455.58787,0.03252
454.09808,0.02758
452.60829,0.04691
451.11850,0.03337
449.62871,0.03066
448.13893,0.02798
446.64914,0.03468
445.15935,0.00587
443.66956,0.00853
442.17977,0.00689
440.68998,0.00528
439.20020,0.03562
437.71041,0.03165
436.22062,0.03155
434.73083,0.03147
433.24104,0.02758
431.75125,0.02227
430.26146,0.03223
428.77168,0.04221
427.28189,0.07274
425.79210,0.04976
424.30231,0.05501
422.81252,0.06029
421.32273,0.06355
419.83295,0.04066
418.34316,0.03293
416.85337,0.02522
415.36358,0.01009
413.87379,0.03075
412.38400,0.03176
410.89422,0.03279
409.40443,0.05857
407.91464,0.07021
406.42485,0.05666
404.93506,0.04602
403.44527,0.03540
401.95548,0.05146
400.46570,0.03561
398.97591,0.04356
397.48612,0.05152
395.99633,0.04247
394.50654,0.04424
393.01675,0.03211
391.52697,0.02001
390.03718,0.01824
388.54739,0.02562
387.05760,0.01573
385.56781,0.00587
384.07802,0.01760
382.58824,0.03799
381.09845,0.03140
379.60866,0.02483
378.11887,0.03281
376.62908,0.02425
375.13929,0.01211
373.64950,0.00000
372.15972,0.00620
370.66993,0.03618
369.18014,0.03732
367.69035,0.03847
366.20056,0.02993
364.71077,0.05742
363.22099,0.05433
361.73120,0.05126
360.24141,0.05337
358.75162,0.09225
357.26183,0.08949
355.77204,0.08676
354.28225,0.08273
352.79247,0.07608
351.30268,0.08974
349.81289,0.10343
348.32310,0.09182
346.83331,0.07374
345.34352,0.08186
343.85374,0.09000
342.36395,0.11498
340.87416,0.09412
339.38437,0.07280
337.89458,0.05151
336.40479,0.01343
334.91501,0.00587
333.42522,0.00748
331.93543,0.00911
330.44564,0.03789
328.95585,0.05878
327.46606,0.05016
325.97627,0.04156
324.48649,0.04303
322.99670,0.06542
321.50691,0.05062
320.01712,0.03584
318.52733,0.04557
317.03754,0.06757
315.54776,0.07856
314.05797,0.08956
312.56818,0.07827
311.07839,0.07972
309.58860,0.06439
308.09881,0.04908
306.60902,0.03187
305.11924,0.00965
303.62945,0.01386
302.13966,0.01418
300.64987,0.00587
299.16008,0.00587
