1778.52000,0.01263
1777.03021,0.00449
1775.54042,0.01235
1774.05063,0.00907
1772.56085,0.01261
1771.07106,0.00850
1769.58127,0.00858
1768.09148,0.00628
1766.60169,0.00772
1765.11190,0.01246
1763.62212,0.01154
1762.13233,0.00955
1760.64254,0.00715
1759.15275,0.01024
1757.66296,0.00657
1756.17317,0.00643
1754.68339,0.00718
1753.19360,0.00206
1751.70381,0.00395
1750.21402,0.01091
1748.72423,0.01460
1747.23444,0.00738
1745.74465,0.00741
1744.25487,0.00767
1742.76508,0.01037
1741.27529,0.00784
1739.78550,0.01321
1738.29571,0.00657
1736.80592,0.01206
1735.31614,0.01013
1733.82635,0.01129
1732.33656,0.00985
1730.84677,0.00952
1729.35698,0.01403
1727.86719,0.01091
1726.37740,0.02116
1724.88762,0.01371
1723.39783,0.01635
1721.90804,0.00523
1720.41825,0.01579
1718.92846,0.00516
1717.43867,0.01395
1715.94889,0.00657
1714.45910,0.01841
1712.96931,0.01233
1711.47952,0.01000
1709.98973,0.01162
1708.49994,0.00474
1707.01016,0.00784
1705.52037,0.01096
1704.03058,0.01290
1702.54079,0.01312
1701.05100,0.01095
1699.56121,0.01493
1698.07142,0.01631
1696.58164,0.01050
1695.09185,0.00821
1693.60206,0.02191
1692.11227,0.01179
1690.62248,0.02642
1689.13269,0.01460
1687.64291,0.01702
1686.15312,0.02210
1684.66333,0.03069
1683.17354,0.03078
1681.68375,0.02171
1680.19396,0.03015
1678.70417,0.03119
1677.21439,0.03881
1675.72460,0.04733
1674.23481,0.04122
1672.74502,0.04607
1671.25523,0.04788
1669.76544,0.04447
1668.27566,0.06142
1666.78587,0.07315
1665.29608,0.08074
1663.80629,0.07108
1662.31650,0.07544
1660.82671,0.07589
1659.33693,0.08883
1657.84714,0.08473
1656.35735,0.08131
1654.86756,0.07792
1653.37777,0.08658
1651.88798,0.08411
1650.39819,0.06810
1648.90841,0.07727
1647.41862,0.08143
1645.92883,0.08135
1644.43904,0.08130
1642.94925,0.09516
1641.45946,0.09045
1639.96968,0.09429
1638.47989,0.10210
1636.99010,0.08718
1635.50031,0.08322
1634.01052,0.08760
1632.52073,0.07625
1631.03094,0.08790
1629.54116,0.09322
1628.05137,0.10579
1626.56158,0.10919
1625.07179,0.09753
1623.58200,0.09464
1622.09221,0.09899
1620.60243,0.09789
1619.11264,0.11126
1617.62285,0.10343
1616.13306,0.10176
1614.64327,0.08960
1613.15348,0.09825
1611.66370,0.08352
1610.17391,0.08631
1608.68412,0.10597
1607.19433,0.10619
1605.70454,0.10205
1604.21475,0.09882
1602.72496,0.09560
1601.23518,0.10554
1599.74539,0.08859
1598.25560,0.08742
1596.76581,0.08999
1595.27602,0.09499
1593.78623,0.08864
1592.29645,0.08669
1590.80666,0.07842
1589.31687,0.06077
1587.82708,0.08207
1586.33729,0.09903
1584.84750,0.09566
1583.35771,0.09670
1581.86793,0.08813
1580.37814,0.08331
1578.88835,0.09186
1577.39856,0.07658
1575.90877,0.07052
1574.41898,0.06623
1572.92920,0.07093
1571.43941,0.05882
1569.94962,0.05405
1568.45983,0.04931
1566.97004,0.05520
1565.48025,0.03706
1563.99047,0.05044
1562.50068,0.03890
1561.01089,0.04270
1559.52110,0.04237
1558.03131,0.03922
1556.54152,0.03565
1555.05173,0.03671
1553.56195,0.03407
1552.07216,0.02904
1550.58237,0.01245
1549.09258,0.01513
1547.60279,0.01717
1546.11300,0.01487
1544.62322,0.01981
1543.13343,0.01362
1541.64364,0.00657
1540.15385,0.01039
1538.66406,0.01422
1537.17427,0.01458
1535.68448,0.01431
1534.19470,0.01210
1532.70491,0.00794
1531.21512,0.01627
1529.72533,0.02659
1528.23554,0.01988
1526.74575,0.03637
1525.25597,0.02577
1523.76618,0.01388
1522.27639,0.02367
1520.78660,0.02954
1519.29681,0.02385
1517.80702,0.04245
1516.31724,0.05431
1514.82745,0.04715
1513.33766,0.04560
1511.84787,0.04407
1510.35808,0.04224
1508.86829,0.04218
1507.37850,0.05702
1505.88872,0.05722
1504.39893,0.04761
1502.90914,0.06405
1501.41935,0.06586
1499.92956,0.07185
1498.43977,0.06321
1496.94999,0.06159
1495.46020,0.08559
1493.97041,0.08949
1492.48062,0.10151
1490.99083,0.10830
1489.50104,0.11117
1488.01125,0.11396
1486.52147,0.11678
1485.03168,0.12935
1483.54189,0.17366
1482.05210,0.16879
1480.56231,0.19740
1479.07252,0.20722
1477.58274,0.21029
1476.09295,0.23001
1474.60316,0.22569
1473.11337,0.22095
1471.62358,0.24096
1470.13379,0.23539
1468.64401,0.23992
1467.15422,0.26875
1465.66443,0.28535
1464.17464,0.30197
1462.68485,0.33284
1461.19506,0.35214
1459.70527,0.38524
1458.21549,0.44987
1456.72570,0.52677
1455.23591,0.59166
1453.74612,0.64629
1452.25633,0.67099
1450.76654,0.67295
1449.27676,0.68326
1447.78697,0.67215
1446.29718,0.64641
1444.80739,0.63010
1443.31760,0.61381
1441.82781,0.56846
1440.33802,0.53056
1438.84824,0.49707
1437.35845,0.49203
1435.86866,0.47564
1434.37887,0.46934
1432.88908,0.50113
1431.39929,0.58718
1429.90951,0.66036
1428.41972,0.75411
1426.92993,0.78446
1425.44014,0.83408
1423.95035,0.84162
1422.46056,0.84918
1420.97078,0.91638
1419.48099,0.88822
1417.99120,0.91303
1416.50141,0.88164
1415.01162,0.83694
1413.52183,0.81610
1412.03204,0.74235
1410.54226,0.68896
1409.05247,0.65638
1407.56268,0.63367
1406.07289,0.57227
1404.58310,0.53473
1403.09331,0.49722
1401.60353,0.44069
1400.11374,0.37064
1398.62395,0.35091
1397.13416,0.28746
1395.64437,0.24285
1394.15458,0.20810
1392.66479,0.17513
1391.17501,0.14787
1389.68522,0.12763
1388.19543,0.09364
1386.70564,0.08526
1385.21585,0.07691
1383.72606,0.04692
1382.23628,0.03446
1380.74649,0.02793
1379.25670,0.01748
1377.76691,0.01406
1376.27712,0.01132
1374.78733,0.01778
1373.29755,0.00503
1371.80776,0.00520
1370.31797,0.01387
1368.82818,0.01021
1367.33839,0.00657
1365.84860,0.01821
1364.35881,0.02528
1362.86903,0.03413
1361.37924,0.06531
1359.88945,0.09563
1358.39966,0.11571
1356.90987,0.14302
1355.42008,0.16489
1353.93030,0.24147
1352.44051,0.27454
1350.95072,0.30764
1349.46093,0.36810
1347.97114,0.43733
1346.48135,0.49456
1344.99156,0.56669
1343.50178,0.64781
1342.01199,0.71320
1340.52220,0.78278
1339.03241,0.80338
1337.54262,0.81941
1336.05283,0.83120
1334.56305,0.84302
1333.07326,0.90352
1331.58347,0.88050
1330.09368,0.85815
1328.60389,0.86251
1327.11410,0.82687
1325.62432,0.79169
1324.13453,0.79132
1322.64474,0.76296
1321.15495,0.71123
1319.66516,0.69343
1318.17537,0.67565
1316.68558,0.62005
1315.19580,0.57541
1313.70601,0.52686
1312.21622,0.47965
1310.72643,0.47511
1309.23664,0.44392
1307.74685,0.40771
1306.25707,0.40084
1304.76728,0.38098
1303.27749,0.36114
1301.78770,0.31366
1300.29791,0.23601
1298.80812,0.20936
1297.31834,0.19322
1295.82855,0.13490
1294.33876,0.12844
1292.84897,0.12288
1291.35918,0.10006
1289.86939,0.09662
1288.37960,0.09321
1286.88982,0.08643
1285.40003,0.08077
1283.91024,0.06682
1282.42045,0.05246
1280.93066,0.04228
1279.44087,0.04787
1277.95109,0.04211
1276.46130,0.05278
1274.97151,0.04291
1273.48172,0.03307
1271.99193,0.03331
1270.50214,0.03073
1269.01235,0.02927
1267.52257,0.01952
1266.03278,0.02008
1264.54299,0.02569
1263.05320,0.02542
1261.56341,0.02517
1260.07362,0.02495
1258.58384,0.01972
1257.09405,0.01276
1255.60426,0.03273
1254.11447,0.02189
1252.62468,0.01128
1251.13489,0.01011
1249.64511,0.01115
1248.15532,0.02271
1246.66553,0.01920
1245.17574,0.01572
1243.68595,0.00657
1242.19616,0.03309
1240.70637,0.03119
1239.21659,0.02144
1237.72680,0.02572
1236.23701,0.02455
1234.74722,0.01750
1233.25743,0.02174
1231.76764,0.02600
1230.27786,0.04111
1228.78807,0.05253
1227.29828,0.01935
1225.80849,0.01266
1224.31870,0.01409
1222.82891,0.00657
1221.33912,0.02285
1219.84934,0.03040
1218.35955,0.03798
1216.86976,0.05104
1215.37997,0.06436
1213.89018,0.06675
1212.40039,0.06414
1210.91061,0.08977
1209.42082,0.07518
1207.93103,0.07221
1206.44124,0.06926
1204.95145,0.06414
1203.46166,0.06605
1201.97188,0.04873
1200.48209,0.05507
1198.99230,0.05311
1197.50251,0.04090
1196.01272,0.03199
1194.52293,0.02693
1193.03314,0.02190
1191.54336,0.01481
1190.05357,0.01540
1188.56378,0.01449
1187.07399,0.02651
1185.58420,0.02433
1184.09441,0.03245
1182.60463,0.02081
1181.11484,0.00918
1179.62505,0.01585
1178.13526,0.00657
1176.64547,0.01862
1175.15568,0.01865
1173.66589,0.01237
1172.17611,0.02821
1170.68632,0.01738
1169.19653,0.00657
1167.70674,0.02622
1166.21695,0.02139
1164.72716,0.04831
1163.23738,0.03084
1161.74759,0.03134
1160.25780,0.05942
1158.76801,0.06040
1157.27822,0.06140
1155.78843,0.08059
1154.29865,0.08032
1152.80886,0.09409
1151.31907,0.10131
1149.82928,0.12059
1148.33949,0.13224
1146.84970,0.13253
1145.35991,0.13286
1143.87013,0.16054
1142.38034,0.17403
1140.89055,0.18733
1139.40076,0.18250
1137.91097,0.20919
1136.42118,0.22628
1134.93140,0.23070
1133.44161,0.23515
1131.95182,0.25603
1130.46203,0.24740
1128.97224,0.24427
1127.48245,0.24312
1125.99266,0.25841
1124.50288,0.28028
1123.01309,0.27440
1121.52330,0.26854
1120.03351,0.26730
1118.54372,0.25887
1117.05393,0.28326
1115.56415,0.27903
1114.07436,0.28139
1112.58457,0.26977
1111.09478,0.25817
1109.60499,0.24266
1108.11520,0.25123
1106.62542,0.25327
1105.13563,0.25708
1103.64584,0.24845
1102.15605,0.24465
1100.66626,0.24448
1099.17647,0.24434
1097.68668,0.22771
1096.19690,0.21438
1094.70711,0.22208
1093.21732,0.21602
1091.72753,0.20036
1090.23774,0.19960
1088.74795,0.19886
1087.25817,0.18808
1085.76838,0.19658
1084.27859,0.20619
1082.78880,0.19855
1081.29901,0.20055
1079.80922,0.22096
1078.31943,0.21842
1076.82965,0.21590
1075.33986,0.21078
1073.85007,0.21160
1072.36028,0.20762
1070.87049,0.24720
1069.38070,0.26492
1067.89092,0.27754
1066.40113,0.29017
1064.91134,0.34647
1063.42155,0.42882
1061.93176,0.52257
1060.44197,0.61109
1058.95219,0.65567
1057.46240,0.71493
1055.97261,0.77421
1054.48282,0.87136
1052.99303,0.91910
1051.50324,0.90474
1050.01345,0.91162
1048.52367,0.89031
1047.03388,0.89101
1045.54409,0.89173
1044.05430,0.83287
1042.56451,0.74363
1041.07472,0.71675
1039.58494,0.67087
1038.09515,0.60707
1036.60536,0.57348
1035.11557,0.53992
1033.62578,0.49697
1032.13599,0.42102
1030.64620,0.35494
1029.15642,0.33350
1027.66663,0.30509
1026.17684,0.27670
1024.68705,0.25403
1023.19726,0.21453
1021.70747,0.17681
1020.21769,0.13911
1018.72790,0.14453
1017.23811,0.14209
1015.74832,0.13968
1014.25853,0.12461
1012.76874,0.10015
1011.27896,0.10700
1009.78917,0.09638
1008.29938,0.08621
1006.80959,0.07891
1005.31980,0.07164
1003.83001,0.02961
1002.34022,0.01976
1000.85044,0.02350
999.36065,0.04344
997.87086,0.04700
996.38107,0.05059
994.89128,0.05880
993.40149,0.06025
991.91171,0.06566
990.42192,0.09318
988.93213,0.12598
987.44234,0.12873
985.95255,0.13150
984.46276,0.11953
982.97297,0.10780
981.48319,0.09785
979.99340,0.06364
978.50361,0.05516
977.01382,0.04670
975.52403,0.04800
974.03424,0.03663
972.54446,0.03076
971.05467,0.01682
969.56488,0.00662
968.07509,0.00775
966.58530,0.00890
965.09551,0.00657
963.60573,0.01622
962.11594,0.00686
960.62615,0.01306
959.13636,0.01841
957.64657,0.02378
956.15678,0.01889
954.66699,0.01928
953.17721,0.02691
951.68742,0.03828
950.19763,0.03217
948.70784,0.02609
947.21805,0.05985
945.72826,0.07525
944.23848,0.08149
942.74869,0.10963
941.25890,0.13802
939.76911,0.14072
938.27932,0.14345
936.78953,0.15987
935.29974,0.17850
933.80996,0.19016
932.32017,0.19463
930.83038,0.19977
929.34059,0.20494
927.85080,0.22807
926.36101,0.26238
924.87123,0.28752
923.38144,0.34200
921.89165,0.36927
920.40186,0.39657
918.91207,0.52155
917.42228,0.63759
915.93250,0.81512
914.44271,0.99792
912.95292,1.11906
911.46313,1.24023
909.97334,1.43951
908.48355,1.66965
906.99376,1.77624
905.50398,1.89116
904.01419,1.92025
902.52440,1.94936
901.03461,1.98692
899.54482,2.00000
898.05503,1.84577
896.56525,1.65308
895.07546,1.50338
893.58567,1.35371
892.09588,1.09831
890.60609,0.85605
889.11630,0.62388
887.62651,0.48535
886.13673,0.41860
884.64694,0.35186
883.15715,0.24359
881.66736,0.17144
880.17757,0.12599
878.68778,0.11611
877.19800,0.10626
875.70821,0.06483
874.21842,0.04616
872.72863,0.03671
871.23884,0.01197
869.74905,0.01284
868.25927,0.01374
866.76948,0.00657
865.27969,0.01046
863.78990,0.00826
862.30011,0.04566
860.81032,0.04098
859.32053,0.03633
857.83075,0.05828
856.34096,0.07631
854.85117,0.08737
853.36138,0.08446
851.87159,0.09327
850.38180,0.10210
848.89202,0.12660
847.40223,0.14718
845.91244,0.13060
844.42265,0.14391
842.93286,0.15723
841.44307,0.19607
839.95329,0.19381
838.46350,0.20206
836.97371,0.19613
835.48392,0.20914
833.99413,0.22217
832.50434,0.20756
831.01455,0.20982
829.52477,0.18038
828.03498,0.15490
826.54519,0.15318
825.05540,0.15148
823.56561,0.12433
822.07582,0.10660
820.58604,0.07228
819.09625,0.07954
817.60646,0.08682
816.11667,0.07750
814.62688,0.08352
813.13709,0.08890
811.64730,0.09672
810.15752,0.10379
808.66773,0.11089
807.17794,0.10915
805.68815,0.11006
804.19836,0.10094
802.70857,0.10255
801.21879,0.10419
799.72900,0.10126
798.23921,0.08545
796.74942,0.09022
795.25963,0.08463
793.76984,0.07906
792.28006,0.12175
790.79027,0.11218
789.30048,0.13873
787.81069,0.14977
786.32090,0.16860
784.83111,0.18745
783.34132,0.21213
781.85154,0.23726
780.36175,0.27817
778.87196,0.29516
777.38217,0.31216
775.89238,0.32274
774.40259,0.33356
772.91281,0.31159
771.42302,0.31371
769.93323,0.31585
768.44344,0.27952
766.95365,0.24955
765.46386,0.20758
763.97407,0.14595
762.48429,0.13880
760.99450,0.13168
759.50471,0.11912
758.01492,0.08295
756.52513,0.08137
755.03534,0.07818
753.54556,0.07500
752.05577,0.06650
750.56598,0.05692
749.07619,0.03161
747.58640,0.03007
746.09661,0.02855
744.60683,0.02169
743.11704,0.02776
741.62725,0.01505
740.13746,0.01132
738.64767,0.00762
737.15788,0.00657
735.66809,0.00825
734.17831,0.02308
732.68852,0.01682
731.19873,0.01059
729.70894,0.00930
728.21915,0.01205
726.72936,0.03078
725.23958,0.02635
723.74979,0.02064
722.26000,0.01494
720.77021,0.00709
719.28042,0.01816
717.79063,0.02400
716.30084,0.01685
714.81106,0.00972
713.32127,0.00536
711.83148,0.03216
710.34169,0.02989
708.85190,0.03792
707.36211,0.04598
705.87233,0.03219
704.38254,0.05473
702.89275,0.05148
701.40296,0.04826
699.91317,0.04507
698.42338,0.05064
696.93360,0.08009
695.44381,0.10080
693.95402,0.10962
692.46423,0.11847
690.97444,0.12504
689.48465,0.17188
687.99486,0.19119
686.50508,0.19247
685.01529,0.19378
683.52550,0.23875
682.03571,0.27346
680.54592,0.25505
679.05613,0.25055
677.56635,0.24607
676.07656,0.27519
674.58677,0.26387
673.09698,0.23289
671.60719,0.21658
670.11740,0.20030
668.62761,0.17880
667.13783,0.16169
665.64804,0.15150
664.15825,0.14133
662.66846,0.10395
661.17867,0.07360
659.68888,0.06099
658.19910,0.05212
656.70931,0.04327
655.21952,0.02810
653.72973,0.03177
652.23994,0.03437
650.75015,0.03798
649.26037,0.04161
647.77058,0.03510
646.28079,0.01745
644.79100,0.01164
643.30121,0.01635
641.81142,0.02109
640.32163,0.02497
638.83185,0.01948
637.34206,0.01903
635.85227,0.01359
634.36248,0.00816
632.87269,0.00965
631.38290,0.02319
629.89312,0.00657
628.40333,0.00792
626.91354,0.00929
625.42375,0.01156
623.93396,0.02085
622.44417,0.02700
620.95438,0.03317
619.46460,0.05194
617.97481,0.03618
616.48502,0.06331
614.99523,0.07570
613.50544,0.08811
612.01565,0.11334
610.52587,0.14013
609.03608,0.19473
607.54629,0.21303
606.05650,0.23136
604.56671,0.28340
603.07692,0.33437
601.58714,0.35266
600.09735,0.37098
598.60756,0.42136
597.11777,0.44968
595.62798,0.45112
594.13819,0.45455
592.64840,0.45800
591.15862,0.39017
589.66883,0.32455
588.17904,0.27382
586.68925,0.24161
585.19946,0.20942
583.70967,0.16599
582.21989,0.13330
580.73010,0.10118
579.24031,0.06908
577.75052,0.06052
576.26073,0.05899
574.77094,0.05004
573.28115,0.05042
571.79137,0.05081
570.30158,0.04391
568.81179,0.07924
567.32200,0.08157
565.83221,0.08392
564.34242,0.09111
562.85264,0.12588
561.36285,0.13399
559.87306,0.13819
558.38327,0.14241
556.89348,0.16000
555.40369,0.18024
553.91391,0.16867
552.42412,0.15713
550.93433,0.15644
549.44454,0.16278
547.95475,0.17198
546.46496,0.17836
544.97517,0.18476
543.48539,0.22575
541.99560,0.26677
540.50581,0.27182
539.01602,0.27690
537.52623,0.32083
536.03644,0.38359
534.54666,0.39782
533.05687,0.42443
531.56708,0.45107
530.07729,0.53515
528.58750,0.57485
527.09771,0.60024
525.60792,0.62566
524.11814,0.71158
522.62835,0.77653
521.13856,0.85244
519.64877,0.85794
518.15898,0.86346
516.66919,0.89263
515.17941,0.90017
513.68962,0.89330
512.19983,0.88645
510.71004,0.82779
509.22025,0.79649
507.73046,0.76128
506.24068,0.67982
504.75089,0.59840
503.26110,0.50617
501.77131,0.41177
500.28152,0.35601
498.79173,0.30027
497.30194,0.24685
495.81216,0.18143
494.32237,0.15266
492.83258,0.12392
491.34279,0.09247
489.85300,0.10480
488.36321,0.08849
486.87343,0.07734
485.38364,0.06622
483.89385,0.08804
482.40406,0.11339
480.91427,0.10945
479.42448,0.10553
477.93469,0.13008
476.44491,0.15268
474.95512,0.16721
473.46533,0.18176
471.97554,0.18781
470.48575,0.17025
468.99596,0.17154
467.50618,0.17306
466.01639,0.17461
464.52660,0.11822
463.03681,0.10232
461.54702,0.08556
460.05723,0.06883
458.56745,0.04032
457.07766,0.00657
455.58787,0.02696
454.09808,0.04738
452.60829,0.03249
451.11850,0.01588
449.62871,0.01777
448.13893,0.01969
446.64914,0.02371
445.15935,0.01813
443.66956,0.00798
442.17977,0.00398
440.68998,0.00000
439.20020,0.03017
437.71041,0.03280
436.22062,0.03305
434.73083,0.03333
433.24104,0.02641
431.75125,0.01688
430.26146,0.01701
428.77168,0.01716
427.28189,0.01646
425.79210,0.04269
424.30231,0.03559
422.81252,0.02850
421.32273,0.03052
419.83295,0.01704
418.34316,0.01287
416.85337,0.00873
415.36358,0.01938
413.87379,0.01255
412.38400,0.01909
410.89422,0.02565
409.40443,0.01365
407.91464,0.02769
406.42485,0.02492
404.93506,0.01878
403.44527,0.01267
401.95548,0.01435
400.46570,0.03486
398.97591,0.03833
397.48612,0.04183
395.99633,0.03660
394.50654,0.01083
393.01675,0.01648
391.52697,0.02215
390.03718,0.02052
388.54739,0.02153
387.05760,0.01404
385.56781,0.00657
384.07802,0.02302
382.58824,0.03555
381.09845,0.03356
379.60866,0.03160
378.11887,0.03501
376.62908,0.01877
375.13929,0.02015
373.64950,0.02157
372.15972,0.01655
370.66993,0.03343
369.18014,0.02321
367.69035,0.01301
366.20056,0.01250
364.71077,0.02207
363.22099,0.01515
361.73120,0.00825
360.24141,0.03124
358.75162,0.05709
357.26183,0.06842
355.77204,0.07978
354.28225,0.06961
352.79247,0.07347
351.30268,0.06783
349.81289,0.06222
348.32310,0.05434
346.83331,0.06267
345.34352,0.06030
343.85374,0.05796
342.36395,0.06461
340.87416,0.03847
339.38437,0.03478
337.89458,0.03111
336.40479,0.00657
334.91501,0.01598
333.42522,0.01743
331.93543,0.01890
330.44564,0.03516
328.95585,0.02694
327.46606,0.02750
325.97627,0.02808
324.48649,0.05231
322.99670,0.05732
321.50691,0.04135
320.01712,0.02540
318.52733,0.05826
317.03754,0.04870
315.54776,0.04825
314.05797,0.04782
312.56818,0.05759
311.07839,0.04069
309.58860,0.03935
308.09881,0.03803
306.60902,0.03586
305.11924,0.05166
303.62945,0.03663
302.13966,0.02163
300.64987,0.00657
299.16008,0.00657
