1778.52000,0.01192
1777.03021,0.01315
1775.54042,0.01482
1774.05063,0.00922
1772.56085,0.00810
1771.07106,0.00720
1769.58127,0.01200
1768.09148,0.00791
1766.60169,0.00871
1765.11190,0.00973
1763.62212,0.01381
1762.13233,0.01812
1760.64254,0.00423
1759.15275,0.01183
1757.66296,0.01014
1756.17317,0.00199
1754.68339,0.01553
1753.19360,0.00945
1751.70381,0.00725
1750.21402,0.00405
1748.72423,0.00655
1747.23444,0.00746
1745.74465,0.01021
1744.25487,0.00650
1742.76508,0.00423
1741.27529,0.01330
1739.78550,0.01166
1738.29571,0.00680
1736.80592,0.00804
1735.31614,0.01113
1733.82635,0.00857
1732.33656,0.01049
1730.84677,0.01244
1729.35698,0.01076
1727.86719,0.00728
1726.37740,0.01072
1724.88762,0.00000
1723.39783,0.00328
1721.90804,0.00698
1720.41825,0.00525
1718.92846,0.01002
1717.43867,0.01339
1715.94889,0.00261
1714.45910,0.01576
1712.96931,0.00423
1711.47952,0.00676
1709.98973,0.00951
1708.49994,0.00662
1707.01016,0.00678
1705.52037,0.00697
1704.03058,0.00415
1702.54079,0.00500
1701.05100,0.00850
1699.56121,0.00575
1698.07142,0.00423
1696.58164,0.00682
1695.09185,0.01428
1693.60206,0.00982
1692.11227,0.00964
1690.62248,0.00847
1689.13269,0.01886
1687.64291,0.02159
1686.15312,0.02191
1684.66333,0.01577
1683.17354,0.02302
1681.68375,0.01551
1680.19396,0.02038
1678.70417,0.02041
1677.21439,0.02776
1675.72460,0.03655
1674.23481,0.03402
1672.74502,0.03414
1671.25523,0.04321
1669.76544,0.03832
1668.27566,0.04884
1666.78587,0.06101
1665.29608,0.05519
1663.80629,0.04938
1662.31650,0.06770
1660.82671,0.07004
1659.33693,0.07767
1657.84714,0.06609
1656.35735,0.08956
1654.86756,0.07560
1653.37777,0.08394
1651.88798,0.07225
1650.39819,0.07233
1648.90841,0.07365
1647.41862,0.07297
1645.92883,0.07909
1644.43904,0.08524
1642.94925,0.08827
1641.45946,0.08343
1639.96968,0.09097
1638.47989,0.09651
1636.99010,0.10206
1635.50031,0.08213
1634.01052,0.07640
1632.52073,0.08305
1631.03094,0.07797
1629.54116,0.08061
1628.05137,0.07801
1626.56158,0.08232
1625.07179,0.08766
1623.58200,0.09141
1622.09221,0.09093
1620.60243,0.09068
1619.11264,0.09106
1617.62285,0.09085
1616.13306,0.08520
1614.64327,0.08747
1613.15348,0.08106
1611.66370,0.07893
1610.17391,0.09706
1608.68412,0.09984
1607.19433,0.09858
1605.70454,0.10079
1604.21475,0.10151
1602.72496,0.10225
1601.23518,0.09097
1599.74539,0.08619
1598.25560,0.08974
1596.76581,0.09007
1595.27602,0.08232
1593.78623,0.08088
1592.29645,0.08938
1590.80666,0.07502
1589.31687,0.07223
1587.82708,0.07534
1586.33729,0.08272
1584.84750,0.07757
1583.35771,0.07285
1581.86793,0.07909
1580.37814,0.07584
1578.88835,0.07787
1577.39856,0.06454
1575.90877,0.06379
1574.41898,0.05921
1572.92920,0.06174
1571.43941,0.05762
1569.94962,0.04876
1568.45983,0.03992
1566.97004,0.03749
1565.48025,0.03569
1563.99047,0.04404
1562.50068,0.03155
1561.01089,0.02435
1559.52110,0.01941
1558.03131,0.03089
1556.54152,0.03065
1555.05173,0.03387
1553.56195,0.02781
1552.07216,0.01609
1550.58237,0.00765
1549.09258,0.00793
1547.60279,0.01269
1546.11300,0.00310
1544.62322,0.01419
1543.13343,0.01153
1541.64364,0.00423
1540.15385,0.01329
1538.66406,0.02237
1537.17427,0.00880
1535.68448,0.01085
1534.19470,0.01777
1532.70491,0.01743
1531.21512,0.02238
1529.72533,0.01440
1528.23554,0.01453
1526.74575,0.02077
1525.25597,0.01528
1523.76618,0.01063
1522.27639,0.02119
1520.78660,0.03218
1519.29681,0.03064
1517.80702,0.04431
1516.31724,0.04828
1514.82745,0.04094
1513.33766,0.04617
1511.84787,0.05143
1510.35808,0.05671
1508.86829,0.04258
1507.37850,0.04163
1505.88872,0.04739
1504.39893,0.05156
1502.90914,0.04764
1501.41935,0.06461
1499.92956,0.05892
1498.43977,0.07067
1496.94999,0.07617
1495.46020,0.09830
1493.97041,0.09797
1492.48062,0.10577
1490.99083,0.10933
1489.50104,0.10402
1488.01125,0.10885
1486.52147,0.11370
1485.03168,0.16171
1483.54189,0.17916
1482.05210,0.19887
1480.56231,0.20119
1479.07252,0.22013
1477.58274,0.24072
1476.09295,0.22752
1474.60316,0.23357
1473.11337,0.23500
1471.62358,0.25305
1470.13379,0.26363
1468.64401,0.26756
1467.15422,0.29540
1465.66443,0.30423
1464.17464,0.31309
1462.68485,0.34687
1461.19506,0.37501
1459.70527,0.42342
1458.21549,0.46983
1456.72570,0.54320
1455.23591,0.59290
1453.74612,0.66246
1452.25633,0.67718
1450.76654,0.69840
1449.27676,0.71337
1447.78697,0.69150
1446.29718,0.67027
1444.80739,0.64907
1443.31760,0.62788
1441.82781,0.58182
1440.33802,0.53740
1438.84824,0.48774
1437.35845,0.49459
1435.86866,0.50086
1434.37887,0.52417
1432.88908,0.58354
1431.39929,0.64637
1429.90951,0.73616
1428.41972,0.78265
1426.92993,0.83847
1425.44014,0.84187
1423.95035,0.87789
1422.46056,0.91394
1420.97078,0.91417
1419.48099,0.93488
1417.99120,0.93030
1416.50141,0.92676
1415.01162,0.87282
1413.52183,0.83430
1412.03204,0.74599
1410.54226,0.71136
1409.05247,0.65913
1407.56268,0.62050
1406.07289,0.56245
1404.58310,0.52519
1403.09331,0.48794
1401.60353,0.42916
1400.11374,0.39004
1398.62395,0.33737
1397.13416,0.29304
1395.64437,0.23151
1394.15458,0.19654
1392.66479,0.15814
1391.17501,0.14144
1389.68522,0.11969
1388.19543,0.09352
1386.70564,0.08894
1385.21585,0.08438
1383.72606,0.06293
1382.23628,0.04961
1380.74649,0.03024
1379.25670,0.02182
1377.76691,0.02315
1376.27712,0.00507
1374.78733,0.00502
1373.29755,0.00946
1371.80776,0.01068
1370.31797,0.00423
1368.82818,0.00905
1367.33839,0.01388
1365.84860,0.03656
1364.35881,0.05137
1362.86903,0.04716
1361.37924,0.07841
1359.88945,0.09653
1358.39966,0.11062
1356.90987,0.15086
1355.42008,0.17775
1353.93030,0.23686
1352.44051,0.26735
1350.95072,0.29786
1349.46093,0.38823
1347.97114,0.46222
1346.48135,0.53340
1344.99156,0.61371
1343.50178,0.69709
1342.01199,0.77563
1340.52220,0.82038
1339.03241,0.83295
1337.54262,0.84130
1336.05283,0.85200
1334.56305,0.86273
1333.07326,0.91124
1331.58347,0.89782
1330.09368,0.89880
1328.60389,0.88623
1327.11410,0.82935
1325.62432,0.77410
1324.13453,0.75067
1322.64474,0.73638
1321.15495,0.72555
1319.66516,0.69916
1318.17537,0.67279
1316.68558,0.61587
1315.19580,0.55067
1313.70601,0.53490
1312.21622,0.51146
1310.72643,0.47812
1309.23664,0.42456
1307.74685,0.38701
1306.25707,0.36812
1304.76728,0.34906
1303.27749,0.33001
1301.78770,0.28669
1300.29791,0.23347
1298.80812,0.20539
1297.31834,0.18745
1295.82855,0.17116
1294.33876,0.15671
1292.84897,0.11839
1291.35918,0.09448
1289.86939,0.09903
1288.37960,0.10361
1286.88982,0.08827
1285.40003,0.08449
1283.91024,0.07487
1282.42045,0.06588
1280.93066,0.05873
1279.44087,0.04959
1277.95109,0.05545
1276.46130,0.04959
1274.97151,0.04709
1273.48172,0.04462
1271.99193,0.04491
1270.50214,0.03550
1269.01235,0.03603
1267.52257,0.03761
1266.03278,0.04244
1264.54299,0.03556
1263.05320,0.03153
1261.56341,0.02702
1260.07362,0.02254
1258.58384,0.02243
1257.09405,0.01627
1255.60426,0.01682
1254.11447,0.03076
1252.62468,0.02245
1251.13489,0.00423
1249.64511,0.01292
1248.15532,0.01130
1246.66553,0.01507
1245.17574,0.01887
1243.68595,0.02015
1242.19616,0.02572
1240.70637,0.01713
1239.21659,0.02416
1237.72680,0.01866
1236.23701,0.02999
1234.74722,0.03405
1233.25743,0.02872
1231.76764,0.02342
1230.27786,0.02431
1228.78807,0.02219
1227.29828,0.01240
1225.80849,0.02208
1224.31870,0.00423
1222.82891,0.00519
1221.33912,0.01792
1219.84934,0.02267
1218.35955,0.02744
1216.86976,0.04490
1215.37997,0.05549
1213.89018,0.06732
1212.40039,0.06885
1210.91061,0.06109
1209.42082,0.06914
1207.93103,0.06224
1206.44124,0.05536
1204.95145,0.07138
1203.46166,0.06415
1201.97188,0.05147
1200.48209,0.04853
1198.99230,0.03974
1197.50251,0.03908
1196.01272,0.04006
1194.52293,0.03904
1193.03314,0.03805
1191.54336,0.04031
1190.05357,0.03187
1188.56378,0.02730
1187.07399,0.01972
1185.58420,0.02755
1184.09441,0.01090
1182.60463,0.00815
1181.11484,0.00542
1179.62505,0.00423
1178.13526,0.00597
1176.64547,0.02109
1175.15568,0.01559
1173.66589,0.00423
1172.17611,0.00853
1170.68632,0.01062
1169.19653,0.01273
1167.70674,0.01507
1166.21695,0.02230
1164.72716,0.03360
1163.23738,0.02426
1161.74759,0.04391
1160.25780,0.05386
1158.76801,0.05483
1157.27822,0.05582
1155.78843,0.05835
1154.29865,0.05442
1152.80886,0.07968
1151.31907,0.09727
1149.82928,0.10253
1148.33949,0.11652
1146.84970,0.12112
1145.35991,0.12574
1143.87013,0.13190
1142.38034,0.14518
1140.89055,0.15038
1139.40076,0.16188
1137.91097,0.17077
1136.42118,0.17746
1134.93140,0.19288
1133.44161,0.20832
1131.95182,0.23350
1130.46203,0.23583
1128.97224,0.23231
1127.48245,0.23975
1125.99266,0.22352
1124.50288,0.21967
1123.01309,0.21372
1121.52330,0.20779
1120.03351,0.22020
1118.54372,0.21908
1117.05393,0.23499
1115.56415,0.24565
1114.07436,0.22961
1112.58457,0.22757
1111.09478,0.22555
1109.60499,0.22761
1108.11520,0.24730
1106.62542,0.23665
1105.13563,0.25194
1103.64584,0.22331
1102.15605,0.21901
1100.66626,0.21472
1099.17647,0.21047
1097.68668,0.20178
1096.19690,0.19737
1094.70711,0.21221
1093.21732,0.22344
1091.72753,0.21019
1090.23774,0.19585
1088.74795,0.18153
1087.25817,0.18962
1085.76838,0.17018
1084.27859,0.18034
1082.78880,0.17331
1081.29901,0.19059
1079.80922,0.18260
1078.31943,0.18535
1076.82965,0.18814
1075.33986,0.22253
1073.85007,0.21281
1072.36028,0.23246
1070.87049,0.24891
1069.38070,0.27955
1067.89092,0.31102
1066.40113,0.34252
1064.91134,0.36777
1063.42155,0.43475
1061.93176,0.54873
1060.44197,0.62123
1058.95219,0.69051
1057.46240,0.72873
1055.97261,0.76698
1054.48282,0.87703
1052.99303,0.93304
1051.50324,0.92833
1050.01345,0.90278
1048.52367,0.87828
1047.03388,0.84610
1045.54409,0.81395
1044.05430,0.77413
1042.56451,0.73372
1041.07472,0.69860
1039.58494,0.66918
1038.09515,0.58308
1036.60536,0.53953
1035.11557,0.49600
1033.62578,0.45189
1032.13599,0.40011
1030.64620,0.33236
1029.15642,0.29804
1027.66663,0.28368
1026.17684,0.26936
1024.68705,0.21871
1023.19726,0.18063
1021.70747,0.14036
1020.21769,0.13757
1018.72790,0.12083
1017.23811,0.11201
1015.74832,0.10321
1014.25853,0.08978
1012.76874,0.08529
1011.27896,0.07636
1009.78917,0.07050
1008.29938,0.05433
1006.80959,0.05519
1005.31980,0.05608
1003.83001,0.03371
1002.34022,0.02998
1000.85044,0.03074
999.36065,0.04246
997.87086,0.05298
996.38107,0.06353
994.89128,0.07855
993.40149,0.10170
991.91171,0.12994
990.42192,0.14241
988.93213,0.14558
987.44234,0.15404
985.95255,0.16253
984.46276,0.16780
982.97297,0.15832
981.48319,0.13245
979.99340,0.09770
978.50361,0.08768
977.01382,0.07768
975.52403,0.06083
974.03424,0.05047
972.54446,0.02374
971.05467,0.01161
969.56488,0.00436
968.07509,0.00462
966.58530,0.00490
965.09551,0.01148
963.60573,0.00796
962.11594,0.00588
960.62615,0.00423
959.13636,0.00669
957.64657,0.00916
956.15678,0.01723
954.66699,0.00994
953.17721,0.00712
951.68742,0.02377
950.19763,0.02535
948.70784,0.02696
947.21805,0.02808
945.72826,0.05393
944.23848,0.05976
942.74869,0.09478
941.25890,0.10268
939.76911,0.11172
938.27932,0.12078
936.78953,0.14637
935.29974,0.16834
933.80996,0.17778
932.32017,0.19109
930.83038,0.19491
929.34059,0.19875
927.85080,0.22630
926.36101,0.26036
924.87123,0.27906
923.38144,0.32592
921.89165,0.36299
920.40186,0.40008
918.91207,0.51262
917.42228,0.62518
915.93250,0.77158
914.44271,0.97632
912.95292,1.07154
911.46313,1.16679
909.97334,1.37929
908.48355,1.61977
906.99376,1.81916
905.50398,1.89425
904.01419,1.91419
902.52440,1.93415
901.03461,2.00000
899.54482,1.91462
898.05503,1.74826
896.56525,1.54650
895.07546,1.39963
893.58567,1.25279
892.09588,0.95492
890.60609,0.74556
889.11630,0.56355
887.62651,0.40810
886.13673,0.35422
884.64694,0.30036
883.15715,0.21483
881.66736,0.15808
880.17757,0.12079
878.68778,0.10439
877.19800,0.08800
875.70821,0.06476
874.21842,0.03729
872.72863,0.01753
871.23884,0.02311
869.74905,0.01778
868.25927,0.01248
866.76948,0.01691
865.27969,0.02461
863.78990,0.02991
862.30011,0.03664
860.81032,0.04664
859.32053,0.05666
857.83075,0.05234
856.34096,0.07658
854.85117,0.10287
853.36138,0.09821
851.87159,0.11088
850.38180,0.12358
848.89202,0.14693
847.40223,0.16362
845.91244,0.17265
844.42265,0.18240
842.93286,0.19218
841.44307,0.21788
839.95329,0.23894
838.46350,0.24667
836.97371,0.24874
835.48392,0.24953
833.99413,0.25034
832.50434,0.24601
831.01455,0.21761
829.52477,0.19753
828.03498,0.18194
826.54519,0.16707
825.05540,0.15223
823.56561,0.14784
822.07582,0.12525
820.58604,0.12780
819.09625,0.11244
817.60646,0.09711
816.11667,0.10560
814.62688,0.11674
813.13709,0.11515
811.64730,0.12877
810.15752,0.12764
808.66773,0.12652
807.17794,0.12523
805.68815,0.10959
804.19836,0.12859
802.70857,0.11947
801.21879,0.11038
799.72900,0.11083
798.23921,0.10664
796.74942,0.12070
795.25963,0.12041
793.76984,0.12014
792.28006,0.13549
790.79027,0.14215
789.30048,0.13426
787.81069,0.18167
786.32090,0.19762
784.83111,0.21359
783.34132,0.26027
781.85154,0.29441
780.36175,0.34336
778.87196,0.36155
777.38217,0.37977
775.89238,0.38768
774.40259,0.39481
772.91281,0.40439
771.42302,0.38353
769.93323,0.36268
768.44344,0.30876
766.95365,0.27632
765.46386,0.21778
763.97407,0.17992
762.48429,0.16467
760.99450,0.14943
759.50471,0.12299
758.01492,0.11560
756.52513,0.10296
755.03534,0.09825
753.54556,0.09357
752.05577,0.08546
750.56598,0.07171
749.07619,0.05292
747.58640,0.04904
746.09661,0.04518
744.60683,0.04874
743.11704,0.02802
741.62725,0.01623
740.13746,0.02158
738.64767,0.02695
737.15788,0.03124
735.66809,0.01955
734.17831,0.00423
732.68852,0.01076
731.19873,0.01730
729.70894,0.01436
728.21915,0.00556
726.72936,0.01746
725.23958,0.02453
723.74979,0.02453
722.26000,0.02456
720.77021,0.00376
719.28042,0.00521
717.79063,0.00972
716.30084,0.01142
714.81106,0.01315
713.32127,0.01308
711.83148,0.02477
710.34169,0.01725
708.85190,0.01664
707.36211,0.01606
705.87233,0.03332
704.38254,0.03582
702.89275,0.03551
701.40296,0.03967
699.91317,0.04387
698.42338,0.05820
696.93360,0.07561
695.44381,0.09202
693.95402,0.10086
692.46423,0.10973
690.97444,0.12196
689.48465,0.13462
687.99486,0.15419
686.50508,0.16821
685.01529,0.18226
683.52550,0.22781
682.03571,0.22986
680.54592,0.25016
679.05613,0.24851
677.56635,0.24688
676.07656,0.25793
674.58677,0.22750
673.09698,0.22523
671.60719,0.21054
670.11740,0.19587
668.62761,0.17181
667.13783,0.15445
665.64804,0.13297
664.15825,0.11151
662.66846,0.09180
661.17867,0.08426
659.68888,0.08140
658.19910,0.05842
656.70931,0.03546
655.21952,0.04583
653.72973,0.04752
652.23994,0.05652
650.75015,0.05310
649.26037,0.04970
647.77058,0.04561
646.28079,0.05613
644.79100,0.04824
643.30121,0.05526
641.81142,0.06230
640.32163,0.04882
638.83185,0.03698
637.34206,0.02395
635.85227,0.01408
634.36248,0.00423
632.87269,0.02702
631.38290,0.02655
629.89312,0.01921
628.40333,0.02648
626.91354,0.03377
625.42375,0.03258
623.93396,0.04356
622.44417,0.03716
620.95438,0.03077
619.46460,0.03434
617.97481,0.04805
616.48502,0.06482
614.99523,0.08202
613.50544,0.09925
612.01565,0.11386
610.52587,0.15462
609.03608,0.18771
607.54629,0.19491
606.05650,0.20213
604.56671,0.26303
603.07692,0.31424
601.58714,0.34795
600.09735,0.38169
598.60756,0.40705
597.11777,0.41745
595.62798,0.41249
594.13819,0.39378
592.64840,0.37509
591.15862,0.35987
589.66883,0.31167
588.17904,0.27443
586.68925,0.24622
585.19946,0.21803
583.70967,0.15089
582.21989,0.13865
580.73010,0.11448
579.24031,0.09034
577.75052,0.07858
576.26073,0.07372
574.77094,0.05431
573.28115,0.04818
571.79137,0.04208
570.30158,0.06647
568.81179,0.08158
567.32200,0.08729
565.83221,0.09303
564.34242,0.12258
562.85264,0.12766
561.36285,0.15138
559.87306,0.15357
558.38327,0.15578
556.89348,0.17655
555.40369,0.18174
553.91391,0.19151
552.42412,0.20131
550.93433,0.18694
549.44454,0.18919
547.95475,0.18884
546.46496,0.18739
544.97517,0.18597
543.48539,0.21100
541.99560,0.25549
540.50581,0.26639
539.01602,0.27731
537.52623,0.32551
536.03644,0.35613
534.54666,0.39021
533.05687,0.40345
531.56708,0.41672
530.07729,0.46910
528.58750,0.52069
527.09771,0.55336
525.60792,0.58607
524.11814,0.64947
522.62835,0.74165
521.13856,0.74881
519.64877,0.76278
518.15898,0.77677
516.66919,0.80607
515.17941,0.81697
513.68962,0.82182
512.19983,0.82670
510.71004,0.79899
509.22025,0.73952
507.73046,0.65700
506.24068,0.60051
504.75089,0.54405
503.26110,0.45147
501.77131,0.36519
500.28152,0.32044
498.79173,0.27572
497.30194,0.20531
495.81216,0.17987
494.32237,0.16002
492.83258,0.14020
491.34279,0.13022
489.85300,0.10690
488.36321,0.08218
486.87343,0.08291
485.38364,0.08365
483.89385,0.08270
482.40406,0.10749
480.91427,0.10092
479.42448,0.09437
477.93469,0.12206
476.44491,0.15100
474.95512,0.15556
473.46533,0.16014
471.97554,0.17537
470.48575,0.19286
468.99596,0.17048
467.50618,0.17020
466.01639,0.16994
464.52660,0.11341
463.03681,0.08182
461.54702,0.09135
460.05723,0.10090
458.56745,0.04710
457.07766,0.03686
455.58787,0.03515
454.09808,0.03346
452.60829,0.00729
451.11850,0.00423
449.62871,0.00763
448.13893,0.01106
446.64914,0.01268
445.15935,0.00238
443.66956,0.01681
442.17977,0.01334
440.68998,0.00990
439.20020,0.03290
437.71041,0.02960
436.22062,0.02785
434.73083,0.02612
433.24104,0.01379
431.75125,0.04805
430.26146,0.03667
428.77168,0.02532
427.28189,0.04973
425.79210,0.04358
424.30231,0.03494
422.81252,0.02631
421.32273,0.04353
419.83295,0.02007
418.34316,0.01435
416.85337,0.00865
415.36358,0.00551
413.87379,0.03459
412.38400,0.03960
410.89422,0.04463
409.40443,0.03895
407.91464,0.04119
406.42485,0.05318
404.93506,0.04929
403.44527,0.04543
401.95548,0.03502
400.46570,0.03353
398.97591,0.03389
397.48612,0.03428
395.99633,0.04299
394.50654,0.02844
393.01675,0.04398
391.52697,0.05954
390.03718,0.03049
388.54739,0.01968
387.05760,0.01697
385.56781,0.01428
384.07802,0.00423
382.58824,0.04630
381.09845,0.03706
379.60866,0.02784
378.11887,0.00882
376.62908,0.01292
375.13929,0.01248
373.64950,0.01206
372.15972,0.00934
370.66993,0.02406
369.18014,0.01540
367.69035,0.00677
366.20056,0.00423
364.71077,0.01332
363.22099,0.01322
361.73120,0.01314
360.24141,0.04457
358.75162,0.08392
357.26183,0.07116
355.77204,0.05842
354.28225,0.05431
352.79247,0.04212
351.30268,0.04059
349.81289,0.03908
348.32310,0.04863
346.83331,0.04646
345.34352,0.04735
343.85374,0.04827
342.36395,0.01944
340.87416,0.01555
339.38437,0.01137
337.89458,0.00722
336.40479,0.02363
334.91501,0.02042
333.42522,0.01753
331.93543,0.01468
330.44564,0.00303
328.95585,0.01846
327.46606,0.02197
325.97627,0.02549
324.48649,0.01487
322.99670,0.01805
321.50691,0.02470
320.01712,0.03138
318.52733,0.06723
317.03754,0.06504
315.54776,0.06510
314.05797,0.06519
312.56818,0.06287
311.07839,0.06037
309.58860,0.05405
308.09881,0.04775
306.60902,0.04573
305.11924,0.04900
303.62945,0.02708
302.13966,0.00518
300.64987,0.01776
299.16008,0.00423
