1778.52000,0.00818
1777.03021,0.00183
1775.54042,0.00142
1774.05063,0.00279
1772.56085,0.00659
1771.07106,0.00625
1769.58127,0.01316
1768.09148,0.00849
1766.60169,0.01019
1765.11190,0.00907
1763.62212,0.00863
1762.13233,0.01106
1760.64254,0.01045
1759.15275,0.00833
1757.66296,0.01412
1756.17317,0.00000
1754.68339,0.01044
1753.19360,0.00535
1751.70381,0.01080
1750.21402,0.01057
1748.72423,0.00380
1747.23444,0.01085
1745.74465,0.01267
1744.25487,0.01605
1742.76508,0.00674
1741.27529,0.01696
1739.78550,0.01340
1738.29571,0.01139
1736.80592,0.01379
1735.31614,0.00833
1733.82635,0.00911
1732.33656,0.01146
1730.84677,0.01404
1729.35698,0.01292
1727.86719,0.01271
1726.37740,0.01602
1724.88762,0.01169
1723.39783,0.01308
1721.90804,0.01449
1720.41825,0.02031
1718.92846,0.00797
1717.43867,0.00858
1715.94889,0.00833
1714.45910,0.00978
1712.96931,0.01826
1711.47952,0.00901
1709.98973,0.00878
1708.49994,0.00681
1707.01016,0.00904
1705.52037,0.01128
1704.03058,0.01311
1702.54079,0.00686
1701.05100,0.01247
1699.56121,0.00955
1698.07142,0.01170
1696.58164,0.01036
1695.09185,0.02045
1693.60206,0.01894
1692.11227,0.01395
1690.62248,0.00833
1689.13269,0.01986
1687.64291,0.01848
1686.15312,0.02633
1684.66333,0.02347
1683.17354,0.02918
1681.68375,0.02768
1680.19396,0.02314
1678.70417,0.02629
1677.21439,0.04020
1675.72460,0.04493
1674.23481,0.03742
1672.74502,0.02993
1671.25523,0.05292
1669.76544,0.04745
1668.27566,0.06216
1666.78587,0.05586
1665.29608,0.06755
1663.80629,0.05889
1662.31650,0.06822
1660.82671,0.06815
1659.33693,0.07556
1657.84714,0.07729
1656.35735,0.07423
1654.86756,0.07973
1653.37777,0.06751
1651.88798,0.06233
1650.39819,0.08259
1648.90841,0.07110
1647.41862,0.07891
1645.92883,0.07821
1644.43904,0.07753
1642.94925,0.09308
1641.45946,0.07996
1639.96968,0.09140
1638.47989,0.07964
1636.99010,0.08215
1635.50031,0.08380
1634.01052,0.08460
1632.52073,0.07842
1631.03094,0.08672
1629.54116,0.09504
1628.05137,0.09812
1626.56158,0.09094
1625.07179,0.08838
1623.58200,0.09176
1622.09221,0.09932
1620.60243,0.10231
1619.11264,0.10335
1617.62285,0.09587
1616.13306,0.10112
1614.64327,0.08361
1613.15348,0.08299
1611.66370,0.08130
1610.17391,0.09454
1608.68412,0.09750
1607.19433,0.09084
1605.70454,0.10042
1604.21475,0.10071
1602.72496,0.10103
1601.23518,0.10192
1599.74539,0.09670
1598.25560,0.08537
1596.76581,0.08676
1595.27602,0.08183
1593.78623,0.07780
1592.29645,0.09417
1590.80666,0.07573
1589.31687,0.07484
1587.82708,0.07309
1586.33729,0.07707
1584.84750,0.08699
1583.35771,0.08509
1581.86793,0.08191
1580.37814,0.09124
1578.88835,0.07869
1577.39856,0.06879
1575.90877,0.06921
1574.41898,0.06439
1572.92920,0.05303
1571.43941,0.04782
1569.94962,0.04516
1568.45983,0.04252
1566.97004,0.04747
1565.48025,0.04170
1563.99047,0.03311
1562.50068,0.03396
1561.01089,0.03572
1559.52110,0.02610
1558.03131,0.02703
1556.54152,0.02469
1555.05173,0.03114
1553.56195,0.02556
1552.07216,0.02023
1550.58237,0.00923
1549.09258,0.01665
1547.60279,0.01139
1546.11300,0.01601
1544.62322,0.01562
1543.13343,0.00824
1541.64364,0.00833
1540.15385,0.01417
1538.66406,0.02002
1537.17427,0.01835
1535.68448,0.01056
1534.19470,0.02771
1532.70491,0.03042
1531.21512,0.01759
1529.72533,0.01531
1528.23554,0.02401
1526.74575,0.02418
1525.25597,0.02811
1523.76618,0.03008
1522.27639,0.02529
1520.78660,0.04462
1519.29681,0.04273
1517.80702,0.04326
1516.31724,0.04624
1514.82745,0.05317
1513.33766,0.04294
1511.84787,0.03273
1510.35808,0.03711
1508.86829,0.03976
1507.37850,0.04748
1505.88872,0.04799
1504.39893,0.06758
1502.90914,0.06376
1501.41935,0.07398
1499.92956,0.08401
1498.43977,0.06076
1496.94999,0.07105
1495.46020,0.08487
1493.97041,0.09171
1492.48062,0.10032
1490.99083,0.10020
1489.50104,0.12485
1488.01125,0.12641
1486.52147,0.12800
1485.03168,0.15645
1483.54189,0.20398
1482.05210,0.21649
1480.56231,0.24172
1479.07252,0.26150
1477.58274,0.25502
1476.09295,0.26433
1474.60316,0.26359
1473.11337,0.27734
1471.62358,0.26569
1470.13379,0.28956
1468.64401,0.29220
1467.15422,0.31239
1465.66443,0.31201
1464.17464,0.31166
1462.68485,0.36895
1461.19506,0.41290
1459.70527,0.45183
1458.21549,0.49276
1456.72570,0.58060
1455.23591,0.61850
1453.74612,0.65907
1452.25633,0.71543
1450.76654,0.75363
1449.27676,0.72700
1447.78697,0.70413
1446.29718,0.68960
1444.80739,0.68288
1443.31760,0.67618
1441.82781,0.59929
1440.33802,0.55725
1438.84824,0.52861
1437.35845,0.51861
1435.86866,0.50052
1434.37887,0.50700
1432.88908,0.52336
1431.39929,0.59758
1429.90951,0.72178
1428.41972,0.78553
1426.92993,0.84734
1425.44014,0.85790
1423.95035,0.88503
1422.46056,0.91219
1420.97078,0.95656
1419.48099,0.93677
1417.99120,0.91941
1416.50141,0.90405
1415.01162,0.85804
1413.52183,0.82301
1412.03204,0.76807
1410.54226,0.72651
1409.05247,0.67928
1407.56268,0.63690
1406.07289,0.59563
1404.58310,0.56370
1403.09331,0.53180
1401.60353,0.43737
1400.11374,0.39686
1398.62395,0.36710
1397.13416,0.30780
1395.64437,0.24852
1394.15458,0.22015
1392.66479,0.19444
1391.17501,0.15889
1389.68522,0.12490
1388.19543,0.10911
1386.70564,0.09631
1385.21585,0.08353
1383.72606,0.06256
1382.23628,0.04885
1380.74649,0.04151
1379.25670,0.03354
1377.76691,0.01332
1376.27712,0.01219
1374.78733,0.00713
1373.29755,0.01218
1371.80776,0.00981
1370.31797,0.00833
1368.82818,0.01847
1367.33839,0.02864
1365.84860,0.03181
1364.35881,0.02603
1362.86903,0.04679
1361.37924,0.07151
1359.88945,0.10238
1358.39966,0.11642
1356.90987,0.14296
1355.42008,0.18289
1353.93030,0.24519
1352.44051,0.27137
1350.95072,0.29757
1349.46093,0.38163
1347.97114,0.46944
1346.48135,0.54479
1344.99156,0.60263
1343.50178,0.68000
1342.01199,0.76528
1340.52220,0.81311
1339.03241,0.85901
1337.54262,0.88937
1336.05283,0.90299
1334.56305,0.91664
1333.07326,0.94860
1331.58347,0.93634
1330.09368,0.92015
1328.60389,0.91670
1327.11410,0.90188
1325.62432,0.84699
1324.13453,0.82871
1322.64474,0.80848
1321.15495,0.75279
1319.66516,0.73721
1318.17537,0.72166
1316.68558,0.65157
1315.19580,0.60233
1313.70601,0.55639
1312.21622,0.52231
1310.72643,0.50315
1309.23664,0.49453
1307.74685,0.45746
1306.25707,0.43487
1304.76728,0.41339
1303.27749,0.39194
1301.78770,0.34532
1300.29791,0.28427
1298.80812,0.23748
1297.31834,0.21941
1295.82855,0.17814
1294.33876,0.14676
1292.84897,0.12329
1291.35918,0.11079
1289.86939,0.10654
1288.37960,0.10230
1286.88982,0.08835
1285.40003,0.07485
1283.91024,0.07255
1282.42045,0.07685
1280.93066,0.06737
1279.44087,0.06383
1277.95109,0.05440
1276.46130,0.05025
1274.97151,0.04798
1273.48172,0.04574
1271.99193,0.03290
1270.50214,0.04221
1269.01235,0.04585
1267.52257,0.01753
1266.03278,0.01946
1264.54299,0.03018
1263.05320,0.02142
1261.56341,0.02266
1260.07362,0.02392
1258.58384,0.00889
1257.09405,0.01600
1255.60426,0.00758
1254.11447,0.01190
1252.62468,0.01010
1251.13489,0.00833
1249.64511,0.01596
1248.15532,0.01025
1246.66553,0.01070
1245.17574,0.01118
1243.68595,0.01540
1242.19616,0.00584
1240.70637,0.01165
1239.21659,0.04201
1237.72680,0.04129
1236.23701,0.04431
1234.74722,0.02765
1233.25743,0.02864
1231.76764,0.02966
1230.27786,0.03103
1228.78807,0.05016
1227.29828,0.03603
1225.80849,0.00833
1224.31870,0.00963
1222.82891,0.01248
1221.33912,0.03201
1219.84934,0.03940
1218.35955,0.04682
1216.86976,0.05503
1215.37997,0.06195
1213.89018,0.07086
1212.40039,0.07914
1210.91061,0.08481
1209.42082,0.08525
1207.93103,0.08046
1206.44124,0.07569
1204.95145,0.08321
1203.46166,0.07696
1201.97188,0.09088
1200.48209,0.08095
1198.99230,0.07258
1197.50251,0.04780
1196.01272,0.04933
1194.52293,0.04114
1193.03314,0.03297
1191.54336,0.03654
1190.05357,0.02634
1188.56378,0.03106
1187.07399,0.02901
1185.58420,0.02567
1184.09441,0.03945
1182.60463,0.03331
1181.11484,0.02719
1179.62505,0.02811
1178.13526,0.00824
1176.64547,0.00833
1175.15568,0.01054
1173.66589,0.00861
1172.17611,0.02028
1170.68632,0.01807
1169.19653,0.01588
1167.70674,0.02807
1166.21695,0.01508
1164.72716,0.04594
1163.23738,0.04242
1161.74759,0.03827
1160.25780,0.06066
1158.76801,0.06521
1157.27822,0.06978
1155.78843,0.08128
1154.29865,0.09478
1152.80886,0.09932
1151.31907,0.10892
1149.82928,0.11942
1148.33949,0.12753
1146.84970,0.12538
1145.35991,0.12324
1143.87013,0.14808
1142.38034,0.15760
1140.89055,0.18380
1139.40076,0.17475
1137.91097,0.19815
1136.42118,0.21719
1134.93140,0.22169
1133.44161,0.22621
1131.95182,0.23897
1130.46203,0.23905
1128.97224,0.22841
1127.48245,0.21912
1125.99266,0.25563
1124.50288,0.27158
1123.01309,0.26959
1121.52330,0.26761
1120.03351,0.26216
1118.54372,0.25038
1117.05393,0.26141
1115.56415,0.25581
1114.07436,0.25987
1112.58457,0.24961
1111.09478,0.23938
1109.60499,0.22336
1108.11520,0.23453
1106.62542,0.25492
1105.13563,0.23722
1103.64584,0.23839
1102.15605,0.24593
1100.66626,0.23192
1099.17647,0.21793
1097.68668,0.22006
1096.19690,0.21740
1094.70711,0.20250
1093.21732,0.21238
1091.72753,0.18087
1090.23774,0.17688
1088.74795,0.17292
1087.25817,0.17939
1085.76838,0.18982
1084.27859,0.21101
1082.78880,0.20638
1081.29901,0.20746
1079.80922,0.22281
1078.31943,0.22011
1076.82965,0.21744
1075.33986,0.24228
1073.85007,0.26057
1072.36028,0.26443
1070.87049,0.26568
1069.38070,0.30135
1067.89092,0.31624
1066.40113,0.33114
1064.91134,0.39931
1063.42155,0.48371
1061.93176,0.59640
1060.44197,0.68392
1058.95219,0.77343
1057.46240,0.83022
1055.97261,0.88703
1054.48282,0.99129
1052.99303,1.05439
1051.50324,1.04435
1050.01345,1.03410
1048.52367,1.02783
1047.03388,1.00985
1045.54409,0.99191
1044.05430,0.93816
1042.56451,0.81697
1041.07472,0.76612
1039.58494,0.69908
1038.09515,0.61980
1036.60536,0.58316
1035.11557,0.54654
1033.62578,0.48705
1032.13599,0.39428
1030.64620,0.34316
1029.15642,0.29798
1027.66663,0.28185
1026.17684,0.26575
1024.68705,0.23904
1023.19726,0.20557
1021.70747,0.15679
1020.21769,0.15053
1018.72790,0.13619
1017.23811,0.13447
1015.74832,0.13277
1014.25853,0.11587
1012.76874,0.09418
1011.27896,0.09485
1009.78917,0.09139
1008.29938,0.06254
1006.80959,0.05376
1005.31980,0.04500
1003.83001,0.04711
1002.34022,0.03084
1000.85044,0.02993
999.36065,0.03343
997.87086,0.04242
996.38107,0.05145
994.89128,0.08043
993.40149,0.09431
991.91171,0.09640
990.42192,0.14298
988.93213,0.17972
987.44234,0.17749
985.95255,0.17529
984.46276,0.16632
982.97297,0.13283
981.48319,0.11296
979.99340,0.08390
978.50361,0.07963
977.01382,0.07538
975.52403,0.06918
974.03424,0.05468
972.54446,0.04217
971.05467,0.02203
969.56488,0.01307
968.07509,0.01422
966.58530,0.01540
965.09551,0.02383
963.60573,0.01366
962.11594,0.00833
960.62615,0.01855
959.13636,0.02155
957.64657,0.02459
956.15678,0.03904
954.66699,0.02656
953.17721,0.02988
951.68742,0.03411
950.19763,0.03748
948.70784,0.04087
947.21805,0.07518
945.72826,0.08651
944.23848,0.09787
942.74869,0.11407
941.25890,0.13642
939.76911,0.13963
938.27932,0.14286
936.78953,0.15894
935.29974,0.19673
933.80996,0.18459
932.32017,0.18693
930.83038,0.19894
929.34059,0.21097
927.85080,0.22587
926.36101,0.25351
924.87123,0.28598
923.38144,0.35989
921.89165,0.39176
920.40186,0.42365
918.91207,0.52983
917.42228,0.66540
915.93250,0.81741
914.44271,1.04131
912.95292,1.15526
911.46313,1.26923
909.97334,1.48137
908.48355,1.71413
906.99376,1.87593
905.50398,1.97313
904.01419,1.98458
902.52440,1.99606
901.03461,2.00000
899.54482,1.97483
898.05503,1.85372
896.56525,1.65093
895.07546,1.51267
893.58567,1.37444
892.09588,1.11366
890.60609,0.85488
889.11630,0.65329
887.62651,0.51154
886.13673,0.44551
884.64694,0.37950
883.15715,0.25907
881.66736,0.19607
880.17757,0.15521
878.68778,0.13399
877.19800,0.11279
875.70821,0.09808
874.21842,0.06412
872.72863,0.05339
871.23884,0.04861
869.74905,0.03926
868.25927,0.02992
866.76948,0.03310
865.27969,0.02491
863.78990,0.04412
862.30011,0.07060
860.81032,0.08055
859.32053,0.09053
857.83075,0.09714
856.34096,0.10990
854.85117,0.12948
853.36138,0.13156
851.87159,0.14462
850.38180,0.15769
848.89202,0.20147
847.40223,0.21394
845.91244,0.22402
844.42265,0.22942
842.93286,0.23484
841.44307,0.24150
839.95329,0.26351
838.46350,0.26560
836.97371,0.27934
835.48392,0.28269
833.99413,0.28606
832.50434,0.29045
831.01455,0.29332
829.52477,0.27650
828.03498,0.23342
826.54519,0.22410
825.05540,0.21480
823.56561,0.17661
822.07582,0.15356
820.58604,0.15046
819.09625,0.14466
817.60646,0.13887
816.11667,0.14418
814.62688,0.13746
813.13709,0.14062
811.64730,0.15958
810.15752,0.15841
808.66773,0.15726
807.17794,0.17016
805.68815,0.17212
804.19836,0.16075
802.70857,0.16704
801.21879,0.17335
799.72900,0.15548
798.23921,0.14748
796.74942,0.15091
795.25963,0.14275
793.76984,0.13461
792.28006,0.13854
790.79027,0.18960
789.30048,0.19074
787.81069,0.21337
786.32090,0.23722
784.83111,0.26111
783.34132,0.28797
781.85154,0.33216
780.36175,0.37747
778.87196,0.40353
777.38217,0.42961
775.89238,0.43096
774.40259,0.45096
772.91281,0.44053
771.42302,0.42771
769.93323,0.41491
768.44344,0.37651
766.95365,0.31623
765.46386,0.25531
763.97407,0.20887
762.48429,0.19181
760.99450,0.17478
759.50471,0.14594
758.01492,0.11997
756.52513,0.11068
755.03534,0.11039
753.54556,0.11013
752.05577,0.09653
750.56598,0.08339
749.07619,0.05997
747.58640,0.05521
746.09661,0.05046
744.60683,0.04114
743.11704,0.03973
741.62725,0.00833
740.13746,0.00804
738.64767,0.00763
737.15788,0.01909
735.66809,0.01391
734.17831,0.01534
732.68852,0.01996
731.19873,0.02461
729.70894,0.00924
728.21915,0.01383
726.72936,0.01340
725.23958,0.01234
723.74979,0.01721
722.26000,0.02212
720.77021,0.01850
719.28042,0.00833
717.79063,0.00789
716.30084,0.01230
714.81106,0.01672
713.32127,0.01022
711.83148,0.02302
710.34169,0.02818
708.85190,0.02427
707.36211,0.02038
705.87233,0.04357
704.38254,0.04707
702.89275,0.05651
701.40296,0.05239
699.91317,0.04830
698.42338,0.07555
696.93360,0.07654
695.44381,0.10626
693.95402,0.10675
692.46423,0.10726
690.97444,0.12850
689.48465,0.16642
687.99486,0.17763
686.50508,0.18415
685.01529,0.19070
683.52550,0.23353
682.03571,0.25536
680.54592,0.26209
679.05613,0.25668
677.56635,0.25130
676.07656,0.26314
674.58677,0.26384
673.09698,0.21855
671.60719,0.21797
670.11740,0.21742
668.62761,0.18732
667.13783,0.19580
665.64804,0.16760
664.15825,0.13944
662.66846,0.10483
661.17867,0.08120
659.68888,0.06198
658.19910,0.06063
656.70931,0.05931
655.21952,0.04629
653.72973,0.04381
652.23994,0.04070
650.75015,0.04024
649.26037,0.03981
647.77058,0.04772
646.28079,0.02367
644.79100,0.03799
643.30121,0.03469
641.81142,0.03142
640.32163,0.04887
638.83185,0.04138
637.34206,0.01901
635.85227,0.01408
634.36248,0.00917
632.87269,0.00833
631.38290,0.01754
629.89312,0.01866
628.40333,0.01335
626.91354,0.00806
625.42375,0.00838
623.93396,0.00478
622.44417,0.01315
620.95438,0.02154
619.46460,0.03773
617.97481,0.05263
616.48502,0.07259
614.99523,0.07363
613.50544,0.07469
612.01565,0.12342
610.52587,0.15750
609.03608,0.18437
607.54629,0.20207
606.05650,0.21979
604.56671,0.28332
603.07692,0.32234
601.58714,0.35229
600.09735,0.38226
598.60756,0.41259
597.11777,0.42826
595.62798,0.46214
594.13819,0.44774
592.64840,0.43336
591.15862,0.37136
589.66883,0.30280
588.17904,0.26560
586.68925,0.24102
585.19946,0.21647
583.70967,0.16225
582.21989,0.11463
580.73010,0.09770
579.24031,0.08080
577.75052,0.06064
576.26073,0.02078
574.77094,0.04996
573.28115,0.04838
571.79137,0.04682
570.30158,0.06336
568.81179,0.07993
567.32200,0.07636
565.83221,0.07282
564.34242,0.11487
562.85264,0.11619
561.36285,0.16267
559.87306,0.16602
558.38327,0.16939
556.89348,0.18154
555.40369,0.19285
553.91391,0.19059
552.42412,0.18836
550.93433,0.20653
549.44454,0.20588
547.95475,0.21336
546.46496,0.21308
544.97517,0.21283
543.48539,0.25412
541.99560,0.29368
540.50581,0.30720
539.01602,0.32074
537.52623,0.36870
536.03644,0.40528
534.54666,0.43357
533.05687,0.44896
531.56708,0.46437
530.07729,0.53961
528.58750,0.55157
527.09771,0.59016
525.60792,0.62878
524.11814,0.72208
522.62835,0.77291
521.13856,0.81193
519.64877,0.81515
518.15898,0.81840
516.66919,0.84676
515.17941,0.85126
513.68962,0.86049
512.19983,0.86975
510.71004,0.84322
509.22025,0.81013
507.73046,0.74706
506.24068,0.68784
504.75089,0.62865
503.26110,0.50167
501.77131,0.41766
500.28152,0.36325
498.79173,0.30886
497.30194,0.24836
495.81216,0.18329
494.32237,0.15570
492.83258,0.12814
491.34279,0.10323
489.85300,0.11010
488.36321,0.09992
486.87343,0.08362
485.38364,0.06735
483.89385,0.08024
482.40406,0.12208
480.91427,0.12285
479.42448,0.12366
477.93469,0.14562
476.44491,0.17791
474.95512,0.19741
473.46533,0.21693
471.97554,0.23790
470.48575,0.24399
468.99596,0.22382
467.50618,0.22010
466.01639,0.21641
464.52660,0.14242
463.03681,0.12519
461.54702,0.10602
460.05723,0.08687
458.56745,0.05372
457.07766,0.04798
455.58787,0.05234
454.09808,0.05673
452.60829,0.05610
451.11850,0.03293
449.62871,0.02928
448.13893,0.02566
446.64914,0.02687
445.15935,0.01782
443.66956,0.02084
442.17977,0.01457
440.68998,0.00833
439.20020,0.03829
437.71041,0.04615
436.22062,0.04034
434.73083,0.03455
433.24104,0.01860
431.75125,0.04014
430.26146,0.03903
428.77168,0.03794
427.28189,0.01135
425.79210,0.04722
424.30231,0.04193
422.81252,0.03666
421.32273,0.04457
419.83295,0.03518
418.34316,0.02320
416.85337,0.01124
415.36358,0.02537
413.87379,0.01937
412.38400,0.02259
410.89422,0.02584
409.40443,0.02977
407.91464,0.02059
406.42485,0.01931
404.93506,0.02057
403.44527,0.02186
401.95548,0.03599
400.46570,0.03064
398.97591,0.04635
397.48612,0.06208
395.99633,0.03928
394.50654,0.03666
393.01675,0.02410
391.52697,0.01156
390.03718,0.01081
388.54739,0.00833
387.05760,0.00756
385.56781,0.00680
384.07802,0.02138
382.58824,0.02832
381.09845,0.03166
379.60866,0.03503
378.11887,0.01619
376.62908,0.00197
375.13929,0.01765
373.64950,0.03336
372.15972,0.03332
370.66993,0.02213
369.18014,0.02044
367.69035,0.01878
366.20056,0.01704
364.71077,0.01466
363.22099,0.01153
361.73120,0.00844
360.24141,0.01774
358.75162,0.06869
357.26183,0.05865
355.77204,0.04864
354.28225,0.06965
352.79247,0.08586
351.30268,0.08622
349.81289,0.08660
348.32310,0.06542
346.83331,0.05522
345.34352,0.05929
343.85374,0.06338
342.36395,0.05478
340.87416,0.05169
339.38437,0.04523
337.89458,0.03879
336.40479,0.01255
334.91501,0.03251
333.42522,0.02041
331.93543,0.00833
330.44564,0.01344
328.95585,0.01595
327.46606,0.02341
325.97627,0.03089
324.48649,0.05078
322.99670,0.08120
321.50691,0.05141
320.01712,0.02163
318.52733,0.05104
317.03754,0.03292
315.54776,0.03148
314.05797,0.03006
312.56818,0.02714
311.07839,0.03826
309.58860,0.04798
308.09881,0.05772
306.60902,0.05511
305.11924,0.05997
303.62945,0.05039
302.13966,0.04084
300.64987,0.00919
299.16008,0.00833
