1778.52000,0.00225
1777.03021,0.01285
1775.54042,0.01415
1774.05063,0.01361
1772.56085,0.01465
1771.07106,0.01137
1769.58127,0.01494
1768.09148,0.01357
1766.60169,0.01471
1765.11190,0.02177
1763.62212,0.01147
1762.13233,0.01579
1760.64254,0.01827
1759.15275,0.01487
1757.66296,0.01771
1756.17317,0.01187
1754.68339,0.01073
1753.19360,0.02421
1751.70381,0.01969
1750.21402,0.01333
1748.72423,0.00451
1747.23444,0.01405
1745.74465,0.01958
1744.25487,0.02295
1742.76508,0.00895
1741.27529,0.02698
1739.78550,0.01240
1738.29571,0.01370
1736.80592,0.00694
1735.31614,0.01815
1733.82635,0.00825
1732.33656,0.00459
1730.84677,0.02168
1729.35698,0.01953
1727.86719,0.02176
1726.37740,0.00972
1724.88762,0.02691
1723.39783,0.00964
1721.90804,0.00513
1720.41825,0.02053
1718.92846,0.01855
1717.43867,0.01381
1715.94889,0.00225
1714.45910,0.00374
1712.96931,0.00929
1711.47952,0.00089
1709.98973,0.00711
1708.49994,-0.00000
1707.01016,0.00286
1705.52037,0.00574
1704.03058,0.01144
1702.54079,0.00225
1701.05100,0.01196
1699.56121,0.01019
1698.07142,0.01218
1696.58164,0.00550
1695.09185,0.01966
1693.60206,0.01209
1692.11227,0.02412
1690.62248,0.02872
1689.13269,0.00631
1687.64291,0.02370
1686.15312,0.03459
1684.66333,0.03245
1683.17354,0.04245
1681.68375,0.04223
1680.19396,0.03861
1678.70417,0.04683
1677.21439,0.03735
1675.72460,0.04034
1674.23481,0.05298
1672.74502,0.05352
1671.25523,0.05130
1669.76544,0.06774
1668.27566,0.06339
1666.78587,0.05378
1665.29608,0.07557
1663.80629,0.08932
1662.31650,0.07512
1660.82671,0.07773
1659.33693,0.09341
1657.84714,0.07556
1656.35735,0.10155
1654.86756,0.08903
1653.37777,0.07716
1651.88798,0.07867
1650.39819,0.06965
1648.90841,0.07587
1647.41862,0.05913
1645.92883,0.06959
1644.43904,0.08009
1642.94925,0.07553
1641.45946,0.09928
1639.96968,0.07676
1638.47989,0.08937
1636.99010,0.08802
1635.50031,0.07178
1634.01052,0.05278
1632.52073,0.06548
1631.03094,0.06952
1629.54116,0.07731
1628.05137,0.07766
1626.56158,0.08612
1625.07179,0.09523
1623.58200,0.08074
1622.09221,0.07529
1620.60243,0.08882
1619.11264,0.08653
1617.62285,0.10912
1616.13306,0.09600
1614.64327,0.08663
1613.15348,0.07698
1611.66370,0.07823
1610.17391,0.06863
1608.68412,0.07925
1607.19433,0.10015
1605.70454,0.08876
1604.21475,0.08920
1602.72496,0.08966
1601.23518,0.09139
1599.74539,0.09470
1598.25560,0.08810
1596.76581,0.08835
1595.27602,0.09795
1593.78623,0.08582
1592.29645,0.09050
1590.80666,0.07625
1589.31687,0.05736
1587.82708,0.06739
1586.33729,0.07621
1584.84750,0.10338
1583.35771,0.08832
1581.86793,0.09193
1580.37814,0.09494
1578.88835,0.08244
1577.39856,0.07338
1575.90877,0.06621
1574.41898,0.06622
1572.92920,0.04977
1571.43941,0.02808
1569.94962,0.04229
1568.45983,0.05653
1566.97004,0.04081
1565.48025,0.03630
1563.99047,0.04984
1562.50068,0.04910
1561.01089,0.03970
1559.52110,0.04678
1558.03131,0.03587
1556.54152,0.05046
1555.05173,0.02438
1553.56195,0.03746
1552.07216,0.03287
1550.58237,0.01120
1549.09258,0.00417
1547.60279,0.00213
1546.11300,0.02746
1544.62322,0.01553
1543.13343,0.00890
1541.64364,0.01162
1540.15385,0.01095
1538.66406,0.01031
1537.17427,0.02677
1535.68448,0.00225
1534.19470,0.01421
1532.70491,0.01315
1531.21512,0.02951
1529.72533,0.01762
1528.23554,0.02720
1526.74575,0.04953
1525.25597,0.03741
1523.76618,0.03649
1522.27639,0.05145
1520.78660,0.03784
1519.29681,0.03825
1517.80702,0.04613
1516.31724,0.04410
1514.82745,0.05296
1513.33766,0.05020
1511.84787,0.04746
1510.35808,0.05982
1508.86829,0.02746
1507.37850,0.03893
1505.88872,0.06410
1504.39893,0.06910
1502.90914,0.07040
1501.41935,0.07514
1499.92956,0.08891
1498.43977,0.07008
1496.94999,0.07210
1495.46020,0.09092
1493.97041,0.09205
1492.48062,0.11154
1490.99083,0.09905
1489.50104,0.11610
1488.01125,0.11671
1486.52147,0.11735
1485.03168,0.14659
1483.54189,0.19326
1482.05210,0.18154
1480.56231,0.22019
1479.07252,0.24052
1477.58274,0.25094
1476.09295,0.24739
1474.60316,0.25630
1473.11337,0.27922
1471.62358,0.25991
1470.13379,0.25584
1468.64401,0.26517
1467.15422,0.31366
1465.66443,0.33080
1464.17464,0.34796
1462.68485,0.37509
1461.19506,0.38485
1459.70527,0.44590
1458.21549,0.48864
1456.72570,0.58205
1455.23591,0.65094
1453.74612,0.69189
1452.25633,0.75896
1450.76654,0.76361
1449.27676,0.74901
1447.78697,0.72357
1446.29718,0.71120
1444.80739,0.70647
1443.31760,0.70176
1441.82781,0.64442
1440.33802,0.59579
1438.84824,0.55496
1437.35845,0.54492
1435.86866,0.51408
1434.37887,0.53857
1432.88908,0.54786
1431.39929,0.60379
1429.90951,0.70634
1428.41972,0.80768
1426.92993,0.87424
1425.44014,0.93648
1423.95035,0.97715
1422.46056,1.01784
1420.97078,1.05934
1419.48099,1.01852
1417.99120,0.99916
1416.50141,0.97486
1415.01162,0.91516
1413.52183,0.86263
1412.03204,0.80764
1410.54226,0.77536
1409.05247,0.71949
1407.56268,0.70030
1406.07289,0.64168
1404.58310,0.60655
1403.09331,0.57144
1401.60353,0.47654
1400.11374,0.44878
1398.62395,0.38997
1397.13416,0.34331
1395.64437,0.28642
1394.15458,0.21868
1392.66479,0.19788
1391.17501,0.17586
1389.68522,0.14206
1388.19543,0.10890
1386.70564,0.09752
1385.21585,0.08617
1383.72606,0.05091
1382.23628,0.01972
1380.74649,0.03485
1379.25670,0.03198
1377.76691,0.00894
1376.27712,0.00457
1374.78733,0.00799
1373.29755,0.01703
1371.80776,0.00435
1370.31797,0.00225
1368.82818,0.00648
1367.33839,0.01073
1365.84860,0.01267
1364.35881,0.02956
1362.86903,0.05672
1361.37924,0.07645
1359.88945,0.11982
1358.39966,0.12561
1356.90987,0.17059
1355.42008,0.20719
1353.93030,0.26154
1352.44051,0.29897
1350.95072,0.33643
1349.46093,0.42906
1347.97114,0.49904
1346.48135,0.57308
1344.99156,0.64497
1343.50178,0.72838
1342.01199,0.75993
1340.52220,0.86421
1339.03241,0.89457
1337.54262,0.94452
1336.05283,0.95100
1334.56305,0.95750
1333.07326,1.00598
1331.58347,0.97338
1330.09368,0.97157
1328.60389,0.98035
1327.11410,0.94534
1325.62432,0.91066
1324.13453,0.86607
1322.64474,0.83518
1321.15495,0.82047
1319.66516,0.80127
1318.17537,0.78210
1316.68558,0.69010
1315.19580,0.67020
1313.70601,0.58943
1312.21622,0.54970
1310.72643,0.51185
1309.23664,0.48118
1307.74685,0.45675
1306.25707,0.43048
1304.76728,0.41681
1303.27749,0.40317
1301.78770,0.35398
1300.29791,0.28555
1298.80812,0.24293
1297.31834,0.20904
1295.82855,0.17704
1294.33876,0.14475
1292.84897,0.10782
1291.35918,0.09702
1289.86939,0.09883
1288.37960,0.10066
1286.88982,0.10361
1285.40003,0.07613
1283.91024,0.06949
1282.42045,0.07406
1280.93066,0.05660
1279.44087,0.05687
1277.95109,0.04878
1276.46130,0.03822
1274.97151,0.04385
1273.48172,0.04950
1271.99193,0.03840
1270.50214,0.04379
1269.01235,0.02653
1267.52257,0.02451
1266.03278,0.03681
1264.54299,0.01186
1263.05320,0.02576
1261.56341,0.01406
1260.07362,0.00238
1258.58384,0.01169
1257.09405,0.02228
1255.60426,0.02761
1254.11447,0.01059
1252.62468,0.01131
1251.13489,0.00366
1249.64511,0.00225
1248.15532,0.02665
1246.66553,0.01877
1245.17574,0.01091
1243.68595,0.01177
1242.19616,0.01235
1240.70637,0.01761
1239.21659,0.02414
1237.72680,0.02231
1236.23701,0.02920
1234.74722,0.01902
1233.25743,0.02301
1231.76764,0.02702
1230.27786,0.03184
1228.78807,0.02860
1227.29828,0.03067
1225.80849,0.00355
1224.31870,0.00225
1222.82891,0.00906
1221.33912,0.02491
1219.84934,0.02415
1218.35955,0.02343
1216.86976,0.05426
1215.37997,0.05001
1213.89018,0.06132
1212.40039,0.08694
1210.91061,0.07842
1209.42082,0.08514
1207.93103,0.07386
1206.44124,0.06261
1204.95145,0.07096
1203.46166,0.07747
1201.97188,0.04237
1200.48209,0.04489
1198.99230,0.05614
1197.50251,0.04473
1196.01272,0.03551
1194.52293,0.01887
1193.03314,0.00225
1191.54336,0.01068
1190.05357,0.00391
1188.56378,0.00680
1187.07399,0.02370
1185.58420,0.04373
1184.09441,0.02805
1182.60463,0.02451
1181.11484,0.02100
1179.62505,0.00694
1178.13526,0.01560
1176.64547,0.00905
1175.15568,0.01682
1173.66589,0.00225
1172.17611,0.01163
1170.68632,0.01653
1169.19653,0.02145
1167.70674,0.02314
1166.21695,0.01677
1164.72716,0.03280
1163.23738,0.04419
1161.74759,0.04473
1160.25780,0.05959
1158.76801,0.06282
1157.27822,0.06608
1155.78843,0.06548
1154.29865,0.08447
1152.80886,0.09914
1151.31907,0.11726
1149.82928,0.11178
1148.33949,0.11783
1146.84970,0.12499
1145.35991,0.13217
1143.87013,0.13301
1142.38034,0.18141
1140.89055,0.18758
1139.40076,0.19036
1137.91097,0.17265
1136.42118,0.21898
1134.93140,0.23286
1133.44161,0.24677
1131.95182,0.22139
1130.46203,0.26720
1128.97224,0.25057
1127.48245,0.23987
1125.99266,0.23262
1124.50288,0.26174
1123.01309,0.25578
1121.52330,0.24984
1120.03351,0.26040
1118.54372,0.26601
1117.05393,0.28438
1115.56415,0.29377
1114.07436,0.27366
1112.58457,0.27378
1111.09478,0.27391
1109.60499,0.25015
1108.11520,0.26526
1106.62542,0.25739
1105.13563,0.25110
1103.64584,0.25447
1102.15605,0.25010
1100.66626,0.22400
1099.17647,0.19793
1097.68668,0.20761
1096.19690,0.20116
1094.70711,0.21680
1093.21732,0.22935
1091.72753,0.17979
1090.23774,0.16723
1088.74795,0.15469
1087.25817,0.16796
1085.76838,0.16417
1084.27859,0.18775
1082.78880,0.17717
1081.29901,0.15512
1079.80922,0.18002
1078.31943,0.19080
1076.82965,0.20160
1075.33986,0.20265
1073.85007,0.20589
1072.36028,0.20636
1070.87049,0.18915
1069.38070,0.23534
1067.89092,0.25065
1066.40113,0.26598
1064.91134,0.33648
1063.42155,0.37097
1061.93176,0.47353
1060.44197,0.57425
1058.95219,0.62621
1057.46240,0.66607
1055.97261,0.70597
1054.48282,0.81704
1052.99303,0.89551
1051.50324,0.88297
1050.01345,0.87480
1048.52367,0.83589
1047.03388,0.84611
1045.54409,0.85635
1044.05430,0.81441
1042.56451,0.76224
1041.07472,0.70047
1039.58494,0.68004
1038.09515,0.60372
1036.60536,0.57837
1035.11557,0.55305
1033.62578,0.47555
1032.13599,0.40647
1030.64620,0.33617
1029.15642,0.28765
1027.66663,0.27596
1026.17684,0.26431
1024.68705,0.24009
1023.19726,0.20751
1021.70747,0.14575
1020.21769,0.14367
1018.72790,0.14596
1017.23811,0.14362
1015.74832,0.14130
1014.25853,0.14211
1012.76874,0.12276
1011.27896,0.09845
1009.78917,0.10400
1008.29938,0.08130
1006.80959,0.06468
1005.31980,0.04809
1003.83001,0.03789
1002.34022,0.01778
1000.85044,0.02223
999.36065,0.02329
997.87086,0.02469
996.38107,0.02611
994.89128,0.03595
993.40149,0.03524
991.91171,0.04419
990.42192,0.07896
988.93213,0.11686
987.44234,0.11967
985.95255,0.12251
984.46276,0.11170
982.97297,0.11521
981.48319,0.07897
979.99340,0.03468
978.50361,0.02785
977.01382,0.02105
975.52403,0.01194
974.03424,0.01622
972.54446,0.02736
971.05467,0.01864
969.56488,0.01988
968.07509,0.01105
966.58530,0.00225
965.09551,0.02226
963.60573,0.02551
962.11594,0.01605
960.62615,0.00879
959.13636,0.01942
957.64657,0.03008
956.15678,0.02879
954.66699,0.02194
953.17721,0.01946
951.68742,0.03193
950.19763,0.02950
948.70784,0.02710
947.21805,0.06387
945.72826,0.07643
944.23848,0.10238
942.74869,0.13519
941.25890,0.14471
939.76911,0.14106
938.27932,0.13743
936.78953,0.17531
935.29974,0.17655
933.80996,0.17937
932.32017,0.21732
930.83038,0.21335
929.34059,0.20940
927.85080,0.21884
926.36101,0.26155
924.87123,0.29062
923.38144,0.32250
921.89165,0.36545
920.40186,0.40841
918.91207,0.52333
917.42228,0.63890
915.93250,0.76723
914.44271,0.99594
912.95292,1.10832
911.46313,1.22072
909.97334,1.45479
908.48355,1.63483
906.99376,1.79935
905.50398,1.94618
904.01419,1.96581
902.52440,1.98545
901.03461,2.00000
899.54482,1.94218
898.05503,1.88127
896.56525,1.66441
895.07546,1.53690
893.58567,1.40942
892.09588,1.12427
890.60609,0.90689
889.11630,0.67244
887.62651,0.48618
886.13673,0.42423
884.64694,0.36230
883.15715,0.28548
881.66736,0.17109
880.17757,0.14466
878.68778,0.11328
877.19800,0.08193
875.70821,0.06738
874.21842,0.05223
872.72863,0.03586
871.23884,0.01206
869.74905,0.01967
868.25927,0.02730
866.76948,0.02377
865.27969,0.00225
863.78990,0.02880
862.30011,0.03146
860.81032,0.03616
859.32053,0.04088
857.83075,0.08866
856.34096,0.06190
854.85117,0.06809
853.36138,0.07649
851.87159,0.08351
850.38180,0.09056
848.89202,0.12979
847.40223,0.12990
845.91244,0.14245
844.42265,0.14556
842.93286,0.14869
841.44307,0.15356
839.95329,0.19231
838.46350,0.20220
836.97371,0.17949
835.48392,0.18818
833.99413,0.19689
832.50434,0.20595
831.01455,0.19048
829.52477,0.18000
828.03498,0.14750
826.54519,0.14733
825.05540,0.14718
823.56561,0.10977
822.07582,0.09197
820.58604,0.08351
819.09625,0.09247
817.60646,0.10146
816.11667,0.10799
814.62688,0.08347
813.13709,0.08446
811.64730,0.07956
810.15752,0.08712
808.66773,0.09470
807.17794,0.10356
805.68815,0.09441
804.19836,0.10518
802.70857,0.09841
801.21879,0.09167
799.72900,0.07827
798.23921,0.09690
796.74942,0.06864
795.25963,0.06790
793.76984,0.06719
792.28006,0.07815
790.79027,0.08945
789.30048,0.11010
787.81069,0.14599
786.32090,0.16793
784.83111,0.18989
783.34132,0.19603
781.85154,0.23730
780.36175,0.24536
778.87196,0.25468
777.38217,0.26402
775.89238,0.27557
774.40259,0.30330
772.91281,0.31116
771.42302,0.30600
769.93323,0.30087
768.44344,0.28240
766.95365,0.22884
765.46386,0.20297
763.97407,0.16251
762.48429,0.14119
760.99450,0.11989
759.50471,0.10405
758.01492,0.10036
756.52513,0.08084
755.03534,0.07813
753.54556,0.07545
752.05577,0.06004
750.56598,0.06362
749.07619,0.04982
747.58640,0.04428
746.09661,0.03877
744.60683,0.04835
743.11704,0.01414
741.62725,0.02656
740.13746,0.01851
738.64767,0.01047
737.15788,0.01738
735.66809,0.00225
734.17831,0.00351
732.68852,0.00651
731.19873,0.00953
729.70894,0.02578
728.21915,0.01658
726.72936,0.01237
725.23958,0.01595
723.74979,0.01863
722.26000,0.02134
720.77021,0.01443
719.28042,0.02713
717.79063,0.00225
716.30084,0.01514
714.81106,0.02805
713.32127,0.01985
711.83148,0.03375
710.34169,0.03430
708.85190,0.03939
707.36211,0.04450
705.87233,0.02991
704.38254,0.04951
702.89275,0.05610
701.40296,0.05401
699.91317,0.05194
698.42338,0.05332
696.93360,0.06279
695.44381,0.09840
693.95402,0.10171
692.46423,0.10505
690.97444,0.12053
689.48465,0.16027
687.99486,0.16493
686.50508,0.18002
685.01529,0.19513
683.52550,0.24243
682.03571,0.27329
680.54592,0.26999
679.05613,0.25118
677.56635,0.23239
676.07656,0.25837
674.58677,0.26077
673.09698,0.21378
671.60719,0.20690
670.11740,0.20005
668.62761,0.18079
667.13783,0.17274
665.64804,0.15586
664.15825,0.13901
662.66846,0.12358
661.17867,0.06778
659.68888,0.05612
658.19910,0.05832
656.70931,0.06055
655.21952,0.04835
653.72973,0.03928
652.23994,0.06006
650.75015,0.05772
649.26037,0.05541
647.77058,0.06135
646.28079,0.03719
644.79100,0.01894
643.30121,0.02621
641.81142,0.03349
640.32163,0.03428
638.83185,0.03820
637.34206,0.02691
635.85227,0.01457
634.36248,0.00225
632.87269,0.00634
631.38290,0.01419
629.89312,0.02175
628.40333,0.01737
626.91354,0.01302
625.42375,0.01537
623.93396,0.01433
622.44417,0.02730
620.95438,0.04029
619.46460,0.03622
617.97481,0.02844
616.48502,0.04927
614.99523,0.05413
613.50544,0.05901
612.01565,0.12000
610.52587,0.15740
609.03608,0.19110
607.54629,0.20322
606.05650,0.21537
604.56671,0.25784
603.07692,0.31929
601.58714,0.35202
600.09735,0.38478
598.60756,0.39566
597.11777,0.42582
595.62798,0.42059
594.13819,0.40948
592.64840,0.39840
591.15862,0.35223
589.66883,0.30049
588.17904,0.26959
586.68925,0.23918
585.19946,0.20880
583.70967,0.13852
582.21989,0.13600
580.73010,0.11237
579.24031,0.08877
577.75052,0.02355
576.26073,0.03604
574.77094,0.02432
573.28115,0.02148
571.79137,0.01867
570.30158,0.06512
568.81179,0.05133
567.32200,0.05340
565.83221,0.05550
564.34242,0.05607
562.85264,0.05853
561.36285,0.07593
559.87306,0.08962
558.38327,0.10334
556.89348,0.13138
555.40369,0.11500
553.91391,0.11746
552.42412,0.11993
550.93433,0.10643
549.44454,0.13211
547.95475,0.15750
546.46496,0.15945
544.97517,0.16143
543.48539,0.18005
541.99560,0.21362
540.50581,0.21738
539.01602,0.22117
537.52623,0.26631
536.03644,0.32110
534.54666,0.38120
533.05687,0.40357
531.56708,0.42597
530.07729,0.47682
528.58750,0.51434
527.09771,0.55235
525.60792,0.59038
524.11814,0.67830
522.62835,0.77495
521.13856,0.77686
519.64877,0.80039
518.15898,0.82394
516.66919,0.83276
515.17941,0.84689
513.68962,0.83121
512.19983,0.81555
510.71004,0.78501
509.22025,0.72995
507.73046,0.68267
506.24068,0.64195
504.75089,0.60125
503.26110,0.45090
501.77131,0.36551
500.28152,0.33762
498.79173,0.30976
497.30194,0.20207
495.81216,0.14412
494.32237,0.12411
492.83258,0.10411
491.34279,0.08974
489.85300,0.06575
488.36321,0.06945
486.87343,0.06136
485.38364,0.05330
483.89385,0.05272
482.40406,0.05713
480.91427,0.06157
479.42448,0.06604
477.93469,0.09259
476.44491,0.12507
474.95512,0.12650
473.46533,0.12796
471.97554,0.12571
470.48575,0.14803
468.99596,0.14552
467.50618,0.15050
466.01639,0.15550
464.52660,0.09030
463.03681,0.06334
461.54702,0.05257
460.05723,0.04182
458.56745,0.02115
457.07766,0.01449
455.58787,0.01018
454.09808,0.00590
452.60829,0.02859
451.11850,0.02955
449.62871,0.02012
448.13893,0.01072
446.64914,0.00896
445.15935,0.00225
443.66956,0.02497
442.17977,0.02487
440.68998,0.02480
439.20020,0.02615
437.71041,0.02473
436.22062,0.02753
434.73083,0.03035
433.24104,0.02279
431.75125,0.01836
430.26146,0.02763
428.77168,0.03692
427.28189,0.02045
425.79210,0.02047
424.30231,0.03403
422.81252,0.04762
421.32273,0.04150
419.83295,0.05715
418.34316,0.03803
416.85337,0.01894
415.36358,0.00608
413.87379,0.02649
412.38400,0.02378
410.89422,0.02110
409.40443,0.03848
407.91464,0.03383
406.42485,0.03665
404.93506,0.04122
403.44527,0.04580
401.95548,0.03752
400.46570,0.03703
398.97591,0.04324
397.48612,0.04948
395.99633,0.04906
394.50654,0.05737
393.01675,0.05187
391.52697,0.04640
390.03718,0.04733
388.54739,0.02715
387.05760,0.01569
385.56781,0.00426
384.07802,0.04733
382.58824,0.04444
381.09845,0.04297
379.60866,0.04153
378.11887,0.05580
376.62908,0.03126
375.13929,0.02011
373.64950,0.00898
372.15972,0.02987
370.66993,0.01786
369.18014,0.02117
367.69035,0.02451
366.20056,0.01809
364.71077,0.02319
363.22099,0.01277
361.73120,0.00238
360.24141,0.03220
358.75162,0.04465
357.26183,0.04826
355.77204,0.05190
354.28225,0.03335
352.79247,0.10120
351.30268,0.08503
349.81289,0.06888
348.32310,0.08491
346.83331,0.06462
345.34352,0.07092
343.85374,0.07724
342.36395,0.05889
340.87416,0.04708
339.38437,0.04851
337.89458,0.04996
336.40479,0.03388
334.91501,0.05044
333.42522,0.02633
331.93543,0.00225
330.44564,0.03200
328.95585,0.06986
327.46606,0.06393
325.97627,0.05802
324.48649,0.10061
322.99670,0.08077
321.50691,0.06780
320.01712,0.05484
318.52733,0.04999
317.03754,0.05729
315.54776,0.05047
314.05797,0.04367
312.56818,0.01873
311.07839,0.02208
309.58860,0.03043
308.09881,0.03880
306.60902,0.05652
305.11924,0.07240
303.62945,0.05490
302.13966,0.03743
300.64987,0.01890
299.16008,0.00225
