1778.52000,0.01531
1777.03021,0.01186
1775.54042,0.00056
1774.05063,0.01174
1772.56085,0.00442
1771.07106,0.00777
1769.58127,0.01508
1768.09148,0.01085
1766.60169,0.00918
1765.11190,0.01193
1763.62212,0.00800
1762.13233,0.00687
1760.64254,0.00275
1759.15275,0.00259
1757.66296,0.00199
1756.17317,0.00442
1754.68339,0.00873
1753.19360,0.00983
1751.70381,0.00585
1750.21402,0.00722
1748.72423,0.00793
1747.23444,0.00680
1745.74465,0.00431
1744.25487,0.00832
1742.76508,0.00125
1741.27529,0.00346
1739.78550,0.00245
1738.29571,0.00525
1736.80592,0.00830
1735.31614,0.00744
1733.82635,0.01007
1732.33656,0.00880
1730.84677,0.01310
1729.35698,0.00770
1727.86719,0.00604
1726.37740,0.00462
1724.88762,0.00323
1723.39783,0.00743
1721.90804,0.01071
1720.41825,0.00199
1718.92846,0.00808
1717.43867,0.01837
1715.94889,0.00460
1714.45910,0.00521
1712.96931,0.00891
1711.47952,0.01078
1709.98973,0.01105
1708.49994,0.00857
1707.01016,0.01121
1705.52037,0.01387
1704.03058,0.01586
1702.54079,0.00467
1701.05100,0.01412
1699.56121,0.00831
1698.07142,0.00206
1696.58164,-0.00000
1695.09185,0.00758
1693.60206,0.02283
1692.11227,0.00199
1690.62248,0.01002
1689.13269,0.00882
1687.64291,0.01390
1686.15312,0.01853
1684.66333,0.01184
1683.17354,0.01583
1681.68375,0.01568
1680.19396,0.01253
1678.70417,0.01659
1677.21439,0.01327
1675.72460,0.02223
1674.23481,0.03748
1672.74502,0.03144
1671.25523,0.03238
1669.76544,0.04538
1668.27566,0.03919
1666.78587,0.04853
1665.29608,0.04308
1663.80629,0.04668
1662.31650,0.05679
1660.82671,0.05488
1659.33693,0.06133
1657.84714,0.05924
1656.35735,0.06366
1654.86756,0.05375
1653.37777,0.06446
1651.88798,0.05783
1650.39819,0.06975
1648.90841,0.06294
1647.41862,0.06820
1645.92883,0.07290
1644.43904,0.07762
1642.94925,0.07993
1641.45946,0.06931
1639.96968,0.07954
1638.47989,0.08934
1636.99010,0.07114
1635.50031,0.07705
1634.01052,0.07025
1632.52073,0.07250
1631.03094,0.08264
1629.54116,0.07197
1628.05137,0.08888
1626.56158,0.09215
1625.07179,0.10656
1623.58200,0.10594
1622.09221,0.09354
1620.60243,0.07515
1619.11264,0.09567
1617.62285,0.09121
1616.13306,0.08933
1614.64327,0.09001
1613.15348,0.09928
1611.66370,0.08219
1610.17391,0.07878
1608.68412,0.10178
1607.19433,0.09934
1605.70454,0.09137
1604.21475,0.08227
1602.72496,0.07319
1601.23518,0.08960
1599.74539,0.08820
1598.25560,0.08776
1596.76581,0.08479
1595.27602,0.08440
1593.78623,0.09792
1592.29645,0.08159
1590.80666,0.07872
1589.31687,0.07125
1587.82708,0.07213
1586.33729,0.07743
1584.84750,0.07627
1583.35771,0.08186
1581.86793,0.08399
1580.37814,0.08221
1578.88835,0.07976
1577.39856,0.06252
1575.90877,0.05896
1574.41898,0.05774
1572.92920,0.04983
1571.43941,0.04935
1569.94962,0.04971
1568.45983,0.05009
1566.97004,0.03649
1565.48025,0.02291
1563.99047,0.03853
1562.50068,0.03333
1561.01089,0.03163
1559.52110,0.02555
1558.03131,0.02598
1556.54152,0.01741
1555.05173,0.03016
1553.56195,0.01770
1552.07216,0.01406
1550.58237,0.01623
1549.09258,0.01194
1547.60279,0.00744
1546.11300,0.01709
1544.62322,0.01149
1543.13343,0.00128
1541.64364,0.00199
1540.15385,0.00797
1538.66406,0.01398
1537.17427,0.01376
1535.68448,0.02398
1534.19470,0.02566
1532.70491,0.01602
1531.21512,0.02284
1529.72533,0.03130
1528.23554,0.01085
1526.74575,0.02955
1525.25597,0.02558
1523.76618,0.03322
1522.27639,0.02097
1520.78660,0.02888
1519.29681,0.02987
1517.80702,0.04269
1516.31724,0.03748
1514.82745,0.05035
1513.33766,0.05225
1511.84787,0.05417
1510.35808,0.04581
1508.86829,0.05021
1507.37850,0.04907
1505.88872,0.03986
1504.39893,0.05683
1502.90914,0.07314
1501.41935,0.08043
1499.92956,0.07479
1498.43977,0.06014
1496.94999,0.05292
1495.46020,0.09180
1493.97041,0.10014
1492.48062,0.11522
1490.99083,0.11759
1489.50104,0.13711
1488.01125,0.13455
1486.52147,0.13202
1485.03168,0.15370
1483.54189,0.19485
1482.05210,0.21773
1480.56231,0.23648
1479.07252,0.22908
1477.58274,0.25389
1476.09295,0.23659
1474.60316,0.25519
1473.11337,0.25739
1471.62358,0.26053
1470.13379,0.26624
1468.64401,0.30254
1467.15422,0.31640
1465.66443,0.33515
1464.17464,0.35392
1462.68485,0.38105
1461.19506,0.41770
1459.70527,0.44765
1458.21549,0.50912
1456.72570,0.56691
1455.23591,0.62217
1453.74612,0.63370
1452.25633,0.66910
1450.76654,0.68947
1449.27676,0.73256
1447.78697,0.71317
1446.29718,0.70120
1444.80739,0.68058
1443.31760,0.65998
1441.82781,0.61799
1440.33802,0.57186
1438.84824,0.51580
1437.35845,0.50560
1435.86866,0.51209
1434.37887,0.53134
1432.88908,0.56450
1431.39929,0.62269
1429.90951,0.71470
1428.41972,0.79007
1426.92993,0.81176
1425.44014,0.84411
1423.95035,0.88263
1422.46056,0.92117
1420.97078,0.96864
1419.48099,0.95225
1417.99120,0.94259
1416.50141,0.98342
1415.01162,0.95598
1413.52183,0.93366
1412.03204,0.86089
1410.54226,0.74486
1409.05247,0.69135
1407.56268,0.63278
1406.07289,0.58766
1404.58310,0.55819
1403.09331,0.52874
1401.60353,0.46586
1400.11374,0.41644
1398.62395,0.37838
1397.13416,0.33248
1395.64437,0.26020
1394.15458,0.23171
1392.66479,0.19329
1391.17501,0.16461
1389.68522,0.14938
1388.19543,0.11844
1386.70564,0.11205
1385.21585,0.10570
1383.72606,0.10006
1382.23628,0.06249
1380.74649,0.03120
1379.25670,0.03027
1377.76691,0.02542
1376.27712,0.00739
1374.78733,0.01093
1373.29755,0.01402
1371.80776,0.00394
1370.31797,0.00199
1368.82818,0.00864
1367.33839,0.01531
1365.84860,0.01714
1364.35881,0.03775
1362.86903,0.04102
1361.37924,0.06793
1359.88945,0.09301
1358.39966,0.10886
1356.90987,0.13468
1355.42008,0.18923
1353.93030,0.23455
1352.44051,0.25929
1350.95072,0.28405
1349.46093,0.35421
1347.97114,0.44592
1346.48135,0.50641
1344.99156,0.56830
1343.50178,0.66935
1342.01199,0.68383
1340.52220,0.75923
1339.03241,0.85526
1337.54262,0.87190
1336.05283,0.88138
1334.56305,0.89089
1333.07326,0.93492
1331.58347,0.95814
1330.09368,0.97259
1328.60389,0.95325
1327.11410,0.90871
1325.62432,0.86604
1324.13453,0.81506
1322.64474,0.77893
1321.15495,0.77592
1319.66516,0.73693
1318.17537,0.69797
1316.68558,0.67420
1315.19580,0.62059
1313.70601,0.54778
1312.21622,0.51251
1310.72643,0.48582
1309.23664,0.45059
1307.74685,0.42812
1306.25707,0.39340
1304.76728,0.37549
1303.27749,0.35761
1301.78770,0.31555
1300.29791,0.26148
1298.80812,0.21346
1297.31834,0.19532
1295.82855,0.16100
1294.33876,0.15402
1292.84897,0.11651
1291.35918,0.11073
1289.86939,0.10672
1288.37960,0.10273
1286.88982,0.08800
1285.40003,0.08719
1283.91024,0.07737
1282.42045,0.07127
1280.93066,0.04043
1279.44087,0.05013
1277.95109,0.03948
1276.46130,0.05200
1274.97151,0.05552
1273.48172,0.05906
1271.99193,0.05105
1270.50214,0.04538
1269.01235,0.02631
1267.52257,0.02531
1266.03278,0.02898
1264.54299,0.02618
1263.05320,0.02340
1261.56341,0.01568
1260.07362,0.00797
1258.58384,0.00666
1257.09405,0.01139
1255.60426,0.00086
1254.11447,0.01355
1252.62468,0.01376
1251.13489,0.00937
1249.64511,0.00199
1248.15532,0.01614
1246.66553,0.01712
1245.17574,0.01813
1243.68595,0.01244
1242.19616,0.01280
1240.70637,0.01110
1239.21659,0.00409
1237.72680,0.01054
1236.23701,0.01701
1234.74722,0.02166
1233.25743,0.02482
1231.76764,0.02801
1230.27786,0.02323
1228.78807,0.01385
1227.29828,0.01051
1225.80849,0.00302
1224.31870,0.00367
1222.82891,0.01383
1221.33912,0.01660
1219.84934,0.02866
1218.35955,0.04074
1216.86976,0.04289
1215.37997,0.05942
1213.89018,0.06324
1212.40039,0.06986
1210.91061,0.06679
1209.42082,0.08156
1207.93103,0.06892
1206.44124,0.05631
1204.95145,0.05147
1203.46166,0.06379
1201.97188,0.06063
1200.48209,0.04753
1198.99230,0.04649
1197.50251,0.03136
1196.01272,0.02852
1194.52293,0.02802
1193.03314,0.02754
1191.54336,0.01250
1190.05357,0.03684
1188.56378,0.00102
1187.07399,0.02570
1185.58420,0.03166
1184.09441,0.03371
1182.60463,0.01784
1181.11484,0.00199
1179.62505,0.01146
1178.13526,0.00916
1176.64547,0.00294
1175.15568,0.00137
1173.66589,0.01810
1172.17611,0.00731
1170.68632,0.00464
1169.19653,0.00199
1167.70674,0.02079
1166.21695,0.01947
1164.72716,0.04295
1163.23738,0.04700
1161.74759,0.05386
1160.25780,0.06051
1158.76801,0.07100
1157.27822,0.08151
1155.78843,0.07990
1154.29865,0.08155
1152.80886,0.09318
1151.31907,0.10761
1149.82928,0.12021
1148.33949,0.12196
1146.84970,0.12292
1145.35991,0.12390
1143.87013,0.15026
1142.38034,0.15488
1140.89055,0.15790
1139.40076,0.17669
1137.91097,0.18555
1136.42118,0.21550
1134.93140,0.21688
1133.44161,0.21828
1131.95182,0.22770
1130.46203,0.25172
1128.97224,0.26906
1127.48245,0.25516
1125.99266,0.27255
1124.50288,0.25083
1123.01309,0.24626
1121.52330,0.24172
1120.03351,0.23258
1118.54372,0.22461
1117.05393,0.24330
1115.56415,0.24858
1114.07436,0.26198
1112.58457,0.25712
1111.09478,0.25229
1109.60499,0.24470
1108.11520,0.24940
1106.62542,0.24880
1105.13563,0.25865
1103.64584,0.23934
1102.15605,0.22910
1100.66626,0.21655
1099.17647,0.20404
1097.68668,0.20636
1096.19690,0.20848
1094.70711,0.20668
1093.21732,0.21209
1091.72753,0.22377
1090.23774,0.22239
1088.74795,0.22104
1087.25817,0.20987
1085.76838,0.19016
1084.27859,0.19709
1082.78880,0.21169
1081.29901,0.20872
1079.80922,0.22337
1078.31943,0.22925
1076.82965,0.23514
1075.33986,0.24176
1073.85007,0.25743
1072.36028,0.25715
1070.87049,0.27935
1069.38070,0.29671
1067.89092,0.32254
1066.40113,0.34840
1064.91134,0.38852
1063.42155,0.46224
1061.93176,0.57186
1060.44197,0.68405
1058.95219,0.81641
1057.46240,0.86220
1055.97261,0.90802
1054.48282,1.00017
1052.99303,1.03793
1051.50324,1.06692
1050.01345,1.07950
1048.52367,1.02890
1047.03388,1.01213
1045.54409,0.99537
1044.05430,0.96637
1042.56451,0.88022
1041.07472,0.83251
1039.58494,0.72626
1038.09515,0.63207
1036.60536,0.59763
1035.11557,0.56322
1033.62578,0.48716
1032.13599,0.42108
1030.64620,0.37470
1029.15642,0.34849
1027.66663,0.31211
1026.17684,0.27576
1024.68705,0.25401
1023.19726,0.22396
1021.70747,0.20064
1020.21769,0.16461
1018.72790,0.12630
1017.23811,0.11509
1015.74832,0.10391
1014.25853,0.09136
1012.76874,0.09365
1011.27896,0.09157
1009.78917,0.07631
1008.29938,0.06386
1006.80959,0.06023
1005.31980,0.05662
1003.83001,0.03798
1002.34022,0.02354
1000.85044,0.03482
999.36065,0.03455
997.87086,0.04831
996.38107,0.06209
994.89128,0.08574
993.40149,0.10802
991.91171,0.10624
990.42192,0.13366
988.93213,0.14745
987.44234,0.14714
985.95255,0.14685
984.46276,0.14913
982.97297,0.14889
981.48319,0.12760
979.99340,0.09407
978.50361,0.08394
977.01382,0.07384
975.52403,0.04964
974.03424,0.02917
972.54446,0.03049
971.05467,0.01678
969.56488,0.00193
968.07509,0.00331
966.58530,0.00471
965.09551,0.01378
963.60573,0.02148
962.11594,0.01022
960.62615,0.00199
959.13636,0.00686
957.64657,0.01176
956.15678,0.01401
954.66699,0.02139
953.17721,0.02786
951.68742,0.03227
950.19763,0.03358
948.70784,0.03491
947.21805,0.05028
945.72826,0.06960
944.23848,0.07135
942.74869,0.09929
941.25890,0.10966
939.76911,0.11461
938.27932,0.11958
936.78953,0.17007
935.29974,0.18678
933.80996,0.18638
932.32017,0.18786
930.83038,0.18682
929.34059,0.18580
927.85080,0.20194
926.36101,0.24218
924.87123,0.29888
923.38144,0.36046
921.89165,0.39081
920.40186,0.42119
918.91207,0.50044
917.42228,0.61467
915.93250,0.76296
914.44271,0.99531
912.95292,1.11424
911.46313,1.23320
909.97334,1.40103
908.48355,1.59042
906.99376,1.78746
905.50398,1.94402
904.01419,1.97200
902.52440,2.00000
901.03461,1.96725
899.54482,1.90189
898.05503,1.77057
896.56525,1.64228
895.07546,1.49619
893.58567,1.35012
892.09588,1.12953
890.60609,0.87262
889.11630,0.63888
887.62651,0.50170
886.13673,0.43401
884.64694,0.36633
883.15715,0.27229
881.66736,0.18614
880.17757,0.12548
878.68778,0.11312
877.19800,0.10078
875.70821,0.08465
874.21842,0.06182
872.72863,0.05221
871.23884,0.04471
869.74905,0.03828
868.25927,0.03187
866.76948,0.00199
865.27969,0.02603
863.78990,0.02625
862.30011,0.05311
860.81032,0.05072
859.32053,0.04835
857.83075,0.06695
856.34096,0.10062
854.85117,0.12159
853.36138,0.13610
851.87159,0.14658
850.38180,0.15708
848.89202,0.18763
847.40223,0.19089
845.91244,0.19719
844.42265,0.20501
842.93286,0.21285
841.44307,0.23010
839.95329,0.26542
838.46350,0.28133
836.97371,0.27966
835.48392,0.28160
833.99413,0.28357
832.50434,0.27781
831.01455,0.25563
829.52477,0.21982
828.03498,0.21019
826.54519,0.18554
825.05540,0.16091
823.56561,0.16200
822.07582,0.17307
820.58604,0.15338
819.09625,0.14945
817.60646,0.14555
816.11667,0.12754
814.62688,0.14568
813.13709,0.14995
811.64730,0.15193
810.15752,0.15335
808.66773,0.15480
807.17794,0.14157
805.68815,0.15684
804.19836,0.14805
802.70857,0.15145
801.21879,0.15486
799.72900,0.15055
798.23921,0.14603
796.74942,0.13783
795.25963,0.14088
793.76984,0.14395
792.28006,0.15295
790.79027,0.16753
789.30048,0.18376
787.81069,0.19978
786.32090,0.22439
784.83111,0.24902
783.34132,0.28154
781.85154,0.29789
780.36175,0.34667
778.87196,0.36457
777.38217,0.38249
775.89238,0.39152
774.40259,0.39479
772.91281,0.40503
771.42302,0.39954
769.93323,0.39409
768.44344,0.33008
766.95365,0.28902
765.46386,0.22737
763.97407,0.19191
762.48429,0.16967
760.99450,0.14746
759.50471,0.14518
758.01492,0.13690
756.52513,0.11452
755.03534,0.10745
753.54556,0.10040
752.05577,0.08667
750.56598,0.07596
749.07619,0.04884
747.58640,0.04594
746.09661,0.04306
744.60683,0.03176
743.11704,0.03252
741.62725,0.02821
740.13746,0.02311
738.64767,0.01804
737.15788,0.00199
735.66809,0.01148
734.17831,0.00872
732.68852,0.00644
731.19873,0.00419
729.70894,0.00868
728.21915,0.01320
726.72936,0.00199
725.23958,0.00477
723.74979,0.01522
722.26000,0.02569
720.77021,0.00632
719.28042,0.00040
717.79063,0.00121
716.30084,0.00194
714.81106,0.00269
713.32127,0.00705
711.83148,0.01190
710.34169,0.02117
708.85190,0.01530
707.36211,0.00946
705.87233,0.01255
704.38254,0.02770
702.89275,0.02737
701.40296,0.02810
699.91317,0.02886
698.42338,0.04388
696.93360,0.07420
695.44381,0.09343
693.95402,0.10169
692.46423,0.10997
690.97444,0.12395
689.48465,0.15509
687.99486,0.17074
686.50508,0.17796
685.01529,0.18520
683.52550,0.20787
682.03571,0.22847
680.54592,0.25049
679.05613,0.25065
677.56635,0.25084
676.07656,0.25695
674.58677,0.25476
673.09698,0.22434
671.60719,0.21467
670.11740,0.20502
668.62761,0.17769
667.13783,0.15315
665.64804,0.14682
664.15825,0.14050
662.66846,0.10840
661.17867,0.08790
659.68888,0.05423
658.19910,0.04720
656.70931,0.04019
655.21952,0.03993
653.72973,0.02556
652.23994,0.03738
650.75015,0.04298
649.26037,0.04860
647.77058,0.03965
646.28079,0.02911
644.79100,0.04012
643.30121,0.03577
641.81142,0.03143
640.32163,0.03927
638.83185,0.03510
637.34206,0.03072
635.85227,0.01746
634.36248,0.00421
632.87269,0.00199
631.38290,0.01553
629.89312,0.01451
628.40333,0.01155
626.91354,0.00861
625.42375,0.01693
623.93396,0.01763
622.44417,0.02078
620.95438,0.02396
619.46460,0.04024
617.97481,0.04635
616.48502,0.07935
614.99523,0.08228
613.50544,0.08522
612.01565,0.12848
610.52587,0.16527
609.03608,0.19492
607.54629,0.22123
606.05650,0.24756
604.56671,0.26501
603.07692,0.33179
601.58714,0.36051
600.09735,0.38925
598.60756,0.42369
597.11777,0.44056
595.62798,0.45120
594.13819,0.44312
592.64840,0.43506
591.15862,0.39738
589.66883,0.31575
588.17904,0.28553
586.68925,0.26078
585.19946,0.23605
583.70967,0.18692
582.21989,0.11513
580.73010,0.09395
579.24031,0.07279
577.75052,0.06705
576.26073,0.07568
574.77094,0.07069
573.28115,0.06235
571.79137,0.05405
570.30158,0.05213
568.81179,0.04769
567.32200,0.06098
565.83221,0.07430
564.34242,0.11484
562.85264,0.12045
561.36285,0.13928
559.87306,0.15825
558.38327,0.17725
556.89348,0.17276
555.40369,0.19331
553.91391,0.20601
552.42412,0.21873
550.93433,0.23055
549.44454,0.22549
547.95475,0.21027
546.46496,0.21510
544.97517,0.21996
543.48539,0.25204
541.99560,0.28321
540.50581,0.28652
539.01602,0.28985
537.52623,0.34263
536.03644,0.37321
534.54666,0.42719
533.05687,0.44925
531.56708,0.47134
530.07729,0.52215
528.58750,0.57368
527.09771,0.58727
525.60792,0.60089
524.11814,0.66453
522.62835,0.72148
521.13856,0.79328
519.64877,0.81405
518.15898,0.83484
516.66919,0.86341
515.17941,0.85821
513.68962,0.85697
512.19983,0.85575
510.71004,0.83857
509.22025,0.78832
507.73046,0.72166
506.24068,0.66694
504.75089,0.61224
503.26110,0.47712
501.77131,0.37235
500.28152,0.32988
498.79173,0.28743
497.30194,0.22927
495.81216,0.20516
494.32237,0.18790
492.83258,0.17067
491.34279,0.12417
489.85300,0.12007
488.36321,0.11506
486.87343,0.09561
485.38364,0.07618
483.89385,0.05851
482.40406,0.09087
480.91427,0.09259
479.42448,0.09432
477.93469,0.12722
476.44491,0.17542
474.95512,0.18579
473.46533,0.19618
471.97554,0.20649
470.48575,0.20362
468.99596,0.18781
467.50618,0.18834
466.01639,0.18890
464.52660,0.13404
463.03681,0.09564
461.54702,0.08678
460.05723,0.07794
458.56745,0.04956
457.07766,0.02954
455.58787,0.02888
454.09808,0.02824
452.60829,0.02844
451.11850,0.01384
449.62871,0.01617
448.13893,0.01852
446.64914,0.01672
445.15935,0.00199
443.66956,0.00303
442.17977,0.01047
440.68998,0.01793
439.20020,0.03039
437.71041,0.00791
436.22062,0.02158
434.73083,0.03527
433.24104,0.01587
431.75125,0.02822
430.26146,0.03874
428.77168,0.04928
427.28189,0.05036
425.79210,0.03224
424.30231,0.03313
422.81252,0.03405
421.32273,0.03013
419.83295,0.02299
418.34316,0.02432
416.85337,0.02568
415.36358,0.02787
413.87379,0.03356
412.38400,0.03406
410.89422,0.03459
409.40443,0.03502
407.91464,0.03733
406.42485,0.03689
404.93506,0.03485
403.44527,0.03283
401.95548,0.05075
400.46570,0.03234
398.97591,0.03236
397.48612,0.03241
395.99633,0.03514
394.50654,0.04068
393.01675,0.03107
391.52697,0.02149
390.03718,0.01622
388.54739,0.01956
387.05760,0.02454
385.56781,0.02955
384.07802,0.00819
382.58824,0.04311
381.09845,0.03904
379.60866,0.03500
378.11887,0.01513
376.62908,0.00199
375.13929,0.00739
373.64950,0.01282
372.15972,0.00449
370.66993,0.02698
369.18014,0.02765
367.69035,0.02835
366.20056,0.01622
364.71077,0.02264
363.22099,0.02943
361.73120,0.03624
360.24141,0.06704
358.75162,0.08235
357.26183,0.06747
355.77204,0.05261
354.28225,0.05526
352.79247,0.05376
351.30268,0.05577
349.81289,0.05779
348.32310,0.07535
346.83331,0.06099
345.34352,0.06621
343.85374,0.07145
342.36395,0.08795
340.87416,0.04127
339.38437,0.03570
337.89458,0.03016
336.40479,0.00879
334.91501,0.00526
333.42522,0.00361
331.93543,0.00199
330.44564,0.02432
328.95585,0.05477
327.46606,0.03374
325.97627,0.01273
324.48649,0.04164
322.99670,0.03445
321.50691,0.03343
320.01712,0.03242
318.52733,0.06235
317.03754,0.08374
315.54776,0.07910
314.05797,0.07449
312.56818,0.09988
311.07839,0.06511
309.58860,0.05512
308.09881,0.04517
306.60902,0.02412
305.11924,0.02139
303.62945,0.01949
302.13966,0.01761
300.64987,0.00199
299.16008,0.00199
