1778.52000,0.01829
1777.03021,0.01084
1775.54042,0.00588
1774.05063,0.01145
1772.56085,0.02301
1771.07106,0.01847
1769.58127,0.01465
1768.09148,0.01331
1766.60169,0.02567
1765.11190,0.01948
1763.62212,0.00279
1762.13233,0.00681
1760.64254,0.01436
1759.15275,0.02719
1757.66296,0.00780
1756.17317,-0.00000
1754.68339,0.00204
1753.19360,0.00656
1751.70381,0.00900
1750.21402,0.00060
1748.72423,0.01465
1747.23444,0.01611
1745.74465,0.00744
1744.25487,0.01140
1742.76508,0.01084
1741.27529,0.01135
1739.78550,0.00207
1738.29571,0.00403
1736.80592,0.01513
1735.31614,0.00382
1733.82635,0.01002
1732.33656,0.01064
1730.84677,0.00884
1729.35698,0.01266
1727.86719,0.02667
1726.37740,0.00636
1724.88762,0.01797
1723.39783,0.02470
1721.90804,0.01358
1720.41825,0.01510
1718.92846,0.00823
1717.43867,0.00279
1715.94889,0.00913
1714.45910,0.00988
1712.96931,0.02223
1711.47952,0.01322
1709.98973,0.01440
1708.49994,0.00789
1707.01016,0.00526
1705.52037,0.00266
1704.03058,0.01130
1702.54079,0.00279
1701.05100,0.03528
1699.56121,0.03590
1698.07142,0.02463
1696.58164,0.01619
1695.09185,0.02986
1693.60206,0.03548
1692.11227,0.02817
1690.62248,0.02473
1689.13269,0.03078
1687.64291,0.04177
1686.15312,0.02999
1684.66333,0.04909
1683.17354,0.07487
1681.68375,0.05160
1680.19396,0.03011
1678.70417,0.04510
1677.21439,0.05731
1675.72460,0.09233
1674.23481,0.08075
1672.74502,0.07130
1671.25523,0.07309
1669.76544,0.08017
1668.27566,0.08972
1666.78587,0.09790
1665.29608,0.09944
1663.80629,0.10065
1662.31650,0.11521
1660.82671,0.10316
1659.33693,0.10655
1657.84714,0.10331
1656.35735,0.09939
1654.86756,0.11197
1653.37777,0.08602
1651.88798,0.08883
1650.39819,0.09658
1648.90841,0.08052
1647.41862,0.08481
1645.92883,0.09035
1644.43904,0.09592
1642.94925,0.11536
1641.45946,0.10573
1639.96968,0.11645
1638.47989,0.11774
1636.99010,0.11239
1635.50031,0.09374
1634.01052,0.08949
1632.52073,0.08071
1631.03094,0.09369
1629.54116,0.09232
1628.05137,0.12497
1626.56158,0.12961
1625.07179,0.11254
1623.58200,0.09549
1622.09221,0.11913
1620.60243,0.13298
1619.11264,0.12022
1617.62285,0.12220
1616.13306,0.11860
1614.64327,0.10486
1613.15348,0.08974
1611.66370,0.10654
1610.17391,0.10479
1608.68412,0.09150
1607.19433,0.11293
1605.70454,0.12422
1604.21475,0.12362
1602.72496,0.12305
1601.23518,0.10672
1599.74539,0.11952
1598.25560,0.11026
1596.76581,0.10592
1595.27602,0.09496
1593.78623,0.12888
1592.29645,0.12112
1590.80666,0.08499
1589.31687,0.06606
1587.82708,0.09623
1586.33729,0.09347
1584.84750,0.10861
1583.35771,0.09294
1581.86793,0.10638
1580.37814,0.09951
1578.88835,0.11335
1577.39856,0.07955
1575.90877,0.08293
1574.41898,0.07161
1572.92920,0.07188
1571.43941,0.06656
1569.94962,0.05444
1568.45983,0.04234
1566.97004,0.05042
1565.48025,0.07745
1563.99047,0.04738
1562.50068,0.03170
1561.01089,0.06581
1559.52110,0.05299
1558.03131,0.06998
1556.54152,0.04844
1555.05173,0.06057
1553.56195,0.04013
1552.07216,0.02217
1550.58237,0.01756
1549.09258,0.01296
1547.60279,0.00279
1546.11300,0.01841
1544.62322,0.01197
1543.13343,0.01116
1541.64364,0.01038
1540.15385,0.01032
1538.66406,0.01029
1537.17427,0.01028
1535.68448,0.01345
1534.19470,0.02787
1532.70491,0.01532
1531.21512,0.00279
1529.72533,0.02069
1528.23554,0.01723
1526.74575,0.04183
1525.25597,0.04683
1523.76618,0.02837
1522.27639,0.05270
1520.78660,0.03570
1519.29681,0.05411
1517.80702,0.07396
1516.31724,0.06754
1514.82745,0.06781
1513.33766,0.06582
1511.84787,0.06386
1510.35808,0.05860
1508.86829,0.04634
1507.37850,0.03727
1505.88872,0.04505
1504.39893,0.06757
1502.90914,0.08416
1501.41935,0.08289
1499.92956,0.10199
1498.43977,0.08465
1496.94999,0.06313
1495.46020,0.08475
1493.97041,0.12672
1492.48062,0.12000
1490.99083,0.11435
1489.50104,0.12170
1488.01125,0.11926
1486.52147,0.11684
1485.03168,0.15511
1483.54189,0.18814
1482.05210,0.19526
1480.56231,0.23184
1479.07252,0.27161
1477.58274,0.27565
1476.09295,0.26429
1474.60316,0.26698
1473.11337,0.26794
1471.62358,0.27488
1470.13379,0.28290
1468.64401,0.27377
1467.15422,0.34913
1465.66443,0.35495
1464.17464,0.36079
1462.68485,0.37629
1461.19506,0.40794
1459.70527,0.47046
1458.21549,0.54387
1456.72570,0.58646
1455.23591,0.67429
1453.74612,0.72394
1452.25633,0.75924
1450.76654,0.78370
1449.27676,0.80329
1447.78697,0.75454
1446.29718,0.75630
1444.80739,0.73933
1443.31760,0.72238
1441.82781,0.69056
1440.33802,0.62302
1438.84824,0.57583
1437.35845,0.56652
1435.86866,0.56389
1434.37887,0.58161
1432.88908,0.59691
1431.39929,0.63606
1429.90951,0.72642
1428.41972,0.84658
1426.92993,0.89177
1425.44014,0.93839
1423.95035,0.97311
1422.46056,1.00786
1420.97078,1.04087
1419.48099,1.00452
1417.99120,1.03689
1416.50141,1.01005
1415.01162,0.90787
1413.52183,0.88879
1412.03204,0.83469
1410.54226,0.72908
1409.05247,0.71954
1407.56268,0.70792
1406.07289,0.64024
1404.58310,0.61009
1403.09331,0.57997
1401.60353,0.50045
1400.11374,0.42271
1398.62395,0.36252
1397.13416,0.31356
1395.64437,0.27095
1394.15458,0.22625
1392.66479,0.19735
1391.17501,0.17513
1389.68522,0.12140
1388.19543,0.11641
1386.70564,0.10338
1385.21585,0.09038
1383.72606,0.05251
1382.23628,0.03150
1380.74649,0.03820
1379.25670,0.01373
1377.76691,0.02082
1376.27712,0.00446
1374.78733,0.00075
1373.29755,0.00056
1371.80776,0.00867
1370.31797,0.00278
1368.82818,0.00498
1367.33839,0.00720
1365.84860,0.00279
1364.35881,0.02217
1362.86903,0.05350
1361.37924,0.07784
1359.88945,0.11201
1358.39966,0.13395
1356.90987,0.15696
1355.42008,0.19472
1353.93030,0.26439
1352.44051,0.29852
1350.95072,0.33267
1349.46093,0.41013
1347.97114,0.51986
1346.48135,0.57459
1344.99156,0.63951
1343.50178,0.73495
1342.01199,0.77433
1340.52220,0.88629
1339.03241,0.89978
1337.54262,0.93713
1336.05283,0.95436
1334.56305,0.97161
1333.07326,1.00167
1331.58347,0.96026
1330.09368,0.96725
1328.60389,0.95463
1327.11410,0.91574
1325.62432,0.84920
1324.13453,0.85803
1322.64474,0.81922
1321.15495,0.78325
1319.66516,0.77989
1318.17537,0.77655
1316.68558,0.69578
1315.19580,0.61960
1313.70601,0.55640
1312.21622,0.52968
1310.72643,0.49423
1309.23664,0.47807
1307.74685,0.45634
1306.25707,0.44724
1304.76728,0.42293
1303.27749,0.39864
1301.78770,0.35071
1300.29791,0.29475
1298.80812,0.24792
1297.31834,0.18535
1295.82855,0.16346
1294.33876,0.13354
1292.84897,0.10539
1291.35918,0.09899
1289.86939,0.09578
1288.37960,0.09259
1286.88982,0.08417
1285.40003,0.08418
1283.91024,0.06564
1282.42045,0.06220
1280.93066,0.05213
1279.44087,0.04943
1277.95109,0.04852
1276.46130,0.04868
1274.97151,0.04905
1273.48172,0.04943
1271.99193,0.04301
1270.50214,0.03135
1269.01235,0.03585
1267.52257,0.04983
1266.03278,0.04070
1264.54299,0.02739
1263.05320,0.01165
1261.56341,0.01364
1260.07362,0.01565
1258.58384,0.00279
1257.09405,0.02393
1255.60426,0.04509
1254.11447,0.03649
1252.62468,0.02441
1251.13489,0.00464
1249.64511,0.01854
1248.15532,0.02055
1246.66553,0.02241
1245.17574,0.02430
1243.68595,0.02148
1242.19616,0.01272
1240.70637,0.01030
1239.21659,0.00755
1237.72680,0.02445
1236.23701,0.01790
1234.74722,0.01698
1233.25743,0.01801
1231.76764,0.01907
1230.27786,0.03539
1228.78807,0.03282
1227.29828,0.02852
1225.80849,0.00636
1224.31870,0.00632
1222.82891,0.00279
1221.33912,0.01923
1219.84934,0.02202
1218.35955,0.02483
1216.86976,0.05607
1215.37997,0.05893
1213.89018,0.07234
1212.40039,0.07070
1210.91061,0.08380
1209.42082,0.06223
1207.93103,0.05471
1206.44124,0.04720
1204.95145,0.07933
1203.46166,0.05191
1201.97188,0.05780
1200.48209,0.06757
1198.99230,0.06475
1197.50251,0.08018
1196.01272,0.04586
1194.52293,0.03032
1193.03314,0.01481
1191.54336,0.00230
1190.05357,0.00989
1188.56378,0.02205
1187.07399,0.02198
1185.58420,0.01737
1184.09441,0.03137
1182.60463,0.01735
1181.11484,0.00335
1179.62505,0.01602
1178.13526,0.01188
1176.64547,0.01268
1175.15568,0.02122
1173.66589,0.00279
1172.17611,0.01209
1170.68632,0.00933
1169.19653,0.00659
1167.70674,0.01000
1166.21695,0.01976
1164.72716,0.03374
1163.23738,0.03337
1161.74759,0.02743
1160.25780,0.04359
1158.76801,0.04698
1157.27822,0.05039
1155.78843,0.05576
1154.29865,0.06150
1152.80886,0.09601
1151.31907,0.11863
1149.82928,0.10727
1148.33949,0.10435
1146.84970,0.10549
1145.35991,0.10665
1143.87013,0.11046
1142.38034,0.16547
1140.89055,0.14760
1139.40076,0.16341
1137.91097,0.18134
1136.42118,0.20631
1134.93140,0.23866
1133.44161,0.27104
1131.95182,0.25367
1130.46203,0.26191
1128.97224,0.23057
1127.48245,0.22204
1125.99266,0.24402
1124.50288,0.25797
1123.01309,0.25109
1121.52330,0.24423
1120.03351,0.25300
1118.54372,0.25828
1117.05393,0.26500
1115.56415,0.25841
1114.07436,0.27674
1112.58457,0.26039
1111.09478,0.24407
1109.60499,0.22707
1108.11520,0.24480
1106.62542,0.23907
1105.13563,0.26525
1103.64584,0.26027
1102.15605,0.26863
1100.66626,0.23917
1099.17647,0.20972
1097.68668,0.19397
1096.19690,0.20804
1094.70711,0.20741
1093.21732,0.20050
1091.72753,0.19677
1090.23774,0.17238
1088.74795,0.14802
1087.25817,0.16083
1085.76838,0.15860
1084.27859,0.18093
1082.78880,0.17699
1081.29901,0.17168
1079.80922,0.15903
1078.31943,0.18023
1076.82965,0.20146
1075.33986,0.18292
1073.85007,0.20647
1072.36028,0.21778
1070.87049,0.18776
1069.38070,0.21068
1067.89092,0.23591
1066.40113,0.26116
1064.91134,0.30940
1063.42155,0.38500
1061.93176,0.46377
1060.44197,0.53942
1058.95219,0.58881
1057.46240,0.62420
1055.97261,0.65961
1054.48282,0.78898
1052.99303,0.84548
1051.50324,0.83610
1050.01345,0.79521
1048.52367,0.83075
1047.03388,0.81076
1045.54409,0.79079
1044.05430,0.74264
1042.56451,0.67908
1041.07472,0.67584
1039.58494,0.63372
1038.09515,0.56814
1036.60536,0.53815
1035.11557,0.50820
1033.62578,0.46863
1032.13599,0.38352
1030.64620,0.33874
1029.15642,0.27120
1027.66663,0.25977
1026.17684,0.24836
1024.68705,0.22997
1023.19726,0.20669
1021.70747,0.14734
1020.21769,0.15146
1018.72790,0.13842
1017.23811,0.13505
1015.74832,0.13170
1014.25853,0.12014
1012.76874,0.10335
1011.27896,0.09920
1009.78917,0.09437
1008.29938,0.08746
1006.80959,0.06902
1005.31980,0.05060
1003.83001,0.01292
1002.34022,0.00892
1000.85044,0.01195
999.36065,0.03814
997.87086,0.03386
996.38107,0.02961
994.89128,0.05657
993.40149,0.03975
991.91171,0.03172
990.42192,0.06927
988.93213,0.08757
987.44234,0.10012
985.95255,0.11269
984.46276,0.11248
982.97297,0.08041
981.48319,0.07571
979.99340,0.06752
978.50361,0.05953
977.01382,0.05157
975.52403,0.03820
974.03424,0.00768
972.54446,0.00697
971.05467,0.00279
969.56488,0.00672
968.07509,0.00595
966.58530,0.00520
965.09551,0.01237
963.60573,0.01289
962.11594,0.01064
960.62615,0.00211
959.13636,0.00659
957.64657,0.01109
956.15678,0.04313
954.66699,0.03033
953.17721,0.02773
951.68742,0.03250
950.19763,0.02819
948.70784,0.02391
947.21805,0.05189
945.72826,0.09217
944.23848,0.10688
942.74869,0.11496
941.25890,0.13744
939.76911,0.14206
938.27932,0.14671
936.78953,0.16085
935.29974,0.15959
933.80996,0.18919
932.32017,0.22338
930.83038,0.22045
929.34059,0.21753
927.85080,0.20343
926.36101,0.25910
924.87123,0.29586
923.38144,0.34072
921.89165,0.37333
920.40186,0.40596
918.91207,0.51117
917.42228,0.63919
915.93250,0.74796
914.44271,0.98223
912.95292,1.12557
911.46313,1.26893
909.97334,1.44124
908.48355,1.74465
906.99376,1.89528
905.50398,1.96987
904.01419,1.96597
902.52440,1.96210
901.03461,1.99331
899.54482,2.00000
898.05503,1.86267
896.56525,1.72115
895.07546,1.57510
893.58567,1.42908
892.09588,1.14919
890.60609,0.87389
889.11630,0.64487
887.62651,0.46495
886.13673,0.40282
884.64694,0.34071
883.15715,0.27793
881.66736,0.20536
880.17757,0.13281
878.68778,0.10357
877.19800,0.07436
875.70821,0.07024
874.21842,0.04896
872.72863,0.01299
871.23884,0.00543
869.74905,0.01139
868.25927,0.01738
866.76948,0.02216
865.27969,0.00279
863.78990,0.03853
862.30011,0.02698
860.81032,0.03912
859.32053,0.05127
857.83075,0.06188
856.34096,0.08688
854.85117,0.08562
853.36138,0.08298
851.87159,0.09176
850.38180,0.10056
848.89202,0.10746
847.40223,0.14277
845.91244,0.13780
844.42265,0.15844
842.93286,0.17911
841.44307,0.18683
839.95329,0.19002
838.46350,0.21147
836.97371,0.21190
835.48392,0.21149
833.99413,0.21110
832.50434,0.20810
831.01455,0.19112
829.52477,0.18572
828.03498,0.16843
826.54519,0.16133
825.05540,0.15425
823.56561,0.10654
822.07582,0.08725
820.58604,0.07849
819.09625,0.07187
817.60646,0.06526
816.11667,0.07341
814.62688,0.09034
813.13709,0.09257
811.64730,0.08502
810.15752,0.08502
808.66773,0.08505
807.17794,0.09370
805.68815,0.09781
804.19836,0.10825
802.70857,0.10242
801.21879,0.09662
799.72900,0.08435
798.23921,0.08999
796.74942,0.09215
795.25963,0.07593
793.76984,0.05973
792.28006,0.06161
790.79027,0.09751
789.30048,0.11872
787.81069,0.15818
786.32090,0.16927
784.83111,0.18038
783.34132,0.21255
781.85154,0.25246
780.36175,0.26540
778.87196,0.30133
777.38217,0.33728
775.89238,0.32366
774.40259,0.32724
772.91281,0.31787
771.42302,0.32641
769.93323,0.33496
768.44344,0.29308
766.95365,0.26453
765.46386,0.21919
763.97407,0.15810
762.48429,0.15136
760.99450,0.14465
759.50471,0.13340
758.01492,0.08924
756.52513,0.09346
755.03534,0.09999
753.54556,0.10654
752.05577,0.09367
750.56598,0.08292
749.07619,0.03925
747.58640,0.04871
746.09661,0.05819
744.60683,0.04193
743.11704,0.01589
741.62725,0.00845
740.13746,0.02135
738.64767,0.03429
737.15788,0.03638
735.66809,0.02378
734.17831,0.00279
732.68852,0.01256
731.19873,0.02236
729.70894,0.01308
728.21915,0.01084
726.72936,0.02404
725.23958,0.01378
723.74979,0.01844
722.26000,0.02313
720.77021,0.00909
719.28042,0.00279
717.79063,0.00697
716.30084,0.00539
714.81106,0.00383
713.32127,0.00143
711.83148,0.00325
710.34169,0.02613
708.85190,0.02240
707.36211,0.01869
705.87233,0.02306
704.38254,0.03658
702.89275,0.02803
701.40296,0.03476
699.91317,0.04152
698.42338,0.04461
696.93360,0.07052
695.44381,0.09750
693.95402,0.10505
692.46423,0.11263
690.97444,0.12076
689.48465,0.16747
687.99486,0.19247
686.50508,0.19734
685.01529,0.20224
683.52550,0.22732
682.03571,0.26609
680.54592,0.25827
679.05613,0.26099
677.56635,0.26373
676.07656,0.27701
674.58677,0.26859
673.09698,0.25914
671.60719,0.23464
670.11740,0.21017
668.62761,0.18572
667.13783,0.18023
665.64804,0.15828
664.15825,0.13636
662.66846,0.11903
661.17867,0.08699
659.68888,0.07847
658.19910,0.06646
656.70931,0.05448
655.21952,0.04462
653.72973,0.03900
652.23994,0.04952
650.75015,0.04500
649.26037,0.04050
647.77058,0.03603
646.28079,0.03123
644.79100,0.01875
643.30121,0.01452
641.81142,0.01032
640.32163,0.03997
638.83185,0.02583
637.34206,0.00681
635.85227,0.00813
634.36248,0.00948
632.87269,0.00279
631.38290,0.01270
629.89312,0.00861
628.40333,0.00525
626.91354,0.00192
625.42375,0.01192
623.93396,0.03633
622.44417,0.04165
620.95438,0.04700
619.46460,0.05150
617.97481,0.05217
616.48502,0.07004
614.99523,0.07461
613.50544,0.07921
612.01565,0.11397
610.52587,0.17225
609.03608,0.17657
607.54629,0.19739
606.05650,0.21823
604.56671,0.26434
603.07692,0.34902
601.58714,0.39255
600.09735,0.43610
598.60756,0.44374
597.11777,0.46579
595.62798,0.46893
594.13819,0.46088
592.64840,0.45286
591.15862,0.43890
589.66883,0.36223
588.17904,0.28102
586.68925,0.26696
585.19946,0.25293
583.70967,0.18652
582.21989,0.13381
580.73010,0.10688
579.24031,0.07997
577.75052,0.06869
576.26073,0.03676
574.77094,0.03008
573.28115,0.04060
571.79137,0.05115
570.30158,0.04945
568.81179,0.07968
567.32200,0.07944
565.83221,0.07922
564.34242,0.08778
562.85264,0.08867
561.36285,0.09658
559.87306,0.12047
558.38327,0.14439
556.89348,0.14221
555.40369,0.16355
553.91391,0.16282
552.42412,0.16213
550.93433,0.14358
549.44454,0.15555
547.95475,0.17490
546.46496,0.17886
544.97517,0.18285
543.48539,0.19772
541.99560,0.23680
540.50581,0.24734
539.01602,0.25791
537.52623,0.29356
536.03644,0.36043
534.54666,0.43714
533.05687,0.46900
531.56708,0.50090
530.07729,0.59661
528.58750,0.63101
527.09771,0.66350
525.60792,0.69602
524.11814,0.78341
522.62835,0.90413
521.13856,0.95933
519.64877,0.95883
518.15898,0.95835
516.66919,0.97577
515.17941,0.94555
513.68962,0.95356
512.19983,0.96159
510.71004,0.86870
509.22025,0.85330
507.73046,0.82635
506.24068,0.74441
504.75089,0.66249
503.26110,0.52556
501.77131,0.46577
500.28152,0.39251
498.79173,0.31927
497.30194,0.25535
495.81216,0.19566
494.32237,0.17507
492.83258,0.15451
491.34279,0.10716
489.85300,0.10294
488.36321,0.09104
486.87343,0.07881
485.38364,0.06661
483.89385,0.06460
482.40406,0.09906
480.91427,0.11532
479.42448,0.13161
477.93469,0.12268
476.44491,0.13797
474.95512,0.14469
473.46533,0.15144
471.97554,0.16259
470.48575,0.17552
468.99596,0.19338
467.50618,0.19392
466.01639,0.19448
464.52660,0.14582
463.03681,0.08282
461.54702,0.07346
460.05723,0.06413
458.56745,0.05869
457.07766,0.00279
455.58787,0.02511
454.09808,0.04745
452.60829,0.06193
451.11850,0.02771
449.62871,0.02927
448.13893,0.03086
446.64914,0.03773
445.15935,0.01973
443.66956,0.00036
442.17977,0.00047
440.68998,0.00060
439.20020,0.02021
437.71041,0.01601
436.22062,0.01867
434.73083,0.02135
433.24104,0.02249
431.75125,0.03591
430.26146,0.03569
428.77168,0.03549
427.28189,0.02060
425.79210,0.03693
424.30231,0.04084
422.81252,0.04477
421.32273,0.03523
419.83295,0.05026
418.34316,0.03008
416.85337,0.00993
415.36358,0.00400
413.87379,0.02087
412.38400,0.03216
410.89422,0.04348
409.40443,0.03905
407.91464,0.05182
406.42485,0.04568
404.93506,0.03747
403.44527,0.02928
401.95548,0.03269
400.46570,0.01894
398.97591,0.03203
397.48612,0.04515
395.99633,0.07038
394.50654,0.04762
393.01675,0.05117
391.52697,0.05475
390.03718,0.00963
388.54739,0.00639
387.05760,0.00458
385.56781,0.00279
384.07802,0.02363
382.58824,0.03608
381.09845,0.03260
379.60866,0.02916
378.11887,0.03818
376.62908,0.02128
375.13929,0.01879
373.64950,0.01631
372.15972,0.07590
370.66993,0.04614
369.18014,0.03007
367.69035,0.01403
366.20056,0.02118
364.71077,0.03010
363.22099,0.02363
361.73120,0.01718
360.24141,0.03810
358.75162,0.06325
357.26183,0.05880
355.77204,0.05438
354.28225,0.06804
352.79247,0.07471
351.30268,0.07930
349.81289,0.08391
348.32310,0.07103
346.83331,0.06939
345.34352,0.07863
343.85374,0.08790
342.36395,0.08634
340.87416,0.04413
339.38437,0.02789
337.89458,0.01168
336.40479,0.03019
334.91501,0.03154
333.42522,0.01715
331.93543,0.00279
330.44564,0.02048
328.95585,0.05327
327.46606,0.05996
325.97627,0.06669
324.48649,0.10726
322.99670,0.11876
321.50691,0.08718
320.01712,0.05562
318.52733,0.06545
317.03754,0.07180
315.54776,0.05696
314.05797,0.04215
312.56818,0.03631
311.07839,0.02172
309.58860,0.01224
308.09881,0.00279
306.60902,0.03422
305.11924,0.06497
303.62945,0.05159
302.13966,0.03822
300.64987,0.00491
299.16008,0.00279
