1778.52000,0.01042
1777.03021,0.01944
1775.54042,0.00977
1774.05063,0.01280
1772.56085,0.00859
1771.07106,0.01126
1769.58127,0.00667
1768.09148,0.01521
1766.60169,0.01587
1765.11190,0.01490
1763.62212,0.00958
1762.13233,0.00719
1760.64254,0.00920
1759.15275,0.00873
1757.66296,0.00746
1756.17317,0.00517
1754.68339,0.00374
1753.19360,0.00420
1751.70381,0.00947
1750.21402,0.00000
1748.72423,0.01488
1747.23444,0.00629
1745.74465,0.01311
1744.25487,0.01060
1742.76508,0.01455
1741.27529,0.01043
1739.78550,0.00632
1738.29571,0.00973
1736.80592,0.00733
1735.31614,0.00746
1733.82635,0.01498
1732.33656,0.00526
1730.84677,0.00950
1729.35698,0.00565
1727.86719,0.01264
1726.37740,0.01675
1724.88762,0.01027
1723.39783,0.01442
1721.90804,0.01194
1720.41825,0.01011
1718.92846,0.01204
1717.43867,0.01421
1715.94889,0.00746
1714.45910,0.02112
1712.96931,0.01422
1711.47952,0.01213
1709.98973,0.01214
1708.49994,0.01155
1707.01016,0.00994
1705.52037,0.00836
1704.03058,0.01366
1702.54079,0.00464
1701.05100,0.00963
1699.56121,0.00611
1698.07142,0.00740
1696.58164,0.01266
1695.09185,0.00839
1693.60206,0.00746
1692.11227,0.01104
1690.62248,0.00904
1689.13269,0.01537
1687.64291,0.00800
1686.15312,0.02478
1684.66333,0.02703
1683.17354,0.02514
1681.68375,0.02078
1680.19396,0.01853
1678.70417,0.01630
1677.21439,0.03322
1675.72460,0.04039
1674.23481,0.03594
1672.74502,0.03610
1671.25523,0.04230
1669.76544,0.04708
1668.27566,0.05291
1666.78587,0.04983
1665.29608,0.06300
1663.80629,0.05913
1662.31650,0.05446
1660.82671,0.08267
1659.33693,0.06744
1657.84714,0.06617
1656.35735,0.06950
1654.86756,0.06765
1653.37777,0.06791
1651.88798,0.06756
1650.39819,0.07992
1648.90841,0.06632
1647.41862,0.07769
1645.92883,0.07869
1644.43904,0.07971
1642.94925,0.07993
1641.45946,0.08578
1639.96968,0.08376
1638.47989,0.08675
1636.99010,0.08457
1635.50031,0.08137
1634.01052,0.07237
1632.52073,0.08107
1631.03094,0.08564
1629.54116,0.09480
1628.05137,0.09962
1626.56158,0.08721
1625.07179,0.08917
1623.58200,0.09053
1622.09221,0.09378
1620.60243,0.10039
1619.11264,0.10577
1617.62285,0.09371
1616.13306,0.09373
1614.64327,0.07361
1613.15348,0.07971
1611.66370,0.08023
1610.17391,0.08617
1608.68412,0.08194
1607.19433,0.08565
1605.70454,0.09436
1604.21475,0.09697
1602.72496,0.09960
1601.23518,0.09300
1599.74539,0.09433
1598.25560,0.09838
1596.76581,0.09165
1595.27602,0.10095
1593.78623,0.08761
1592.29645,0.08469
1590.80666,0.07743
1589.31687,0.07144
1587.82708,0.08626
1586.33729,0.08344
1584.84750,0.08542
1583.35771,0.10177
1581.86793,0.09008
1580.37814,0.08320
1578.88835,0.08714
1577.39856,0.07282
1575.90877,0.06268
1574.41898,0.05506
1572.92920,0.05058
1571.43941,0.06234
1569.94962,0.05157
1568.45983,0.04082
1566.97004,0.04372
1565.48025,0.04435
1563.99047,0.04833
1562.50068,0.04423
1561.01089,0.02725
1559.52110,0.03276
1558.03131,0.03040
1556.54152,0.03263
1555.05173,0.03571
1553.56195,0.01761
1552.07216,0.02179
1550.58237,0.01621
1549.09258,0.00962
1547.60279,0.02281
1546.11300,0.01336
1544.62322,0.00746
1543.13343,0.01216
1541.64364,0.01023
1540.15385,0.01300
1538.66406,0.01579
1537.17427,0.01061
1535.68448,0.01875
1534.19470,0.01860
1532.70491,0.00746
1531.21512,0.00976
1529.72533,0.02351
1528.23554,0.02731
1526.74575,0.03259
1525.25597,0.02770
1523.76618,0.03241
1522.27639,0.03443
1520.78660,0.03586
1519.29681,0.04313
1517.80702,0.04668
1516.31724,0.05129
1514.82745,0.03763
1513.33766,0.03939
1511.84787,0.04116
1510.35808,0.04400
1508.86829,0.05414
1507.37850,0.04705
1505.88872,0.04601
1504.39893,0.05165
1502.90914,0.06272
1501.41935,0.07360
1499.92956,0.06954
1498.43977,0.06654
1496.94999,0.07188
1495.46020,0.07517
1493.97041,0.08472
1492.48062,0.09034
1490.99083,0.10223
1489.50104,0.10706
1488.01125,0.11463
1486.52147,0.12222
1485.03168,0.16061
1483.54189,0.17656
1482.05210,0.21936
1480.56231,0.21935
1479.07252,0.24474
1477.58274,0.24665
1476.09295,0.25170
1474.60316,0.25886
1473.11337,0.27207
1471.62358,0.26285
1470.13379,0.27008
1468.64401,0.29189
1467.15422,0.31767
1465.66443,0.31780
1464.17464,0.31795
1462.68485,0.34713
1461.19506,0.36261
1459.70527,0.42553
1458.21549,0.49200
1456.72570,0.55184
1455.23591,0.62002
1453.74612,0.66764
1452.25633,0.70053
1450.76654,0.73198
1449.27676,0.73164
1447.78697,0.70243
1446.29718,0.69882
1444.80739,0.67631
1443.31760,0.65382
1441.82781,0.60599
1440.33802,0.55506
1438.84824,0.50978
1437.35845,0.49466
1435.86866,0.50224
1434.37887,0.48780
1432.88908,0.54532
1431.39929,0.59912
1429.90951,0.70659
1428.41972,0.76044
1426.92993,0.82118
1425.44014,0.88735
1423.95035,0.90998
1422.46056,0.93263
1420.97078,0.95064
1419.48099,0.91626
1417.99120,0.93702
1416.50141,0.90124
1415.01162,0.86694
1413.52183,0.83516
1412.03204,0.79426
1410.54226,0.73050
1409.05247,0.66990
1407.56268,0.63489
1406.07289,0.58888
1404.58310,0.55028
1403.09331,0.51170
1401.60353,0.44601
1400.11374,0.38077
1398.62395,0.35443
1397.13416,0.29505
1395.64437,0.25004
1394.15458,0.22065
1392.66479,0.19420
1391.17501,0.14677
1389.68522,0.13159
1388.19543,0.10313
1386.70564,0.09320
1385.21585,0.08329
1383.72606,0.04908
1382.23628,0.04774
1380.74649,0.04040
1379.25670,0.02789
1377.76691,0.01394
1376.27712,0.01145
1374.78733,0.01086
1373.29755,0.01944
1371.80776,0.00746
1370.31797,0.01109
1368.82818,0.00985
1367.33839,0.00864
1365.84860,0.01959
1364.35881,0.03992
1362.86903,0.03989
1361.37924,0.05902
1359.88945,0.09813
1358.39966,0.12084
1356.90987,0.13879
1355.42008,0.19378
1353.93030,0.24712
1352.44051,0.27981
1350.95072,0.31251
1349.46093,0.38589
1347.97114,0.46449
1346.48135,0.53480
1344.99156,0.61657
1343.50178,0.67299
1342.01199,0.74483
1340.52220,0.81336
1339.03241,0.87173
1337.54262,0.90496
1336.05283,0.90173
1334.56305,0.89852
1333.07326,0.93079
1331.58347,0.93563
1330.09368,0.89788
1328.60389,0.91504
1327.11410,0.87858
1325.62432,0.84360
1324.13453,0.81363
1322.64474,0.77911
1321.15495,0.74670
1319.66516,0.72814
1318.17537,0.70960
1316.68558,0.64212
1315.19580,0.57862
1313.70601,0.55069
1312.21622,0.52071
1310.72643,0.49907
1309.23664,0.47391
1307.74685,0.44026
1306.25707,0.41017
1304.76728,0.39361
1303.27749,0.37708
1301.78770,0.31982
1300.29791,0.27506
1298.80812,0.21806
1297.31834,0.18249
1295.82855,0.16005
1294.33876,0.14699
1292.84897,0.11961
1291.35918,0.10701
1289.86939,0.10151
1288.37960,0.09603
1286.88982,0.07373
1285.40003,0.06955
1283.91024,0.06351
1282.42045,0.07185
1280.93066,0.05901
1279.44087,0.05700
1277.95109,0.04587
1276.46130,0.04079
1274.97151,0.03979
1273.48172,0.03881
1271.99193,0.03235
1270.50214,0.02279
1269.01235,0.03488
1267.52257,0.03472
1266.03278,0.00902
1264.54299,0.01993
1263.05320,0.00675
1261.56341,0.01023
1260.07362,0.01373
1258.58384,0.01018
1257.09405,0.01311
1255.60426,0.02853
1254.11447,0.02423
1252.62468,0.01309
1251.13489,0.00966
1249.64511,0.01500
1248.15532,0.00746
1246.66553,0.00862
1245.17574,0.00981
1243.68595,0.01310
1242.19616,0.02556
1240.70637,0.01102
1239.21659,0.02374
1237.72680,0.02837
1236.23701,0.03116
1234.74722,0.02149
1233.25743,0.02162
1231.76764,0.02178
1230.27786,0.03443
1228.78807,0.04857
1227.29828,0.03861
1225.80849,0.00746
1224.31870,0.01641
1222.82891,0.01977
1221.33912,0.02315
1219.84934,0.02863
1218.35955,0.03414
1216.86976,0.06712
1215.37997,0.06436
1213.89018,0.07451
1212.40039,0.08511
1210.91061,0.08637
1209.42082,0.07497
1207.93103,0.07098
1206.44124,0.06702
1204.95145,0.07835
1203.46166,0.08244
1201.97188,0.06867
1200.48209,0.07945
1198.99230,0.05617
1197.50251,0.05848
1196.01272,0.04625
1194.52293,0.03874
1193.03314,0.03124
1191.54336,0.03323
1190.05357,0.02755
1188.56378,0.02252
1187.07399,0.01959
1185.58420,0.02688
1184.09441,0.03003
1182.60463,0.02956
1181.11484,0.02912
1179.62505,0.02049
1178.13526,0.00752
1176.64547,0.00746
1175.15568,0.02046
1173.66589,0.01601
1172.17611,0.02781
1170.68632,0.02705
1169.19653,0.02631
1167.70674,0.02695
1166.21695,0.02678
1164.72716,0.02685
1163.23738,0.03899
1161.74759,0.03495
1160.25780,0.05733
1158.76801,0.06716
1157.27822,0.07701
1155.78843,0.08969
1154.29865,0.09408
1152.80886,0.10682
1151.31907,0.10647
1149.82928,0.09596
1148.33949,0.14432
1146.84970,0.13417
1145.35991,0.12405
1143.87013,0.14690
1142.38034,0.17893
1140.89055,0.17709
1139.40076,0.17195
1137.91097,0.19137
1136.42118,0.21996
1134.93140,0.21405
1133.44161,0.20818
1131.95182,0.22790
1130.46203,0.23600
1128.97224,0.22271
1127.48245,0.22919
1125.99266,0.24838
1124.50288,0.26635
1123.01309,0.25742
1121.52330,0.24851
1120.03351,0.25491
1118.54372,0.25280
1117.05393,0.25176
1115.56415,0.25823
1114.07436,0.24664
1112.58457,0.23808
1111.09478,0.22955
1109.60499,0.21553
1108.11520,0.22170
1106.62542,0.23435
1105.13563,0.23911
1103.64584,0.23850
1102.15605,0.24061
1100.66626,0.23546
1099.17647,0.23035
1097.68668,0.21402
1096.19690,0.21706
1094.70711,0.21222
1093.21732,0.20595
1091.72753,0.17808
1090.23774,0.17425
1088.74795,0.17045
1087.25817,0.18590
1085.76838,0.17891
1084.27859,0.19795
1082.78880,0.18810
1081.29901,0.19658
1079.80922,0.21984
1078.31943,0.21329
1076.82965,0.20677
1075.33986,0.23197
1073.85007,0.23059
1072.36028,0.23442
1070.87049,0.26386
1069.38070,0.29478
1067.89092,0.30108
1066.40113,0.30740
1064.91134,0.38039
1063.42155,0.47981
1061.93176,0.55638
1060.44197,0.64565
1058.95219,0.74286
1057.46240,0.78332
1055.97261,0.82381
1054.48282,0.93876
1052.99303,0.99489
1051.50324,0.99157
1050.01345,0.98787
1048.52367,0.97588
1047.03388,0.95839
1045.54409,0.94094
1044.05430,0.90011
1042.56451,0.80650
1041.07472,0.75200
1039.58494,0.67839
1038.09515,0.61646
1036.60536,0.58012
1035.11557,0.54380
1033.62578,0.46260
1032.13599,0.40450
1030.64620,0.33707
1029.15642,0.28755
1027.66663,0.28420
1026.17684,0.28088
1024.68705,0.24266
1023.19726,0.20217
1021.70747,0.16753
1020.21769,0.16035
1018.72790,0.14177
1017.23811,0.13287
1015.74832,0.12400
1014.25853,0.10674
1012.76874,0.10654
1011.27896,0.08953
1009.78917,0.09105
1008.29938,0.06972
1006.80959,0.05403
1005.31980,0.03837
1003.83001,0.03707
1002.34022,0.03060
1000.85044,0.04702
999.36065,0.04497
997.87086,0.05666
996.38107,0.06837
994.89128,0.08032
993.40149,0.08813
991.91171,0.11988
990.42192,0.15165
988.93213,0.17284
987.44234,0.18075
985.95255,0.18868
984.46276,0.16961
982.97297,0.16220
981.48319,0.13465
979.99340,0.10504
978.50361,0.09147
977.01382,0.07792
975.52403,0.07022
974.03424,0.05090
972.54446,0.04470
971.05467,0.03458
969.56488,0.02136
968.07509,0.01440
966.58530,0.00746
965.09551,0.01902
963.60573,0.01625
962.11594,0.00810
960.62615,0.00746
959.13636,0.01407
957.64657,0.02071
956.15678,0.02082
954.66699,0.02512
953.17721,0.02195
951.68742,0.02088
950.19763,0.02369
948.70784,0.02652
947.21805,0.05797
945.72826,0.08590
944.23848,0.10117
942.74869,0.10483
941.25890,0.13179
939.76911,0.12759
938.27932,0.12342
936.78953,0.14193
935.29974,0.16421
933.80996,0.18256
932.32017,0.19428
930.83038,0.19636
929.34059,0.19846
927.85080,0.22544
926.36101,0.25805
924.87123,0.27488
923.38144,0.34143
921.89165,0.37661
920.40186,0.41181
918.91207,0.51253
917.42228,0.65798
915.93250,0.80678
914.44271,1.04105
912.95292,1.15663
911.46313,1.27224
909.97334,1.46708
908.48355,1.69335
906.99376,1.83667
905.50398,1.93865
904.01419,1.96393
902.52440,1.98923
901.03461,2.00000
899.54482,1.95237
898.05503,1.83012
896.56525,1.62431
895.07546,1.47653
893.58567,1.32878
892.09588,1.06420
890.60609,0.82231
889.11630,0.62785
887.62651,0.47874
886.13673,0.40544
884.64694,0.33216
883.15715,0.25506
881.66736,0.18090
880.17757,0.12547
878.68778,0.11154
877.19800,0.09765
875.70821,0.07722
874.21842,0.04351
872.72863,0.03166
871.23884,0.03231
869.74905,0.02206
868.25927,0.01184
866.76948,0.02462
865.27969,0.01871
863.78990,0.03985
862.30011,0.04334
860.81032,0.05206
859.32053,0.06080
857.83075,0.07372
856.34096,0.10704
854.85117,0.10151
853.36138,0.12615
851.87159,0.13937
850.38180,0.15262
848.89202,0.16548
847.40223,0.17795
845.91244,0.18981
844.42265,0.20960
842.93286,0.22942
841.44307,0.23782
839.95329,0.24438
838.46350,0.26946
836.97371,0.25777
835.48392,0.26700
833.99413,0.27625
832.50434,0.25486
831.01455,0.27487
829.52477,0.23626
828.03498,0.22035
826.54519,0.20404
825.05540,0.18776
823.56561,0.16027
822.07582,0.14279
820.58604,0.12367
819.09625,0.12463
817.60646,0.12562
816.11667,0.12965
814.62688,0.13121
813.13709,0.12905
811.64730,0.14168
810.15752,0.14736
808.66773,0.15307
807.17794,0.14352
805.68815,0.15520
804.19836,0.14591
802.70857,0.15244
801.21879,0.15900
799.72900,0.14936
798.23921,0.13517
796.74942,0.11290
795.25963,0.12464
793.76984,0.13641
792.28006,0.13833
790.79027,0.16148
789.30048,0.18923
787.81069,0.22906
786.32090,0.23461
784.83111,0.24018
783.34132,0.27530
781.85154,0.31648
780.36175,0.36329
778.87196,0.37530
777.38217,0.38733
775.89238,0.41966
774.40259,0.42748
772.91281,0.41204
771.42302,0.40639
769.93323,0.40077
768.44344,0.33716
766.95365,0.30414
765.46386,0.25451
763.97407,0.19742
762.48429,0.17944
760.99450,0.16148
759.50471,0.16830
758.01492,0.12398
756.52513,0.10569
755.03534,0.10540
753.54556,0.10513
752.05577,0.09127
750.56598,0.07660
749.07619,0.06196
747.58640,0.06252
746.09661,0.06310
744.60683,0.04063
743.11704,0.02129
741.62725,0.02403
740.13746,0.01868
738.64767,0.01335
737.15788,0.02343
735.66809,0.01857
734.17831,0.01518
732.68852,0.01837
731.19873,0.02159
729.70894,0.00746
728.21915,0.01315
726.72936,0.01803
725.23958,0.00963
723.74979,0.01155
722.26000,0.01350
720.77021,0.00746
719.28042,0.01153
717.79063,0.00939
716.30084,0.00883
714.81106,0.00829
713.32127,0.00871
711.83148,0.02330
710.34169,0.01545
708.85190,0.02032
707.36211,0.02520
705.87233,0.04321
704.38254,0.03629
702.89275,0.03397
701.40296,0.03480
699.91317,0.03564
698.42338,0.04213
696.93360,0.06922
695.44381,0.08365
693.95402,0.09603
692.46423,0.10844
690.97444,0.11754
689.48465,0.14641
687.99486,0.15972
686.50508,0.17554
685.01529,0.19139
683.52550,0.22016
682.03571,0.23522
680.54592,0.23555
679.05613,0.23777
677.56635,0.24002
676.07656,0.24770
674.58677,0.24105
673.09698,0.21114
671.60719,0.20756
670.11740,0.20400
668.62761,0.16979
667.13783,0.15412
665.64804,0.14117
664.15825,0.12825
662.66846,0.09019
661.17867,0.05964
659.68888,0.05573
658.19910,0.05361
656.70931,0.05151
655.21952,0.03416
653.72973,0.03492
652.23994,0.04215
650.75015,0.03245
649.26037,0.02278
647.77058,0.04402
646.28079,0.03242
644.79100,0.03083
643.30121,0.02905
641.81142,0.02730
640.32163,0.03014
638.83185,0.04466
637.34206,0.01553
635.85227,0.01481
634.36248,0.01411
632.87269,0.00980
631.38290,0.01016
629.89312,0.01699
628.40333,0.01604
626.91354,0.01512
625.42375,0.00746
623.93396,0.01738
622.44417,0.02150
620.95438,0.02564
619.46460,0.03979
617.97481,0.05230
616.48502,0.05548
614.99523,0.06991
613.50544,0.08436
612.01565,0.12275
610.52587,0.16573
609.03608,0.19876
607.54629,0.21258
606.05650,0.22643
604.56671,0.29592
603.07692,0.31781
601.58714,0.35284
600.09735,0.38788
598.60756,0.41817
597.11777,0.45264
595.62798,0.46093
594.13819,0.44898
592.64840,0.43705
591.15862,0.40695
589.66883,0.32593
588.17904,0.27780
586.68925,0.24444
585.19946,0.21111
583.70967,0.17864
582.21989,0.12145
580.73010,0.11356
579.24031,0.10569
577.75052,0.07123
576.26073,0.06653
574.77094,0.06934
573.28115,0.06958
571.79137,0.06983
570.30158,0.08041
568.81179,0.08103
567.32200,0.09227
565.83221,0.10354
564.34242,0.11317
562.85264,0.14133
561.36285,0.16847
559.87306,0.17610
558.38327,0.18374
556.89348,0.19308
555.40369,0.18767
553.91391,0.19394
552.42412,0.20022
550.93433,0.19863
549.44454,0.21038
547.95475,0.22630
546.46496,0.22665
544.97517,0.22703
543.48539,0.25280
541.99560,0.26778
540.50581,0.28507
539.01602,0.30239
537.52623,0.36900
536.03644,0.40570
534.54666,0.43515
533.05687,0.44715
531.56708,0.45918
530.07729,0.50513
528.58750,0.54590
527.09771,0.58544
525.60792,0.62501
524.11814,0.69995
522.62835,0.77180
521.13856,0.81311
519.64877,0.81659
518.15898,0.82011
516.66919,0.85483
515.17941,0.84134
513.68962,0.85771
512.19983,0.87411
510.71004,0.82659
509.22025,0.77203
507.73046,0.73350
506.24068,0.67431
504.75089,0.61514
503.26110,0.49581
501.77131,0.38897
500.28152,0.35306
498.79173,0.31717
497.30194,0.22537
495.81216,0.16874
494.32237,0.13459
492.83258,0.10046
491.34279,0.07363
489.85300,0.07386
488.36321,0.09760
486.87343,0.08238
485.38364,0.06719
483.89385,0.07749
482.40406,0.08428
480.91427,0.09526
479.42448,0.10625
477.93469,0.11790
476.44491,0.16221
474.95512,0.18097
473.46533,0.19976
471.97554,0.18780
470.48575,0.19228
468.99596,0.20615
467.50618,0.18782
466.01639,0.16951
464.52660,0.12460
463.03681,0.07307
461.54702,0.07043
460.05723,0.06781
458.56745,0.05273
457.07766,0.02583
455.58787,0.02547
454.09808,0.02512
452.60829,0.03115
451.11850,0.00746
449.62871,0.01475
448.13893,0.02207
446.64914,0.03107
445.15935,0.00641
443.66956,0.00403
442.17977,0.01031
440.68998,0.01661
439.20020,0.02190
437.71041,0.03885
436.22062,0.02745
434.73083,0.01607
433.24104,0.02478
431.75125,0.01481
430.26146,0.01670
428.77168,0.01862
427.28189,0.02826
425.79210,0.02857
424.30231,0.02806
422.81252,0.02759
421.32273,0.03566
419.83295,0.03751
418.34316,0.03243
416.85337,0.02737
415.36358,0.00851
413.87379,0.01545
412.38400,0.01847
410.89422,0.02151
409.40443,0.03351
407.91464,0.00936
406.42485,0.01518
404.93506,0.02351
403.44527,0.03187
401.95548,0.02591
400.46570,0.03951
398.97591,0.03651
397.48612,0.03352
395.99633,0.04387
394.50654,0.02202
393.01675,0.02254
391.52697,0.02309
390.03718,0.02043
388.54739,0.01510
387.05760,0.01502
385.56781,0.01497
384.07802,0.01172
382.58824,0.02180
381.09845,0.03439
379.60866,0.04702
378.11887,0.03430
376.62908,0.00746
375.13929,0.01581
373.64950,0.02417
372.15972,0.03704
370.66993,0.02373
369.18014,0.01779
367.69035,0.01188
366.20056,0.01348
364.71077,0.01760
363.22099,0.02029
361.73120,0.02300
360.24141,0.02116
358.75162,0.05427
357.26183,0.05872
355.77204,0.06319
354.28225,0.08577
352.79247,0.09154
351.30268,0.07695
349.81289,0.06239
348.32310,0.08257
346.83331,0.05620
345.34352,0.06625
343.85374,0.07632
342.36395,0.05979
340.87416,0.05640
339.38437,0.04585
337.89458,0.03532
336.40479,0.00746
334.91501,0.00879
333.42522,0.01398
331.93543,0.01920
330.44564,0.02185
328.95585,0.01953
327.46606,0.02420
325.97627,0.02889
324.48649,0.06219
322.99670,0.03980
321.50691,0.03146
320.01712,0.02315
318.52733,0.02703
317.03754,0.03758
315.54776,0.03434
314.05797,0.03111
312.56818,0.02427
311.07839,0.06133
309.58860,0.06244
308.09881,0.06357
306.60902,0.03188
305.11924,0.04637
303.62945,0.03749
302.13966,0.02863
300.64987,0.02011
299.16008,0.00746
