1778.52000,0.01115
1777.03021,0.01139
1775.54042,0.00880
1774.05063,0.00852
1772.56085,0.00428
1771.07106,0.00556
1769.58127,0.00478
1768.09148,0.00384
1766.60169,0.00387
1765.11190,0.01133
1763.62212,0.00856
1762.13233,0.00410
1760.64254,0.00612
1759.15275,0.00931
1757.66296,0.00910
1756.17317,0.00455
1754.68339,0.00154
1753.19360,0.00919
1751.70381,0.00623
1750.21402,0.00139
1748.72423,0.00000
1747.23444,0.00889
1745.74465,0.00868
1744.25487,0.00850
1742.76508,0.00264
1741.27529,0.01030
1739.78550,0.01512
1738.29571,0.01295
1736.80592,0.00491
1735.31614,0.01215
1733.82635,0.01257
1732.33656,0.00637
1730.84677,0.01557
1729.35698,0.01056
1727.86719,0.01260
1726.37740,0.00801
1724.88762,0.00497
1723.39783,0.00347
1721.90804,0.00713
1720.41825,0.00852
1718.92846,0.00824
1717.43867,0.00265
1715.94889,0.00355
1714.45910,0.00638
1712.96931,0.00410
1711.47952,0.00130
1709.98973,0.00423
1708.49994,0.00623
1707.01016,0.00483
1705.52037,0.00346
1704.03058,0.00990
1702.54079,0.00307
1701.05100,0.00671
1699.56121,0.01284
1698.07142,0.01159
1696.58164,0.00410
1695.09185,0.00713
1693.60206,0.01304
1692.11227,0.01442
1690.62248,0.01487
1689.13269,0.01724
1687.64291,0.02135
1686.15312,0.02339
1684.66333,0.01216
1683.17354,0.01824
1681.68375,0.02453
1680.19396,0.02306
1678.70417,0.01591
1677.21439,0.03386
1675.72460,0.03911
1674.23481,0.03203
1672.74502,0.03752
1671.25523,0.04284
1669.76544,0.04172
1668.27566,0.04709
1666.78587,0.05438
1665.29608,0.05391
1663.80629,0.07321
1662.31650,0.06880
1660.82671,0.06612
1659.33693,0.08227
1657.84714,0.07716
1656.35735,0.06335
1654.86756,0.07197
1653.37777,0.08100
1651.88798,0.07770
1650.39819,0.07880
1648.90841,0.07118
1647.41862,0.07555
1645.92883,0.08043
1644.43904,0.08532
1642.94925,0.08825
1641.45946,0.08398
1639.96968,0.08562
1638.47989,0.08691
1636.99010,0.10684
1635.50031,0.08842
1634.01052,0.08845
1632.52073,0.08261
1631.03094,0.08953
1629.54116,0.08374
1628.05137,0.10039
1626.56158,0.08991
1625.07179,0.09331
1623.58200,0.10035
1622.09221,0.07968
1620.60243,0.09455
1619.11264,0.09766
1617.62285,0.09302
1616.13306,0.09068
1614.64327,0.09577
1613.15348,0.08740
1611.66370,0.08437
1610.17391,0.09675
1608.68412,0.10706
1607.19433,0.10011
1605.70454,0.09604
1604.21475,0.09484
1602.72496,0.09366
1601.23518,0.10068
1599.74539,0.07885
1598.25560,0.09142
1596.76581,0.08730
1595.27602,0.08491
1593.78623,0.08502
1592.29645,0.09389
1590.80666,0.08379
1589.31687,0.07694
1587.82708,0.08265
1586.33729,0.08458
1584.84750,0.07705
1583.35771,0.07181
1581.86793,0.06945
1580.37814,0.07452
1578.88835,0.07601
1577.39856,0.07163
1575.90877,0.07108
1574.41898,0.05592
1572.92920,0.05921
1571.43941,0.05151
1569.94962,0.04725
1568.45983,0.04302
1566.97004,0.03235
1565.48025,0.03728
1563.99047,0.02533
1562.50068,0.03658
1561.01089,0.03379
1559.52110,0.03217
1558.03131,0.03855
1556.54152,0.02824
1555.05173,0.02707
1553.56195,0.01947
1552.07216,0.01892
1550.58237,0.00395
1549.09258,0.00516
1547.60279,0.01550
1546.11300,0.00080
1544.62322,0.01125
1543.13343,0.00368
1541.64364,0.00448
1540.15385,0.00541
1538.66406,0.00636
1537.17427,0.00420
1535.68448,0.01141
1534.19470,0.00724
1532.70491,0.01411
1531.21512,0.00410
1529.72533,0.00877
1528.23554,0.01746
1526.74575,0.02295
1525.25597,0.02485
1523.76618,0.02943
1522.27639,0.00935
1520.78660,0.01968
1519.29681,0.02528
1517.80702,0.03319
1516.31724,0.04245
1514.82745,0.04528
1513.33766,0.04528
1511.84787,0.04531
1510.35808,0.04346
1508.86829,0.03745
1507.37850,0.03945
1505.88872,0.03653
1504.39893,0.04808
1502.90914,0.04559
1501.41935,0.05471
1499.92956,0.05948
1498.43977,0.05707
1496.94999,0.07177
1495.46020,0.07700
1493.97041,0.09915
1492.48062,0.10006
1490.99083,0.10460
1489.50104,0.11600
1488.01125,0.11784
1486.52147,0.11969
1485.03168,0.15073
1483.54189,0.17134
1482.05210,0.18249
1480.56231,0.21568
1479.07252,0.22193
1477.58274,0.21093
1476.09295,0.21400
1474.60316,0.23380
1473.11337,0.24775
1471.62358,0.23931
1470.13379,0.26336
1468.64401,0.27510
1467.15422,0.29142
1465.66443,0.30188
1464.17464,0.31235
1462.68485,0.33558
1461.19506,0.36225
1459.70527,0.41269
1458.21549,0.46581
1456.72570,0.53206
1455.23591,0.58561
1453.74612,0.62000
1452.25633,0.67625
1450.76654,0.70518
1449.27676,0.68779
1447.78697,0.69796
1446.29718,0.66315
1444.80739,0.64374
1443.31760,0.62435
1441.82781,0.57612
1440.33802,0.53152
1438.84824,0.47992
1437.35845,0.49254
1435.86866,0.48372
1434.37887,0.50893
1432.88908,0.55486
1431.39929,0.63006
1429.90951,0.72713
1428.41972,0.78624
1426.92993,0.81327
1425.44014,0.84052
1423.95035,0.88070
1422.46056,0.92091
1420.97078,0.92487
1419.48099,0.93967
1417.99120,0.95355
1416.50141,0.94448
1415.01162,0.86059
1413.52183,0.85764
1412.03204,0.76886
1410.54226,0.72797
1409.05247,0.67286
1407.56268,0.59954
1406.07289,0.56024
1404.58310,0.53597
1403.09331,0.51172
1401.60353,0.44913
1400.11374,0.39930
1398.62395,0.34340
1397.13416,0.30216
1395.64437,0.24270
1394.15458,0.20379
1392.66479,0.16774
1391.17501,0.14673
1389.68522,0.11643
1388.19543,0.09432
1386.70564,0.08240
1385.21585,0.07050
1383.72606,0.05948
1382.23628,0.03538
1380.74649,0.03504
1379.25670,0.02638
1377.76691,0.02419
1376.27712,0.01101
1374.78733,0.01704
1373.29755,0.00410
1371.80776,0.00946
1370.31797,0.00838
1368.82818,0.01113
1367.33839,0.01390
1365.84860,0.01916
1364.35881,0.02236
1362.86903,0.04989
1361.37924,0.06739
1359.88945,0.09098
1358.39966,0.10339
1356.90987,0.13273
1355.42008,0.17672
1353.93030,0.22263
1352.44051,0.26363
1350.95072,0.30465
1349.46093,0.38919
1347.97114,0.44184
1346.48135,0.53669
1344.99156,0.62984
1343.50178,0.68979
1342.01199,0.75336
1340.52220,0.82969
1339.03241,0.83615
1337.54262,0.83655
1336.05283,0.84875
1334.56305,0.86097
1333.07326,0.89791
1331.58347,0.89651
1330.09368,0.90653
1328.60389,0.89017
1327.11410,0.82806
1325.62432,0.77471
1324.13453,0.75234
1322.64474,0.73855
1321.15495,0.72535
1319.66516,0.69964
1318.17537,0.67395
1316.68558,0.61998
1315.19580,0.57079
1313.70601,0.52827
1312.21622,0.52319
1310.72643,0.48926
1309.23664,0.43257
1307.74685,0.40667
1306.25707,0.36617
1304.76728,0.35247
1303.27749,0.33880
1301.78770,0.28564
1300.29791,0.24903
1298.80812,0.21397
1297.31834,0.17969
1295.82855,0.15911
1294.33876,0.14159
1292.84897,0.12903
1291.35918,0.10264
1289.86939,0.10314
1288.37960,0.10367
1286.88982,0.10488
1285.40003,0.08960
1283.91024,0.08345
1282.42045,0.08341
1280.93066,0.06155
1279.44087,0.06326
1277.95109,0.05209
1276.46130,0.06050
1274.97151,0.04832
1273.48172,0.03617
1271.99193,0.04276
1270.50214,0.05506
1269.01235,0.04099
1267.52257,0.04783
1266.03278,0.03856
1264.54299,0.04488
1263.05320,0.03299
1261.56341,0.03186
1260.07362,0.03075
1258.58384,0.02274
1257.09405,0.02424
1255.60426,0.02995
1254.11447,0.02219
1252.62468,0.01598
1251.13489,0.00410
1249.64511,0.01590
1248.15532,0.02317
1246.66553,0.02144
1245.17574,0.01973
1243.68595,0.03087
1242.19616,0.02684
1240.70637,0.01903
1239.21659,0.01638
1237.72680,0.03198
1236.23701,0.02463
1234.74722,0.02603
1233.25743,0.02765
1231.76764,0.02930
1230.27786,0.03343
1228.78807,0.02316
1227.29828,0.01063
1225.80849,0.01693
1224.31870,0.00711
1222.82891,0.00680
1221.33912,0.02096
1219.84934,0.03096
1218.35955,0.04099
1216.86976,0.05522
1215.37997,0.07251
1213.89018,0.08508
1212.40039,0.07963
1210.91061,0.07591
1209.42082,0.08000
1207.93103,0.07405
1206.44124,0.06812
1204.95145,0.06507
1203.46166,0.07097
1201.97188,0.05429
1200.48209,0.05245
1198.99230,0.04930
1197.50251,0.04769
1196.01272,0.05086
1194.52293,0.05168
1193.03314,0.05252
1191.54336,0.04646
1190.05357,0.04079
1188.56378,0.02984
1187.07399,0.04150
1185.58420,0.03098
1184.09441,0.01952
1182.60463,0.01170
1181.11484,0.00390
1179.62505,0.00410
1178.13526,0.01839
1176.64547,0.01675
1175.15568,0.02559
1173.66589,0.01849
1172.17611,0.02452
1170.68632,0.01453
1169.19653,0.00456
1167.70674,0.02547
1166.21695,0.02211
1164.72716,0.02256
1163.23738,0.02114
1161.74759,0.04253
1160.25780,0.07136
1158.76801,0.06972
1157.27822,0.06811
1155.78843,0.05997
1154.29865,0.07370
1152.80886,0.08859
1151.31907,0.10160
1149.82928,0.12623
1148.33949,0.12903
1146.84970,0.12740
1145.35991,0.12579
1143.87013,0.12848
1142.38034,0.15151
1140.89055,0.15862
1139.40076,0.16764
1137.91097,0.17822
1136.42118,0.20135
1134.93140,0.20703
1133.44161,0.21273
1131.95182,0.24258
1130.46203,0.23770
1128.97224,0.22790
1127.48245,0.22648
1125.99266,0.24427
1124.50288,0.22847
1123.01309,0.23016
1121.52330,0.23188
1120.03351,0.22223
1118.54372,0.23919
1117.05393,0.22350
1115.56415,0.23500
1114.07436,0.22943
1112.58457,0.23490
1111.09478,0.24040
1109.60499,0.22540
1108.11520,0.24272
1106.62542,0.24316
1105.13563,0.24571
1103.64584,0.24050
1102.15605,0.21840
1100.66626,0.20821
1099.17647,0.19803
1097.68668,0.21172
1096.19690,0.21688
1094.70711,0.21181
1093.21732,0.21095
1091.72753,0.18674
1090.23774,0.18412
1088.74795,0.18152
1087.25817,0.17904
1085.76838,0.17621
1084.27859,0.18954
1082.78880,0.18124
1081.29901,0.19501
1079.80922,0.20119
1078.31943,0.19525
1076.82965,0.18933
1075.33986,0.21990
1073.85007,0.21440
1072.36028,0.22603
1070.87049,0.24755
1069.38070,0.28145
1067.89092,0.29922
1066.40113,0.31702
1064.91134,0.37112
1063.42155,0.46684
1061.93176,0.55499
1060.44197,0.65132
1058.95219,0.70761
1057.46240,0.74369
1055.97261,0.77979
1054.48282,0.90111
1052.99303,0.97667
1051.50324,0.97173
1050.01345,0.96567
1048.52367,0.91538
1047.03388,0.89816
1045.54409,0.88097
1044.05430,0.82296
1042.56451,0.75491
1041.07472,0.69601
1039.58494,0.66048
1038.09515,0.58643
1036.60536,0.54982
1035.11557,0.51323
1033.62578,0.45729
1032.13599,0.38979
1030.64620,0.31832
1029.15642,0.28088
1027.66663,0.27034
1026.17684,0.25982
1024.68705,0.22036
1023.19726,0.18852
1021.70747,0.13619
1020.21769,0.11959
1018.72790,0.12030
1017.23811,0.11487
1015.74832,0.10945
1014.25853,0.09029
1012.76874,0.07590
1011.27896,0.07370
1009.78917,0.06695
1008.29938,0.06555
1006.80959,0.05639
1005.31980,0.04725
1003.83001,0.02712
1002.34022,0.01746
1000.85044,0.01352
999.36065,0.02593
997.87086,0.03752
996.38107,0.04913
994.89128,0.06333
993.40149,0.09275
991.91171,0.10282
990.42192,0.13969
988.93213,0.13861
987.44234,0.14732
985.95255,0.15606
984.46276,0.15732
982.97297,0.15576
981.48319,0.13751
979.99340,0.10067
978.50361,0.08806
977.01382,0.07548
975.52403,0.05201
974.03424,0.03274
972.54446,0.02526
971.05467,0.01022
969.56488,0.01229
968.07509,0.01172
966.58530,0.01118
965.09551,0.00459
963.60573,0.00410
962.11594,0.01062
960.62615,0.00692
959.13636,0.00609
957.64657,0.00528
956.15678,0.02121
954.66699,0.01076
953.17721,0.02978
951.68742,0.02603
950.19763,0.03104
948.70784,0.03607
947.21805,0.04683
945.72826,0.05913
944.23848,0.08322
942.74869,0.09006
941.25890,0.11269
939.76911,0.11825
938.27932,0.12383
936.78953,0.13627
935.29974,0.17818
933.80996,0.18003
932.32017,0.19881
930.83038,0.20271
929.34059,0.20663
927.85080,0.24068
926.36101,0.26431
924.87123,0.28302
923.38144,0.34373
921.89165,0.37512
920.40186,0.40654
918.91207,0.51670
917.42228,0.63297
915.93250,0.78725
914.44271,0.96453
912.95292,1.07688
911.46313,1.18926
909.97334,1.41201
908.48355,1.64997
906.99376,1.83213
905.50398,1.91269
904.01419,1.95633
902.52440,2.00000
901.03461,1.99877
899.54482,1.96319
898.05503,1.85394
896.56525,1.62259
895.07546,1.47881
893.58567,1.33507
892.09588,1.01489
890.60609,0.79484
889.11630,0.60159
887.62651,0.45015
886.13673,0.38630
884.64694,0.32246
883.15715,0.22713
881.66736,0.16752
880.17757,0.13073
878.68778,0.11714
877.19800,0.10357
875.70821,0.06153
874.21842,0.04725
872.72863,0.03622
871.23884,0.02731
869.74905,0.03010
868.25927,0.03291
866.76948,0.02387
865.27969,0.02189
863.78990,0.04330
862.30011,0.05599
860.81032,0.05303
859.32053,0.05010
857.83075,0.06267
856.34096,0.10262
854.85117,0.10726
853.36138,0.11896
851.87159,0.12773
850.38180,0.13653
848.89202,0.15209
847.40223,0.17376
845.91244,0.18387
844.42265,0.20444
842.93286,0.22504
841.44307,0.22116
839.95329,0.24656
838.46350,0.25507
836.97371,0.27007
835.48392,0.26344
833.99413,0.25683
832.50434,0.27437
831.01455,0.25014
829.52477,0.21778
828.03498,0.20196
826.54519,0.18740
825.05540,0.17286
823.56561,0.14629
822.07582,0.13399
820.58604,0.13348
819.09625,0.12588
817.60646,0.11830
816.11667,0.10419
814.62688,0.12335
813.13709,0.13531
811.64730,0.14502
810.15752,0.13927
808.66773,0.13354
807.17794,0.12299
805.68815,0.12121
804.19836,0.13901
802.70857,0.13329
801.21879,0.12759
799.72900,0.11659
798.23921,0.11683
796.74942,0.11728
795.25963,0.12003
793.76984,0.12280
792.28006,0.13833
790.79027,0.13925
789.30048,0.14628
787.81069,0.17935
786.32090,0.20286
784.83111,0.22638
783.34132,0.26313
781.85154,0.30105
780.36175,0.33082
778.87196,0.34894
777.38217,0.36708
775.89238,0.39502
774.40259,0.42641
772.91281,0.40293
771.42302,0.38897
769.93323,0.37503
768.44344,0.31554
766.95365,0.24961
765.46386,0.21277
763.97407,0.16208
762.48429,0.15273
760.99450,0.14340
759.50471,0.11387
758.01492,0.09861
756.52513,0.09970
755.03534,0.09569
753.54556,0.09171
752.05577,0.08034
750.56598,0.06862
749.07619,0.04362
747.58640,0.04115
746.09661,0.03871
744.60683,0.03601
743.11704,0.02441
741.62725,0.01568
740.13746,0.01713
738.64767,0.01861
737.15788,0.02970
735.66809,0.01613
734.17831,0.00410
732.68852,0.00572
731.19873,0.00736
729.70894,0.01016
728.21915,0.00692
726.72936,0.00858
725.23958,0.00952
723.74979,0.01494
722.26000,0.02038
720.77021,0.01227
719.28042,0.01672
717.79063,0.00410
716.30084,0.00687
714.81106,0.00966
713.32127,0.00906
711.83148,0.02387
710.34169,0.02768
708.85190,0.02430
707.36211,0.02095
705.87233,0.04288
704.38254,0.02666
702.89275,0.04693
701.40296,0.04120
699.91317,0.03550
698.42338,0.05014
696.93360,0.07449
695.44381,0.09830
693.95402,0.10200
692.46423,0.10572
690.97444,0.12125
689.48465,0.14458
687.99486,0.15768
686.50508,0.17033
685.01529,0.18301
683.52550,0.22429
682.03571,0.23578
680.54592,0.25736
679.05613,0.25531
677.56635,0.25329
676.07656,0.26715
674.58677,0.24419
673.09698,0.23265
671.60719,0.21582
670.11740,0.19901
668.62761,0.16779
667.13783,0.15634
665.64804,0.14226
664.15825,0.12821
662.66846,0.10145
661.17867,0.06807
659.68888,0.05503
658.19910,0.04402
656.70931,0.03303
655.21952,0.04039
653.72973,0.04986
652.23994,0.05879
650.75015,0.05311
649.26037,0.04746
647.77058,0.05400
646.28079,0.03757
644.79100,0.03978
643.30121,0.04363
641.81142,0.04750
640.32163,0.04256
638.83185,0.03860
637.34206,0.00712
635.85227,0.01051
634.36248,0.01392
632.87269,0.01764
631.38290,0.00410
629.89312,0.02608
628.40333,0.02862
626.91354,0.03119
625.42375,0.02418
623.93396,0.03069
622.44417,0.02706
620.95438,0.02345
619.46460,0.02053
617.97481,0.02979
616.48502,0.04629
614.99523,0.06852
613.50544,0.09077
612.01565,0.10772
610.52587,0.15718
609.03608,0.17285
607.54629,0.17886
606.05650,0.18489
604.56671,0.24869
603.07692,0.31669
601.58714,0.33694
600.09735,0.35722
598.60756,0.38674
597.11777,0.43014
595.62798,0.39589
594.13819,0.38037
592.64840,0.36487
591.15862,0.35120
589.66883,0.30355
588.17904,0.25555
586.68925,0.22837
585.19946,0.20122
583.70967,0.14133
582.21989,0.10596
580.73010,0.09597
579.24031,0.08600
577.75052,0.06514
576.26073,0.06026
574.77094,0.04970
573.28115,0.04363
571.79137,0.03759
570.30158,0.03413
568.81179,0.06222
567.32200,0.07239
565.83221,0.08259
564.34242,0.10752
562.85264,0.11121
561.36285,0.13449
559.87306,0.14316
558.38327,0.15186
556.89348,0.16154
555.40369,0.16477
553.91391,0.17915
552.42412,0.19355
550.93433,0.18109
549.44454,0.18158
547.95475,0.17050
546.46496,0.18063
544.97517,0.19078
543.48539,0.19592
541.99560,0.21400
540.50581,0.23305
539.01602,0.25213
537.52623,0.29953
536.03644,0.36367
534.54666,0.37009
533.05687,0.39031
531.56708,0.41055
530.07729,0.45370
528.58750,0.51834
527.09771,0.54321
525.60792,0.56811
524.11814,0.62199
522.62835,0.69185
521.13856,0.72281
519.64877,0.72738
518.15898,0.73198
516.66919,0.77382
515.17941,0.80715
513.68962,0.80850
512.19983,0.80986
510.71004,0.76938
509.22025,0.74012
507.73046,0.66682
506.24068,0.60884
504.75089,0.55088
503.26110,0.44480
501.77131,0.34405
500.28152,0.29547
498.79173,0.24692
497.30194,0.20873
495.81216,0.15424
494.32237,0.13842
492.83258,0.12263
491.34279,0.10506
489.85300,0.10099
488.36321,0.08081
486.87343,0.06350
485.38364,0.04621
483.89385,0.07244
482.40406,0.08768
480.91427,0.09306
479.42448,0.09847
477.93469,0.11227
476.44491,0.13881
474.95512,0.15293
473.46533,0.16708
471.97554,0.17223
470.48575,0.19355
468.99596,0.18298
467.50618,0.17491
466.01639,0.16686
464.52660,0.12274
463.03681,0.08188
461.54702,0.07903
460.05723,0.07621
458.56745,0.06429
457.07766,0.03397
455.58787,0.03226
454.09808,0.03058
452.60829,0.00660
451.11850,0.00696
449.62871,0.00743
448.13893,0.00793
446.64914,0.02033
445.15935,0.01166
443.66956,0.02164
442.17977,0.01786
440.68998,0.01412
439.20020,0.03499
437.71041,0.03233
436.22062,0.02685
434.73083,0.02139
433.24104,0.01596
431.75125,0.03144
430.26146,0.03603
428.77168,0.04064
427.28189,0.04575
425.79210,0.05240
424.30231,0.04967
422.81252,0.04697
421.32273,0.04135
419.83295,0.01334
418.34316,0.00919
416.85337,0.00506
415.36358,0.00410
413.87379,0.02431
412.38400,0.03315
410.89422,0.04201
409.40443,0.05678
407.91464,0.03834
406.42485,0.03854
404.93506,0.05026
403.44527,0.06199
401.95548,0.03985
400.46570,0.02552
398.97591,0.02432
397.48612,0.02314
395.99633,0.03813
394.50654,0.02864
393.01675,0.03941
391.52697,0.05019
390.03718,0.03736
388.54739,0.04430
387.05760,0.03721
385.56781,0.03015
384.07802,0.02368
382.58824,0.02846
381.09845,0.03061
379.60866,0.03278
378.11887,0.02529
376.62908,0.02010
375.13929,0.01209
373.64950,0.00410
372.15972,0.02547
370.66993,0.03680
369.18014,0.02859
367.69035,0.02041
366.20056,0.02421
364.71077,0.02348
363.22099,0.02477
361.73120,0.02608
360.24141,0.06417
358.75162,0.07759
357.26183,0.07233
355.77204,0.06709
354.28225,0.06254
352.79247,0.07093
351.30268,0.05598
349.81289,0.04106
348.32310,0.04895
346.83331,0.06180
345.34352,0.05112
343.85374,0.04047
342.36395,0.05663
340.87416,0.01753
339.38437,0.01807
337.89458,0.01862
336.40479,0.02785
334.91501,0.03462
333.42522,0.02556
331.93543,0.01653
330.44564,0.00685
328.95585,0.01696
327.46606,0.01331
325.97627,0.00969
324.48649,0.03714
322.99670,0.02149
321.50691,0.01783
320.01712,0.01420
318.52733,0.05960
317.03754,0.06133
315.54776,0.06689
314.05797,0.07247
312.56818,0.07066
311.07839,0.07344
309.58860,0.06837
308.09881,0.06331
306.60902,0.05913
305.11924,0.07151
303.62945,0.03794
302.13966,0.00439
300.64987,0.00604
299.16008,0.00410
