1778.52000,0.01764
1777.03021,0.00383
1775.54042,0.01507
1774.05063,0.01310
1772.56085,0.00730
1771.07106,0.01645
1769.58127,0.01576
1768.09148,0.01172
1766.60169,0.00650
1765.11190,0.01070
1763.62212,0.00312
1762.13233,0.01242
1760.64254,0.00850
1759.15275,0.00509
1757.66296,0.00868
1756.17317,0.00123
1754.68339,0.01257
1753.19360,0.00469
1751.70381,0.00645
1750.21402,0.00583
1748.72423,0.00500
1747.23444,0.00732
1745.74465,0.00196
1744.25487,0.00168
1742.76508,0.00071
1741.27529,0.01106
1739.78550,0.01327
1738.29571,0.00731
1736.80592,0.00450
1735.31614,0.00509
1733.82635,0.01325
1732.33656,0.01060
1730.84677,0.00532
1729.35698,0.01668
1727.86719,0.00231
1726.37740,0.00000
1724.88762,0.00782
1723.39783,0.01302
1721.90804,0.00861
1720.41825,0.00953
1718.92846,0.00541
1717.43867,0.00902
1715.94889,0.00760
1714.45910,0.00910
1712.96931,0.00556
1711.47952,0.00903
1709.98973,0.01445
1708.49994,0.00833
1707.01016,0.00670
1705.52037,0.00509
1704.03058,0.02885
1702.54079,0.02664
1701.05100,0.01868
1699.56121,0.02470
1698.07142,0.02040
1696.58164,0.01107
1695.09185,0.02679
1693.60206,0.02160
1692.11227,0.01956
1690.62248,0.01995
1689.13269,0.02590
1687.64291,0.02995
1686.15312,0.03114
1684.66333,0.03115
1683.17354,0.02420
1681.68375,0.03028
1680.19396,0.03541
1678.70417,0.04274
1677.21439,0.05298
1675.72460,0.05072
1674.23481,0.05211
1672.74502,0.06194
1671.25523,0.05470
1669.76544,0.06266
1668.27566,0.05932
1666.78587,0.06973
1665.29608,0.06981
1663.80629,0.07618
1662.31650,0.07246
1660.82671,0.07743
1659.33693,0.10217
1657.84714,0.08071
1656.35735,0.09779
1654.86756,0.10117
1653.37777,0.09182
1651.88798,0.07624
1650.39819,0.06862
1648.90841,0.08606
1647.41862,0.09029
1645.92883,0.09117
1644.43904,0.09208
1642.94925,0.09710
1641.45946,0.09300
1639.96968,0.11035
1638.47989,0.10798
1636.99010,0.09818
1635.50031,0.09177
1634.01052,0.10175
1632.52073,0.09226
1631.03094,0.09628
1629.54116,0.09647
1628.05137,0.10534
1626.56158,0.10582
1625.07179,0.09501
1623.58200,0.10949
1622.09221,0.10691
1620.60243,0.10628
1619.11264,0.09388
1617.62285,0.10004
1616.13306,0.09539
1614.64327,0.09269
1613.15348,0.09074
1611.66370,0.08713
1610.17391,0.08450
1608.68412,0.09225
1607.19433,0.09906
1605.70454,0.09772
1604.21475,0.09928
1602.72496,0.10087
1601.23518,0.10248
1599.74539,0.10099
1598.25560,0.09663
1596.76581,0.09808
1595.27602,0.08534
1593.78623,0.08708
1592.29645,0.08884
1590.80666,0.08099
1589.31687,0.07173
1587.82708,0.08102
1586.33729,0.08817
1584.84750,0.08909
1583.35771,0.09220
1581.86793,0.08281
1580.37814,0.08910
1578.88835,0.06990
1577.39856,0.06636
1575.90877,0.08692
1574.41898,0.06924
1572.92920,0.06770
1571.43941,0.05801
1569.94962,0.04918
1568.45983,0.04038
1566.97004,0.04809
1565.48025,0.05437
1563.99047,0.04095
1562.50068,0.03477
1561.01089,0.02597
1559.52110,0.01141
1558.03131,0.03467
1556.54152,0.02595
1555.05173,0.02326
1553.56195,0.00784
1552.07216,0.01074
1550.58237,0.00499
1549.09258,0.01299
1547.60279,0.01259
1546.11300,0.00500
1544.62322,0.00922
1543.13343,0.00143
1541.64364,0.01651
1540.15385,0.01380
1538.66406,0.01111
1537.17427,0.01062
1535.68448,0.00509
1534.19470,0.02025
1532.70491,0.01280
1531.21512,0.01477
1529.72533,0.01507
1528.23554,0.02624
1526.74575,0.02900
1525.25597,0.02817
1523.76618,0.02569
1522.27639,0.03719
1520.78660,0.03619
1519.29681,0.03330
1517.80702,0.03525
1516.31724,0.04516
1514.82745,0.04162
1513.33766,0.04556
1511.84787,0.04953
1510.35808,0.05135
1508.86829,0.05128
1507.37850,0.04521
1505.88872,0.04542
1504.39893,0.05505
1502.90914,0.05724
1501.41935,0.05416
1499.92956,0.07276
1498.43977,0.06515
1496.94999,0.08501
1495.46020,0.08347
1493.97041,0.11324
1492.48062,0.10573
1490.99083,0.11341
1489.50104,0.11991
1488.01125,0.12487
1486.52147,0.12985
1485.03168,0.15881
1483.54189,0.19261
1482.05210,0.20380
1480.56231,0.20684
1479.07252,0.22747
1477.58274,0.24234
1476.09295,0.24593
1474.60316,0.26664
1473.11337,0.27027
1471.62358,0.26551
1470.13379,0.27281
1468.64401,0.28928
1467.15422,0.32358
1465.66443,0.33083
1464.17464,0.33811
1462.68485,0.36141
1461.19506,0.40568
1459.70527,0.44372
1458.21549,0.49285
1456.72570,0.54826
1455.23591,0.61694
1453.74612,0.66783
1452.25633,0.70551
1450.76654,0.71120
1449.27676,0.73713
1447.78697,0.71278
1446.29718,0.70025
1444.80739,0.67137
1443.31760,0.64252
1441.82781,0.60575
1440.33802,0.53267
1438.84824,0.50413
1437.35845,0.47249
1435.86866,0.46350
1434.37887,0.47812
1432.88908,0.53224
1431.39929,0.62923
1429.90951,0.71180
1428.41972,0.75877
1426.92993,0.79734
1425.44014,0.85327
1423.95035,0.88900
1422.46056,0.92475
1420.97078,0.95307
1419.48099,0.90849
1417.99120,0.92338
1416.50141,0.91157
1415.01162,0.87982
1413.52183,0.84592
1412.03204,0.78605
1410.54226,0.72187
1409.05247,0.68756
1407.56268,0.62512
1406.07289,0.56920
1404.58310,0.53737
1403.09331,0.50557
1401.60353,0.43913
1400.11374,0.39101
1398.62395,0.37613
1397.13416,0.29556
1395.64437,0.23331
1394.15458,0.20214
1392.66479,0.18134
1391.17501,0.14539
1389.68522,0.11598
1388.19543,0.09188
1386.70564,0.08526
1385.21585,0.07866
1383.72606,0.05560
1382.23628,0.04363
1380.74649,0.01749
1379.25670,0.00509
1377.76691,0.00693
1376.27712,0.00278
1374.78733,0.01887
1373.29755,0.01308
1371.80776,0.01309
1370.31797,0.00470
1368.82818,0.00488
1367.33839,0.00509
1365.84860,0.01660
1364.35881,0.01032
1362.86903,0.04883
1361.37924,0.08063
1359.88945,0.08838
1358.39966,0.11324
1356.90987,0.14223
1355.42008,0.16714
1353.93030,0.22818
1352.44051,0.26783
1350.95072,0.30750
1349.46093,0.37608
1347.97114,0.45816
1346.48135,0.53641
1344.99156,0.58388
1343.50178,0.64943
1342.01199,0.72872
1340.52220,0.81020
1339.03241,0.84597
1337.54262,0.85915
1336.05283,0.89100
1334.56305,0.92287
1333.07326,0.93612
1331.58347,0.93350
1330.09368,0.93885
1328.60389,0.90692
1327.11410,0.88584
1325.62432,0.85348
1324.13453,0.83702
1322.64474,0.80398
1321.15495,0.76519
1319.66516,0.75543
1318.17537,0.74569
1316.68558,0.66533
1315.19580,0.61822
1313.70601,0.55115
1312.21622,0.54788
1310.72643,0.50060
1309.23664,0.50557
1307.74685,0.46820
1306.25707,0.43375
1304.76728,0.41303
1303.27749,0.39235
1301.78770,0.30910
1300.29791,0.24947
1298.80812,0.22597
1297.31834,0.19287
1295.82855,0.18843
1294.33876,0.15296
1292.84897,0.13582
1291.35918,0.12784
1289.86939,0.11544
1288.37960,0.10306
1286.88982,0.08047
1285.40003,0.07789
1283.91024,0.09073
1282.42045,0.07159
1280.93066,0.08641
1279.44087,0.04902
1277.95109,0.07761
1276.46130,0.06145
1274.97151,0.06241
1273.48172,0.06339
1271.99193,0.04442
1270.50214,0.04256
1269.01235,0.02580
1267.52257,0.04253
1266.03278,0.03136
1264.54299,0.04404
1263.05320,0.03387
1261.56341,0.02855
1260.07362,0.02325
1258.58384,0.02520
1257.09405,0.02886
1255.60426,0.04216
1254.11447,0.02348
1252.62468,0.03034
1251.13489,0.00738
1249.64511,0.00731
1248.15532,0.00509
1246.66553,0.01195
1245.17574,0.01884
1243.68595,0.03358
1242.19616,0.02306
1240.70637,0.03183
1239.21659,0.02762
1237.72680,0.02970
1236.23701,0.03011
1234.74722,0.03223
1233.25743,0.02656
1231.76764,0.02091
1230.27786,0.03466
1228.78807,0.03207
1227.29828,0.03190
1225.80849,0.01396
1224.31870,0.01529
1222.82891,0.00509
1221.33912,0.01361
1219.84934,0.02973
1218.35955,0.04587
1216.86976,0.06288
1215.37997,0.06572
1213.89018,0.10083
1212.40039,0.10516
1210.91061,0.11096
1209.42082,0.08332
1207.93103,0.08135
1206.44124,0.07939
1204.95145,0.08048
1203.46166,0.06979
1201.97188,0.07645
1200.48209,0.07183
1198.99230,0.06843
1197.50251,0.03714
1196.01272,0.04054
1194.52293,0.03745
1193.03314,0.03440
1191.54336,0.04075
1190.05357,0.03919
1188.56378,0.03235
1187.07399,0.03902
1185.58420,0.03681
1184.09441,0.01512
1182.60463,0.01476
1181.11484,0.01443
1179.62505,0.00509
1178.13526,0.01722
1176.64547,0.00651
1175.15568,0.01411
1173.66589,0.00754
1172.17611,0.01062
1170.68632,0.01384
1169.19653,0.01709
1167.70674,0.01880
1166.21695,0.02318
1164.72716,0.03408
1163.23738,0.02455
1161.74759,0.04273
1160.25780,0.05707
1158.76801,0.06097
1157.27822,0.06490
1155.78843,0.07836
1154.29865,0.08028
1152.80886,0.08898
1151.31907,0.10178
1149.82928,0.10908
1148.33949,0.11472
1146.84970,0.12146
1145.35991,0.12823
1143.87013,0.12527
1142.38034,0.13534
1140.89055,0.14037
1139.40076,0.15337
1137.91097,0.17049
1136.42118,0.18354
1134.93140,0.19325
1133.44161,0.20298
1131.95182,0.21803
1130.46203,0.21577
1128.97224,0.22413
1127.48245,0.21832
1125.99266,0.24959
1124.50288,0.24430
1123.01309,0.23748
1121.52330,0.23067
1120.03351,0.22979
1118.54372,0.22243
1117.05393,0.24591
1115.56415,0.24775
1114.07436,0.23469
1112.58457,0.22647
1111.09478,0.21827
1109.60499,0.21828
1108.11520,0.22698
1106.62542,0.22006
1105.13563,0.25384
1103.64584,0.22820
1102.15605,0.21774
1100.66626,0.20237
1099.17647,0.18703
1097.68668,0.20095
1096.19690,0.17423
1094.70711,0.19422
1093.21732,0.19570
1091.72753,0.17169
1090.23774,0.17070
1088.74795,0.16972
1087.25817,0.19537
1085.76838,0.19264
1084.27859,0.18633
1082.78880,0.18365
1081.29901,0.20145
1079.80922,0.20364
1078.31943,0.19477
1076.82965,0.18593
1075.33986,0.21538
1073.85007,0.21526
1072.36028,0.23826
1070.87049,0.23674
1069.38070,0.28025
1067.89092,0.29924
1066.40113,0.31825
1064.91134,0.39697
1063.42155,0.46273
1061.93176,0.57087
1060.44197,0.65352
1058.95219,0.72416
1057.46240,0.76365
1055.97261,0.80317
1054.48282,0.90999
1052.99303,0.97928
1051.50324,0.99950
1050.01345,0.98147
1048.52367,0.91821
1047.03388,0.91094
1045.54409,0.90369
1044.05430,0.85207
1042.56451,0.74317
1041.07472,0.74551
1039.58494,0.64774
1038.09515,0.60920
1036.60536,0.55180
1035.11557,0.49442
1033.62578,0.46799
1032.13599,0.37010
1030.64620,0.33939
1029.15642,0.30606
1027.66663,0.28562
1026.17684,0.26522
1024.68705,0.23460
1023.19726,0.20666
1021.70747,0.15925
1020.21769,0.15061
1018.72790,0.13550
1017.23811,0.12535
1015.74832,0.11522
1014.25853,0.09561
1012.76874,0.07409
1011.27896,0.08726
1009.78917,0.06652
1008.29938,0.06915
1006.80959,0.05905
1005.31980,0.04897
1003.83001,0.04084
1002.34022,0.02720
1000.85044,0.02321
999.36065,0.03008
997.87086,0.03902
996.38107,0.04798
994.89128,0.06070
993.40149,0.07488
991.91171,0.09776
990.42192,0.13293
988.93213,0.14310
987.44234,0.14438
985.95255,0.14569
984.46276,0.13620
982.97297,0.12817
981.48319,0.12113
979.99340,0.08427
978.50361,0.08233
977.01382,0.08041
975.52403,0.06143
974.03424,0.04152
972.54446,0.03534
971.05467,0.00898
969.56488,0.01031
968.07509,0.01685
966.58530,0.02341
965.09551,0.03638
963.60573,0.02289
962.11594,0.00509
960.62615,0.02911
959.13636,0.02572
957.64657,0.02236
956.15678,0.02599
954.66699,0.03182
953.17721,0.03984
951.68742,0.03224
950.19763,0.03597
948.70784,0.03973
947.21805,0.06422
945.72826,0.07091
944.23848,0.10218
942.74869,0.10845
941.25890,0.12340
939.76911,0.12935
938.27932,0.13533
936.78953,0.15420
935.29974,0.18683
933.80996,0.20695
932.32017,0.19991
930.83038,0.20541
929.34059,0.21093
927.85080,0.27279
926.36101,0.29473
924.87123,0.33594
923.38144,0.41521
921.89165,0.45359
920.40186,0.49199
918.91207,0.59709
917.42228,0.73663
915.93250,0.86681
914.44271,1.07981
912.95292,1.19066
911.46313,1.30154
909.97334,1.46864
908.48355,1.68174
906.99376,1.83565
905.50398,1.93928
904.01419,1.96856
902.52440,1.99787
901.03461,2.00000
899.54482,1.94776
898.05503,1.79493
896.56525,1.63780
895.07546,1.51065
893.58567,1.38353
892.09588,1.09938
890.60609,0.86244
889.11630,0.65440
887.62651,0.49861
886.13673,0.44731
884.64694,0.39603
883.15715,0.29640
881.66736,0.20522
880.17757,0.15546
878.68778,0.14340
877.19800,0.13136
875.70821,0.09467
874.21842,0.05704
872.72863,0.05699
871.23884,0.03145
869.74905,0.03132
868.25927,0.03122
866.76948,0.03247
865.27969,0.04144
863.78990,0.04996
862.30011,0.06091
860.81032,0.07140
859.32053,0.08192
857.83075,0.10377
856.34096,0.10976
854.85117,0.13022
853.36138,0.13674
851.87159,0.14629
850.38180,0.15587
848.89202,0.17595
847.40223,0.20206
845.91244,0.20582
844.42265,0.22873
842.93286,0.25167
841.44307,0.24828
839.95329,0.25285
838.46350,0.27839
836.97371,0.30251
835.48392,0.29404
833.99413,0.28559
832.50434,0.29943
831.01455,0.27623
829.52477,0.25667
828.03498,0.22268
826.54519,0.21496
825.05540,0.20726
823.56561,0.15530
822.07582,0.14886
820.58604,0.15230
819.09625,0.13688
817.60646,0.12148
816.11667,0.12909
814.62688,0.13841
813.13709,0.16605
811.64730,0.16170
810.15752,0.16219
808.66773,0.16270
807.17794,0.15505
805.68815,0.16524
804.19836,0.14946
802.70857,0.15043
801.21879,0.15143
799.72900,0.14270
798.23921,0.12774
796.74942,0.13494
795.25963,0.13904
793.76984,0.14317
792.28006,0.17789
790.79027,0.15197
789.30048,0.17760
787.81069,0.22105
786.32090,0.22795
784.83111,0.23487
783.34132,0.27647
781.85154,0.30679
780.36175,0.34844
778.87196,0.37459
777.38217,0.40077
775.89238,0.41048
774.40259,0.42190
772.91281,0.41169
771.42302,0.40547
769.93323,0.39927
768.44344,0.35158
766.95365,0.28562
765.46386,0.22979
763.97407,0.19590
762.48429,0.18236
760.99450,0.16885
759.50471,0.13695
758.01492,0.11181
756.52513,0.10403
755.03534,0.09820
753.54556,0.09239
752.05577,0.08709
750.56598,0.06641
749.07619,0.05177
747.58640,0.05123
746.09661,0.05072
744.60683,0.04169
743.11704,0.02330
741.62725,0.01071
740.13746,0.00789
738.64767,0.00509
737.15788,0.01986
735.66809,0.01371
734.17831,0.00783
732.68852,0.00774
731.19873,0.00769
729.70894,0.00693
728.21915,0.01149
726.72936,0.00549
725.23958,0.00900
723.74979,0.01614
722.26000,0.02330
720.77021,0.01220
719.28042,0.00906
717.79063,0.00499
716.30084,0.00382
714.81106,0.00269
713.32127,0.00650
711.83148,0.01708
710.34169,0.01156
708.85190,0.00847
707.36211,0.00540
705.87233,0.03990
704.38254,0.03448
702.89275,0.03461
701.40296,0.04199
699.91317,0.04940
698.42338,0.06453
696.93360,0.08546
695.44381,0.09318
693.95402,0.10104
692.46423,0.10893
690.97444,0.10155
689.48465,0.14475
687.99486,0.16198
686.50508,0.16190
685.01529,0.16184
683.52550,0.21284
682.03571,0.22174
680.54592,0.23668
679.05613,0.24238
677.56635,0.24811
676.07656,0.25012
674.58677,0.24182
673.09698,0.20561
671.60719,0.20409
670.11740,0.20260
668.62761,0.18452
667.13783,0.14648
665.64804,0.14277
664.15825,0.13909
662.66846,0.10763
661.17867,0.08125
659.68888,0.07655
658.19910,0.05443
656.70931,0.03233
655.21952,0.03541
653.72973,0.03731
652.23994,0.03780
650.75015,0.03650
649.26037,0.03522
647.77058,0.05286
646.28079,0.03780
644.79100,0.03070
643.30121,0.02772
641.81142,0.02476
640.32163,0.05022
638.83185,0.04852
637.34206,0.00833
635.85227,0.00762
634.36248,0.00695
632.87269,0.00509
631.38290,0.02129
629.89312,0.00840
628.40333,0.01888
626.91354,0.02938
625.42375,0.03364
623.93396,0.02686
622.44417,0.03455
620.95438,0.04226
619.46460,0.00065
617.97481,0.02862
616.48502,0.04387
614.99523,0.06768
613.50544,0.09152
612.01565,0.12874
610.52587,0.16960
609.03608,0.17943
607.54629,0.19000
606.05650,0.20060
604.56671,0.26875
603.07692,0.31815
601.58714,0.34435
600.09735,0.37058
598.60756,0.41909
597.11777,0.42550
595.62798,0.45071
594.13819,0.41782
592.64840,0.38496
591.15862,0.38979
589.66883,0.30077
588.17904,0.25774
586.68925,0.23376
585.19946,0.20980
583.70967,0.15554
582.21989,0.09456
580.73010,0.08584
579.24031,0.07714
577.75052,0.07448
576.26073,0.06872
574.77094,0.05336
573.28115,0.05198
571.79137,0.05062
570.30158,0.05868
568.81179,0.07350
567.32200,0.08473
565.83221,0.09599
564.34242,0.10511
562.85264,0.15589
561.36285,0.14845
559.87306,0.15655
558.38327,0.16468
556.89348,0.19462
555.40369,0.19570
553.91391,0.20054
552.42412,0.20539
550.93433,0.21425
549.44454,0.24022
547.95475,0.23829
546.46496,0.23217
544.97517,0.22608
543.48539,0.25166
541.99560,0.29316
540.50581,0.29243
539.01602,0.29173
537.52623,0.36098
536.03644,0.37778
534.54666,0.43889
533.05687,0.44515
531.56708,0.45143
530.07729,0.51623
528.58750,0.55120
527.09771,0.57393
525.60792,0.59667
524.11814,0.66903
522.62835,0.75874
521.13856,0.78541
519.64877,0.78202
518.15898,0.77865
516.66919,0.82802
515.17941,0.86321
513.68962,0.84945
512.19983,0.83571
510.71004,0.81056
509.22025,0.76738
507.73046,0.70786
506.24068,0.64368
504.75089,0.57951
503.26110,0.47650
501.77131,0.38988
500.28152,0.34420
498.79173,0.29855
497.30194,0.20887
495.81216,0.18084
494.32237,0.14416
492.83258,0.10751
491.34279,0.11855
489.85300,0.11444
488.36321,0.09952
486.87343,0.07633
485.38364,0.05316
483.89385,0.08068
482.40406,0.11424
480.91427,0.11822
479.42448,0.12223
477.93469,0.14744
476.44491,0.17123
474.95512,0.17038
473.46533,0.16955
471.97554,0.19461
470.48575,0.19660
468.99596,0.18778
467.50618,0.17176
466.01639,0.15577
464.52660,0.11284
463.03681,0.10676
461.54702,0.09397
460.05723,0.08120
458.56745,0.04656
457.07766,0.04010
455.58787,0.04389
454.09808,0.04771
452.60829,0.04132
451.11850,0.01498
449.62871,0.02477
448.13893,0.03458
446.64914,0.02059
445.15935,0.01649
443.66956,0.01386
442.17977,0.02209
440.68998,0.03034
439.20020,0.02200
437.71041,0.05028
436.22062,0.04596
434.73083,0.04167
433.24104,0.01779
431.75125,0.02859
430.26146,0.02438
428.77168,0.02018
427.28189,0.03250
425.79210,0.04364
424.30231,0.04241
422.81252,0.04121
421.32273,0.05531
419.83295,0.04392
418.34316,0.03123
416.85337,0.01857
415.36358,0.00509
413.87379,0.03187
412.38400,0.03147
410.89422,0.03110
409.40443,0.04207
407.91464,0.03524
406.42485,0.05203
404.93506,0.05140
403.44527,0.05079
401.95548,0.06789
400.46570,0.04049
398.97591,0.04585
397.48612,0.05123
395.99633,0.02944
394.50654,0.04089
393.01675,0.03203
391.52697,0.02319
390.03718,0.05208
388.54739,0.03646
387.05760,0.02352
385.56781,0.01060
384.07802,0.02563
382.58824,0.03394
381.09845,0.02495
379.60866,0.01598
378.11887,0.01738
376.62908,0.00509
375.13929,0.01479
373.64950,0.02451
372.15972,0.04870
370.66993,0.03585
369.18014,0.02811
367.69035,0.02039
366.20056,0.03544
364.71077,0.04715
363.22099,0.03891
361.73120,0.03068
360.24141,0.07664
358.75162,0.09302
357.26183,0.08138
355.77204,0.06977
354.28225,0.07033
352.79247,0.08922
351.30268,0.08297
349.81289,0.07675
348.32310,0.07163
346.83331,0.07978
345.34352,0.07111
343.85374,0.06246
342.36395,0.06538
340.87416,0.03054
339.38437,0.02546
337.89458,0.02039
336.40479,0.02053
334.91501,0.01732
333.42522,0.01341
331.93543,0.00953
330.44564,0.01096
328.95585,0.02109
327.46606,0.02739
325.97627,0.03371
324.48649,0.04367
322.99670,0.02982
321.50691,0.01744
320.01712,0.00509
318.52733,0.06199
317.03754,0.05321
315.54776,0.06010
314.05797,0.06702
312.56818,0.08984
311.07839,0.09488
309.58860,0.08598
308.09881,0.07710
306.60902,0.06512
305.11924,0.05942
303.62945,0.04713
302.13966,0.03486
300.64987,0.00565
299.16008,0.00509
