1778.52000,0.01532
1777.03021,0.01342
1775.54042,0.01602
1774.05063,0.01716
1772.56085,0.01533
1771.07106,0.00928
1769.58127,0.01772
1768.09148,0.01725
1766.60169,0.01062
1765.11190,0.00913
1763.62212,0.00958
1762.13233,0.00303
1760.64254,0.00502
1759.15275,0.01129
1757.66296,0.00822
1756.17317,0.00666
1754.68339,0.01279
1753.19360,0.00681
1751.70381,0.00469
1750.21402,0.00599
1748.72423,0.00413
1747.23444,0.00740
1745.74465,0.00729
1744.25487,0.00827
1742.76508,0.00352
1741.27529,0.00710
1739.78550,0.00581
1738.29571,0.00454
1736.80592,0.00988
1735.31614,0.00928
1733.82635,0.00807
1732.33656,0.01285
1730.84677,0.00764
1729.35698,0.00331
1727.86719,0.00454
1726.37740,0.00792
1724.88762,0.00047
1723.39783,0.00837
1721.90804,0.01204
1720.41825,0.00700
1718.92846,0.00113
1717.43867,0.00806
1715.94889,0.01119
1714.45910,0.00902
1712.96931,0.00303
1711.47952,0.00140
1709.98973,0.01234
1708.49994,0.01075
1707.01016,0.00727
1705.52037,0.00380
1704.03058,0.01144
1702.54079,0.01569
1701.05100,0.01060
1699.56121,0.01320
1698.07142,0.00964
1696.58164,0.00909
1695.09185,0.00303
1693.60206,0.01265
1692.11227,0.01675
1690.62248,0.01556
1689.13269,0.01311
1687.64291,0.01622
1686.15312,0.01914
1684.66333,0.02422
1683.17354,0.02506
1681.68375,0.02018
1680.19396,0.02128
1678.70417,0.01985
1677.21439,0.02271
1675.72460,0.04645
1674.23481,0.04148
1672.74502,0.05058
1671.25523,0.04608
1669.76544,0.05289
1668.27566,0.04822
1666.78587,0.05423
1665.29608,0.06899
1663.80629,0.08058
1662.31650,0.07558
1660.82671,0.07188
1659.33693,0.07375
1657.84714,0.07798
1656.35735,0.06989
1654.86756,0.07694
1653.37777,0.07613
1651.88798,0.07897
1650.39819,0.07800
1648.90841,0.08472
1647.41862,0.09424
1645.92883,0.08961
1644.43904,0.08501
1642.94925,0.07990
1641.45946,0.08525
1639.96968,0.08956
1638.47989,0.08878
1636.99010,0.07504
1635.50031,0.10157
1634.01052,0.09405
1632.52073,0.08890
1631.03094,0.09058
1629.54116,0.09059
1628.05137,0.10382
1626.56158,0.10026
1625.07179,0.11205
1623.58200,0.10597
1622.09221,0.10631
1620.60243,0.10391
1619.11264,0.11857
1617.62285,0.11046
1616.13306,0.09833
1614.64327,0.10049
1613.15348,0.10311
1611.66370,0.09829
1610.17391,0.08754
1608.68412,0.09193
1607.19433,0.10145
1605.70454,0.09631
1604.21475,0.09162
1602.72496,0.08694
1601.23518,0.10061
1599.74539,0.10174
1598.25560,0.09267
1596.76581,0.07894
1595.27602,0.08695
1593.78623,0.09733
1592.29645,0.10476
1590.80666,0.07558
1589.31687,0.06580
1587.82708,0.08011
1586.33729,0.06825
1584.84750,0.08474
1583.35771,0.08485
1581.86793,0.07605
1580.37814,0.08047
1578.88835,0.07640
1577.39856,0.05787
1575.90877,0.06875
1574.41898,0.06092
1572.92920,0.05077
1571.43941,0.04852
1569.94962,0.04332
1568.45983,0.03814
1566.97004,0.03809
1565.48025,0.03551
1563.99047,0.03956
1562.50068,0.02639
1561.01089,0.03943
1559.52110,0.03034
1558.03131,0.03023
1556.54152,0.02865
1555.05173,0.03263
1553.56195,0.00086
1552.07216,0.02022
1550.58237,0.01682
1549.09258,0.01749
1547.60279,0.00881
1546.11300,0.00378
1544.62322,0.00303
1543.13343,0.00739
1541.64364,0.00794
1540.15385,0.01054
1538.66406,0.01317
1537.17427,0.01826
1535.68448,0.01678
1534.19470,0.02235
1532.70491,0.00303
1531.21512,0.01820
1529.72533,0.00933
1528.23554,0.02561
1526.74575,0.02893
1525.25597,0.02205
1523.76618,0.01753
1522.27639,0.03263
1520.78660,0.03796
1519.29681,0.04140
1517.80702,0.03336
1516.31724,0.04515
1514.82745,0.04823
1513.33766,0.04612
1511.84787,0.04404
1510.35808,0.04677
1508.86829,0.04739
1507.37850,0.03079
1505.88872,0.04083
1504.39893,0.04579
1502.90914,0.04842
1501.41935,0.06195
1499.92956,0.07145
1498.43977,0.07032
1496.94999,0.07263
1495.46020,0.07390
1493.97041,0.09265
1492.48062,0.08289
1490.99083,0.11894
1489.50104,0.12904
1488.01125,0.13799
1486.52147,0.14696
1485.03168,0.16671
1483.54189,0.18244
1482.05210,0.20458
1480.56231,0.22270
1479.07252,0.23317
1477.58274,0.24389
1476.09295,0.23951
1474.60316,0.26581
1473.11337,0.26318
1471.62358,0.27272
1470.13379,0.28121
1468.64401,0.28589
1467.15422,0.32190
1465.66443,0.34154
1464.17464,0.36120
1462.68485,0.39430
1461.19506,0.44021
1459.70527,0.47400
1458.21549,0.50696
1456.72570,0.57317
1455.23591,0.61427
1453.74612,0.65710
1452.25633,0.69825
1450.76654,0.71877
1449.27676,0.71525
1447.78697,0.72389
1446.29718,0.69699
1444.80739,0.69194
1443.31760,0.68692
1441.82781,0.63177
1440.33802,0.58686
1438.84824,0.54582
1437.35845,0.49989
1435.86866,0.50724
1434.37887,0.53824
1432.88908,0.56544
1431.39929,0.62694
1429.90951,0.71765
1428.41972,0.79688
1426.92993,0.82950
1425.44014,0.87662
1423.95035,0.89959
1422.46056,0.92259
1420.97078,0.97745
1419.48099,0.97910
1417.99120,0.94925
1416.50141,0.96095
1415.01162,0.94862
1413.52183,0.92416
1412.03204,0.84735
1410.54226,0.75671
1409.05247,0.69272
1407.56268,0.65708
1406.07289,0.59995
1404.58310,0.56500
1403.09331,0.53007
1401.60353,0.48387
1400.11374,0.42556
1398.62395,0.39049
1397.13416,0.33947
1395.64437,0.26526
1394.15458,0.23346
1392.66479,0.17974
1391.17501,0.17865
1389.68522,0.13627
1388.19543,0.11904
1386.70564,0.11121
1385.21585,0.10340
1383.72606,0.07794
1382.23628,0.06528
1380.74649,0.02965
1379.25670,0.03514
1377.76691,0.02532
1376.27712,0.00701
1374.78733,0.00065
1373.29755,0.01343
1371.80776,0.01218
1370.31797,0.01393
1368.82818,0.00847
1367.33839,0.00303
1365.84860,0.01261
1364.35881,0.03818
1362.86903,0.03971
1361.37924,0.07321
1359.88945,0.10694
1358.39966,0.13005
1356.90987,0.16490
1355.42008,0.17699
1353.93030,0.23744
1352.44051,0.26778
1350.95072,0.29815
1349.46093,0.37124
1347.97114,0.46224
1346.48135,0.55071
1344.99156,0.62089
1343.50178,0.70174
1342.01199,0.72874
1340.52220,0.80772
1339.03241,0.87927
1337.54262,0.93871
1336.05283,0.95186
1334.56305,0.96503
1333.07326,0.98578
1331.58347,1.01891
1330.09368,1.01139
1328.60389,1.00730
1327.11410,0.99109
1325.62432,0.91486
1324.13453,0.87570
1322.64474,0.85105
1321.15495,0.82983
1319.66516,0.79447
1318.17537,0.75914
1316.68558,0.69178
1315.19580,0.63701
1313.70601,0.57949
1312.21622,0.57205
1310.72643,0.52246
1309.23664,0.48802
1307.74685,0.47809
1306.25707,0.44369
1304.76728,0.41550
1303.27749,0.38733
1301.78770,0.34449
1300.29791,0.28208
1298.80812,0.23460
1297.31834,0.21313
1295.82855,0.19062
1294.33876,0.16749
1292.84897,0.13778
1291.35918,0.11875
1289.86939,0.11358
1288.37960,0.10844
1286.88982,0.09437
1285.40003,0.09673
1283.91024,0.08293
1282.42045,0.08001
1280.93066,0.06392
1279.44087,0.05998
1277.95109,0.04756
1276.46130,0.03749
1274.97151,0.04599
1273.48172,0.05450
1271.99193,0.05111
1270.50214,0.04775
1269.01235,0.03270
1267.52257,0.02832
1266.03278,0.03333
1264.54299,0.02815
1263.05320,0.03130
1261.56341,0.02606
1260.07362,0.02084
1258.58384,0.01767
1257.09405,0.00643
1255.60426,0.01310
1254.11447,0.01959
1252.62468,0.01481
1251.13489,0.00303
1249.64511,0.01968
1248.15532,0.03315
1246.66553,0.02663
1245.17574,0.02014
1243.68595,0.00472
1242.19616,0.02358
1240.70637,0.00668
1239.21659,0.01239
1237.72680,0.03494
1236.23701,0.02323
1234.74722,0.02666
1233.25743,0.02394
1231.76764,0.02125
1230.27786,0.02114
1228.78807,0.02019
1227.29828,0.01629
1225.80849,0.01945
1224.31870,0.00303
1222.82891,0.01564
1221.33912,0.01549
1219.84934,0.02474
1218.35955,0.03402
1216.86976,0.06291
1215.37997,0.06733
1213.89018,0.07050
1212.40039,0.08072
1210.91061,0.08436
1209.42082,0.08569
1207.93103,0.07660
1206.44124,0.06754
1204.95145,0.07320
1203.46166,0.08143
1201.97188,0.05775
1200.48209,0.03835
1198.99230,0.04474
1197.50251,0.03732
1196.01272,0.04269
1194.52293,0.03350
1193.03314,0.02434
1191.54336,0.02510
1190.05357,0.01269
1188.56378,0.01669
1187.07399,0.01093
1185.58420,0.01562
1184.09441,0.01629
1182.60463,0.00942
1181.11484,0.00258
1179.62505,0.01037
1178.13526,0.01265
1176.64547,0.00303
1175.15568,0.02556
1173.66589,0.02340
1172.17611,0.00530
1170.68632,0.00415
1169.19653,0.00303
1167.70674,0.03182
1166.21695,0.02614
1164.72716,0.04539
1163.23738,0.05019
1161.74759,0.03798
1160.25780,0.05497
1158.76801,0.05803
1157.27822,0.06111
1155.78843,0.07902
1154.29865,0.08439
1152.80886,0.09277
1151.31907,0.11948
1149.82928,0.12024
1148.33949,0.12996
1146.84970,0.13173
1145.35991,0.13351
1143.87013,0.13266
1142.38034,0.15186
1140.89055,0.16404
1139.40076,0.16540
1137.91097,0.18445
1136.42118,0.19394
1134.93140,0.20750
1133.44161,0.22109
1131.95182,0.23363
1130.46203,0.26793
1128.97224,0.27796
1127.48245,0.24863
1125.99266,0.26298
1124.50288,0.25648
1123.01309,0.24414
1121.52330,0.23184
1120.03351,0.23180
1118.54372,0.24158
1117.05393,0.24840
1115.56415,0.26122
1114.07436,0.26426
1112.58457,0.25380
1111.09478,0.24336
1109.60499,0.23050
1108.11520,0.24002
1106.62542,0.24723
1105.13563,0.25638
1103.64584,0.22573
1102.15605,0.23237
1100.66626,0.23030
1099.17647,0.22825
1097.68668,0.21921
1096.19690,0.21849
1094.70711,0.21780
1093.21732,0.22373
1091.72753,0.22457
1090.23774,0.21607
1088.74795,0.20760
1087.25817,0.21490
1085.76838,0.22053
1084.27859,0.22512
1082.78880,0.21993
1081.29901,0.23138
1079.80922,0.25159
1078.31943,0.25403
1076.82965,0.25650
1075.33986,0.25591
1073.85007,0.24725
1072.36028,0.28312
1070.87049,0.29751
1069.38070,0.32938
1067.89092,0.34360
1066.40113,0.35785
1064.91134,0.41578
1063.42155,0.52590
1061.93176,0.63839
1060.44197,0.74836
1058.95219,0.88773
1057.46240,0.94631
1055.97261,1.00491
1054.48282,1.08665
1052.99303,1.14115
1051.50324,1.16160
1050.01345,1.12180
1048.52367,1.12037
1047.03388,1.08754
1045.54409,1.05474
1044.05430,1.02463
1042.56451,0.94641
1041.07472,0.86225
1039.58494,0.78621
1038.09515,0.67655
1036.60536,0.63442
1035.11557,0.59231
1033.62578,0.53341
1032.13599,0.44726
1030.64620,0.38010
1029.15642,0.32403
1027.66663,0.30909
1026.17684,0.29418
1024.68705,0.27183
1023.19726,0.24184
1021.70747,0.20421
1020.21769,0.16660
1018.72790,0.16331
1017.23811,0.15205
1015.74832,0.14081
1014.25853,0.11033
1012.76874,0.11054
1011.27896,0.11119
1009.78917,0.09697
1008.29938,0.07787
1006.80959,0.06774
1005.31980,0.05763
1003.83001,0.04073
1002.34022,0.03089
1000.85044,0.04768
999.36065,0.04981
997.87086,0.05356
996.38107,0.05734
994.89128,0.07870
993.40149,0.10669
991.91171,0.11682
990.42192,0.14465
988.93213,0.15696
987.44234,0.16950
985.95255,0.18207
984.46276,0.16655
982.97297,0.14849
981.48319,0.13281
979.99340,0.09841
978.50361,0.09417
977.01382,0.08995
975.52403,0.05818
974.03424,0.05518
972.54446,0.02899
971.05467,0.02370
969.56488,0.00288
968.07509,0.00423
966.58530,0.00560
965.09551,0.00997
963.60573,0.00670
962.11594,0.00815
960.62615,0.00748
959.13636,0.00524
957.64657,0.00303
956.15678,0.01341
954.66699,0.01488
953.17721,0.02254
951.68742,0.03257
950.19763,0.03016
948.70784,0.02778
947.21805,0.04384
945.72826,0.05887
944.23848,0.08903
942.74869,0.08707
941.25890,0.09705
939.76911,0.11356
938.27932,0.13009
936.78953,0.14483
935.29974,0.15448
933.80996,0.17800
932.32017,0.19239
930.83038,0.19211
929.34059,0.19185
927.85080,0.21079
926.36101,0.24124
924.87123,0.29771
923.38144,0.33247
921.89165,0.36918
920.40186,0.40590
918.91207,0.49803
917.42228,0.63851
915.93250,0.77115
914.44271,1.00219
912.95292,1.11209
911.46313,1.22200
909.97334,1.41372
908.48355,1.60589
906.99376,1.81065
905.50398,1.95154
904.01419,1.97576
902.52440,2.00000
901.03461,1.99615
899.54482,1.92142
898.05503,1.78367
896.56525,1.59867
895.07546,1.46736
893.58567,1.33607
892.09588,1.11153
890.60609,0.85337
889.11630,0.61695
887.62651,0.46894
886.13673,0.41529
884.64694,0.36167
883.15715,0.27399
881.66736,0.19912
880.17757,0.11618
878.68778,0.10098
877.19800,0.08581
875.70821,0.08280
874.21842,0.05468
872.72863,0.04938
871.23884,0.04751
869.74905,0.03256
868.25927,0.01764
866.76948,0.00924
865.27969,0.01321
863.78990,0.01657
862.30011,0.04913
860.81032,0.04413
859.32053,0.03915
857.83075,0.09499
856.34096,0.10741
854.85117,0.12710
853.36138,0.13787
851.87159,0.15058
850.38180,0.16331
848.89202,0.19034
847.40223,0.18949
845.91244,0.23062
844.42265,0.23174
842.93286,0.23288
841.44307,0.28005
839.95329,0.28698
838.46350,0.29480
836.97371,0.31158
835.48392,0.32083
833.99413,0.33010
832.50434,0.32758
831.01455,0.29420
829.52477,0.26191
828.03498,0.23284
826.54519,0.21604
825.05540,0.19926
823.56561,0.19965
822.07582,0.18261
820.58604,0.16430
819.09625,0.14943
817.60646,0.13459
816.11667,0.14851
814.62688,0.16055
813.13709,0.16579
811.64730,0.17319
810.15752,0.18136
808.66773,0.18955
807.17794,0.19319
805.68815,0.17193
804.19836,0.18328
802.70857,0.18944
801.21879,0.19562
799.72900,0.16999
798.23921,0.15546
796.74942,0.16821
795.25963,0.16416
793.76984,0.16013
792.28006,0.17998
790.79027,0.20901
789.30048,0.20868
787.81069,0.24926
786.32090,0.26335
784.83111,0.27746
783.34132,0.31769
781.85154,0.35986
780.36175,0.39012
778.87196,0.42211
777.38217,0.45413
775.89238,0.46040
774.40259,0.46926
772.91281,0.47196
771.42302,0.45743
769.93323,0.44293
768.44344,0.38203
766.95365,0.31774
765.46386,0.26882
763.97407,0.20990
762.48429,0.19712
760.99450,0.18436
759.50471,0.15662
758.01492,0.14848
756.52513,0.11567
755.03534,0.11834
753.54556,0.12104
752.05577,0.09639
750.56598,0.08348
749.07619,0.04824
747.58640,0.05656
746.09661,0.06492
744.60683,0.05104
743.11704,0.03357
741.62725,0.02698
740.13746,0.02723
738.64767,0.02750
737.15788,0.01992
735.66809,0.01108
734.17831,0.01271
732.68852,0.01830
731.19873,0.02391
729.70894,0.00303
728.21915,0.01496
726.72936,0.00435
725.23958,0.01356
723.74979,0.00831
722.26000,0.00309
720.77021,0.00454
719.28042,0.00942
717.79063,0.00260
716.30084,0.00338
714.81106,0.00417
713.32127,0.00382
711.83148,0.01691
710.34169,0.00000
708.85190,0.01657
707.36211,0.03316
705.87233,0.03327
704.38254,0.03958
702.89275,0.02931
701.40296,0.02257
699.91317,0.01586
698.42338,0.03845
696.93360,0.08620
695.44381,0.08584
693.95402,0.09743
692.46423,0.10905
690.97444,0.13410
689.48465,0.16600
687.99486,0.17023
686.50508,0.17758
685.01529,0.18495
683.52550,0.23185
682.03571,0.23426
680.54592,0.24841
679.05613,0.24395
677.56635,0.23952
676.07656,0.25672
674.58677,0.24861
673.09698,0.21624
671.60719,0.21063
670.11740,0.20504
668.62761,0.15805
667.13783,0.15069
665.64804,0.13463
664.15825,0.11860
662.66846,0.09790
661.17867,0.07105
659.68888,0.05998
658.19910,0.05267
656.70931,0.04538
655.21952,0.03140
653.72973,0.02043
652.23994,0.02098
650.75015,0.02508
649.26037,0.02919
647.77058,0.04430
646.28079,0.03345
644.79100,0.04413
643.30121,0.03695
641.81142,0.02980
640.32163,0.04481
638.83185,0.03813
637.34206,0.00613
635.85227,0.01091
634.36248,0.01571
632.87269,0.00861
631.38290,0.00303
629.89312,0.00845
628.40333,0.00740
626.91354,0.00638
625.42375,0.00165
623.93396,0.01590
622.44417,0.01388
620.95438,0.01189
619.46460,0.02536
617.97481,0.02841
616.48502,0.06685
614.99523,0.07815
613.50544,0.08948
612.01565,0.12352
610.52587,0.13415
609.03608,0.20039
607.54629,0.21182
606.05650,0.22327
604.56671,0.25934
603.07692,0.31588
601.58714,0.34795
600.09735,0.38005
598.60756,0.41984
597.11777,0.45347
595.62798,0.43815
594.13819,0.42179
592.64840,0.40546
591.15862,0.37786
589.66883,0.32302
588.17904,0.26928
586.68925,0.23749
585.19946,0.20573
583.70967,0.16973
582.21989,0.10203
580.73010,0.09291
579.24031,0.08382
577.75052,0.05729
576.26073,0.04889
574.77094,0.05030
573.28115,0.05419
571.79137,0.05810
570.30158,0.04107
568.81179,0.05557
567.32200,0.06104
565.83221,0.06654
564.34242,0.11008
562.85264,0.13575
561.36285,0.14910
559.87306,0.15544
558.38327,0.16181
556.89348,0.18268
555.40369,0.20826
553.91391,0.20884
552.42412,0.20945
550.93433,0.23127
549.44454,0.21542
547.95475,0.22557
546.46496,0.22734
544.97517,0.22913
543.48539,0.26640
541.99560,0.30860
540.50581,0.32643
539.01602,0.34429
537.52623,0.36335
536.03644,0.39819
534.54666,0.44412
533.05687,0.46091
531.56708,0.47772
530.07729,0.54034
528.58750,0.62066
527.09771,0.62572
525.60792,0.63080
524.11814,0.69331
522.62835,0.75860
521.13856,0.82264
519.64877,0.84721
518.15898,0.87179
516.66919,0.89864
515.17941,0.89271
513.68962,0.88766
512.19983,0.88264
510.71004,0.88168
509.22025,0.84860
507.73046,0.78402
506.24068,0.73192
504.75089,0.67984
503.26110,0.52674
501.77131,0.39603
500.28152,0.34839
498.79173,0.30078
497.30194,0.23019
495.81216,0.19370
494.32237,0.17736
492.83258,0.16104
491.34279,0.12803
489.85300,0.12826
488.36321,0.12895
486.87343,0.11464
485.38364,0.10036
483.89385,0.07408
482.40406,0.11660
480.91427,0.12092
479.42448,0.12526
477.93469,0.17360
476.44491,0.19641
474.95512,0.21467
473.46533,0.23295
471.97554,0.22752
470.48575,0.23360
468.99596,0.21522
467.50618,0.20762
466.01639,0.20004
464.52660,0.17023
463.03681,0.12043
461.54702,0.11058
460.05723,0.10076
458.56745,0.06636
457.07766,0.04838
455.58787,0.04619
454.09808,0.04402
452.60829,0.03996
451.11850,0.03167
449.62871,0.03979
448.13893,0.04795
446.64914,0.02588
445.15935,0.02790
443.66956,0.02463
442.17977,0.02254
440.68998,0.02049
439.20020,0.02687
437.71041,0.04264
436.22062,0.04481
434.73083,0.04700
433.24104,0.01365
431.75125,0.04890
430.26146,0.04829
428.77168,0.04770
427.28189,0.06151
425.79210,0.05597
424.30231,0.06046
422.81252,0.06498
421.32273,0.04801
419.83295,0.04213
418.34316,0.03980
416.85337,0.03749
415.36358,0.02125
413.87379,0.02676
412.38400,0.02985
410.89422,0.03296
409.40443,0.05217
407.91464,0.04756
406.42485,0.04616
404.93506,0.05182
403.44527,0.05750
401.95548,0.05809
400.46570,0.04721
398.97591,0.05126
397.48612,0.05533
395.99633,0.05687
394.50654,0.05460
393.01675,0.05225
391.52697,0.04993
390.03718,0.02388
388.54739,0.04645
387.05760,0.03263
385.56781,0.01883
384.07802,0.01358
382.58824,0.04285
381.09845,0.04446
379.60866,0.04609
378.11887,0.02368
376.62908,0.00449
375.13929,0.00375
373.64950,0.00303
372.15972,0.02860
370.66993,0.04376
369.18014,0.04425
367.69035,0.04477
366.20056,0.03636
364.71077,0.02564
363.22099,0.03155
361.73120,0.03749
360.24141,0.06134
358.75162,0.08181
357.26183,0.07121
355.77204,0.06063
354.28225,0.04582
352.79247,0.07681
351.30268,0.07419
349.81289,0.07159
348.32310,0.08413
346.83331,0.08605
345.34352,0.08043
343.85374,0.07484
342.36395,0.06512
340.87416,0.06735
339.38437,0.04777
337.89458,0.02822
336.40479,0.02371
334.91501,0.00303
333.42522,0.00535
331.93543,0.00769
330.44564,0.01197
328.95585,0.03438
327.46606,0.03317
325.97627,0.03199
324.48649,0.03185
322.99670,0.04238
321.50691,0.05432
320.01712,0.06628
318.52733,0.06049
317.03754,0.07580
315.54776,0.06420
314.05797,0.05262
312.56818,0.08036
311.07839,0.08235
309.58860,0.07404
308.09881,0.06575
306.60902,0.03331
305.11924,0.00303
303.62945,0.01074
302.13966,0.01816
300.64987,0.00792
299.16008,0.00303
