1778.52000,0.01130
1777.03021,0.00567
1775.54042,0.01128
1774.05063,0.01471
1772.56085,0.00893
1771.07106,0.00560
1769.58127,0.01020
1768.09148,0.00867
1766.60169,0.00102
1765.11190,0.00174
1763.62212,0.00489
1762.13233,0.00676
1760.64254,0.01392
1759.15275,0.00506
1757.66296,0.00832
1756.17317,0.00984
1754.68339,0.00875
1753.19360,0.01668
1751.70381,0.01125
1750.21402,0.00232
1748.72423,0.00967
1747.23444,0.01023
1745.74465,0.01104
1744.25487,0.00440
1742.76508,0.00719
1741.27529,0.01374
1739.78550,0.01153
1738.29571,0.01110
1736.80592,0.01706
1735.31614,0.00943
1733.82635,0.01126
1732.33656,0.01927
1730.84677,0.01391
1729.35698,0.01076
1727.86719,0.01204
1726.37740,0.01575
1724.88762,0.00169
1723.39783,0.01441
1721.90804,0.01749
1720.41825,0.01708
1718.92846,0.00900
1717.43867,0.00380
1715.94889,0.01785
1714.45910,0.01654
1712.96931,0.00603
1711.47952,0.01154
1709.98973,0.01180
1708.49994,0.00000
1707.01016,0.00295
1705.52037,0.00591
1704.03058,0.01001
1702.54079,0.00402
1701.05100,0.00947
1699.56121,0.01408
1698.07142,0.01123
1696.58164,0.00622
1695.09185,0.01462
1693.60206,0.01559
1692.11227,0.00845
1690.62248,0.00506
1689.13269,0.01375
1687.64291,0.01917
1686.15312,0.02790
1684.66333,0.02502
1683.17354,0.02259
1681.68375,0.01668
1680.19396,0.01848
1678.70417,0.01745
1677.21439,0.03094
1675.72460,0.03259
1674.23481,0.03185
1672.74502,0.03553
1671.25523,0.03352
1669.76544,0.04076
1668.27566,0.04560
1666.78587,0.04718
1665.29608,0.06262
1663.80629,0.05831
1662.31650,0.05513
1660.82671,0.07196
1659.33693,0.06201
1657.84714,0.06219
1656.35735,0.05976
1654.86756,0.06152
1653.37777,0.07584
1651.88798,0.06777
1650.39819,0.06411
1648.90841,0.07191
1647.41862,0.06391
1645.92883,0.06889
1644.43904,0.07390
1642.94925,0.07103
1641.45946,0.08048
1639.96968,0.06952
1638.47989,0.08056
1636.99010,0.08810
1635.50031,0.09282
1634.01052,0.08262
1632.52073,0.08145
1631.03094,0.08909
1629.54116,0.07478
1628.05137,0.08841
1626.56158,0.08645
1625.07179,0.07705
1623.58200,0.08350
1622.09221,0.07942
1620.60243,0.07888
1619.11264,0.08957
1617.62285,0.08270
1616.13306,0.08553
1614.64327,0.07300
1613.15348,0.07698
1611.66370,0.07768
1610.17391,0.07643
1608.68412,0.09497
1607.19433,0.09004
1605.70454,0.10467
1604.21475,0.10011
1602.72496,0.09558
1601.23518,0.08107
1599.74539,0.09624
1598.25560,0.08529
1596.76581,0.07723
1595.27602,0.08434
1593.78623,0.08599
1592.29645,0.07822
1590.80666,0.08365
1589.31687,0.07307
1587.82708,0.08667
1586.33729,0.08031
1584.84750,0.08584
1583.35771,0.09337
1581.86793,0.07939
1580.37814,0.08367
1578.88835,0.08995
1577.39856,0.08724
1575.90877,0.06677
1574.41898,0.06631
1572.92920,0.06610
1571.43941,0.05514
1569.94962,0.05344
1568.45983,0.05176
1566.97004,0.04571
1565.48025,0.04232
1563.99047,0.03983
1562.50068,0.04110
1561.01089,0.03581
1559.52110,0.04086
1558.03131,0.03539
1556.54152,0.03105
1555.05173,0.03463
1553.56195,0.02638
1552.07216,0.02672
1550.58237,0.01522
1549.09258,0.00506
1547.60279,0.01068
1546.11300,0.01214
1544.62322,0.01583
1543.13343,0.00701
1541.64364,0.02572
1540.15385,0.01963
1538.66406,0.01356
1537.17427,0.01609
1535.68448,0.00941
1534.19470,0.02143
1532.70491,0.00843
1531.21512,0.01923
1529.72533,0.02084
1528.23554,0.01302
1526.74575,0.02082
1525.25597,0.03304
1523.76618,0.01584
1522.27639,0.02987
1520.78660,0.04480
1519.29681,0.03844
1517.80702,0.04243
1516.31724,0.03809
1514.82745,0.05861
1513.33766,0.05356
1511.84787,0.04852
1510.35808,0.05901
1508.86829,0.04491
1507.37850,0.06225
1505.88872,0.05610
1504.39893,0.05591
1502.90914,0.07245
1501.41935,0.06528
1499.92956,0.07153
1498.43977,0.05848
1496.94999,0.06961
1495.46020,0.09286
1493.97041,0.09196
1492.48062,0.10119
1490.99083,0.10144
1489.50104,0.11752
1488.01125,0.12210
1486.52147,0.12671
1485.03168,0.15077
1483.54189,0.17662
1482.05210,0.17789
1480.56231,0.19566
1479.07252,0.21082
1477.58274,0.19986
1476.09295,0.20584
1474.60316,0.21557
1473.11337,0.22358
1471.62358,0.22611
1470.13379,0.23812
1468.64401,0.26223
1467.15422,0.29208
1465.66443,0.30075
1464.17464,0.30945
1462.68485,0.30531
1461.19506,0.35679
1459.70527,0.40345
1458.21549,0.44487
1456.72570,0.51728
1455.23591,0.57193
1453.74612,0.61715
1452.25633,0.64921
1450.76654,0.66329
1449.27676,0.68727
1447.78697,0.69414
1446.29718,0.67907
1444.80739,0.65940
1443.31760,0.63977
1441.82781,0.58126
1440.33802,0.53026
1438.84824,0.48191
1437.35845,0.47203
1435.86866,0.48217
1434.37887,0.49892
1432.88908,0.55349
1431.39929,0.60786
1429.90951,0.69674
1428.41972,0.74610
1426.92993,0.81240
1425.44014,0.85522
1423.95035,0.87566
1422.46056,0.89612
1420.97078,0.93066
1419.48099,0.91997
1417.99120,0.96050
1416.50141,0.92481
1415.01162,0.88607
1413.52183,0.86911
1412.03204,0.79373
1410.54226,0.75067
1409.05247,0.67182
1407.56268,0.64265
1406.07289,0.58231
1404.58310,0.53671
1403.09331,0.49113
1401.60353,0.45437
1400.11374,0.40576
1398.62395,0.36531
1397.13416,0.30599
1395.64437,0.24999
1394.15458,0.20411
1392.66479,0.17606
1391.17501,0.14979
1389.68522,0.12705
1388.19543,0.10500
1386.70564,0.09385
1385.21585,0.08272
1383.72606,0.06052
1382.23628,0.03813
1380.74649,0.03992
1379.25670,0.01692
1377.76691,0.01569
1376.27712,0.01272
1374.78733,0.00956
1373.29755,0.01125
1371.80776,0.00506
1370.31797,0.00606
1368.82818,0.01004
1367.33839,0.01405
1365.84860,0.02170
1364.35881,0.03268
1362.86903,0.04434
1361.37924,0.06766
1359.88945,0.09101
1358.39966,0.09835
1356.90987,0.12834
1355.42008,0.15967
1353.93030,0.21343
1352.44051,0.25535
1350.95072,0.29730
1349.46093,0.37112
1347.97114,0.42959
1346.48135,0.51050
1344.99156,0.56089
1343.50178,0.62712
1342.01199,0.71249
1340.52220,0.78712
1339.03241,0.82201
1337.54262,0.82528
1336.05283,0.83990
1334.56305,0.85454
1333.07326,0.87260
1331.58347,0.90410
1330.09368,0.88926
1328.60389,0.85994
1327.11410,0.83087
1325.62432,0.78008
1324.13453,0.74930
1322.64474,0.73656
1321.15495,0.70582
1319.66516,0.68687
1318.17537,0.66794
1316.68558,0.60125
1315.19580,0.57479
1313.70601,0.52814
1312.21622,0.50018
1310.72643,0.45402
1309.23664,0.43051
1307.74685,0.38923
1306.25707,0.35478
1304.76728,0.34672
1303.27749,0.33868
1301.78770,0.26674
1300.29791,0.23195
1298.80812,0.18114
1297.31834,0.16200
1295.82855,0.14463
1294.33876,0.12224
1292.84897,0.10119
1291.35918,0.10213
1289.86939,0.09387
1288.37960,0.08563
1286.88982,0.08247
1285.40003,0.07801
1283.91024,0.05996
1282.42045,0.05534
1280.93066,0.05095
1279.44087,0.05077
1277.95109,0.04138
1276.46130,0.04915
1274.97151,0.03739
1273.48172,0.02566
1271.99193,0.02230
1270.50214,0.03104
1269.01235,0.02465
1267.52257,0.03850
1266.03278,0.02513
1264.54299,0.01991
1263.05320,0.03075
1261.56341,0.02591
1260.07362,0.02109
1258.58384,0.03245
1257.09405,0.00516
1255.60426,0.01348
1254.11447,0.01502
1252.62468,0.01966
1251.13489,0.00807
1249.64511,0.00506
1248.15532,0.00620
1246.66553,0.00967
1245.17574,0.01317
1243.68595,0.01856
1242.19616,0.01606
1240.70637,0.02522
1239.21659,0.01860
1237.72680,0.02430
1236.23701,0.01311
1234.74722,0.02105
1233.25743,0.01914
1231.76764,0.01724
1230.27786,0.02856
1228.78807,0.03748
1227.29828,0.01720
1225.80849,0.01255
1224.31870,0.00506
1222.82891,0.01035
1221.33912,0.02467
1219.84934,0.02868
1218.35955,0.03272
1216.86976,0.05106
1215.37997,0.06767
1213.89018,0.06607
1212.40039,0.05988
1210.91061,0.06535
1209.42082,0.07173
1207.93103,0.06484
1206.44124,0.05798
1204.95145,0.06245
1203.46166,0.05662
1201.97188,0.06246
1200.48209,0.04658
1198.99230,0.05378
1197.50251,0.04915
1196.01272,0.04432
1194.52293,0.03742
1193.03314,0.03055
1191.54336,0.04447
1190.05357,0.02260
1188.56378,0.02843
1187.07399,0.02638
1185.58420,0.03907
1184.09441,0.01115
1182.60463,0.00851
1181.11484,0.00590
1179.62505,0.00506
1178.13526,0.01369
1176.64547,0.01377
1175.15568,0.01805
1173.66589,0.02784
1172.17611,0.02206
1170.68632,0.01763
1169.19653,0.01321
1167.70674,0.01300
1166.21695,0.02555
1164.72716,0.02648
1163.23738,0.04765
1161.74759,0.04225
1160.25780,0.05929
1158.76801,0.06329
1157.27822,0.06730
1155.78843,0.06969
1154.29865,0.08200
1152.80886,0.08334
1151.31907,0.09195
1149.82928,0.10916
1148.33949,0.10992
1146.84970,0.11564
1145.35991,0.12138
1143.87013,0.12836
1142.38034,0.13668
1140.89055,0.14898
1139.40076,0.15097
1137.91097,0.16771
1136.42118,0.18448
1134.93140,0.18918
1133.44161,0.19391
1131.95182,0.21931
1130.46203,0.21288
1128.97224,0.22383
1127.48245,0.23481
1125.99266,0.22450
1124.50288,0.22717
1123.01309,0.22372
1121.52330,0.22029
1120.03351,0.22479
1118.54372,0.20801
1117.05393,0.22970
1115.56415,0.21934
1114.07436,0.21954
1112.58457,0.21757
1111.09478,0.21563
1109.60499,0.19745
1108.11520,0.20676
1106.62542,0.23982
1105.13563,0.21974
1103.64584,0.22868
1102.15605,0.22820
1100.66626,0.21533
1099.17647,0.20248
1097.68668,0.18559
1096.19690,0.19685
1094.70711,0.17320
1093.21732,0.19285
1091.72753,0.18880
1090.23774,0.17632
1088.74795,0.16386
1087.25817,0.16098
1085.76838,0.16537
1084.27859,0.16847
1082.78880,0.15732
1081.29901,0.17189
1079.80922,0.17858
1078.31943,0.17221
1076.82965,0.16588
1075.33986,0.18626
1073.85007,0.19128
1072.36028,0.18688
1070.87049,0.21239
1069.38070,0.24033
1067.89092,0.25270
1066.40113,0.26510
1064.91134,0.31882
1063.42155,0.37651
1061.93176,0.46785
1060.44197,0.55152
1058.95219,0.59720
1057.46240,0.63182
1055.97261,0.66646
1054.48282,0.74605
1052.99303,0.85027
1051.50324,0.82929
1050.01345,0.83799
1048.52367,0.80959
1047.03388,0.80516
1045.54409,0.80075
1044.05430,0.76364
1042.56451,0.69161
1041.07472,0.67014
1039.58494,0.62651
1038.09515,0.56729
1036.60536,0.53271
1035.11557,0.49816
1033.62578,0.44253
1032.13599,0.37815
1030.64620,0.33992
1029.15642,0.32809
1027.66663,0.29827
1026.17684,0.26847
1024.68705,0.24704
1023.19726,0.20081
1021.70747,0.14560
1020.21769,0.13039
1018.72790,0.12619
1017.23811,0.11894
1015.74832,0.11172
1014.25853,0.08782
1012.76874,0.07977
1011.27896,0.07811
1009.78917,0.08042
1008.29938,0.06783
1006.80959,0.06580
1005.31980,0.06379
1003.83001,0.04643
1002.34022,0.02492
1000.85044,0.03134
999.36065,0.01933
997.87086,0.02436
996.38107,0.02942
994.89128,0.04538
993.40149,0.05960
991.91171,0.07231
990.42192,0.10877
988.93213,0.10286
987.44234,0.11443
985.95255,0.12603
984.46276,0.11425
982.97297,0.11282
981.48319,0.09846
979.99340,0.08126
978.50361,0.07848
977.01382,0.07572
975.52403,0.04454
974.03424,0.02568
972.54446,0.01849
971.05467,0.00912
969.56488,0.00528
968.07509,0.01138
966.58530,0.01751
965.09551,0.01356
963.60573,0.01578
962.11594,0.00506
960.62615,0.01730
959.13636,0.01539
957.64657,0.01350
956.15678,0.01285
954.66699,0.02232
953.17721,0.04215
951.68742,0.03673
950.19763,0.03936
948.70784,0.04201
947.21805,0.04721
945.72826,0.07594
944.23848,0.08734
942.74869,0.08910
941.25890,0.11065
939.76911,0.12267
938.27932,0.13472
936.78953,0.15283
935.29974,0.17843
933.80996,0.18451
932.32017,0.20511
930.83038,0.21145
929.34059,0.21781
927.85080,0.24178
926.36101,0.27192
924.87123,0.31549
923.38144,0.34150
921.89165,0.36864
920.40186,0.39580
918.91207,0.50954
917.42228,0.63956
915.93250,0.75995
914.44271,0.94801
912.95292,1.05856
911.46313,1.16912
909.97334,1.38714
908.48355,1.61441
906.99376,1.81029
905.50398,1.92798
904.01419,1.95618
902.52440,1.98439
901.03461,2.00000
899.54482,1.99322
898.05503,1.85861
896.56525,1.68821
895.07546,1.55057
893.58567,1.41296
892.09588,1.12180
890.60609,0.88471
889.11630,0.66412
887.62651,0.50815
886.13673,0.43557
884.64694,0.36302
883.15715,0.25171
881.66736,0.17580
880.17757,0.13220
878.68778,0.11873
877.19800,0.10528
875.70821,0.06725
874.21842,0.05166
872.72863,0.04509
871.23884,0.03503
869.74905,0.02379
868.25927,0.01257
866.76948,0.01204
865.27969,0.00647
863.78990,0.02026
862.30011,0.05208
860.81032,0.04066
859.32053,0.02925
857.83075,0.06445
856.34096,0.07813
854.85117,0.07603
853.36138,0.09855
851.87159,0.10440
850.38180,0.11028
848.89202,0.12211
847.40223,0.12562
845.91244,0.15331
844.42265,0.16423
842.93286,0.17516
841.44307,0.18492
839.95329,0.18701
838.46350,0.21109
836.97371,0.22267
835.48392,0.22219
833.99413,0.22174
832.50434,0.22043
831.01455,0.21212
829.52477,0.17769
828.03498,0.16107
826.54519,0.15019
825.05540,0.13934
823.56561,0.12477
822.07582,0.11551
820.58604,0.10450
819.09625,0.10627
817.60646,0.10805
816.11667,0.10327
814.62688,0.08907
813.13709,0.11378
811.64730,0.11566
810.15752,0.11197
808.66773,0.10830
807.17794,0.11069
805.68815,0.12212
804.19836,0.10413
802.70857,0.10747
801.21879,0.11084
799.72900,0.10171
798.23921,0.09766
796.74942,0.10483
795.25963,0.11159
793.76984,0.11837
792.28006,0.10848
790.79027,0.12564
789.30048,0.12041
787.81069,0.16684
786.32090,0.17198
784.83111,0.17715
783.34132,0.21617
781.85154,0.23238
780.36175,0.27584
778.87196,0.29055
777.38217,0.30529
775.89238,0.33169
774.40259,0.34450
772.91281,0.33778
771.42302,0.32284
769.93323,0.30792
768.44344,0.27337
766.95365,0.22918
765.46386,0.19424
763.97407,0.14855
762.48429,0.13486
760.99450,0.12118
759.50471,0.11424
758.01492,0.09259
756.52513,0.09866
755.03534,0.08695
753.54556,0.07526
752.05577,0.07920
750.56598,0.07174
749.07619,0.05310
747.58640,0.04985
746.09661,0.04664
744.60683,0.04388
743.11704,0.03303
741.62725,0.02263
740.13746,0.02357
738.64767,0.02454
737.15788,0.04563
735.66809,0.01622
734.17831,0.02879
732.68852,0.03007
731.19873,0.03138
729.70894,0.02403
728.21915,0.00506
726.72936,0.01544
725.23958,0.03440
723.74979,0.03307
722.26000,0.03176
720.77021,0.01477
719.28042,0.01889
717.79063,0.01578
716.30084,0.01193
714.81106,0.00811
713.32127,0.01452
711.83148,0.03062
710.34169,0.03621
708.85190,0.03039
707.36211,0.02460
705.87233,0.03223
704.38254,0.05372
702.89275,0.03965
701.40296,0.04582
699.91317,0.05201
698.42338,0.06833
696.93360,0.08247
695.44381,0.09752
693.95402,0.11007
692.46423,0.12264
690.97444,0.13073
689.48465,0.14697
687.99486,0.16170
686.50508,0.18128
685.01529,0.20089
683.52550,0.22887
682.03571,0.23403
680.54592,0.26008
679.05613,0.26112
677.56635,0.26217
676.07656,0.26874
674.58677,0.24744
673.09698,0.20858
671.60719,0.20468
670.11740,0.20080
668.62761,0.17190
667.13783,0.16126
665.64804,0.14944
664.15825,0.13763
662.66846,0.10466
661.17867,0.08269
659.68888,0.06448
658.19910,0.05464
656.70931,0.04482
655.21952,0.03745
653.72973,0.04834
652.23994,0.05924
650.75015,0.05919
649.26037,0.05916
647.77058,0.03917
646.28079,0.02688
644.79100,0.05680
643.30121,0.05610
641.81142,0.05542
640.32163,0.04346
638.83185,0.03744
637.34206,0.02816
635.85227,0.02088
634.36248,0.01362
632.87269,0.00506
631.38290,0.02085
629.89312,0.03578
628.40333,0.03954
626.91354,0.04331
625.42375,0.04294
623.93396,0.03688
622.44417,0.03699
620.95438,0.03712
619.46460,0.02388
617.97481,0.03747
616.48502,0.05767
614.99523,0.06570
613.50544,0.07376
612.01565,0.11885
610.52587,0.15079
609.03608,0.18649
607.54629,0.20354
606.05650,0.22061
604.56671,0.22628
603.07692,0.29459
601.58714,0.32470
600.09735,0.35483
598.60756,0.38081
597.11777,0.41999
595.62798,0.39834
594.13819,0.38639
592.64840,0.37446
591.15862,0.34453
589.66883,0.30695
588.17904,0.25950
586.68925,0.23986
585.19946,0.22025
583.70967,0.15442
582.21989,0.10201
580.73010,0.10060
579.24031,0.09921
577.75052,0.07301
576.26073,0.05014
574.77094,0.04596
573.28115,0.04258
571.79137,0.03922
570.30158,0.03951
568.81179,0.05257
567.32200,0.06148
565.83221,0.07040
564.34242,0.08331
562.85264,0.09141
561.36285,0.11755
559.87306,0.11570
558.38327,0.11387
556.89348,0.14096
555.40369,0.12743
553.91391,0.13337
552.42412,0.13932
550.93433,0.16585
549.44454,0.16823
547.95475,0.18777
546.46496,0.18021
544.97517,0.17266
543.48539,0.18657
541.99560,0.21148
540.50581,0.22521
539.01602,0.23896
537.52623,0.27778
536.03644,0.34892
534.54666,0.36802
533.05687,0.37737
531.56708,0.38673
530.07729,0.45006
528.58750,0.50353
527.09771,0.53043
525.60792,0.55736
524.11814,0.63638
522.62835,0.71279
521.13856,0.75913
519.64877,0.76979
518.15898,0.78047
516.66919,0.82490
515.17941,0.80740
513.68962,0.80289
512.19983,0.79840
510.71004,0.76493
509.22025,0.73654
507.73046,0.67698
506.24068,0.61371
504.75089,0.55046
503.26110,0.45934
501.77131,0.37043
500.28152,0.32066
498.79173,0.27091
497.30194,0.19987
495.81216,0.16467
494.32237,0.14531
492.83258,0.12597
491.34279,0.10643
489.85300,0.09417
488.36321,0.08348
486.87343,0.07335
485.38364,0.06325
483.89385,0.05548
482.40406,0.08728
480.91427,0.09142
479.42448,0.09558
477.93469,0.12372
476.44491,0.11409
474.95512,0.13315
473.46533,0.15224
471.97554,0.13280
470.48575,0.14611
468.99596,0.16099
467.50618,0.14436
466.01639,0.12776
464.52660,0.11108
463.03681,0.09947
461.54702,0.08250
460.05723,0.06555
458.56745,0.04435
457.07766,0.03217
455.58787,0.03123
454.09808,0.03031
452.60829,0.02172
451.11850,0.01821
449.62871,0.01670
448.13893,0.01521
446.64914,0.01924
445.15935,0.00506
443.66956,0.01381
442.17977,0.02115
440.68998,0.02852
439.20020,0.05250
437.71041,0.02817
436.22062,0.01660
434.73083,0.00506
433.24104,0.03232
431.75125,0.02972
430.26146,0.03308
428.77168,0.03646
427.28189,0.04734
425.79210,0.02726
424.30231,0.03445
422.81252,0.04166
421.32273,0.03769
419.83295,0.02869
418.34316,0.01598
416.85337,0.00330
415.36358,0.00865
413.87379,0.01711
412.38400,0.02855
410.89422,0.04002
409.40443,0.03690
407.91464,0.02611
406.42485,0.05446
404.93506,0.05328
403.44527,0.05212
401.95548,0.04012
400.46570,0.03714
398.97591,0.04594
397.48612,0.05477
395.99633,0.01979
394.50654,0.02614
393.01675,0.03658
391.52697,0.04704
390.03718,0.03412
388.54739,0.03200
387.05760,0.03341
385.56781,0.03485
384.07802,0.02203
382.58824,0.04610
381.09845,0.04261
379.60866,0.03915
378.11887,0.03231
376.62908,0.00506
375.13929,0.01039
373.64950,0.01574
372.15972,0.01397
370.66993,0.04606
369.18014,0.03533
367.69035,0.02463
366.20056,0.01818
364.71077,0.02251
363.22099,0.02093
361.73120,0.01938
360.24141,0.07080
358.75162,0.08182
357.26183,0.07551
355.77204,0.06922
354.28225,0.06932
352.79247,0.06836
351.30268,0.06642
349.81289,0.06451
348.32310,0.06274
346.83331,0.07065
345.34352,0.06948
343.85374,0.06832
342.36395,0.04599
340.87416,0.02874
339.38437,0.01689
337.89458,0.00506
336.40479,0.01414
334.91501,0.02654
333.42522,0.01919
331.93543,0.01187
330.44564,0.01775
328.95585,0.03178
327.46606,0.03365
325.97627,0.03553
324.48649,0.05908
322.99670,0.03455
321.50691,0.03903
320.01712,0.04354
318.52733,0.05225
317.03754,0.08866
315.54776,0.07754
314.05797,0.06643
312.56818,0.08359
311.07839,0.08582
309.58860,0.08501
308.09881,0.08422
306.60902,0.06280
305.11924,0.02888
303.62945,0.01718
302.13966,0.00550
300.64987,0.01329
299.16008,0.00506
