1778.52000,0.01219
1777.03021,0.01094
1775.54042,0.00670
1774.05063,0.00631
1772.56085,0.00977
1771.07106,0.00862
1769.58127,0.01193
1768.09148,0.01626
1766.60169,0.02264
1765.11190,0.01353
1763.62212,0.01492
1762.13233,0.01352
1760.64254,0.00972
1759.15275,0.00655
1757.66296,0.00401
1756.17317,0.00995
1754.68339,0.00746
1753.19360,0.01285
1751.70381,0.01201
1750.21402,0.00879
1748.72423,0.01042
1747.23444,0.00000
1745.74465,0.01014
1744.25487,0.01265
1742.76508,0.00391
1741.27529,0.01049
1739.78550,0.00401
1738.29571,0.00927
1736.80592,0.00831
1735.31614,0.00857
1733.82635,0.00504
1732.33656,0.01180
1730.84677,0.01033
1729.35698,0.01473
1727.86719,0.01330
1726.37740,0.02338
1724.88762,0.01376
1723.39783,0.00093
1721.90804,0.01088
1720.41825,0.01159
1718.92846,0.01233
1717.43867,0.00645
1715.94889,0.00401
1714.45910,0.00750
1712.96931,0.01563
1711.47952,0.01050
1709.98973,0.01426
1708.49994,0.00656
1707.01016,0.00875
1705.52037,0.01097
1704.03058,0.00878
1702.54079,0.00320
1701.05100,0.00549
1699.56121,0.00599
1698.07142,0.00953
1696.58164,0.00364
1695.09185,0.00401
1693.60206,0.01170
1692.11227,0.01457
1690.62248,0.00761
1689.13269,0.01456
1687.64291,0.01046
1686.15312,0.01061
1684.66333,0.02086
1683.17354,0.02770
1681.68375,0.01927
1680.19396,0.01690
1678.70417,0.02543
1677.21439,0.02996
1675.72460,0.04780
1674.23481,0.03586
1672.74502,0.03463
1671.25523,0.03603
1669.76544,0.04108
1668.27566,0.04897
1666.78587,0.05649
1665.29608,0.05920
1663.80629,0.05669
1662.31650,0.05422
1660.82671,0.06928
1659.33693,0.07087
1657.84714,0.05740
1656.35735,0.06287
1654.86756,0.06333
1653.37777,0.07307
1651.88798,0.07962
1650.39819,0.06808
1648.90841,0.07307
1647.41862,0.07848
1645.92883,0.07637
1644.43904,0.07428
1642.94925,0.07252
1641.45946,0.07924
1639.96968,0.07089
1638.47989,0.08490
1636.99010,0.08364
1635.50031,0.07939
1634.01052,0.08160
1632.52073,0.08464
1631.03094,0.08911
1629.54116,0.09079
1628.05137,0.09551
1626.56158,0.08597
1625.07179,0.09074
1623.58200,0.08970
1622.09221,0.09049
1620.60243,0.11185
1619.11264,0.10947
1617.62285,0.09825
1616.13306,0.08606
1614.64327,0.07751
1613.15348,0.08751
1611.66370,0.07660
1610.17391,0.08886
1608.68412,0.08866
1607.19433,0.09051
1605.70454,0.09076
1604.21475,0.09557
1602.72496,0.10040
1601.23518,0.09973
1599.74539,0.09142
1598.25560,0.08415
1596.76581,0.07952
1595.27602,0.08940
1593.78623,0.08341
1592.29645,0.07462
1590.80666,0.06969
1589.31687,0.06558
1587.82708,0.07297
1586.33729,0.07757
1584.84750,0.08138
1583.35771,0.07456
1581.86793,0.07842
1580.37814,0.06902
1578.88835,0.07314
1577.39856,0.07405
1575.90877,0.06312
1574.41898,0.06147
1572.92920,0.04514
1571.43941,0.04636
1569.94962,0.03844
1568.45983,0.03055
1566.97004,0.03667
1565.48025,0.02590
1563.99047,0.02321
1562.50068,0.01813
1561.01089,0.00401
1559.52110,0.01999
1558.03131,0.02250
1556.54152,0.02182
1555.05173,0.02800
1553.56195,0.02032
1552.07216,0.00903
1550.58237,0.00663
1549.09258,0.01694
1547.60279,0.00493
1546.11300,0.00924
1544.62322,0.00815
1543.13343,0.01654
1541.64364,0.00401
1540.15385,0.00930
1538.66406,0.01460
1537.17427,0.01399
1535.68448,0.00737
1534.19470,0.00701
1532.70491,0.00957
1531.21512,0.00934
1529.72533,0.01981
1528.23554,0.01218
1526.74575,0.03195
1525.25597,0.03343
1523.76618,0.02607
1522.27639,0.02982
1520.78660,0.03398
1519.29681,0.04623
1517.80702,0.04864
1516.31724,0.04643
1514.82745,0.04164
1513.33766,0.04673
1511.84787,0.05185
1510.35808,0.04250
1508.86829,0.05673
1507.37850,0.04441
1505.88872,0.04620
1504.39893,0.05486
1502.90914,0.06053
1501.41935,0.05958
1499.92956,0.07597
1498.43977,0.07204
1496.94999,0.06935
1495.46020,0.08903
1493.97041,0.11155
1492.48062,0.12323
1490.99083,0.10332
1489.50104,0.12632
1488.01125,0.12800
1486.52147,0.12971
1485.03168,0.17231
1483.54189,0.21070
1482.05210,0.21691
1480.56231,0.21952
1479.07252,0.25054
1477.58274,0.26447
1476.09295,0.26474
1474.60316,0.28073
1473.11337,0.27823
1471.62358,0.27534
1470.13379,0.27832
1468.64401,0.30690
1467.15422,0.31919
1465.66443,0.32506
1464.17464,0.33095
1462.68485,0.36385
1461.19506,0.40100
1459.70527,0.44200
1458.21549,0.50275
1456.72570,0.56715
1455.23591,0.65473
1453.74612,0.68233
1452.25633,0.74419
1450.76654,0.74587
1449.27676,0.75342
1447.78697,0.72657
1446.29718,0.69188
1444.80739,0.67967
1443.31760,0.66749
1441.82781,0.64073
1440.33802,0.58340
1438.84824,0.54541
1437.35845,0.52276
1435.86866,0.49287
1434.37887,0.51657
1432.88908,0.52861
1431.39929,0.60893
1429.90951,0.73356
1428.41972,0.78432
1426.92993,0.83230
1425.44014,0.86117
1423.95035,0.91121
1422.46056,0.96127
1420.97078,0.99142
1419.48099,0.95818
1417.99120,0.94852
1416.50141,0.94292
1415.01162,0.88579
1413.52183,0.83554
1412.03204,0.79014
1410.54226,0.75443
1409.05247,0.68875
1407.56268,0.65208
1406.07289,0.58262
1404.58310,0.54882
1403.09331,0.51504
1401.60353,0.44666
1400.11374,0.39804
1398.62395,0.35326
1397.13416,0.30508
1395.64437,0.26619
1394.15458,0.22350
1392.66479,0.18889
1391.17501,0.14604
1389.68522,0.12255
1388.19543,0.10452
1386.70564,0.09265
1385.21585,0.08081
1383.72606,0.05681
1382.23628,0.03384
1380.74649,0.04009
1379.25670,0.02703
1377.76691,0.00776
1376.27712,0.00401
1374.78733,0.00439
1373.29755,0.01464
1371.80776,0.01022
1370.31797,0.01267
1368.82818,0.01193
1367.33839,0.01121
1365.84860,0.01735
1364.35881,0.01950
1362.86903,0.03576
1361.37924,0.05627
1359.88945,0.07157
1358.39966,0.11549
1356.90987,0.13124
1355.42008,0.17561
1353.93030,0.23107
1352.44051,0.26522
1350.95072,0.29939
1349.46093,0.37104
1347.97114,0.46404
1346.48135,0.52245
1344.99156,0.59617
1343.50178,0.67919
1342.01199,0.74612
1340.52220,0.81690
1339.03241,0.82610
1337.54262,0.85002
1336.05283,0.87205
1334.56305,0.89411
1333.07326,0.93341
1331.58347,0.91676
1330.09368,0.90537
1328.60389,0.91272
1327.11410,0.85951
1325.62432,0.84014
1324.13453,0.79402
1322.64474,0.75456
1321.15495,0.73688
1319.66516,0.73562
1318.17537,0.73439
1316.68558,0.65235
1315.19580,0.59430
1313.70601,0.53768
1312.21622,0.52758
1310.72643,0.50403
1309.23664,0.46036
1307.74685,0.45638
1306.25707,0.40230
1304.76728,0.38719
1303.27749,0.37211
1301.78770,0.32615
1300.29791,0.27418
1298.80812,0.21981
1297.31834,0.19265
1295.82855,0.16068
1294.33876,0.14363
1292.84897,0.12701
1291.35918,0.09752
1289.86939,0.10098
1288.37960,0.10446
1286.88982,0.07385
1285.40003,0.08452
1283.91024,0.07107
1282.42045,0.06045
1280.93066,0.05691
1279.44087,0.05279
1277.95109,0.05392
1276.46130,0.05810
1274.97151,0.04962
1273.48172,0.04117
1271.99193,0.04220
1270.50214,0.04567
1269.01235,0.04212
1267.52257,0.02873
1266.03278,0.02281
1264.54299,0.03121
1263.05320,0.02857
1261.56341,0.01628
1260.07362,0.00401
1258.58384,0.01294
1257.09405,0.01726
1255.60426,0.02905
1254.11447,0.03301
1252.62468,0.02774
1251.13489,0.00920
1249.64511,0.01344
1248.15532,0.01549
1246.66553,0.01383
1245.17574,0.01221
1243.68595,0.00869
1242.19616,0.01325
1240.70637,0.01300
1239.21659,0.01842
1237.72680,0.01540
1236.23701,0.02952
1234.74722,0.02293
1233.25743,0.02391
1231.76764,0.02491
1230.27786,0.03168
1228.78807,0.04310
1227.29828,0.01912
1225.80849,0.00401
1224.31870,0.00524
1222.82891,0.00447
1221.33912,0.01278
1219.84934,0.02706
1218.35955,0.04136
1216.86976,0.06385
1215.37997,0.05837
1213.89018,0.07365
1212.40039,0.08372
1210.91061,0.09744
1209.42082,0.07595
1207.93103,0.07825
1206.44124,0.08056
1204.95145,0.09357
1203.46166,0.06796
1201.97188,0.06652
1200.48209,0.06350
1198.99230,0.06835
1197.50251,0.05189
1196.01272,0.02921
1194.52293,0.01904
1193.03314,0.00889
1191.54336,0.02595
1190.05357,0.00276
1188.56378,0.00436
1187.07399,0.01445
1185.58420,0.02938
1184.09441,0.03508
1182.60463,0.02641
1181.11484,0.01777
1179.62505,0.00401
1178.13526,0.01236
1176.64547,0.00785
1175.15568,0.01483
1173.66589,0.00755
1172.17611,0.00854
1170.68632,0.01147
1169.19653,0.01442
1167.70674,0.00401
1166.21695,0.02152
1164.72716,0.02476
1163.23738,0.02319
1161.74759,0.02467
1160.25780,0.05153
1158.76801,0.05416
1157.27822,0.05682
1155.78843,0.06322
1154.29865,0.07468
1152.80886,0.10126
1151.31907,0.10412
1149.82928,0.10860
1148.33949,0.11473
1146.84970,0.12027
1145.35991,0.12583
1143.87013,0.12941
1142.38034,0.14670
1140.89055,0.15818
1139.40076,0.14955
1137.91097,0.17416
1136.42118,0.20303
1134.93140,0.20987
1133.44161,0.21674
1131.95182,0.22293
1130.46203,0.20719
1128.97224,0.20779
1127.48245,0.23499
1125.99266,0.24530
1124.50288,0.24114
1123.01309,0.24808
1121.52330,0.25504
1120.03351,0.24834
1118.54372,0.23864
1117.05393,0.25191
1115.56415,0.25434
1114.07436,0.26384
1112.58457,0.24920
1111.09478,0.23459
1109.60499,0.22363
1108.11520,0.22457
1106.62542,0.24828
1105.13563,0.24182
1103.64584,0.24847
1102.15605,0.23178
1100.66626,0.22590
1099.17647,0.22004
1097.68668,0.23323
1096.19690,0.20859
1094.70711,0.21458
1093.21732,0.19583
1091.72753,0.18818
1090.23774,0.17763
1088.74795,0.16710
1087.25817,0.19294
1085.76838,0.20894
1084.27859,0.19880
1082.78880,0.21303
1081.29901,0.22125
1079.80922,0.21339
1078.31943,0.21693
1076.82965,0.22049
1075.33986,0.22760
1073.85007,0.24460
1072.36028,0.25296
1070.87049,0.27343
1069.38070,0.29292
1067.89092,0.31384
1066.40113,0.33479
1064.91134,0.40649
1063.42155,0.48989
1061.93176,0.58218
1060.44197,0.67227
1058.95219,0.76441
1057.46240,0.82334
1055.97261,0.88231
1054.48282,1.00008
1052.99303,1.05789
1051.50324,1.05975
1050.01345,1.03365
1048.52367,1.01361
1047.03388,0.99320
1045.54409,0.97281
1044.05430,0.91419
1042.56451,0.81775
1041.07472,0.76080
1039.58494,0.69964
1038.09515,0.61253
1036.60536,0.59017
1035.11557,0.56784
1033.62578,0.50416
1032.13599,0.42158
1030.64620,0.34627
1029.15642,0.31608
1027.66663,0.30474
1026.17684,0.29342
1024.68705,0.27075
1023.19726,0.22959
1021.70747,0.17818
1020.21769,0.15841
1018.72790,0.14993
1017.23811,0.14732
1015.74832,0.14473
1014.25853,0.12404
1012.76874,0.10177
1011.27896,0.08496
1009.78917,0.07280
1008.29938,0.07839
1006.80959,0.06436
1005.31980,0.05037
1003.83001,0.02724
1002.34022,0.03553
1000.85044,0.04506
999.36065,0.04214
997.87086,0.05776
996.38107,0.07340
994.89128,0.09591
993.40149,0.09066
991.91171,0.10718
990.42192,0.14588
988.93213,0.16567
987.44234,0.16545
985.95255,0.16526
984.46276,0.17908
982.97297,0.15931
981.48319,0.13855
979.99340,0.11520
978.50361,0.10295
977.01382,0.09073
975.52403,0.06000
974.03424,0.05165
972.54446,0.04976
971.05467,0.02193
969.56488,0.03237
968.07509,0.02452
966.58530,0.01669
965.09551,0.01452
963.60573,0.02647
962.11594,0.00401
960.62615,0.01469
959.13636,0.02036
957.64657,0.02605
956.15678,0.03077
954.66699,0.03067
953.17721,0.03040
951.68742,0.04323
950.19763,0.04683
948.70784,0.05046
947.21805,0.07947
945.72826,0.09120
944.23848,0.09852
942.74869,0.11875
941.25890,0.10739
939.76911,0.12032
938.27932,0.13328
936.78953,0.15119
935.29974,0.17013
933.80996,0.17822
932.32017,0.19420
930.83038,0.19982
929.34059,0.20547
927.85080,0.23239
926.36101,0.26174
924.87123,0.30199
923.38144,0.34307
921.89165,0.37965
920.40186,0.41625
918.91207,0.53310
917.42228,0.65118
915.93250,0.80572
914.44271,1.03519
912.95292,1.15767
911.46313,1.28018
909.97334,1.51213
908.48355,1.71008
906.99376,1.90826
905.50398,1.95083
904.01419,1.96153
902.52440,1.97225
901.03461,2.00000
899.54482,1.96416
898.05503,1.83513
896.56525,1.61412
895.07546,1.48172
893.58567,1.34935
892.09588,1.06197
890.60609,0.84831
889.11630,0.64252
887.62651,0.48568
886.13673,0.42791
884.64694,0.37017
883.15715,0.27863
881.66736,0.21188
880.17757,0.16609
878.68778,0.14790
877.19800,0.12974
875.70821,0.09892
874.21842,0.07839
872.72863,0.05728
871.23884,0.05773
869.74905,0.04765
868.25927,0.03758
866.76948,0.03710
865.27969,0.04229
863.78990,0.04689
862.30011,0.06924
860.81032,0.07077
859.32053,0.07233
857.83075,0.09173
856.34096,0.11558
854.85117,0.13341
853.36138,0.15288
851.87159,0.16463
850.38180,0.17640
848.89202,0.18970
847.40223,0.20383
845.91244,0.22483
844.42265,0.23690
842.93286,0.24899
841.44307,0.25818
839.95329,0.27264
838.46350,0.28229
836.97371,0.28733
835.48392,0.29551
833.99413,0.30372
832.50434,0.31186
831.01455,0.28378
829.52477,0.27243
828.03498,0.24500
826.54519,0.21971
825.05540,0.19445
823.56561,0.16991
822.07582,0.14802
820.58604,0.15594
819.09625,0.14829
817.60646,0.14066
816.11667,0.13235
814.62688,0.13917
813.13709,0.15023
811.64730,0.14783
810.15752,0.15522
808.66773,0.16264
807.17794,0.16595
805.68815,0.17835
804.19836,0.17224
802.70857,0.16959
801.21879,0.16696
799.72900,0.16475
798.23921,0.14003
796.74942,0.12821
795.25963,0.13101
793.76984,0.13383
792.28006,0.16014
790.79027,0.15546
789.30048,0.18906
787.81069,0.22067
786.32090,0.23912
784.83111,0.25759
783.34132,0.28102
781.85154,0.33326
780.36175,0.38231
778.87196,0.39957
777.38217,0.41686
775.89238,0.43598
774.40259,0.41929
772.91281,0.39558
771.42302,0.39041
769.93323,0.38527
768.44344,0.34029
766.95365,0.28366
765.46386,0.24457
763.97407,0.20127
762.48429,0.18075
760.99450,0.16025
759.50471,0.13253
758.01492,0.12155
756.52513,0.10394
755.03534,0.09985
753.54556,0.09578
752.05577,0.08388
750.56598,0.08228
749.07619,0.06237
747.58640,0.05901
746.09661,0.05566
744.60683,0.04228
743.11704,0.03032
741.62725,0.01578
740.13746,0.01565
738.64767,0.01555
737.15788,0.03007
735.66809,0.01240
734.17831,0.00401
732.68852,0.01344
731.19873,0.02289
729.70894,0.00932
728.21915,0.01932
726.72936,0.00660
725.23958,0.01101
723.74979,0.01847
722.26000,0.02596
720.77021,0.03165
719.28042,0.00496
717.79063,0.00401
716.30084,0.01615
714.81106,0.02832
713.32127,0.01745
711.83148,0.02272
710.34169,0.02479
708.85190,0.02456
707.36211,0.02437
705.87233,0.04503
704.38254,0.04679
702.89275,0.04395
701.40296,0.04586
699.91317,0.04780
698.42338,0.06476
696.93360,0.08234
695.44381,0.09593
693.95402,0.10159
692.46423,0.10727
690.97444,0.13381
689.48465,0.16601
687.99486,0.19261
686.50508,0.18610
685.01529,0.17963
683.52550,0.22058
682.03571,0.25090
680.54592,0.25526
679.05613,0.25170
677.56635,0.24816
676.07656,0.24797
674.58677,0.24961
673.09698,0.23175
671.60719,0.21724
670.11740,0.20275
668.62761,0.16302
667.13783,0.14747
665.64804,0.13970
664.15825,0.13195
662.66846,0.10601
661.17867,0.07425
659.68888,0.05983
658.19910,0.05026
656.70931,0.04072
655.21952,0.03181
653.72973,0.03138
652.23994,0.04889
650.75015,0.04569
649.26037,0.04251
647.77058,0.02748
646.28079,0.03945
644.79100,0.01239
643.30121,0.01263
641.81142,0.01289
640.32163,0.03603
638.83185,0.03584
637.34206,0.02642
635.85227,0.01520
634.36248,0.00401
632.87269,0.00431
631.38290,0.02134
629.89312,0.00598
628.40333,0.00675
626.91354,0.00754
625.42375,0.00756
623.93396,0.00860
622.44417,0.01219
620.95438,0.01580
619.46460,0.03081
617.97481,0.03014
616.48502,0.03774
614.99523,0.05232
613.50544,0.06692
612.01565,0.10662
610.52587,0.13808
609.03608,0.19654
607.54629,0.20600
606.05650,0.21549
604.56671,0.26779
603.07692,0.32192
601.58714,0.35604
600.09735,0.39019
598.60756,0.38903
597.11777,0.43138
595.62798,0.42725
594.13819,0.41297
592.64840,0.39872
591.15862,0.39084
589.66883,0.29762
588.17904,0.24247
586.68925,0.21513
585.19946,0.18782
583.70967,0.15751
582.21989,0.10749
580.73010,0.08397
579.24031,0.06048
577.75052,0.06348
576.26073,0.05162
574.77094,0.03635
573.28115,0.04647
571.79137,0.05662
570.30158,0.04163
568.81179,0.06129
567.32200,0.06708
565.83221,0.07289
564.34242,0.10128
562.85264,0.11943
561.36285,0.13055
559.87306,0.14009
558.38327,0.14965
556.89348,0.16467
555.40369,0.18032
553.91391,0.18814
552.42412,0.19598
550.93433,0.20446
549.44454,0.19907
547.95475,0.22732
546.46496,0.21553
544.97517,0.20377
543.48539,0.20874
541.99560,0.26568
540.50581,0.28509
539.01602,0.30453
537.52623,0.35429
536.03644,0.38918
534.54666,0.42007
533.05687,0.43004
531.56708,0.44004
530.07729,0.49435
528.58750,0.53419
527.09771,0.57879
525.60792,0.62341
524.11814,0.68668
522.62835,0.75581
521.13856,0.81470
519.64877,0.79902
518.15898,0.78337
516.66919,0.83166
515.17941,0.83789
513.68962,0.85593
512.19983,0.87400
510.71004,0.82656
509.22025,0.78900
507.73046,0.73074
506.24068,0.66988
504.75089,0.60905
503.26110,0.49408
501.77131,0.40954
500.28152,0.35472
498.79173,0.29992
497.30194,0.23558
495.81216,0.17751
494.32237,0.15228
492.83258,0.12707
491.34279,0.11216
489.85300,0.09747
488.36321,0.09528
486.87343,0.09091
485.38364,0.08656
483.89385,0.08324
482.40406,0.12041
480.91427,0.13214
479.42448,0.14389
477.93469,0.15819
476.44491,0.16727
474.95512,0.18433
473.46533,0.20141
471.97554,0.22325
470.48575,0.22579
468.99596,0.21064
467.50618,0.20738
466.01639,0.20415
464.52660,0.15384
463.03681,0.13093
461.54702,0.12103
460.05723,0.11115
458.56745,0.06436
457.07766,0.04336
455.58787,0.03839
454.09808,0.03344
452.60829,0.04553
451.11850,0.03569
449.62871,0.03767
448.13893,0.03966
446.64914,0.03675
445.15935,0.03124
443.66956,0.00401
442.17977,0.01203
440.68998,0.02008
439.20020,0.05583
437.71041,0.06261
436.22062,0.05603
434.73083,0.04947
433.24104,0.03962
431.75125,0.04690
430.26146,0.04686
428.77168,0.04684
427.28189,0.03487
425.79210,0.05191
424.30231,0.05831
422.81252,0.06473
421.32273,0.04923
419.83295,0.05268
418.34316,0.05435
416.85337,0.05603
415.36358,0.02493
413.87379,0.03512
412.38400,0.04131
410.89422,0.04752
409.40443,0.05758
407.91464,0.03506
406.42485,0.03973
404.93506,0.04624
403.44527,0.05278
401.95548,0.05934
400.46570,0.04458
398.97591,0.03972
397.48612,0.03487
395.99633,0.05381
394.50654,0.03090
393.01675,0.03468
391.52697,0.03849
390.03718,0.03297
388.54739,0.01901
387.05760,0.01448
385.56781,0.00998
384.07802,0.02745
382.58824,0.02984
381.09845,0.04131
379.60866,0.05281
378.11887,0.01220
376.62908,0.00401
375.13929,0.01288
373.64950,0.02178
372.15972,0.04419
370.66993,0.02978
369.18014,0.02829
367.69035,0.02682
366.20056,0.02226
364.71077,0.01289
363.22099,0.01331
361.73120,0.01375
360.24141,0.05539
358.75162,0.09645
357.26183,0.08962
355.77204,0.08281
354.28225,0.08026
352.79247,0.08095
351.30268,0.08216
349.81289,0.08341
348.32310,0.07672
346.83331,0.06502
345.34352,0.07560
343.85374,0.08620
342.36395,0.08183
340.87416,0.04184
339.38437,0.04436
337.89458,0.04690
336.40479,0.02974
334.91501,0.03676
333.42522,0.03052
331.93543,0.02430
330.44564,0.00401
328.95585,0.03419
327.46606,0.03551
325.97627,0.03685
324.48649,0.09298
322.99670,0.05914
321.50691,0.04254
320.01712,0.02596
318.52733,0.04052
317.03754,0.02610
315.54776,0.03175
314.05797,0.03741
312.56818,0.07723
311.07839,0.08224
309.58860,0.06694
308.09881,0.05167
306.60902,0.05494
305.11924,0.04716
303.62945,0.03106
302.13966,0.01497
300.64987,0.00401
299.16008,0.00401
