1778.52000,0.01054
1777.03021,0.01180
1775.54042,0.01500
1774.05063,0.00908
1772.56085,0.01147
1771.07106,0.01049
1769.58127,0.00932
1768.09148,0.01413
1766.60169,0.01619
1765.11190,0.01807
1763.62212,0.00679
1762.13233,0.01254
1760.64254,0.01045
1759.15275,0.02073
1757.66296,0.01443
1756.17317,0.01412
1754.68339,0.01510
1753.19360,0.01313
1751.70381,0.00757
1750.21402,0.00523
1748.72423,0.00699
1747.23444,0.01560
1745.74465,0.01869
1744.25487,0.01415
1742.76508,0.01516
1741.27529,0.01961
1739.78550,0.01322
1738.29571,0.01091
1736.80592,0.01416
1735.31614,0.01636
1733.82635,0.01540
1732.33656,0.00000
1730.84677,0.00866
1729.35698,0.00969
1727.86719,0.00798
1726.37740,0.01076
1724.88762,0.01611
1723.39783,0.01298
1721.90804,0.00924
1720.41825,0.00956
1718.92846,0.01522
1717.43867,0.00751
1715.94889,0.01684
1714.45910,0.00684
1712.96931,0.01296
1711.47952,0.02038
1709.98973,0.01314
1708.49994,0.01210
1707.01016,0.01151
1705.52037,0.01095
1704.03058,0.00679
1702.54079,0.01557
1701.05100,0.01226
1699.56121,0.01556
1698.07142,0.02378
1696.58164,0.01692
1695.09185,0.03221
1693.60206,0.02369
1692.11227,0.02903
1690.62248,0.02014
1689.13269,0.02340
1687.64291,0.02796
1686.15312,0.02382
1684.66333,0.03652
1683.17354,0.04136
1681.68375,0.03794
1680.19396,0.02730
1678.70417,0.03626
1677.21439,0.04056
1675.72460,0.05106
1674.23481,0.05563
1672.74502,0.04214
1671.25523,0.04526
1669.76544,0.05564
1668.27566,0.06967
1666.78587,0.06946
1665.29608,0.07354
1663.80629,0.07742
1662.31650,0.06792
1660.82671,0.07250
1659.33693,0.07922
1657.84714,0.08639
1656.35735,0.08402
1654.86756,0.08741
1653.37777,0.08402
1651.88798,0.09703
1650.39819,0.08284
1648.90841,0.08420
1647.41862,0.07494
1645.92883,0.07508
1644.43904,0.07524
1642.94925,0.09116
1641.45946,0.08796
1639.96968,0.09160
1638.47989,0.10738
1636.99010,0.10277
1635.50031,0.09201
1634.01052,0.08872
1632.52073,0.08333
1631.03094,0.09583
1629.54116,0.10346
1628.05137,0.09942
1626.56158,0.09965
1625.07179,0.10545
1623.58200,0.11382
1622.09221,0.10732
1620.60243,0.11424
1619.11264,0.11588
1617.62285,0.11817
1616.13306,0.10539
1614.64327,0.09794
1613.15348,0.08606
1611.66370,0.09803
1610.17391,0.09555
1608.68412,0.08565
1607.19433,0.10365
1605.70454,0.10124
1604.21475,0.10046
1602.72496,0.09970
1601.23518,0.10716
1599.74539,0.09379
1598.25560,0.09342
1596.76581,0.08180
1595.27602,0.09978
1593.78623,0.09225
1592.29645,0.10304
1590.80666,0.09131
1589.31687,0.09130
1587.82708,0.07323
1586.33729,0.08157
1584.84750,0.08397
1583.35771,0.09427
1581.86793,0.08906
1580.37814,0.07792
1578.88835,0.07915
1577.39856,0.08614
1575.90877,0.07890
1574.41898,0.06637
1572.92920,0.05259
1571.43941,0.05138
1569.94962,0.05498
1568.45983,0.05861
1566.97004,0.03854
1565.48025,0.03700
1563.99047,0.03719
1562.50068,0.03826
1561.01089,0.03148
1559.52110,0.03174
1558.03131,0.02437
1556.54152,0.02149
1555.05173,0.03778
1553.56195,0.03410
1552.07216,0.02363
1550.58237,0.03106
1549.09258,0.00809
1547.60279,0.00876
1546.11300,0.01179
1544.62322,0.02634
1543.13343,0.01708
1541.64364,0.00679
1540.15385,0.00839
1538.66406,0.01002
1537.17427,0.01349
1535.68448,0.01655
1534.19470,0.02112
1532.70491,0.00679
1531.21512,0.02961
1529.72533,0.02543
1528.23554,0.02617
1526.74575,0.02396
1525.25597,0.04240
1523.76618,0.03173
1522.27639,0.03554
1520.78660,0.04407
1519.29681,0.02985
1517.80702,0.04799
1516.31724,0.05041
1514.82745,0.06627
1513.33766,0.05555
1511.84787,0.04485
1510.35808,0.05673
1508.86829,0.04907
1507.37850,0.04717
1505.88872,0.03551
1504.39893,0.05536
1502.90914,0.05375
1501.41935,0.06279
1499.92956,0.08080
1498.43977,0.07586
1496.94999,0.07902
1495.46020,0.08072
1493.97041,0.10223
1492.48062,0.11483
1490.99083,0.10682
1489.50104,0.13840
1488.01125,0.13490
1486.52147,0.13143
1485.03168,0.16032
1483.54189,0.18264
1482.05210,0.20541
1480.56231,0.21671
1479.07252,0.24506
1477.58274,0.25769
1476.09295,0.25609
1474.60316,0.25515
1473.11337,0.28508
1471.62358,0.28142
1470.13379,0.28673
1468.64401,0.28908
1467.15422,0.32060
1465.66443,0.32566
1464.17464,0.33074
1462.68485,0.35701
1461.19506,0.38118
1459.70527,0.43453
1458.21549,0.48790
1456.72570,0.56767
1455.23591,0.64386
1453.74612,0.69091
1452.25633,0.74353
1450.76654,0.74191
1449.27676,0.74458
1447.78697,0.70982
1446.29718,0.69189
1444.80739,0.68165
1443.31760,0.67143
1441.82781,0.61592
1440.33802,0.58682
1438.84824,0.53965
1437.35845,0.54442
1435.86866,0.51731
1434.37887,0.52638
1432.88908,0.55570
1431.39929,0.60035
1429.90951,0.68503
1428.41972,0.76719
1426.92993,0.81979
1425.44014,0.86943
1423.95035,0.89379
1422.46056,0.91816
1420.97078,0.98618
1419.48099,0.99188
1417.99120,0.97782
1416.50141,0.92443
1415.01162,0.90935
1413.52183,0.84302
1412.03204,0.82182
1410.54226,0.75788
1409.05247,0.68993
1407.56268,0.63114
1406.07289,0.56621
1404.58310,0.54226
1403.09331,0.51834
1401.60353,0.42923
1400.11374,0.39227
1398.62395,0.34916
1397.13416,0.30821
1395.64437,0.24153
1394.15458,0.22339
1392.66479,0.20144
1391.17501,0.15952
1389.68522,0.13762
1388.19543,0.11171
1386.70564,0.09560
1385.21585,0.07952
1383.72606,0.07517
1382.23628,0.03765
1380.74649,0.03185
1379.25670,0.01544
1377.76691,0.01289
1376.27712,0.01419
1374.78733,0.00679
1373.29755,0.01025
1371.80776,0.01459
1370.31797,0.00895
1368.82818,0.00876
1367.33839,0.00859
1365.84860,0.01753
1364.35881,0.03095
1362.86903,0.03398
1361.37924,0.05831
1359.88945,0.08776
1358.39966,0.11767
1356.90987,0.14739
1355.42008,0.19330
1353.93030,0.25328
1352.44051,0.28711
1350.95072,0.32097
1349.46093,0.38166
1347.97114,0.45492
1346.48135,0.51034
1344.99156,0.58344
1343.50178,0.67423
1342.01199,0.73270
1340.52220,0.79652
1339.03241,0.83908
1337.54262,0.86188
1336.05283,0.87683
1334.56305,0.89180
1333.07326,0.92808
1331.58347,0.92119
1330.09368,0.90496
1328.60389,0.88939
1327.11410,0.87811
1325.62432,0.83791
1324.13453,0.79007
1322.64474,0.76758
1321.15495,0.73108
1319.66516,0.72363
1318.17537,0.71622
1316.68558,0.64808
1315.19580,0.60869
1313.70601,0.55528
1312.21622,0.51892
1310.72643,0.49577
1309.23664,0.45563
1307.74685,0.42679
1306.25707,0.39009
1304.76728,0.37417
1303.27749,0.35827
1301.78770,0.32399
1300.29791,0.28251
1298.80812,0.23572
1297.31834,0.17407
1295.82855,0.17585
1294.33876,0.14871
1292.84897,0.10181
1291.35918,0.09302
1289.86939,0.09362
1288.37960,0.09424
1286.88982,0.09021
1285.40003,0.07130
1283.91024,0.07284
1282.42045,0.06633
1280.93066,0.05282
1279.44087,0.05294
1277.95109,0.05246
1276.46130,0.03838
1274.97151,0.04166
1273.48172,0.04497
1271.99193,0.03480
1270.50214,0.03784
1269.01235,0.03473
1267.52257,0.03846
1266.03278,0.02965
1264.54299,0.03258
1263.05320,0.01191
1261.56341,0.01775
1260.07362,0.02362
1258.58384,0.00536
1257.09405,0.00734
1255.60426,0.01467
1254.11447,0.01266
1252.62468,0.02556
1251.13489,0.00679
1249.64511,0.01291
1248.15532,0.02288
1246.66553,0.01820
1245.17574,0.01354
1243.68595,0.01784
1242.19616,0.02366
1240.70637,0.01482
1239.21659,0.01941
1237.72680,0.00679
1236.23701,0.02305
1234.74722,0.01275
1233.25743,0.01906
1231.76764,0.02540
1230.27786,0.03581
1228.78807,0.02539
1227.29828,0.02521
1225.80849,0.01909
1224.31870,0.01917
1222.82891,0.01714
1221.33912,0.02237
1219.84934,0.02593
1218.35955,0.02951
1216.86976,0.04800
1215.37997,0.05291
1213.89018,0.06486
1212.40039,0.07811
1210.91061,0.08266
1209.42082,0.08468
1207.93103,0.07577
1206.44124,0.06688
1204.95145,0.06621
1203.46166,0.06706
1201.97188,0.05473
1200.48209,0.08222
1198.99230,0.06930
1197.50251,0.07429
1196.01272,0.05419
1194.52293,0.04252
1193.03314,0.03087
1191.54336,0.01680
1190.05357,0.01701
1188.56378,0.00895
1187.07399,0.00580
1185.58420,0.01897
1184.09441,0.03237
1182.60463,0.01995
1181.11484,0.00756
1179.62505,0.01401
1178.13526,0.01539
1176.64547,0.00679
1175.15568,0.02400
1173.66589,0.02316
1172.17611,0.01936
1170.68632,0.02187
1169.19653,0.02439
1167.70674,0.01727
1166.21695,0.01569
1164.72716,0.02840
1163.23738,0.02304
1161.74759,0.02644
1160.25780,0.04241
1158.76801,0.04319
1157.27822,0.04400
1155.78843,0.06196
1154.29865,0.08504
1152.80886,0.09497
1151.31907,0.11981
1149.82928,0.12212
1148.33949,0.12254
1146.84970,0.11936
1145.35991,0.11622
1143.87013,0.11884
1142.38034,0.15191
1140.89055,0.15457
1139.40076,0.17301
1137.91097,0.18616
1136.42118,0.20337
1134.93140,0.21315
1133.44161,0.22296
1131.95182,0.23769
1130.46203,0.24117
1128.97224,0.22957
1127.48245,0.22947
1125.99266,0.23898
1124.50288,0.25596
1123.01309,0.25073
1121.52330,0.24552
1120.03351,0.23938
1118.54372,0.25369
1117.05393,0.25334
1115.56415,0.26770
1114.07436,0.24698
1112.58457,0.25074
1111.09478,0.25454
1109.60499,0.22771
1108.11520,0.22262
1106.62542,0.22308
1105.13563,0.21761
1103.64584,0.20280
1102.15605,0.23482
1100.66626,0.22995
1099.17647,0.22511
1097.68668,0.23125
1096.19690,0.21762
1094.70711,0.21785
1093.21732,0.21300
1091.72753,0.19817
1090.23774,0.18975
1088.74795,0.18135
1087.25817,0.18426
1085.76838,0.19144
1084.27859,0.20056
1082.78880,0.21588
1081.29901,0.20888
1079.80922,0.22424
1078.31943,0.21697
1076.82965,0.20973
1075.33986,0.22155
1073.85007,0.22573
1072.36028,0.24016
1070.87049,0.25503
1069.38070,0.28269
1067.89092,0.30772
1066.40113,0.33277
1064.91134,0.39646
1063.42155,0.48294
1061.93176,0.57519
1060.44197,0.67662
1058.95219,0.76211
1057.46240,0.79922
1055.97261,0.83636
1054.48282,0.96788
1052.99303,1.05176
1051.50324,1.05887
1050.01345,1.03897
1048.52367,1.00740
1047.03388,0.98681
1045.54409,0.96624
1044.05430,0.90006
1042.56451,0.81242
1041.07472,0.76416
1039.58494,0.69550
1038.09515,0.60963
1036.60536,0.57581
1035.11557,0.54201
1033.62578,0.49919
1032.13599,0.42724
1030.64620,0.35447
1029.15642,0.28832
1027.66663,0.26794
1026.17684,0.24759
1024.68705,0.23087
1023.19726,0.20099
1021.70747,0.16942
1020.21769,0.14768
1018.72790,0.15255
1017.23811,0.14042
1015.74832,0.12832
1014.25853,0.10943
1012.76874,0.11376
1011.27896,0.11152
1009.78917,0.09142
1008.29938,0.06753
1006.80959,0.05376
1005.31980,0.04002
1003.83001,0.03854
1002.34022,0.02155
1000.85044,0.03011
999.36065,0.04360
997.87086,0.05487
996.38107,0.06617
994.89128,0.08355
993.40149,0.08926
991.91171,0.09244
990.42192,0.10905
988.93213,0.13334
987.44234,0.13297
985.95255,0.13263
984.46276,0.16763
982.97297,0.14840
981.48319,0.12452
979.99340,0.11257
978.50361,0.10533
977.01382,0.09811
975.52403,0.07092
974.03424,0.03354
972.54446,0.02406
971.05467,0.01481
969.56488,0.00729
968.07509,0.00703
966.58530,0.00679
965.09551,0.01186
963.60573,0.00673
962.11594,0.00951
960.62615,0.01146
959.13636,0.01641
957.64657,0.02139
956.15678,0.02256
954.66699,0.01886
953.17721,0.01838
951.68742,0.02601
950.19763,0.02972
948.70784,0.03346
947.21805,0.06648
945.72826,0.09037
944.23848,0.09919
942.74869,0.12228
941.25890,0.11497
939.76911,0.12683
938.27932,0.13872
936.78953,0.15595
935.29974,0.17895
933.80996,0.17729
932.32017,0.18928
930.83038,0.19150
929.34059,0.19374
927.85080,0.21218
926.36101,0.25150
924.87123,0.28126
923.38144,0.34361
921.89165,0.37236
920.40186,0.40113
918.91207,0.50440
917.42228,0.63386
915.93250,0.79611
914.44271,0.99583
912.95292,1.12174
911.46313,1.24768
909.97334,1.46790
908.48355,1.73835
906.99376,1.89458
905.50398,1.99040
904.01419,1.99519
902.52440,2.00000
901.03461,1.96079
899.54482,1.92735
898.05503,1.79117
896.56525,1.62927
895.07546,1.50899
893.58567,1.38874
892.09588,1.08670
890.60609,0.83383
889.11630,0.61716
887.62651,0.45945
886.13673,0.39921
884.64694,0.33899
883.15715,0.23880
881.66736,0.20288
880.17757,0.14848
878.68778,0.13741
877.19800,0.12635
875.70821,0.09585
874.21842,0.07517
872.72863,0.05429
871.23884,0.05365
869.74905,0.04868
868.25927,0.04373
866.76948,0.02614
865.27969,0.03220
863.78990,0.04806
862.30011,0.06119
860.81032,0.06561
859.32053,0.07006
857.83075,0.09730
856.34096,0.08733
854.85117,0.13057
853.36138,0.13533
851.87159,0.14554
850.38180,0.15578
848.89202,0.18571
847.40223,0.19291
845.91244,0.21928
844.42265,0.23067
842.93286,0.24209
841.44307,0.27215
839.95329,0.28394
838.46350,0.27490
836.97371,0.27120
835.48392,0.28050
833.99413,0.28983
832.50434,0.28025
831.01455,0.29154
829.52477,0.28712
828.03498,0.24718
826.54519,0.22716
825.05540,0.20717
823.56561,0.17710
822.07582,0.15513
820.58604,0.12511
819.09625,0.13606
817.60646,0.14704
816.11667,0.13709
814.62688,0.13801
813.13709,0.13704
811.64730,0.13375
810.15752,0.13826
808.66773,0.14279
807.17794,0.14298
805.68815,0.14809
804.19836,0.17386
802.70857,0.17147
801.21879,0.16909
799.72900,0.14622
798.23921,0.14613
796.74942,0.12692
795.25963,0.12751
793.76984,0.12814
792.28006,0.14453
790.79027,0.17094
789.30048,0.16845
787.81069,0.21108
786.32090,0.23044
784.83111,0.24983
783.34132,0.28807
781.85154,0.32484
780.36175,0.38334
778.87196,0.39229
777.38217,0.40126
775.89238,0.43707
774.40259,0.42439
772.91281,0.41046
771.42302,0.40506
769.93323,0.39969
768.44344,0.33243
766.95365,0.28200
765.46386,0.23479
763.97407,0.19079
762.48429,0.18373
760.99450,0.17669
759.50471,0.14681
758.01492,0.12546
756.52513,0.11222
755.03534,0.10071
753.54556,0.08922
752.05577,0.08605
750.56598,0.07079
749.07619,0.05618
747.58640,0.04872
746.09661,0.04129
744.60683,0.04208
743.11704,0.03203
741.62725,0.01712
740.13746,0.01915
738.64767,0.02120
737.15788,0.01934
735.66809,0.02197
734.17831,0.01740
732.68852,0.02359
731.19873,0.02980
729.70894,0.01657
728.21915,0.02784
726.72936,0.00679
725.23958,0.01283
723.74979,0.02390
722.26000,0.03499
720.77021,0.01387
719.28042,0.01640
717.79063,0.01363
716.30084,0.00907
714.81106,0.00454
713.32127,0.02207
711.83148,0.03515
710.34169,0.02592
708.85190,0.03309
707.36211,0.04029
705.87233,0.03028
704.38254,0.04093
702.89275,0.05544
701.40296,0.05412
699.91317,0.05282
698.42338,0.06314
696.93360,0.08051
695.44381,0.08535
693.95402,0.09575
692.46423,0.10617
690.97444,0.10831
689.48465,0.15708
687.99486,0.17949
686.50508,0.18362
685.01529,0.18778
683.52550,0.22303
682.03571,0.25915
680.54592,0.26593
679.05613,0.26146
677.56635,0.25702
676.07656,0.25068
674.58677,0.24608
673.09698,0.22766
671.60719,0.21247
670.11740,0.19729
668.62761,0.16959
667.13783,0.16489
665.64804,0.14958
664.15825,0.13429
662.66846,0.11860
661.17867,0.07889
659.68888,0.08112
658.19910,0.06827
656.70931,0.05544
655.21952,0.02221
653.72973,0.04135
652.23994,0.06051
650.75015,0.06267
649.26037,0.06486
647.77058,0.04856
646.28079,0.04420
644.79100,0.02880
643.30121,0.03364
641.81142,0.03850
640.32163,0.03168
638.83185,0.04446
637.34206,0.03514
635.85227,0.02095
634.36248,0.00679
632.87269,0.01945
631.38290,0.04022
629.89312,0.01825
628.40333,0.01950
626.91354,0.02077
625.42375,0.01866
623.93396,0.01530
622.44417,0.02388
620.95438,0.03248
619.46460,0.04409
617.97481,0.08082
616.48502,0.06056
614.99523,0.07032
613.50544,0.08011
612.01565,0.10545
610.52587,0.16444
609.03608,0.20983
607.54629,0.21854
606.05650,0.22728
604.56671,0.26487
603.07692,0.31929
601.58714,0.35204
600.09735,0.38481
598.60756,0.42973
597.11777,0.41979
595.62798,0.44306
594.13819,0.44093
592.64840,0.43882
591.15862,0.38088
589.66883,0.32957
588.17904,0.26700
586.68925,0.22872
585.19946,0.19046
583.70967,0.15775
582.21989,0.12719
580.73010,0.11230
579.24031,0.09743
577.75052,0.06100
576.26073,0.05203
574.77094,0.05032
573.28115,0.04565
571.79137,0.04101
570.30158,0.03746
568.81179,0.06457
567.32200,0.08511
565.83221,0.10567
564.34242,0.10413
562.85264,0.13623
561.36285,0.14389
559.87306,0.15423
558.38327,0.16459
556.89348,0.18466
555.40369,0.17093
553.91391,0.17892
552.42412,0.18693
550.93433,0.19880
549.44454,0.18602
547.95475,0.19836
546.46496,0.21626
544.97517,0.23418
543.48539,0.22787
541.99560,0.23436
540.50581,0.25650
539.01602,0.27867
537.52623,0.29799
536.03644,0.34819
534.54666,0.38756
533.05687,0.41408
531.56708,0.44063
530.07729,0.46603
528.58750,0.51720
527.09771,0.56371
525.60792,0.61024
524.11814,0.66659
522.62835,0.74020
521.13856,0.76915
519.64877,0.77844
518.15898,0.78776
516.66919,0.82274
515.17941,0.78327
513.68962,0.79788
512.19983,0.81250
510.71004,0.77375
509.22025,0.73332
507.73046,0.68185
506.24068,0.63019
504.75089,0.57856
503.26110,0.45078
501.77131,0.35962
500.28152,0.31753
498.79173,0.27546
497.30194,0.20927
495.81216,0.14671
494.32237,0.13780
492.83258,0.12892
491.34279,0.08793
489.85300,0.07611
488.36321,0.06389
486.87343,0.05744
485.38364,0.05102
483.89385,0.06078
482.40406,0.09207
480.91427,0.10273
479.42448,0.11343
477.93469,0.12563
476.44491,0.15276
474.95512,0.16203
473.46533,0.17133
471.97554,0.18002
470.48575,0.19618
468.99596,0.20363
467.50618,0.19431
466.01639,0.18501
464.52660,0.13701
463.03681,0.10733
461.54702,0.09555
460.05723,0.08379
458.56745,0.06333
457.07766,0.02503
455.58787,0.01589
454.09808,0.00679
452.60829,0.02705
451.11850,0.02010
449.62871,0.01243
448.13893,0.00479
446.64914,0.04791
445.15935,0.02042
443.66956,0.02040
442.17977,0.01105
440.68998,0.00171
439.20020,0.01823
437.71041,0.03626
436.22062,0.02783
434.73083,0.01942
433.24104,0.01731
431.75125,0.01204
430.26146,0.02051
428.77168,0.02900
427.28189,0.02827
425.79210,0.02117
424.30231,0.02198
422.81252,0.02280
421.32273,0.02302
419.83295,0.03219
418.34316,0.03245
416.85337,0.03274
415.36358,0.01943
413.87379,0.00679
412.38400,0.01785
410.89422,0.02895
409.40443,0.02762
407.91464,0.02610
406.42485,0.03056
404.93506,0.01632
403.44527,0.00211
401.95548,0.00516
400.46570,0.02078
398.97591,0.01941
397.48612,0.01806
395.99633,0.04695
394.50654,0.02395
393.01675,0.02809
391.52697,0.03227
390.03718,0.02785
388.54739,0.01643
387.05760,0.01313
385.56781,0.00984
384.07802,0.01151
382.58824,0.00937
381.09845,0.01534
379.60866,0.02133
378.11887,0.02735
376.62908,0.00680
375.13929,0.00723
373.64950,0.00768
372.15972,0.03549
370.66993,0.01844
369.18014,0.01658
367.69035,0.01474
366.20056,0.01591
364.71077,0.03199
363.22099,0.01938
361.73120,0.00679
360.24141,0.01474
358.75162,0.06080
357.26183,0.06613
355.77204,0.07150
354.28225,0.05699
352.79247,0.08187
351.30268,0.07986
349.81289,0.07787
348.32310,0.07027
346.83331,0.04950
345.34352,0.04908
343.85374,0.04868
342.36395,0.03798
340.87416,0.04157
339.38437,0.05262
337.89458,0.06370
336.40479,0.03906
334.91501,0.03466
333.42522,0.02613
331.93543,0.01762
330.44564,0.01648
328.95585,0.02175
327.46606,0.01981
325.97627,0.01789
324.48649,0.07819
322.99670,0.09468
321.50691,0.07108
320.01712,0.04752
318.52733,0.04812
317.03754,0.04428
315.54776,0.03930
314.05797,0.03434
312.56818,0.03483
311.07839,0.04087
309.58860,0.04258
308.09881,0.04431
306.60902,0.02383
305.11924,0.04912
303.62945,0.03455
302.13966,0.01999
300.64987,0.00679
299.16008,0.00679
