1778.52000,0.00462
1777.03021,0.01332
1775.54042,0.00084
1774.05063,0.01158
1772.56085,0.01075
1771.07106,0.00000
1769.58127,0.01015
1768.09148,0.00309
1766.60169,0.00103
1765.11190,0.00761
1763.62212,0.00891
1762.13233,0.00560
1760.64254,0.00396
1759.15275,0.01925
1757.66296,0.00641
1756.17317,0.00915
1754.68339,0.00365
1753.19360,0.00446
1751.70381,0.00363
1750.21402,0.00416
1748.72423,0.00935
1747.23444,0.00860
1745.74465,0.01881
1744.25487,0.00751
1742.76508,0.00485
1741.27529,0.01579
1739.78550,0.01285
1738.29571,0.00396
1736.80592,0.02151
1735.31614,0.02219
1733.82635,0.02057
1732.33656,0.01666
1730.84677,0.00814
1729.35698,0.00892
1727.86719,0.00309
1726.37740,0.01730
1724.88762,0.01332
1723.39783,0.01168
1721.90804,0.01436
1720.41825,0.02138
1718.92846,0.01584
1717.43867,0.01661
1715.94889,0.01642
1714.45910,0.00830
1712.96931,0.01445
1711.47952,0.02062
1709.98973,0.00396
1708.49994,0.01529
1707.01016,0.01439
1705.52037,0.01352
1704.03058,0.01863
1702.54079,0.02211
1701.05100,0.01766
1699.56121,0.02781
1698.07142,0.01447
1696.58164,0.02699
1695.09185,0.02297
1693.60206,0.01832
1692.11227,0.02329
1690.62248,0.02233
1689.13269,0.01874
1687.64291,0.01485
1686.15312,0.03880
1684.66333,0.03793
1683.17354,0.04836
1681.68375,0.04191
1680.19396,0.04244
1678.70417,0.03008
1677.21439,0.04524
1675.72460,0.05578
1674.23481,0.07132
1672.74502,0.03919
1671.25523,0.06040
1669.76544,0.06045
1668.27566,0.07740
1666.78587,0.08114
1665.29608,0.07827
1663.80629,0.06980
1662.31650,0.07726
1660.82671,0.08275
1659.33693,0.09157
1657.84714,0.09578
1656.35735,0.06756
1654.86756,0.07348
1653.37777,0.07876
1651.88798,0.08506
1650.39819,0.07549
1648.90841,0.08945
1647.41862,0.06767
1645.92883,0.07473
1644.43904,0.08182
1642.94925,0.08760
1641.45946,0.08546
1639.96968,0.07572
1638.47989,0.08257
1636.99010,0.08117
1635.50031,0.07979
1634.01052,0.06452
1632.52073,0.05789
1631.03094,0.06884
1629.54116,0.07053
1628.05137,0.09511
1626.56158,0.09321
1625.07179,0.08737
1623.58200,0.09744
1622.09221,0.08403
1620.60243,0.09150
1619.11264,0.08443
1617.62285,0.09096
1616.13306,0.07599
1614.64327,0.08654
1613.15348,0.08984
1611.66370,0.08520
1610.17391,0.08656
1608.68412,0.07303
1607.19433,0.08768
1605.70454,0.08712
1604.21475,0.08709
1602.72496,0.08707
1601.23518,0.08427
1599.74539,0.08016
1598.25560,0.08436
1596.76581,0.07236
1595.27602,0.07528
1593.78623,0.06995
1592.29645,0.08120
1590.80666,0.07559
1589.31687,0.06536
1587.82708,0.08133
1586.33729,0.09533
1584.84750,0.07756
1583.35771,0.08730
1581.86793,0.08581
1580.37814,0.07639
1578.88835,0.08356
1577.39856,0.07784
1575.90877,0.07744
1574.41898,0.06348
1572.92920,0.06081
1571.43941,0.04458
1569.94962,0.04991
1568.45983,0.05526
1566.97004,0.05104
1565.48025,0.04750
1563.99047,0.03570
1562.50068,0.04744
1561.01089,0.04431
1559.52110,0.04782
1558.03131,0.04605
1556.54152,0.02842
1555.05173,0.04028
1553.56195,0.02502
1552.07216,0.02004
1550.58237,0.02270
1549.09258,0.00188
1547.60279,0.01619
1546.11300,0.00667
1544.62322,0.01539
1543.13343,0.00063
1541.64364,0.01417
1540.15385,0.01549
1538.66406,0.01683
1537.17427,0.00561
1535.68448,0.00402
1534.19470,0.01115
1532.70491,0.01102
1531.21512,0.00396
1529.72533,0.01976
1528.23554,0.01537
1526.74575,0.02657
1525.25597,0.02157
1523.76618,0.03481
1522.27639,0.03018
1520.78660,0.04745
1519.29681,0.06043
1517.80702,0.05687
1516.31724,0.03380
1514.82745,0.05282
1513.33766,0.04784
1511.84787,0.04290
1510.35808,0.05006
1508.86829,0.03308
1507.37850,0.04824
1505.88872,0.05316
1504.39893,0.06341
1502.90914,0.05977
1501.41935,0.07271
1499.92956,0.06614
1498.43977,0.05363
1496.94999,0.06830
1495.46020,0.09161
1493.97041,0.09739
1492.48062,0.12141
1490.99083,0.11001
1489.50104,0.11256
1488.01125,0.11231
1486.52147,0.11208
1485.03168,0.13291
1483.54189,0.17795
1482.05210,0.18756
1480.56231,0.18595
1479.07252,0.21946
1477.58274,0.23975
1476.09295,0.20774
1474.60316,0.23603
1473.11337,0.24977
1471.62358,0.24896
1470.13379,0.26275
1468.64401,0.28385
1467.15422,0.31093
1465.66443,0.31155
1464.17464,0.31219
1462.68485,0.36584
1461.19506,0.37879
1459.70527,0.43713
1458.21549,0.49947
1456.72570,0.56084
1455.23591,0.62654
1453.74612,0.65352
1452.25633,0.73451
1450.76654,0.73205
1449.27676,0.72797
1447.78697,0.69808
1446.29718,0.67781
1444.80739,0.67380
1443.31760,0.66982
1441.82781,0.63605
1440.33802,0.56587
1438.84824,0.55368
1437.35845,0.52462
1435.86866,0.53202
1434.37887,0.53248
1432.88908,0.54854
1431.39929,0.62821
1429.90951,0.70990
1428.41972,0.77505
1426.92993,0.85182
1425.44014,0.91801
1423.95035,0.94630
1422.46056,0.97462
1420.97078,1.02002
1419.48099,0.97635
1417.99120,0.96616
1416.50141,0.94837
1415.01162,0.86238
1413.52183,0.83603
1412.03204,0.77758
1410.54226,0.75824
1409.05247,0.70248
1407.56268,0.64477
1406.07289,0.62285
1404.58310,0.58787
1403.09331,0.55292
1401.60353,0.43403
1400.11374,0.40989
1398.62395,0.35199
1397.13416,0.32193
1395.64437,0.24454
1394.15458,0.20891
1392.66479,0.20344
1391.17501,0.16454
1389.68522,0.12898
1388.19543,0.10967
1386.70564,0.09651
1385.21585,0.08338
1383.72606,0.06381
1382.23628,0.03169
1380.74649,0.02409
1379.25670,0.01851
1377.76691,0.01229
1376.27712,0.00676
1374.78733,0.00158
1373.29755,0.01122
1371.80776,0.00564
1370.31797,0.00870
1368.82818,0.00632
1367.33839,0.00396
1365.84860,0.02571
1364.35881,0.02992
1362.86903,0.04377
1361.37924,0.05962
1359.88945,0.07981
1358.39966,0.11625
1356.90987,0.15636
1355.42008,0.21272
1353.93030,0.26844
1352.44051,0.30332
1350.95072,0.33823
1349.46093,0.40694
1347.97114,0.50880
1346.48135,0.56630
1344.99156,0.63939
1343.50178,0.72509
1342.01199,0.75518
1340.52220,0.82503
1339.03241,0.85782
1337.54262,0.89162
1336.05283,0.89646
1334.56305,0.90133
1333.07326,0.97230
1331.58347,0.94559
1330.09368,0.94242
1328.60389,0.93332
1327.11410,0.88581
1325.62432,0.82244
1324.13453,0.81241
1322.64474,0.80572
1321.15495,0.74639
1319.66516,0.74339
1318.17537,0.74042
1316.68558,0.64473
1315.19580,0.60173
1313.70601,0.57697
1312.21622,0.53965
1310.72643,0.49506
1309.23664,0.45183
1307.74685,0.44737
1306.25707,0.41975
1304.76728,0.40276
1303.27749,0.38579
1301.78770,0.33340
1300.29791,0.27872
1298.80812,0.23831
1297.31834,0.20057
1295.82855,0.16418
1294.33876,0.14007
1292.84897,0.09446
1291.35918,0.09590
1289.86939,0.09935
1288.37960,0.10283
1286.88982,0.10434
1285.40003,0.08733
1283.91024,0.06174
1282.42045,0.06465
1280.93066,0.06428
1279.44087,0.05399
1277.95109,0.04770
1276.46130,0.03912
1274.97151,0.04580
1273.48172,0.05250
1271.99193,0.04068
1270.50214,0.03385
1269.01235,0.01612
1267.52257,0.04346
1266.03278,0.03174
1264.54299,0.01507
1263.05320,0.03221
1261.56341,0.02702
1260.07362,0.02186
1258.58384,0.00396
1257.09405,0.01571
1255.60426,0.04437
1254.11447,0.03331
1252.62468,0.02658
1251.13489,0.01623
1249.64511,0.02744
1248.15532,0.01051
1246.66553,0.01233
1245.17574,0.01417
1243.68595,0.01619
1242.19616,0.04408
1240.70637,0.01569
1239.21659,0.01514
1237.72680,0.03515
1236.23701,0.01909
1234.74722,0.01729
1233.25743,0.01452
1231.76764,0.01178
1230.27786,0.02098
1228.78807,0.02226
1227.29828,0.03781
1225.80849,0.00966
1224.31870,0.00373
1222.82891,0.00396
1221.33912,0.02676
1219.84934,0.04246
1218.35955,0.05818
1216.86976,0.03899
1215.37997,0.03638
1213.89018,0.07155
1212.40039,0.05906
1210.91061,0.05785
1209.42082,0.06395
1207.93103,0.05153
1206.44124,0.03913
1204.95145,0.06054
1203.46166,0.05117
1201.97188,0.06534
1200.48209,0.06629
1198.99230,0.05865
1197.50251,0.03547
1196.01272,0.02589
1194.52293,0.02247
1193.03314,0.01907
1191.54336,0.01122
1190.05357,0.01168
1188.56378,0.01845
1187.07399,0.01499
1185.58420,0.02678
1184.09441,0.01971
1182.60463,0.01665
1181.11484,0.01361
1179.62505,0.00530
1178.13526,0.00396
1176.64547,0.02289
1175.15568,0.03356
1173.66589,0.02638
1172.17611,0.00729
1170.68632,0.00561
1169.19653,0.00396
1167.70674,0.01123
1166.21695,0.02150
1164.72716,0.01722
1163.23738,0.04277
1161.74759,0.03523
1160.25780,0.05156
1158.76801,0.05218
1157.27822,0.05282
1155.78843,0.05598
1154.29865,0.07506
1152.80886,0.09813
1151.31907,0.10566
1149.82928,0.12117
1148.33949,0.11517
1146.84970,0.11533
1145.35991,0.11551
1143.87013,0.12647
1142.38034,0.16396
1140.89055,0.19386
1139.40076,0.17443
1137.91097,0.19907
1136.42118,0.21480
1134.93140,0.23122
1133.44161,0.24765
1131.95182,0.25915
1130.46203,0.25610
1128.97224,0.25803
1127.48245,0.24708
1125.99266,0.25039
1124.50288,0.27393
1123.01309,0.26703
1121.52330,0.26015
1120.03351,0.25296
1118.54372,0.27031
1117.05393,0.30225
1115.56415,0.27824
1114.07436,0.28440
1112.58457,0.27502
1111.09478,0.26566
1109.60499,0.25566
1108.11520,0.24933
1106.62542,0.26655
1105.13563,0.25298
1103.64584,0.26825
1102.15605,0.24380
1100.66626,0.25581
1099.17647,0.26785
1097.68668,0.24414
1096.19690,0.21813
1094.70711,0.22130
1093.21732,0.20528
1091.72753,0.20551
1090.23774,0.19666
1088.74795,0.18783
1087.25817,0.20139
1085.76838,0.19509
1084.27859,0.18419
1082.78880,0.18755
1081.29901,0.18597
1079.80922,0.18706
1078.31943,0.18735
1076.82965,0.18766
1075.33986,0.17922
1073.85007,0.19796
1072.36028,0.21739
1070.87049,0.23685
1069.38070,0.24242
1067.89092,0.26341
1066.40113,0.28443
1064.91134,0.33644
1063.42155,0.40735
1061.93176,0.49783
1060.44197,0.55787
1058.95219,0.63813
1057.46240,0.67254
1055.97261,0.70698
1054.48282,0.77771
1052.99303,0.84383
1051.50324,0.82452
1050.01345,0.81153
1048.52367,0.82737
1047.03388,0.81079
1045.54409,0.79423
1044.05430,0.78299
1042.56451,0.73170
1041.07472,0.68640
1039.58494,0.65106
1038.09515,0.59918
1036.60536,0.56588
1035.11557,0.53260
1033.62578,0.46787
1032.13599,0.41510
1030.64620,0.34911
1029.15642,0.29439
1027.66663,0.27862
1026.17684,0.26288
1024.68705,0.24269
1023.19726,0.21291
1021.70747,0.18085
1020.21769,0.16040
1018.72790,0.16316
1017.23811,0.15335
1015.74832,0.14357
1014.25853,0.13879
1012.76874,0.11780
1011.27896,0.13790
1009.78917,0.09477
1008.29938,0.09373
1006.80959,0.07267
1005.31980,0.05164
1003.83001,0.03510
1002.34022,0.03316
1000.85044,0.04813
999.36065,0.03134
997.87086,0.04736
996.38107,0.06340
994.89128,0.06589
993.40149,0.04687
991.91171,0.05802
990.42192,0.07748
988.93213,0.12146
987.44234,0.12175
985.95255,0.12207
984.46276,0.11579
982.97297,0.10456
981.48319,0.09137
979.99340,0.07490
978.50361,0.06275
977.01382,0.05063
975.52403,0.02661
974.03424,0.04335
972.54446,0.03792
971.05467,0.02954
969.56488,0.00396
968.07509,0.00454
966.58530,0.00514
965.09551,0.01338
963.60573,0.00310
962.11594,0.02199
960.62615,0.01242
959.13636,0.02490
957.64657,0.03741
956.15678,0.04845
954.66699,0.03169
953.17721,0.03748
951.68742,0.02905
950.19763,0.03174
948.70784,0.03445
947.21805,0.05955
945.72826,0.08169
944.23848,0.09955
942.74869,0.12141
941.25890,0.15190
939.76911,0.14980
938.27932,0.14771
936.78953,0.16636
935.29974,0.16814
933.80996,0.22160
932.32017,0.20223
930.83038,0.21071
929.34059,0.21921
927.85080,0.24197
926.36101,0.26012
924.87123,0.28956
923.38144,0.32962
921.89165,0.36640
920.40186,0.40320
918.91207,0.51156
917.42228,0.63485
915.93250,0.75717
914.44271,1.01100
912.95292,1.13189
911.46313,1.25279
909.97334,1.49974
908.48355,1.66392
906.99376,1.86058
905.50398,1.90126
904.01419,1.91067
902.52440,1.92011
901.03461,1.97280
899.54482,2.00000
898.05503,1.87819
896.56525,1.67625
895.07546,1.52071
893.58567,1.36518
892.09588,1.11463
890.60609,0.90551
889.11630,0.63281
887.62651,0.47739
886.13673,0.41042
884.64694,0.34348
883.15715,0.27127
881.66736,0.17788
880.17757,0.11465
878.68778,0.09368
877.19800,0.07273
875.70821,0.07913
874.21842,0.02892
872.72863,0.02775
871.23884,0.00640
869.74905,0.01389
868.25927,0.02141
866.76948,0.00908
865.27969,0.01234
863.78990,0.00635
862.30011,0.02787
860.81032,0.03435
859.32053,0.04086
857.83075,0.04225
856.34096,0.07845
854.85117,0.05737
853.36138,0.06215
851.87159,0.07855
850.38180,0.09497
848.89202,0.10943
847.40223,0.13219
845.91244,0.13842
844.42265,0.14716
842.93286,0.15592
841.44307,0.13440
839.95329,0.16954
838.46350,0.17390
836.97371,0.18491
835.48392,0.18436
833.99413,0.18382
832.50434,0.19491
831.01455,0.17190
829.52477,0.17675
828.03498,0.13160
826.54519,0.13169
825.05540,0.13180
823.56561,0.09468
822.07582,0.07579
820.58604,0.06687
819.09625,0.06857
817.60646,0.07030
816.11667,0.08364
814.62688,0.08674
813.13709,0.07496
811.64730,0.08440
810.15752,0.07896
808.66773,0.07355
807.17794,0.08141
805.68815,0.08796
804.19836,0.09918
802.70857,0.09304
801.21879,0.08692
799.72900,0.08894
798.23921,0.07045
796.74942,0.08676
795.25963,0.07395
793.76984,0.06116
792.28006,0.07655
790.79027,0.07706
789.30048,0.10906
787.81069,0.13976
786.32090,0.15375
784.83111,0.16778
783.34132,0.18663
781.85154,0.21577
780.36175,0.25288
778.87196,0.26717
777.38217,0.28148
775.89238,0.29979
774.40259,0.28434
772.91281,0.29408
771.42302,0.29193
769.93323,0.28980
768.44344,0.27081
766.95365,0.22634
765.46386,0.21733
763.97407,0.15403
762.48429,0.14507
760.99450,0.13613
759.50471,0.12324
758.01492,0.09482
756.52513,0.08132
755.03534,0.08407
753.54556,0.08685
752.05577,0.06779
750.56598,0.05472
749.07619,0.03572
747.58640,0.03710
746.09661,0.03851
744.60683,0.03349
743.11704,0.01624
741.62725,0.00431
740.13746,0.00422
738.64767,0.00416
737.15788,0.01336
735.66809,0.02722
734.17831,0.00898
732.68852,0.01710
731.19873,0.02523
729.70894,0.02992
728.21915,0.01509
726.72936,0.02744
725.23958,0.00603
723.74979,0.02171
722.26000,0.03741
720.77021,0.02946
719.28042,0.01358
717.79063,0.01462
716.30084,0.01071
714.81106,0.00683
713.32127,0.00396
711.83148,0.01411
710.34169,0.02891
708.85190,0.03198
707.36211,0.03508
705.87233,0.03406
704.38254,0.04664
702.89275,0.03905
701.40296,0.04091
699.91317,0.04281
698.42338,0.05648
696.93360,0.08045
695.44381,0.09318
693.95402,0.09699
692.46423,0.10083
690.97444,0.11198
689.48465,0.16025
687.99486,0.17244
686.50508,0.18564
685.01529,0.19888
683.52550,0.22837
682.03571,0.24827
680.54592,0.26191
679.05613,0.26315
677.56635,0.26442
676.07656,0.27283
674.58677,0.26438
673.09698,0.24071
671.60719,0.22618
670.11740,0.21167
668.62761,0.19868
667.13783,0.15292
665.64804,0.14097
664.15825,0.12904
662.66846,0.11449
661.17867,0.08175
659.68888,0.05863
658.19910,0.05558
656.70931,0.05256
655.21952,0.05436
653.72973,0.05817
652.23994,0.07360
650.75015,0.06321
649.26037,0.05286
647.77058,0.05081
646.28079,0.04613
644.79100,0.03452
643.30121,0.03436
641.81142,0.03423
640.32163,0.03959
638.83185,0.04100
637.34206,0.02123
635.85227,0.01259
634.36248,0.00396
632.87269,0.01714
631.38290,0.00980
629.89312,0.02037
628.40333,0.02385
626.91354,0.02735
625.42375,0.02707
623.93396,0.02979
622.44417,0.03386
620.95438,0.03795
619.46460,0.05764
617.97481,0.05317
616.48502,0.05072
614.99523,0.06352
613.50544,0.07635
612.01565,0.13822
610.52587,0.15475
609.03608,0.17328
607.54629,0.17958
606.05650,0.18591
604.56671,0.26513
603.07692,0.32450
601.58714,0.35292
600.09735,0.38137
598.60756,0.37689
597.11777,0.40655
595.62798,0.41967
594.13819,0.39589
592.64840,0.37214
591.15862,0.34327
589.66883,0.28893
588.17904,0.25448
586.68925,0.22635
585.19946,0.19824
583.70967,0.15261
582.21989,0.11727
580.73010,0.09718
579.24031,0.07712
577.75052,0.07696
576.26073,0.03277
574.77094,0.03266
573.28115,0.03605
571.79137,0.03946
570.30158,0.05201
568.81179,0.07816
567.32200,0.07618
565.83221,0.07423
564.34242,0.08455
562.85264,0.08033
561.36285,0.10826
559.87306,0.11882
558.38327,0.12941
556.89348,0.12363
555.40369,0.14040
553.91391,0.14212
552.42412,0.14386
550.93433,0.13454
549.44454,0.12226
547.95475,0.15570
546.46496,0.16583
544.97517,0.17597
543.48539,0.20022
541.99560,0.22449
540.50581,0.23405
539.01602,0.24364
537.52623,0.27494
536.03644,0.31852
534.54666,0.35285
533.05687,0.37892
531.56708,0.40502
530.07729,0.48149
528.58750,0.51426
527.09771,0.54143
525.60792,0.56862
524.11814,0.66539
522.62835,0.74861
521.13856,0.78978
519.64877,0.79024
518.15898,0.79073
516.66919,0.80880
515.17941,0.84609
513.68962,0.82513
512.19983,0.80418
510.71004,0.76074
509.22025,0.70143
507.73046,0.65307
506.24068,0.60540
504.75089,0.55775
503.26110,0.44289
501.77131,0.35290
500.28152,0.33165
498.79173,0.31043
497.30194,0.18507
495.81216,0.16506
494.32237,0.15137
492.83258,0.13770
491.34279,0.07007
489.85300,0.09652
488.36321,0.07961
486.87343,0.07780
485.38364,0.07601
483.89385,0.05885
482.40406,0.08277
480.91427,0.08238
479.42448,0.08202
477.93469,0.10800
476.44491,0.13567
474.95512,0.14565
473.46533,0.15565
471.97554,0.15623
470.48575,0.14558
468.99596,0.18827
467.50618,0.16343
466.01639,0.13861
464.52660,0.08831
463.03681,0.05857
461.54702,0.06860
460.05723,0.07865
458.56745,0.05395
457.07766,0.02365
455.58787,0.02467
454.09808,0.02571
452.60829,0.04880
451.11850,0.03516
449.62871,0.01955
448.13893,0.00396
446.64914,0.03322
445.15935,0.01413
443.66956,0.03913
442.17977,0.02241
440.68998,0.00573
439.20020,0.03146
437.71041,0.04330
436.22062,0.03811
434.73083,0.03295
433.24104,0.03989
431.75125,0.05382
430.26146,0.05370
428.77168,0.05360
427.28189,0.03183
425.79210,0.03891
424.30231,0.03954
422.81252,0.04020
421.32273,0.04271
419.83295,0.05452
418.34316,0.04350
416.85337,0.03250
415.36358,0.02815
413.87379,0.03972
412.38400,0.04337
410.89422,0.04705
409.40443,0.04809
407.91464,0.02830
406.42485,0.01416
404.93506,0.02737
403.44527,0.04061
401.95548,0.04873
400.46570,0.05390
398.97591,0.04701
397.48612,0.04014
395.99633,0.05598
394.50654,0.03376
393.01675,0.03574
391.52697,0.03774
390.03718,0.01791
388.54739,0.01409
387.05760,0.00962
385.56781,0.00519
384.07802,0.00396
382.58824,0.02310
381.09845,0.03430
379.60866,0.04553
378.11887,0.02499
376.62908,0.01209
375.13929,0.01694
373.64950,0.02181
372.15972,0.02853
370.66993,0.04421
369.18014,0.03061
367.69035,0.01703
366.20056,0.01310
364.71077,0.02046
363.22099,0.01956
361.73120,0.01869
360.24141,0.04103
358.75162,0.02464
357.26183,0.03245
355.77204,0.04029
354.28225,0.06073
352.79247,0.06498
351.30268,0.05036
349.81289,0.03578
348.32310,0.01956
346.83331,0.03384
345.34352,0.04482
343.85374,0.05584
342.36395,0.03376
340.87416,0.01899
339.38437,0.01881
337.89458,0.01866
336.40479,0.00396
334.91501,0.04101
333.42522,0.02823
331.93543,0.01548
330.44564,0.01418
328.95585,0.00926
327.46606,0.01794
325.97627,0.02665
324.48649,0.06055
322.99670,0.05772
321.50691,0.04066
320.01712,0.02363
318.52733,0.03180
317.03754,0.03436
315.54776,0.03364
314.05797,0.03294
312.56818,0.04120
311.07839,0.05976
309.58860,0.04655
308.09881,0.03336
306.60902,0.03046
305.11924,0.05276
303.62945,0.04710
302.13966,0.04146
300.64987,0.00421
299.16008,0.00396
