1778.52000,0.01155
1777.03021,0.00572
1775.54042,0.01404
1774.05063,0.01012
1772.56085,0.01080
1771.07106,0.01546
1769.58127,0.01390
1768.09148,0.00759
1766.60169,0.00753
1765.11190,0.01103
1763.62212,0.00728
1762.13233,0.00938
1760.64254,0.01316
1759.15275,0.01384
1757.66296,0.00188
1756.17317,0.00740
1754.68339,0.00400
1753.19360,0.00437
1751.70381,0.00746
1750.21402,0.00392
1748.72423,0.00000
1747.23444,0.00545
1745.74465,0.00469
1744.25487,0.01143
1742.76508,0.00968
1741.27529,0.00649
1739.78550,0.00188
1738.29571,0.00332
1736.80592,0.01454
1735.31614,0.00916
1733.82635,0.00443
1732.33656,0.00014
1730.84677,0.00502
1729.35698,0.01075
1727.86719,0.00342
1726.37740,0.00878
1724.88762,0.00544
1723.39783,0.00234
1721.90804,0.00216
1720.41825,0.01385
1718.92846,0.00188
1717.43867,0.00752
1715.94889,0.00383
1714.45910,0.00870
1712.96931,0.01110
1711.47952,0.00439
1709.98973,0.00497
1708.49994,0.00391
1707.01016,0.00672
1705.52037,0.00955
1704.03058,0.00628
1702.54079,0.01217
1701.05100,0.01040
1699.56121,0.01344
1698.07142,0.00112
1696.58164,0.00358
1695.09185,0.01333
1693.60206,0.00254
1692.11227,0.00195
1690.62248,0.00512
1689.13269,0.00188
1687.64291,0.00857
1686.15312,0.01590
1684.66333,0.02430
1683.17354,0.01236
1681.68375,0.01249
1680.19396,0.01452
1678.70417,0.01636
1677.21439,0.02280
1675.72460,0.04068
1674.23481,0.04405
1672.74502,0.03934
1671.25523,0.04712
1669.76544,0.03748
1668.27566,0.05153
1666.78587,0.04464
1665.29608,0.05272
1663.80629,0.05272
1662.31650,0.05857
1660.82671,0.06900
1659.33693,0.07240
1657.84714,0.06004
1656.35735,0.05912
1654.86756,0.06924
1653.37777,0.07211
1651.88798,0.08124
1650.39819,0.07128
1648.90841,0.07318
1647.41862,0.07574
1645.92883,0.07353
1644.43904,0.07135
1642.94925,0.07169
1641.45946,0.08535
1639.96968,0.07099
1638.47989,0.08677
1636.99010,0.07806
1635.50031,0.07208
1634.01052,0.06861
1632.52073,0.07867
1631.03094,0.08024
1629.54116,0.07933
1628.05137,0.08407
1626.56158,0.10378
1625.07179,0.09401
1623.58200,0.08822
1622.09221,0.09159
1620.60243,0.08460
1619.11264,0.07992
1617.62285,0.07796
1616.13306,0.08579
1614.64327,0.07640
1613.15348,0.08823
1611.66370,0.07951
1610.17391,0.07580
1608.68412,0.09144
1607.19433,0.09442
1605.70454,0.09079
1604.21475,0.09039
1602.72496,0.09002
1601.23518,0.09643
1599.74539,0.07814
1598.25560,0.07566
1596.76581,0.08961
1595.27602,0.07742
1593.78623,0.08581
1592.29645,0.06847
1590.80666,0.07775
1589.31687,0.07894
1587.82708,0.06853
1586.33729,0.08722
1584.84750,0.06730
1583.35771,0.07545
1581.86793,0.07364
1580.37814,0.08038
1578.88835,0.07219
1577.39856,0.06631
1575.90877,0.05504
1574.41898,0.04630
1572.92920,0.05607
1571.43941,0.05277
1569.94962,0.04877
1568.45983,0.04479
1566.97004,0.04406
1565.48025,0.04065
1563.99047,0.03914
1562.50068,0.03827
1561.01089,0.02994
1559.52110,0.04055
1558.03131,0.03913
1556.54152,0.01904
1555.05173,0.02618
1553.56195,0.03127
1552.07216,0.02122
1550.58237,0.02283
1549.09258,0.02010
1547.60279,0.00887
1546.11300,0.00120
1544.62322,0.00188
1543.13343,0.00533
1541.64364,0.00734
1540.15385,0.01041
1538.66406,0.01351
1537.17427,0.02203
1535.68448,0.00877
1534.19470,0.01942
1532.70491,0.00994
1531.21512,0.01441
1529.72533,0.01308
1528.23554,0.01863
1526.74575,0.01714
1525.25597,0.02066
1523.76618,0.02483
1522.27639,0.02196
1520.78660,0.02410
1519.29681,0.02979
1517.80702,0.02844
1516.31724,0.04561
1514.82745,0.02915
1513.33766,0.03826
1511.84787,0.04740
1510.35808,0.03474
1508.86829,0.04455
1507.37850,0.03319
1505.88872,0.04326
1504.39893,0.03610
1502.90914,0.04850
1501.41935,0.05551
1499.92956,0.07128
1498.43977,0.05757
1496.94999,0.05635
1495.46020,0.07551
1493.97041,0.08971
1492.48062,0.08067
1490.99083,0.10032
1489.50104,0.12601
1488.01125,0.12431
1486.52147,0.12264
1485.03168,0.13740
1483.54189,0.17357
1482.05210,0.17238
1480.56231,0.20051
1479.07252,0.20871
1477.58274,0.21985
1476.09295,0.21627
1474.60316,0.21249
1473.11337,0.22640
1471.62358,0.22704
1470.13379,0.23311
1468.64401,0.25457
1467.15422,0.28332
1465.66443,0.28935
1464.17464,0.29541
1462.68485,0.34459
1461.19506,0.37468
1459.70527,0.41415
1458.21549,0.45592
1456.72570,0.53221
1455.23591,0.56323
1453.74612,0.58638
1452.25633,0.62596
1450.76654,0.65768
1449.27676,0.66158
1447.78697,0.65180
1446.29718,0.62003
1444.80739,0.60863
1443.31760,0.59726
1441.82781,0.57698
1440.33802,0.54177
1438.84824,0.49079
1437.35845,0.45978
1435.86866,0.47346
1434.37887,0.47968
1432.88908,0.52975
1431.39929,0.59460
1429.90951,0.66965
1428.41972,0.72748
1426.92993,0.77411
1425.44014,0.78650
1423.95035,0.82519
1422.46056,0.86390
1420.97078,0.88134
1419.48099,0.89445
1417.99120,0.88598
1416.50141,0.90038
1415.01162,0.89444
1413.52183,0.84076
1412.03204,0.80018
1410.54226,0.72224
1409.05247,0.67029
1407.56268,0.61254
1406.07289,0.58266
1404.58310,0.54511
1403.09331,0.50758
1401.60353,0.44848
1400.11374,0.39833
1398.62395,0.37667
1397.13416,0.30475
1395.64437,0.25592
1394.15458,0.20587
1392.66479,0.18306
1391.17501,0.16587
1389.68522,0.13126
1388.19543,0.11454
1386.70564,0.09857
1385.21585,0.08262
1383.72606,0.08051
1382.23628,0.06534
1380.74649,0.04147
1379.25670,0.02946
1377.76691,0.01913
1376.27712,0.00821
1374.78733,0.00188
1373.29755,0.00647
1371.80776,0.00569
1370.31797,0.01739
1368.82818,0.01800
1367.33839,0.01863
1365.84860,0.01212
1364.35881,0.02600
1362.86903,0.03574
1361.37924,0.05984
1359.88945,0.08978
1358.39966,0.12389
1356.90987,0.14557
1355.42008,0.18057
1353.93030,0.21579
1352.44051,0.24616
1350.95072,0.27656
1349.46093,0.35402
1347.97114,0.44273
1346.48135,0.53022
1344.99156,0.57182
1343.50178,0.64585
1342.01199,0.68916
1340.52220,0.76947
1339.03241,0.82820
1337.54262,0.86223
1336.05283,0.87521
1334.56305,0.88821
1333.07326,0.92418
1331.58347,0.98490
1330.09368,0.97107
1328.60389,0.95228
1327.11410,0.93746
1325.62432,0.85432
1324.13453,0.84184
1322.64474,0.82003
1321.15495,0.78474
1319.66516,0.76411
1318.17537,0.74352
1316.68558,0.68483
1315.19580,0.61619
1313.70601,0.53241
1312.21622,0.51180
1310.72643,0.49496
1309.23664,0.46796
1307.74685,0.43933
1306.25707,0.42172
1304.76728,0.38950
1303.27749,0.35730
1301.78770,0.31962
1300.29791,0.27448
1298.80812,0.20424
1297.31834,0.19924
1295.82855,0.17246
1294.33876,0.15276
1292.84897,0.12727
1291.35918,0.09391
1289.86939,0.09610
1288.37960,0.09831
1286.88982,0.09265
1285.40003,0.09656
1283.91024,0.09054
1282.42045,0.06999
1280.93066,0.05051
1279.44087,0.05120
1277.95109,0.04402
1276.46130,0.03832
1274.97151,0.04157
1273.48172,0.04485
1271.99193,0.04587
1270.50214,0.02863
1269.01235,0.03966
1267.52257,0.02870
1266.03278,0.03542
1264.54299,0.01703
1263.05320,0.03336
1261.56341,0.02415
1260.07362,0.01498
1258.58384,0.01538
1257.09405,0.00188
1255.60426,0.00820
1254.11447,0.01579
1252.62468,0.00596
1251.13489,0.00321
1249.64511,0.01138
1248.15532,0.01210
1246.66553,0.01377
1245.17574,0.01547
1243.68595,0.00941
1242.19616,0.00752
1240.70637,0.00794
1239.21659,0.00776
1237.72680,0.00823
1236.23701,0.02035
1234.74722,0.02544
1233.25743,0.01559
1231.76764,0.00577
1230.27786,0.02630
1228.78807,0.02774
1227.29828,0.01861
1225.80849,0.00369
1224.31870,0.00188
1222.82891,0.00624
1221.33912,0.01354
1219.84934,0.01888
1218.35955,0.02425
1216.86976,0.04304
1215.37997,0.07099
1213.89018,0.07238
1212.40039,0.07794
1210.91061,0.07024
1209.42082,0.07128
1207.93103,0.07339
1206.44124,0.07552
1204.95145,0.05939
1203.46166,0.05306
1201.97188,0.04487
1200.48209,0.04647
1198.99230,0.04623
1197.50251,0.03126
1196.01272,0.02733
1194.52293,0.02373
1193.03314,0.02015
1191.54336,0.02522
1190.05357,0.01328
1188.56378,0.01196
1187.07399,0.01357
1185.58420,0.01915
1184.09441,0.02288
1182.60463,0.02425
1181.11484,0.02564
1179.62505,0.00161
1178.13526,0.01835
1176.64547,0.00188
1175.15568,0.01372
1173.66589,0.00792
1172.17611,0.00318
1170.68632,0.00252
1169.19653,0.00188
1167.70674,0.00396
1166.21695,0.02019
1164.72716,0.04558
1163.23738,0.04233
1161.74759,0.04658
1160.25780,0.04607
1158.76801,0.04943
1157.27822,0.05282
1155.78843,0.08604
1154.29865,0.07483
1152.80886,0.09065
1151.31907,0.10254
1149.82928,0.10885
1148.33949,0.10854
1146.84970,0.11656
1145.35991,0.12460
1143.87013,0.13599
1142.38034,0.14492
1140.89055,0.14680
1139.40076,0.15743
1137.91097,0.17266
1136.42118,0.18375
1134.93140,0.19539
1133.44161,0.20705
1131.95182,0.21281
1130.46203,0.22525
1128.97224,0.23148
1127.48245,0.23067
1125.99266,0.21783
1124.50288,0.22683
1123.01309,0.21560
1121.52330,0.20440
1120.03351,0.20724
1118.54372,0.22693
1117.05393,0.23169
1115.56415,0.22193
1114.07436,0.23359
1112.58457,0.23083
1111.09478,0.22810
1109.60499,0.23173
1108.11520,0.21731
1106.62542,0.22868
1105.13563,0.21991
1103.64584,0.21159
1102.15605,0.19644
1100.66626,0.19221
1099.17647,0.18801
1097.68668,0.18976
1096.19690,0.17096
1094.70711,0.17587
1093.21732,0.16646
1091.72753,0.16872
1090.23774,0.17006
1088.74795,0.17143
1087.25817,0.16503
1085.76838,0.16821
1084.27859,0.17120
1082.78880,0.16945
1081.29901,0.16563
1079.80922,0.18698
1078.31943,0.17875
1076.82965,0.17055
1075.33986,0.18615
1073.85007,0.19326
1072.36028,0.19208
1070.87049,0.21877
1069.38070,0.25046
1067.89092,0.25714
1066.40113,0.26385
1064.91134,0.30767
1063.42155,0.37435
1061.93176,0.46806
1060.44197,0.59420
1058.95219,0.69586
1057.46240,0.74145
1055.97261,0.78707
1054.48282,0.85078
1052.99303,0.91306
1051.50324,0.93071
1050.01345,0.91431
1048.52367,0.90271
1047.03388,0.89083
1045.54409,0.87897
1044.05430,0.83836
1042.56451,0.76102
1041.07472,0.70945
1039.58494,0.66871
1038.09515,0.57170
1036.60536,0.53329
1035.11557,0.49490
1033.62578,0.46277
1032.13599,0.40158
1030.64620,0.32920
1029.15642,0.29777
1027.66663,0.28027
1026.17684,0.26280
1024.68705,0.22376
1023.19726,0.20758
1021.70747,0.15798
1020.21769,0.13874
1018.72790,0.11973
1017.23811,0.10863
1015.74832,0.09756
1014.25853,0.09150
1012.76874,0.08442
1011.27896,0.07072
1009.78917,0.07947
1008.29938,0.05876
1006.80959,0.04866
1005.31980,0.03859
1003.83001,0.02791
1002.34022,0.01685
1000.85044,0.01744
999.36065,0.02159
997.87086,0.03313
996.38107,0.04470
994.89128,0.05702
993.40149,0.05482
991.91171,0.06407
990.42192,0.09059
988.93213,0.10985
987.44234,0.12032
985.95255,0.13081
984.46276,0.12875
982.97297,0.10242
981.48319,0.09106
979.99340,0.07682
978.50361,0.07061
977.01382,0.06441
975.52403,0.03903
974.03424,0.03569
972.54446,0.01783
971.05467,0.02450
969.56488,0.00815
968.07509,0.00500
966.58530,0.00188
965.09551,0.01685
963.60573,0.02083
962.11594,0.02193
960.62615,0.01184
959.13636,0.01870
957.64657,0.02558
956.15678,0.00933
954.66699,0.01823
953.17721,0.04066
951.68742,0.04172
950.19763,0.04301
948.70784,0.04432
947.21805,0.05438
945.72826,0.06114
944.23848,0.08372
942.74869,0.10777
941.25890,0.10961
939.76911,0.13060
938.27932,0.15160
936.78953,0.16412
935.29974,0.18268
933.80996,0.18631
932.32017,0.18850
930.83038,0.18823
929.34059,0.18799
927.85080,0.21664
926.36101,0.24635
924.87123,0.29104
923.38144,0.34075
921.89165,0.37645
920.40186,0.41218
918.91207,0.51534
917.42228,0.63078
915.93250,0.77781
914.44271,1.00443
912.95292,1.10467
911.46313,1.20493
909.97334,1.38904
908.48355,1.58065
906.99376,1.78973
905.50398,1.91387
904.01419,1.95391
902.52440,1.99398
901.03461,2.00000
899.54482,1.92192
898.05503,1.76015
896.56525,1.65179
895.07546,1.52663
893.58567,1.40149
892.09588,1.13200
890.60609,0.90471
889.11630,0.65314
887.62651,0.49507
886.13673,0.44400
884.64694,0.39295
883.15715,0.26320
881.66736,0.18852
880.17757,0.13402
878.68778,0.11391
877.19800,0.09383
875.70821,0.07512
874.21842,0.07036
872.72863,0.05232
871.23884,0.03348
869.74905,0.02909
868.25927,0.02474
866.76948,0.03193
865.27969,0.02191
863.78990,0.03330
862.30011,0.04763
860.81032,0.04817
859.32053,0.04873
857.83075,0.07144
856.34096,0.09998
854.85117,0.12212
853.36138,0.11394
851.87159,0.12408
850.38180,0.13423
848.89202,0.17349
847.40223,0.17352
845.91244,0.17772
844.42265,0.19067
842.93286,0.20365
841.44307,0.21872
839.95329,0.24566
838.46350,0.26328
836.97371,0.27469
835.48392,0.27968
833.99413,0.28470
832.50434,0.29306
831.01455,0.25451
829.52477,0.21888
828.03498,0.19325
826.54519,0.18042
825.05540,0.16761
823.56561,0.15389
822.07582,0.16014
820.58604,0.14834
819.09625,0.13344
817.60646,0.11857
816.11667,0.13032
814.62688,0.12983
813.13709,0.14079
811.64730,0.13910
810.15752,0.14678
808.66773,0.15449
807.17794,0.15412
805.68815,0.15543
804.19836,0.13745
802.70857,0.14484
801.21879,0.15225
799.72900,0.12770
798.23921,0.12456
796.74942,0.12664
795.25963,0.12740
793.76984,0.12818
792.28006,0.14238
790.79027,0.17550
789.30048,0.17916
787.81069,0.18637
786.32090,0.21115
784.83111,0.23596
783.34132,0.25218
781.85154,0.29874
780.36175,0.35260
778.87196,0.35569
777.38217,0.35881
775.89238,0.38927
774.40259,0.38797
772.91281,0.36675
771.42302,0.37017
769.93323,0.37362
768.44344,0.31820
766.95365,0.25948
765.46386,0.22633
763.97407,0.16413
762.48429,0.14858
760.99450,0.13306
759.50471,0.13698
758.01492,0.12556
756.52513,0.10792
755.03534,0.10122
753.54556,0.09454
752.05577,0.06680
750.56598,0.06235
749.07619,0.04816
747.58640,0.04054
746.09661,0.03294
744.60683,0.04188
743.11704,0.01865
741.62725,0.01870
740.13746,0.01691
738.64767,0.01514
737.15788,0.02462
735.66809,0.00462
734.17831,0.00188
732.68852,0.00968
731.19873,0.01750
729.70894,0.01090
728.21915,0.00433
726.72936,0.01657
725.23958,0.02115
723.74979,0.02138
722.26000,0.02165
720.77021,0.00926
719.28042,0.00188
717.79063,0.01860
716.30084,0.01332
714.81106,0.00806
713.32127,0.01862
711.83148,0.02276
710.34169,0.01279
708.85190,0.01470
707.36211,0.01662
705.87233,0.03893
704.38254,0.04256
702.89275,0.04311
701.40296,0.03692
699.91317,0.03076
698.42338,0.05527
696.93360,0.07688
695.44381,0.09894
693.95402,0.10264
692.46423,0.10636
690.97444,0.12081
689.48465,0.16062
687.99486,0.17947
686.50508,0.18412
685.01529,0.18879
683.52550,0.22849
682.03571,0.23206
680.54592,0.23899
679.05613,0.25487
677.56635,0.27077
676.07656,0.25783
674.58677,0.23826
673.09698,0.23305
671.60719,0.21768
670.11740,0.20234
668.62761,0.18910
667.13783,0.16321
665.64804,0.15032
664.15825,0.13747
662.66846,0.09316
661.17867,0.06467
659.68888,0.05697
658.19910,0.04566
656.70931,0.03437
655.21952,0.02716
653.72973,0.02101
652.23994,0.03940
650.75015,0.04036
649.26037,0.04135
647.77058,0.04049
646.28079,0.03113
644.79100,0.03967
643.30121,0.03794
641.81142,0.03625
640.32163,0.03260
638.83185,0.02980
637.34206,0.00937
635.85227,0.00632
634.36248,0.00328
632.87269,0.01359
631.38290,0.00752
629.89312,0.00188
628.40333,0.00358
626.91354,0.00529
625.42375,0.02178
623.93396,0.02022
622.44417,0.01827
620.95438,0.01634
619.46460,0.03646
617.97481,0.03624
616.48502,0.05578
614.99523,0.07482
613.50544,0.09389
612.01565,0.10291
610.52587,0.16118
609.03608,0.18728
607.54629,0.19689
606.05650,0.20652
604.56671,0.25325
603.07692,0.31517
601.58714,0.33817
600.09735,0.36119
598.60756,0.41176
597.11777,0.41603
595.62798,0.42614
594.13819,0.41093
592.64840,0.39575
591.15862,0.34382
589.66883,0.30480
588.17904,0.24419
586.68925,0.22007
585.19946,0.19597
583.70967,0.14998
582.21989,0.09383
580.73010,0.08278
579.24031,0.07176
577.75052,0.06118
576.26073,0.05020
574.77094,0.04029
573.28115,0.03092
571.79137,0.02157
570.30158,0.02544
568.81179,0.04325
567.32200,0.05007
565.83221,0.05692
564.34242,0.06961
562.85264,0.10849
561.36285,0.11707
559.87306,0.12744
558.38327,0.13784
556.89348,0.12946
555.40369,0.15579
553.91391,0.16335
552.42412,0.17093
550.93433,0.16908
549.44454,0.16643
547.95475,0.18125
546.46496,0.18238
544.97517,0.18354
543.48539,0.20570
541.99560,0.25613
540.50581,0.26671
539.01602,0.27731
537.52623,0.30933
536.03644,0.33327
534.54666,0.36492
533.05687,0.39421
531.56708,0.42352
530.07729,0.50219
528.58750,0.52521
527.09771,0.54950
525.60792,0.57382
524.11814,0.64282
522.62835,0.66968
521.13856,0.74703
519.64877,0.76365
518.15898,0.78030
516.66919,0.79977
515.17941,0.79871
513.68962,0.79787
512.19983,0.79706
510.71004,0.77529
509.22025,0.72966
507.73046,0.70400
506.24068,0.66205
504.75089,0.62012
503.26110,0.46969
501.77131,0.33672
500.28152,0.29788
498.79173,0.25906
497.30194,0.20427
495.81216,0.15636
494.32237,0.13652
492.83258,0.11670
491.34279,0.10168
489.85300,0.11037
488.36321,0.09456
486.87343,0.08668
485.38364,0.07882
483.89385,0.06101
482.40406,0.08664
480.91427,0.08789
479.42448,0.08916
477.93469,0.11735
476.44491,0.15575
474.95512,0.16717
473.46533,0.17861
471.97554,0.18218
470.48575,0.17248
468.99596,0.18316
467.50618,0.17278
466.01639,0.16243
464.52660,0.13454
463.03681,0.10460
461.54702,0.09141
460.05723,0.07825
458.56745,0.04152
457.07766,0.03162
455.58787,0.02341
454.09808,0.01522
452.60829,0.03613
451.11850,0.03360
449.62871,0.03150
448.13893,0.02943
446.64914,0.01325
445.15935,0.00188
443.66956,0.01336
442.17977,0.01095
440.68998,0.00856
439.20020,0.02821
437.71041,0.00779
436.22062,0.01607
434.73083,0.02437
433.24104,0.00257
431.75125,0.02358
430.26146,0.03549
428.77168,0.04741
427.28189,0.04793
425.79210,0.05056
424.30231,0.05747
422.81252,0.06440
421.32273,0.04487
419.83295,0.03741
418.34316,0.02935
416.85337,0.02132
415.36358,0.00188
413.87379,0.02089
412.38400,0.02497
410.89422,0.02908
409.40443,0.05210
407.91464,0.05916
406.42485,0.03986
404.93506,0.04967
403.44527,0.05950
401.95548,0.03757
400.46570,0.05036
398.97591,0.04468
397.48612,0.03903
395.99633,0.05666
394.50654,0.06269
393.01675,0.04859
391.52697,0.03452
390.03718,0.01943
388.54739,0.01516
387.05760,0.01302
385.56781,0.01091
384.07802,0.01360
382.58824,0.04726
381.09845,0.04719
379.60866,0.04715
378.11887,0.03103
376.62908,0.00350
375.13929,0.00268
373.64950,0.00188
372.15972,0.02303
370.66993,0.02468
369.18014,0.03182
367.69035,0.03899
366.20056,0.02355
364.71077,0.03222
363.22099,0.03676
361.73120,0.04132
360.24141,0.05090
358.75162,0.07794
357.26183,0.06575
355.77204,0.05359
354.28225,0.05952
352.79247,0.07253
351.30268,0.06968
349.81289,0.06685
348.32310,0.06561
346.83331,0.06709
345.34352,0.07441
343.85374,0.08175
342.36395,0.08662
340.87416,0.06306
339.38437,0.04628
337.89458,0.02952
336.40479,0.01704
334.91501,0.00188
333.42522,0.01016
331.93543,0.01846
330.44564,0.03280
328.95585,0.01975
327.46606,0.02812
325.97627,0.03651
324.48649,0.04098
322.99670,0.04963
321.50691,0.04200
320.01712,0.03439
318.52733,0.06991
317.03754,0.06806
315.54776,0.07049
314.05797,0.07294
312.56818,0.08197
311.07839,0.06214
309.58860,0.05812
308.09881,0.05413
306.60902,0.01381
305.11924,0.04227
303.62945,0.03524
302.13966,0.02822
300.64987,0.00296
299.16008,0.00188
