1778.52000,0.00840
1777.03021,0.00459
1775.54042,-0.00000
1774.05063,0.00917
1772.56085,0.01458
1771.07106,0.00603
1769.58127,0.01230
1768.09148,0.02210
1766.60169,0.01469
1765.11190,0.01054
1763.62212,0.01260
1762.13233,0.00230
1760.64254,0.00630
1759.15275,0.01329
1757.66296,0.02541
1756.17317,0.00444
1754.68339,0.00692
1753.19360,0.00592
1751.70381,0.01410
1750.21402,0.01611
1748.72423,0.00926
1747.23444,0.00136
1745.74465,0.01233
1744.25487,0.00904
1742.76508,0.01010
1741.27529,0.01279
1739.78550,0.00769
1738.29571,0.00639
1736.80592,0.00996
1735.31614,0.00763
1733.82635,0.01125
1732.33656,0.01059
1730.84677,0.00456
1729.35698,0.00125
1727.86719,0.01331
1726.37740,0.01140
1724.88762,0.00978
1723.39783,0.00522
1721.90804,0.00095
1720.41825,0.00344
1718.92846,0.01431
1717.43867,0.00230
1715.94889,0.00393
1714.45910,0.01419
1712.96931,0.00778
1711.47952,0.01028
1709.98973,0.00230
1708.49994,0.01026
1707.01016,0.00975
1705.52037,0.00927
1704.03058,0.02187
1702.54079,0.02050
1701.05100,0.01753
1699.56121,0.02024
1698.07142,0.01113
1696.58164,0.01281
1695.09185,0.02125
1693.60206,0.01463
1692.11227,0.01774
1690.62248,0.02571
1689.13269,0.02320
1687.64291,0.02315
1686.15312,0.03362
1684.66333,0.02392
1683.17354,0.02797
1681.68375,0.02613
1680.19396,0.03104
1678.70417,0.03867
1677.21439,0.04120
1675.72460,0.05534
1674.23481,0.04769
1672.74502,0.04626
1671.25523,0.05428
1669.76544,0.06448
1668.27566,0.06285
1666.78587,0.06017
1665.29608,0.06991
1663.80629,0.06431
1662.31650,0.06898
1660.82671,0.08390
1659.33693,0.08268
1657.84714,0.08069
1656.35735,0.08168
1654.86756,0.07004
1653.37777,0.08400
1651.88798,0.07241
1650.39819,0.08238
1648.90841,0.08565
1647.41862,0.07924
1645.92883,0.08417
1644.43904,0.08913
1642.94925,0.07795
1641.45946,0.07730
1639.96968,0.07936
1638.47989,0.07930
1636.99010,0.07656
1635.50031,0.07897
1634.01052,0.06605
1632.52073,0.07443
1631.03094,0.08041
1629.54116,0.06730
1628.05137,0.07763
1626.56158,0.08880
1625.07179,0.10619
1623.58200,0.08778
1622.09221,0.09202
1620.60243,0.08148
1619.11264,0.07661
1617.62285,0.08362
1616.13306,0.07557
1614.64327,0.07966
1613.15348,0.07408
1611.66370,0.07984
1610.17391,0.08347
1608.68412,0.08765
1607.19433,0.08837
1605.70454,0.09853
1604.21475,0.09458
1602.72496,0.09065
1601.23518,0.08419
1599.74539,0.07156
1598.25560,0.06380
1596.76581,0.07222
1595.27602,0.06828
1593.78623,0.07702
1592.29645,0.07286
1590.80666,0.05741
1589.31687,0.06488
1587.82708,0.05729
1586.33729,0.05565
1584.84750,0.07826
1583.35771,0.07021
1581.86793,0.07241
1580.37814,0.08568
1578.88835,0.06261
1577.39856,0.06004
1575.90877,0.04107
1574.41898,0.04985
1572.92920,0.04277
1571.43941,0.05699
1569.94962,0.05481
1568.45983,0.05265
1566.97004,0.04486
1565.48025,0.03575
1563.99047,0.03259
1562.50068,0.02945
1561.01089,0.05192
1559.52110,0.04290
1558.03131,0.01964
1556.54152,0.02441
1555.05173,0.01520
1553.56195,0.04236
1552.07216,0.02512
1550.58237,0.01814
1549.09258,0.00875
1547.60279,0.00774
1546.11300,0.00029
1544.62322,0.02149
1543.13343,0.00367
1541.64364,0.00230
1540.15385,0.00648
1538.66406,0.01069
1537.17427,0.01559
1535.68448,0.01836
1534.19470,0.01442
1532.70491,0.00835
1531.21512,0.01227
1529.72533,0.00868
1528.23554,0.00268
1526.74575,0.00775
1525.25597,0.01715
1523.76618,0.02066
1522.27639,0.01583
1520.78660,0.02639
1519.29681,0.02377
1517.80702,0.03895
1516.31724,0.02991
1514.82745,0.03195
1513.33766,0.03064
1511.84787,0.02935
1510.35808,0.05057
1508.86829,0.03143
1507.37850,0.05001
1505.88872,0.02122
1504.39893,0.04389
1502.90914,0.06254
1501.41935,0.06506
1499.92956,0.07380
1498.43977,0.06909
1496.94999,0.05768
1495.46020,0.07349
1493.97041,0.07829
1492.48062,0.08472
1490.99083,0.09872
1489.50104,0.10440
1488.01125,0.11185
1486.52147,0.11932
1485.03168,0.12022
1483.54189,0.14511
1482.05210,0.17353
1480.56231,0.17935
1479.07252,0.19058
1477.58274,0.20587
1476.09295,0.19911
1474.60316,0.19425
1473.11337,0.20531
1471.62358,0.21639
1470.13379,0.22373
1468.64401,0.25183
1467.15422,0.27106
1465.66443,0.29072
1464.17464,0.31041
1462.68485,0.33698
1461.19506,0.36789
1459.70527,0.40906
1458.21549,0.44459
1456.72570,0.49092
1455.23591,0.56286
1453.74612,0.56938
1452.25633,0.60367
1450.76654,0.62344
1449.27676,0.62869
1447.78697,0.66305
1446.29718,0.62500
1444.80739,0.60582
1443.31760,0.58666
1441.82781,0.55999
1440.33802,0.52930
1438.84824,0.48464
1437.35845,0.45939
1435.86866,0.48128
1434.37887,0.46523
1432.88908,0.50495
1431.39929,0.56408
1429.90951,0.64612
1428.41972,0.69399
1426.92993,0.72546
1425.44014,0.76799
1423.95035,0.79560
1422.46056,0.82323
1420.97078,0.83325
1419.48099,0.88207
1417.99120,0.84556
1416.50141,0.86750
1415.01162,0.86011
1413.52183,0.83767
1412.03204,0.78671
1410.54226,0.69996
1409.05247,0.62158
1407.56268,0.59116
1406.07289,0.53733
1404.58310,0.52136
1403.09331,0.50542
1401.60353,0.42608
1400.11374,0.38636
1398.62395,0.35420
1397.13416,0.30025
1395.64437,0.24174
1394.15458,0.21315
1392.66479,0.19428
1391.17501,0.14851
1389.68522,0.14153
1388.19543,0.11520
1386.70564,0.10746
1385.21585,0.09975
1383.72606,0.07537
1382.23628,0.06987
1380.74649,0.03880
1379.25670,0.03308
1377.76691,0.04030
1376.27712,0.00230
1374.78733,0.01740
1373.29755,0.03172
1371.80776,0.01644
1370.31797,0.00657
1368.82818,0.01503
1367.33839,0.02352
1365.84860,0.00941
1364.35881,0.03249
1362.86903,0.04913
1361.37924,0.06768
1359.88945,0.11291
1358.39966,0.11912
1356.90987,0.12508
1355.42008,0.16985
1353.93030,0.20548
1352.44051,0.23750
1350.95072,0.26955
1349.46093,0.35696
1347.97114,0.39942
1346.48135,0.47934
1344.99156,0.53585
1343.50178,0.62686
1342.01199,0.65972
1340.52220,0.73947
1339.03241,0.80631
1337.54262,0.80882
1336.05283,0.82657
1334.56305,0.84434
1333.07326,0.92879
1331.58347,0.95536
1330.09368,0.92891
1328.60389,0.91029
1327.11410,0.87473
1325.62432,0.82519
1324.13453,0.78672
1322.64474,0.76632
1321.15495,0.74163
1319.66516,0.71831
1318.17537,0.69501
1316.68558,0.65666
1315.19580,0.60191
1313.70601,0.53048
1312.21622,0.49651
1310.72643,0.47172
1309.23664,0.46581
1307.74685,0.40444
1306.25707,0.37434
1304.76728,0.35167
1303.27749,0.32902
1301.78770,0.27475
1300.29791,0.22509
1298.80812,0.20857
1297.31834,0.17161
1295.82855,0.14787
1294.33876,0.16293
1292.84897,0.10665
1291.35918,0.08164
1289.86939,0.08331
1288.37960,0.08500
1286.88982,0.08510
1285.40003,0.06934
1283.91024,0.06465
1282.42045,0.05782
1280.93066,0.04617
1279.44087,0.04424
1277.95109,0.04260
1276.46130,0.03695
1274.97151,0.03792
1273.48172,0.03891
1271.99193,0.04087
1270.50214,0.04366
1269.01235,0.01443
1267.52257,0.01862
1266.03278,0.03549
1264.54299,0.03407
1263.05320,0.01220
1261.56341,0.01231
1260.07362,0.01245
1258.58384,0.00143
1257.09405,0.00256
1255.60426,0.01448
1254.11447,0.01188
1252.62468,0.00230
1251.13489,0.00886
1249.64511,0.02837
1248.15532,0.01989
1246.66553,0.02019
1245.17574,0.02052
1243.68595,0.01400
1242.19616,0.00751
1240.70637,0.01639
1239.21659,0.01263
1237.72680,0.00460
1236.23701,0.02594
1234.74722,0.02576
1233.25743,0.01537
1231.76764,0.00501
1230.27786,0.02510
1228.78807,0.00967
1227.29828,0.00772
1225.80849,0.00230
1224.31870,0.01215
1222.82891,0.01287
1221.33912,0.00688
1219.84934,0.01694
1218.35955,0.02702
1216.86976,0.04291
1215.37997,0.07067
1213.89018,0.06104
1212.40039,0.07269
1210.91061,0.08195
1209.42082,0.07777
1207.93103,0.06284
1206.44124,0.04794
1204.95145,0.07022
1203.46166,0.05213
1201.97188,0.04269
1200.48209,0.03138
1198.99230,0.01310
1197.50251,0.03011
1196.01272,0.02642
1194.52293,0.02396
1193.03314,0.02153
1191.54336,0.01764
1190.05357,0.00273
1188.56378,0.00427
1187.07399,0.02092
1185.58420,0.02520
1184.09441,0.00609
1182.60463,0.00571
1181.11484,0.00535
1179.62505,0.00623
1178.13526,0.01845
1176.64547,0.00807
1175.15568,0.01494
1173.66589,0.01619
1172.17611,0.02069
1170.68632,0.01149
1169.19653,0.00230
1167.70674,0.01624
1166.21695,0.03048
1164.72716,0.03639
1163.23738,0.03317
1161.74759,0.06740
1160.25780,0.07796
1158.76801,0.07158
1157.27822,0.06522
1155.78843,0.07424
1154.29865,0.06847
1152.80886,0.09585
1151.31907,0.10440
1149.82928,0.11513
1148.33949,0.12158
1146.84970,0.12562
1145.35991,0.12969
1143.87013,0.13971
1142.38034,0.16107
1140.89055,0.15228
1139.40076,0.16345
1137.91097,0.17545
1136.42118,0.18936
1134.93140,0.20626
1133.44161,0.22318
1131.95182,0.24120
1130.46203,0.25979
1128.97224,0.25982
1127.48245,0.24560
1125.99266,0.25914
1124.50288,0.24200
1123.01309,0.24509
1121.52330,0.24820
1120.03351,0.21822
1118.54372,0.23565
1117.05393,0.24584
1115.56415,0.26574
1114.07436,0.26197
1112.58457,0.25567
1111.09478,0.24939
1109.60499,0.22954
1108.11520,0.23906
1106.62542,0.22895
1105.13563,0.23502
1103.64584,0.22281
1102.15605,0.20981
1100.66626,0.21447
1099.17647,0.21916
1097.68668,0.21242
1096.19690,0.18417
1094.70711,0.20388
1093.21732,0.20045
1091.72753,0.19973
1090.23774,0.19541
1088.74795,0.19111
1087.25817,0.16785
1085.76838,0.18420
1084.27859,0.19734
1082.78880,0.17981
1081.29901,0.19462
1079.80922,0.19491
1078.31943,0.19010
1076.82965,0.18532
1075.33986,0.19188
1073.85007,0.21704
1072.36028,0.22041
1070.87049,0.22004
1069.38070,0.25712
1067.89092,0.26837
1066.40113,0.27965
1064.91134,0.32596
1063.42155,0.38845
1061.93176,0.48382
1060.44197,0.60021
1058.95219,0.67220
1057.46240,0.71634
1055.97261,0.76050
1054.48282,0.81856
1052.99303,0.90034
1051.50324,0.95414
1050.01345,0.93202
1048.52367,0.91558
1047.03388,0.89998
1045.54409,0.88440
1044.05430,0.89012
1042.56451,0.78438
1041.07472,0.72336
1039.58494,0.65025
1038.09515,0.57259
1036.60536,0.55810
1035.11557,0.54363
1033.62578,0.46739
1032.13599,0.41460
1030.64620,0.37368
1029.15642,0.32874
1027.66663,0.29366
1026.17684,0.25860
1024.68705,0.25306
1023.19726,0.21253
1021.70747,0.16475
1020.21769,0.16467
1018.72790,0.12852
1017.23811,0.12053
1015.74832,0.11257
1014.25853,0.11904
1012.76874,0.09377
1011.27896,0.13044
1009.78917,0.12002
1008.29938,0.09266
1006.80959,0.08310
1005.31980,0.07356
1003.83001,0.02015
1002.34022,0.03085
1000.85044,0.02138
999.36065,0.02487
997.87086,0.03699
996.38107,0.04914
994.89128,0.06158
993.40149,0.07296
991.91171,0.07899
990.42192,0.11035
988.93213,0.11885
987.44234,0.11580
985.95255,0.11276
984.46276,0.12403
982.97297,0.10946
981.48319,0.08873
979.99340,0.06452
978.50361,0.06565
977.01382,0.06680
975.52403,0.05263
974.03424,0.04279
972.54446,0.02571
971.05467,0.02319
969.56488,0.00723
968.07509,0.00475
966.58530,0.00230
965.09551,0.01603
963.60573,0.01444
962.11594,0.01314
960.62615,0.00782
959.13636,0.01209
957.64657,0.01638
956.15678,0.04345
954.66699,0.03662
953.17721,0.03438
951.68742,0.03541
950.19763,0.04534
948.70784,0.05529
947.21805,0.06151
945.72826,0.08605
944.23848,0.09501
942.74869,0.11772
941.25890,0.13533
939.76911,0.14449
938.27932,0.15368
936.78953,0.18133
935.29974,0.19770
933.80996,0.18124
932.32017,0.18689
930.83038,0.20346
929.34059,0.22006
927.85080,0.20343
926.36101,0.24364
924.87123,0.30165
923.38144,0.34514
921.89165,0.38111
920.40186,0.41711
918.91207,0.47710
917.42228,0.62409
915.93250,0.74014
914.44271,0.95180
912.95292,1.07423
911.46313,1.19667
909.97334,1.36910
908.48355,1.55501
906.99376,1.77918
905.50398,1.90833
904.01419,1.95415
902.52440,2.00000
901.03461,1.95418
899.54482,1.91135
898.05503,1.76730
896.56525,1.62380
895.07546,1.52813
893.58567,1.43249
892.09588,1.13369
890.60609,0.89255
889.11630,0.65789
887.62651,0.53097
886.13673,0.45591
884.64694,0.38087
883.15715,0.26049
881.66736,0.18860
880.17757,0.12319
878.68778,0.11409
877.19800,0.10502
875.70821,0.07658
874.21842,0.05274
872.72863,0.04831
871.23884,0.03825
869.74905,0.02930
868.25927,0.02037
866.76948,0.00230
865.27969,0.01406
863.78990,0.03095
862.30011,0.05837
860.81032,0.05095
859.32053,0.04354
857.83075,0.07292
856.34096,0.10206
854.85117,0.08759
853.36138,0.11004
851.87159,0.10397
850.38180,0.09792
848.89202,0.12852
847.40223,0.14946
845.91244,0.15452
844.42265,0.14925
842.93286,0.14400
841.44307,0.20838
839.95329,0.22000
838.46350,0.22735
836.97371,0.22421
835.48392,0.22581
833.99413,0.22744
832.50434,0.23811
831.01455,0.22538
829.52477,0.17740
828.03498,0.15179
826.54519,0.15340
825.05540,0.15504
823.56561,0.14296
822.07582,0.12526
820.58604,0.12509
819.09625,0.11457
817.60646,0.10407
816.11667,0.09185
814.62688,0.10604
813.13709,0.12295
811.64730,0.12212
810.15752,0.12251
808.66773,0.12294
807.17794,0.11221
805.68815,0.09450
804.19836,0.11371
802.70857,0.11962
801.21879,0.12554
799.72900,0.11574
798.23921,0.11082
796.74942,0.10968
795.25963,0.11867
793.76984,0.12768
792.28006,0.12258
790.79027,0.13258
789.30048,0.10760
787.81069,0.14566
786.32090,0.17943
784.83111,0.21323
783.34132,0.20746
781.85154,0.23458
780.36175,0.28487
778.87196,0.29264
777.38217,0.30044
775.89238,0.32038
774.40259,0.33819
772.91281,0.34390
771.42302,0.34870
769.93323,0.35352
768.44344,0.30976
766.95365,0.23641
765.46386,0.23040
763.97407,0.16328
762.48429,0.14709
760.99450,0.13092
759.50471,0.12339
758.01492,0.13338
756.52513,0.11136
755.03534,0.10363
753.54556,0.09593
752.05577,0.08313
750.56598,0.06875
749.07619,0.04335
747.58640,0.04139
746.09661,0.03947
744.60683,0.03433
743.11704,0.03703
741.62725,0.01364
740.13746,0.01786
738.64767,0.02212
737.15788,0.02491
735.66809,0.01373
734.17831,0.00230
732.68852,0.00271
731.19873,0.00315
729.70894,0.00495
728.21915,0.00517
726.72936,0.00406
725.23958,0.01981
723.74979,0.01769
722.26000,0.01559
720.77021,0.01122
719.28042,0.00230
717.79063,0.02080
716.30084,0.01966
714.81106,0.01854
713.32127,0.01206
711.83148,0.02365
710.34169,0.01507
708.85190,0.01122
707.36211,0.00740
705.87233,0.01208
704.38254,0.02110
702.89275,0.02125
701.40296,0.02897
699.91317,0.03672
698.42338,0.04421
696.93360,0.08593
695.44381,0.09644
693.95402,0.09782
692.46423,0.09922
690.97444,0.10549
689.48465,0.14437
687.99486,0.15339
686.50508,0.17333
685.01529,0.19330
683.52550,0.20481
682.03571,0.23034
680.54592,0.23409
679.05613,0.24352
677.56635,0.25297
676.07656,0.26514
674.58677,0.23048
673.09698,0.20177
671.60719,0.19597
670.11740,0.19020
668.62761,0.16990
667.13783,0.16849
665.64804,0.15322
664.15825,0.13799
662.66846,0.09463
661.17867,0.06988
659.68888,0.05970
658.19910,0.05008
656.70931,0.04048
655.21952,0.02122
653.72973,0.01544
652.23994,0.03553
650.75015,0.04233
649.26037,0.04914
647.77058,0.03754
646.28079,0.03350
644.79100,0.02759
643.30121,0.02872
641.81142,0.02986
640.32163,0.03723
638.83185,0.01931
637.34206,0.00706
635.85227,0.00467
634.36248,0.00230
632.87269,0.00412
631.38290,0.02022
629.89312,0.00458
628.40333,0.00445
626.91354,0.00433
625.42375,0.01435
623.93396,0.02411
622.44417,0.01788
620.95438,0.01167
619.46460,0.02178
617.97481,0.04645
616.48502,0.07304
614.99523,0.08254
613.50544,0.09208
612.01565,0.10984
610.52587,0.15322
609.03608,0.17077
607.54629,0.19857
606.05650,0.22640
604.56671,0.23137
603.07692,0.29425
601.58714,0.33588
600.09735,0.37754
598.60756,0.39984
597.11777,0.39523
595.62798,0.40330
594.13819,0.39834
592.64840,0.39340
591.15862,0.33853
589.66883,0.32489
588.17904,0.24961
586.68925,0.22726
585.19946,0.20494
583.70967,0.16231
582.21989,0.09547
580.73010,0.08292
579.24031,0.07039
577.75052,0.07256
576.26073,0.05267
574.77094,0.04654
573.28115,0.04259
571.79137,0.03866
570.30158,0.04149
568.81179,0.02091
567.32200,0.03631
565.83221,0.05173
564.34242,0.08401
562.85264,0.09181
561.36285,0.12144
559.87306,0.13252
558.38327,0.14362
556.89348,0.13239
555.40369,0.17128
553.91391,0.18245
552.42412,0.19365
550.93433,0.19006
549.44454,0.16172
547.95475,0.17784
546.46496,0.19223
544.97517,0.20665
543.48539,0.21422
541.99560,0.25413
540.50581,0.26081
539.01602,0.26752
537.52623,0.32581
536.03644,0.36447
534.54666,0.41070
533.05687,0.42881
531.56708,0.44694
530.07729,0.51936
528.58750,0.56434
527.09771,0.57675
525.60792,0.58919
524.11814,0.63074
522.62835,0.73183
521.13856,0.78958
519.64877,0.80683
518.15898,0.82410
516.66919,0.88193
515.17941,0.85065
513.68962,0.85184
512.19983,0.85305
510.71004,0.82642
509.22025,0.76023
507.73046,0.73069
506.24068,0.67518
504.75089,0.61970
503.26110,0.47013
501.77131,0.38440
500.28152,0.34811
498.79173,0.31185
497.30194,0.22646
495.81216,0.18742
494.32237,0.16697
492.83258,0.14656
491.34279,0.11943
489.85300,0.10849
488.36321,0.12504
486.87343,0.10095
485.38364,0.07688
483.89385,0.06146
482.40406,0.07945
480.91427,0.09087
479.42448,0.10231
477.93469,0.13949
476.44491,0.16108
474.95512,0.17462
473.46533,0.18817
471.97554,0.17644
470.48575,0.18978
468.99596,0.18214
467.50618,0.17506
466.01639,0.16801
464.52660,0.14024
463.03681,0.11169
461.54702,0.10161
460.05723,0.09156
458.56745,0.05877
457.07766,0.05267
455.58787,0.04848
454.09808,0.04431
452.60829,0.05902
451.11850,0.04655
449.62871,0.03841
448.13893,0.03030
446.64914,0.02679
445.15935,0.00230
443.66956,0.01472
442.17977,0.02029
440.68998,0.02589
439.20020,0.04753
437.71041,0.05061
436.22062,0.04511
434.73083,0.03962
433.24104,0.03067
431.75125,0.06131
430.26146,0.06075
428.77168,0.06021
427.28189,0.06858
425.79210,0.06513
424.30231,0.05847
422.81252,0.05184
421.32273,0.05977
419.83295,0.04591
418.34316,0.05133
416.85337,0.05678
415.36358,0.04730
413.87379,0.04216
412.38400,0.05535
410.89422,0.06856
409.40443,0.06026
407.91464,0.06275
406.42485,0.05800
404.93506,0.05368
403.44527,0.04938
401.95548,0.07001
400.46570,0.03762
398.97591,0.02585
397.48612,0.01410
395.99633,0.03718
394.50654,0.04843
393.01675,0.03857
391.52697,0.02874
390.03718,0.02633
388.54739,0.05141
387.05760,0.03720
385.56781,0.02302
384.07802,0.03148
382.58824,0.02973
381.09845,0.02545
379.60866,0.02119
378.11887,0.00821
376.62908,0.00413
375.13929,0.00321
373.64950,0.00230
372.15972,0.01715
370.66993,0.03013
369.18014,0.02551
367.69035,0.02091
366.20056,0.02132
364.71077,0.03307
363.22099,0.03299
361.73120,0.03293
360.24141,0.06872
358.75162,0.08540
357.26183,0.07815
355.77204,0.07092
354.28225,0.02871
352.79247,0.04038
351.30268,0.04413
349.81289,0.04790
348.32310,0.06315
346.83331,0.03937
345.34352,0.05237
343.85374,0.06539
342.36395,0.06215
340.87416,0.06728
339.38437,0.03797
337.89458,0.00868
336.40479,0.00230
334.91501,0.00421
333.42522,0.00802
331.93543,0.01186
330.44564,0.02164
328.95585,0.03576
327.46606,0.03092
325.97627,0.02610
324.48649,0.03168
322.99670,0.05101
321.50691,0.04020
320.01712,0.02942
318.52733,0.03940
317.03754,0.08361
315.54776,0.08852
314.05797,0.09345
312.56818,0.07929
311.07839,0.08051
309.58860,0.05684
308.09881,0.03319
306.60902,0.03367
305.11924,0.03283
303.62945,0.03268
302.13966,0.03256
300.64987,0.00271
299.16008,0.00230
