1778.52000,0.01496
1777.03021,0.00391
1775.54042,0.01512
1774.05063,0.02337
1772.56085,0.00874
1771.07106,0.01006
1769.58127,0.01208
1768.09148,0.01876
1766.60169,0.00888
1765.11190,0.00865
1763.62212,0.00478
1762.13233,0.01256
1760.64254,0.00112
1759.15275,0.00862
1757.66296,0.01016
1756.17317,0.00576
1754.68339,0.01997
1753.19360,0.01031
1751.70381,0.00665
1750.21402,0.00699
1748.72423,0.00171
1747.23444,0.01074
1745.74465,0.00452
1744.25487,0.00496
1742.76508,0.00410
1741.27529,0.00923
1739.78550,0.01241
1738.29571,0.00764
1736.80592,0.01119
1735.31614,0.00481
1733.82635,0.00974
1732.33656,0.01104
1730.84677,0.01901
1729.35698,0.01505
1727.86719,0.01244
1726.37740,0.01749
1724.88762,0.00000
1723.39783,0.00777
1721.90804,0.00860
1720.41825,0.00646
1718.92846,0.00468
1717.43867,0.00690
1715.94889,0.00783
1714.45910,0.00745
1712.96931,0.00610
1711.47952,0.00112
1709.98973,0.00859
1708.49994,0.01044
1707.01016,0.00784
1705.52037,0.00526
1704.03058,0.01316
1702.54079,0.00814
1701.05100,0.01410
1699.56121,0.02174
1698.07142,0.02543
1696.58164,0.01354
1695.09185,0.03785
1693.60206,0.02202
1692.11227,0.01651
1690.62248,0.02762
1689.13269,0.02814
1687.64291,0.02868
1686.15312,0.03090
1684.66333,0.02651
1683.17354,0.03442
1681.68375,0.02078
1680.19396,0.03041
1678.70417,0.04337
1677.21439,0.05072
1675.72460,0.05843
1674.23481,0.06483
1672.74502,0.05333
1671.25523,0.05679
1669.76544,0.08352
1668.27566,0.08703
1666.78587,0.09057
1665.29608,0.08318
1663.80629,0.06619
1662.31650,0.10697
1660.82671,0.09036
1659.33693,0.08572
1657.84714,0.08211
1656.35735,0.09445
1654.86756,0.08159
1653.37777,0.09564
1651.88798,0.09809
1650.39819,0.08995
1648.90841,0.07487
1647.41862,0.09200
1645.92883,0.09389
1644.43904,0.09581
1642.94925,0.08348
1641.45946,0.08611
1639.96968,0.07880
1638.47989,0.09608
1636.99010,0.09713
1635.50031,0.09753
1634.01052,0.07904
1632.52073,0.07717
1631.03094,0.07831
1629.54116,0.09674
1628.05137,0.09992
1626.56158,0.07392
1625.07179,0.08279
1623.58200,0.08406
1622.09221,0.09895
1620.60243,0.08732
1619.11264,0.09397
1617.62285,0.09368
1616.13306,0.08975
1614.64327,0.09349
1613.15348,0.08763
1611.66370,0.10170
1610.17391,0.09256
1608.68412,0.09740
1607.19433,0.08897
1605.70454,0.09452
1604.21475,0.10075
1602.72496,0.10700
1601.23518,0.10466
1599.74539,0.10797
1598.25560,0.10302
1596.76581,0.09577
1595.27602,0.09318
1593.78623,0.08863
1592.29645,0.10070
1590.80666,0.08791
1589.31687,0.07812
1587.82708,0.07865
1586.33729,0.08783
1584.84750,0.10235
1583.35771,0.09532
1581.86793,0.08267
1580.37814,0.07502
1578.88835,0.08134
1577.39856,0.09067
1575.90877,0.06849
1574.41898,0.06592
1572.92920,0.07134
1571.43941,0.06351
1569.94962,0.05753
1568.45983,0.05158
1566.97004,0.05444
1565.48025,0.04472
1563.99047,0.04796
1562.50068,0.05754
1561.01089,0.04457
1559.52110,0.05884
1558.03131,0.05588
1556.54152,0.04232
1555.05173,0.04306
1553.56195,0.03519
1552.07216,0.03399
1550.58237,0.02551
1549.09258,0.00112
1547.60279,0.01931
1546.11300,0.01562
1544.62322,0.02955
1543.13343,0.01031
1541.64364,0.01731
1540.15385,0.01671
1538.66406,0.01613
1537.17427,0.01259
1535.68448,0.01107
1534.19470,0.00857
1532.70491,0.00112
1531.21512,0.02029
1529.72533,0.02023
1528.23554,0.01389
1526.74575,0.02185
1525.25597,0.02419
1523.76618,0.03718
1522.27639,0.05019
1520.78660,0.03634
1519.29681,0.01721
1517.80702,0.03992
1516.31724,0.05601
1514.82745,0.04857
1513.33766,0.05708
1511.84787,0.06562
1510.35808,0.06190
1508.86829,0.05090
1507.37850,0.03960
1505.88872,0.04890
1504.39893,0.05689
1502.90914,0.05197
1501.41935,0.06366
1499.92956,0.07007
1498.43977,0.06257
1496.94999,0.07202
1495.46020,0.08779
1493.97041,0.09165
1492.48062,0.10648
1490.99083,0.08549
1489.50104,0.10734
1488.01125,0.10067
1486.52147,0.09402
1485.03168,0.14350
1483.54189,0.15117
1482.05210,0.19007
1480.56231,0.19879
1479.07252,0.21551
1477.58274,0.19706
1476.09295,0.19557
1474.60316,0.21899
1473.11337,0.24941
1471.62358,0.23837
1470.13379,0.22303
1468.64401,0.26215
1467.15422,0.29001
1465.66443,0.30446
1464.17464,0.31893
1462.68485,0.33160
1461.19506,0.36321
1459.70527,0.38953
1458.21549,0.47231
1456.72570,0.55809
1455.23591,0.60441
1453.74612,0.62718
1452.25633,0.68748
1450.76654,0.68408
1449.27676,0.67274
1447.78697,0.69495
1446.29718,0.67370
1444.80739,0.66427
1443.31760,0.65485
1441.82781,0.62604
1440.33802,0.54747
1438.84824,0.49449
1437.35845,0.49662
1435.86866,0.46327
1434.37887,0.48105
1432.88908,0.55063
1431.39929,0.61427
1429.90951,0.69950
1428.41972,0.76451
1426.92993,0.78574
1425.44014,0.83553
1423.95035,0.85830
1422.46056,0.88109
1420.97078,0.91868
1419.48099,0.92642
1417.99120,0.95476
1416.50141,0.91110
1415.01162,0.85751
1413.52183,0.82984
1412.03204,0.79190
1410.54226,0.71781
1409.05247,0.66797
1407.56268,0.62579
1406.07289,0.57600
1404.58310,0.54050
1403.09331,0.50503
1401.60353,0.45897
1400.11374,0.39534
1398.62395,0.39380
1397.13416,0.31860
1395.64437,0.25404
1394.15458,0.20246
1392.66479,0.19272
1391.17501,0.13322
1389.68522,0.10992
1388.19543,0.10258
1386.70564,0.08464
1385.21585,0.06672
1383.72606,0.04518
1382.23628,0.05022
1380.74649,0.02541
1379.25670,0.02187
1377.76691,0.01270
1376.27712,0.00323
1374.78733,0.00242
1373.29755,0.00794
1371.80776,0.00584
1370.31797,0.00112
1368.82818,0.00821
1367.33839,0.01532
1365.84860,0.02129
1364.35881,0.01634
1362.86903,0.04493
1361.37924,0.07388
1359.88945,0.11116
1358.39966,0.13119
1356.90987,0.14761
1355.42008,0.17765
1353.93030,0.21967
1352.44051,0.25823
1350.95072,0.29681
1349.46093,0.39300
1347.97114,0.46465
1346.48135,0.50281
1344.99156,0.61634
1343.50178,0.66450
1342.01199,0.73559
1340.52220,0.80837
1339.03241,0.82939
1337.54262,0.85674
1336.05283,0.86105
1334.56305,0.86539
1333.07326,0.91804
1331.58347,0.92923
1330.09368,0.93646
1328.60389,0.92147
1327.11410,0.88925
1325.62432,0.83117
1324.13453,0.85476
1322.64474,0.81167
1321.15495,0.75432
1319.66516,0.74712
1318.17537,0.73994
1316.68558,0.67006
1315.19580,0.63638
1313.70601,0.55925
1312.21622,0.52562
1310.72643,0.48803
1309.23664,0.47602
1307.74685,0.40794
1306.25707,0.40528
1304.76728,0.36961
1303.27749,0.33397
1301.78770,0.26666
1300.29791,0.22991
1298.80812,0.20380
1297.31834,0.17207
1295.82855,0.15265
1294.33876,0.14653
1292.84897,0.10957
1291.35918,0.07562
1289.86939,0.08517
1288.37960,0.09475
1286.88982,0.08544
1285.40003,0.07814
1283.91024,0.07020
1282.42045,0.05731
1280.93066,0.04344
1279.44087,0.05516
1277.95109,0.03571
1276.46130,0.04449
1274.97151,0.04366
1273.48172,0.04287
1271.99193,0.02384
1270.50214,0.02542
1269.01235,0.02105
1267.52257,0.03163
1266.03278,0.02067
1264.54299,0.03595
1263.05320,0.04529
1261.56341,0.03573
1260.07362,0.02619
1258.58384,0.00473
1257.09405,0.02976
1255.60426,0.01599
1254.11447,0.02646
1252.62468,0.00112
1251.13489,0.00282
1249.64511,0.00387
1248.15532,0.00330
1246.66553,0.00573
1245.17574,0.00819
1243.68595,0.01300
1242.19616,0.01949
1240.70637,0.01040
1239.21659,0.03619
1237.72680,0.04907
1236.23701,0.03441
1234.74722,0.01779
1233.25743,0.00917
1231.76764,0.00056
1230.27786,0.04095
1228.78807,0.02262
1227.29828,0.02024
1225.80849,0.00129
1224.31870,0.00277
1222.82891,0.00161
1221.33912,0.01368
1219.84934,0.02427
1218.35955,0.03490
1216.86976,0.04969
1215.37997,0.05655
1213.89018,0.07670
1212.40039,0.08527
1210.91061,0.08622
1209.42082,0.07027
1207.93103,0.06281
1206.44124,0.05537
1204.95145,0.05875
1203.46166,0.05452
1201.97188,0.05097
1200.48209,0.05143
1198.99230,0.03267
1197.50251,0.03053
1196.01272,0.03637
1194.52293,0.02449
1193.03314,0.01263
1191.54336,0.01955
1190.05357,0.03047
1188.56378,0.01387
1187.07399,0.02318
1185.58420,0.01958
1184.09441,0.02031
1182.60463,0.01426
1181.11484,0.00824
1179.62505,0.01337
1178.13526,0.00855
1176.64547,0.02070
1175.15568,0.01428
1173.66589,0.03012
1172.17611,0.01744
1170.68632,0.00927
1169.19653,0.00112
1167.70674,0.02956
1166.21695,0.02782
1164.72716,0.04436
1163.23738,0.02840
1161.74759,0.06259
1160.25780,0.06128
1158.76801,0.06846
1157.27822,0.07567
1155.78843,0.07941
1154.29865,0.07455
1152.80886,0.08233
1151.31907,0.10971
1149.82928,0.10294
1148.33949,0.12639
1146.84970,0.11949
1145.35991,0.11262
1143.87013,0.13715
1142.38034,0.13481
1140.89055,0.15904
1139.40076,0.17368
1137.91097,0.18170
1136.42118,0.20037
1134.93140,0.20712
1133.44161,0.21389
1131.95182,0.22068
1130.46203,0.23680
1128.97224,0.23966
1127.48245,0.22296
1125.99266,0.24612
1124.50288,0.24640
1123.01309,0.24570
1121.52330,0.24504
1120.03351,0.22714
1118.54372,0.25705
1117.05393,0.24484
1115.56415,0.25125
1114.07436,0.24805
1112.58457,0.22960
1111.09478,0.21119
1109.60499,0.23793
1108.11520,0.22620
1106.62542,0.24238
1105.13563,0.25758
1103.64584,0.24526
1102.15605,0.22268
1100.66626,0.20725
1099.17647,0.19185
1097.68668,0.19490
1096.19690,0.20395
1094.70711,0.20273
1093.21732,0.19821
1091.72753,0.17348
1090.23774,0.18179
1088.74795,0.19013
1087.25817,0.18273
1085.76838,0.16141
1084.27859,0.16932
1082.78880,0.19253
1081.29901,0.16664
1079.80922,0.18990
1078.31943,0.18264
1076.82965,0.17541
1075.33986,0.18779
1073.85007,0.18293
1072.36028,0.18473
1070.87049,0.20847
1069.38070,0.22891
1067.89092,0.24523
1066.40113,0.26157
1064.91134,0.31461
1063.42155,0.37299
1061.93176,0.45296
1060.44197,0.50940
1058.95219,0.56353
1057.46240,0.60176
1055.97261,0.64002
1054.48282,0.77654
1052.99303,0.89583
1051.50324,0.88437
1050.01345,0.87858
1048.52367,0.83497
1047.03388,0.82923
1045.54409,0.82351
1044.05430,0.77899
1042.56451,0.69433
1041.07472,0.68503
1039.58494,0.64456
1038.09515,0.57425
1036.60536,0.56138
1035.11557,0.54853
1033.62578,0.44277
1032.13599,0.42433
1030.64620,0.35580
1029.15642,0.30920
1027.66663,0.28253
1026.17684,0.25590
1024.68705,0.24090
1023.19726,0.19074
1021.70747,0.17380
1020.21769,0.13963
1018.72790,0.14132
1017.23811,0.13342
1015.74832,0.12554
1014.25853,0.12465
1012.76874,0.10288
1011.27896,0.10603
1009.78917,0.14206
1008.29938,0.11671
1006.80959,0.08641
1005.31980,0.05613
1003.83001,0.03351
1002.34022,0.03415
1000.85044,0.02386
999.36065,0.03152
997.87086,0.02692
996.38107,0.02235
994.89128,0.04203
993.40149,0.04913
991.91171,0.05790
990.42192,0.09093
988.93213,0.10573
987.44234,0.11044
985.95255,0.11516
984.46276,0.11145
982.97297,0.10411
981.48319,0.07257
979.99340,0.05732
978.50361,0.04939
977.01382,0.04148
975.52403,0.03659
974.03424,0.02442
972.54446,0.03086
971.05467,0.03733
969.56488,0.00764
968.07509,0.00437
966.58530,0.00112
965.09551,0.01150
963.60573,0.02357
962.11594,0.02471
960.62615,0.01858
959.13636,0.02242
957.64657,0.02629
956.15678,0.01824
954.66699,0.02581
953.17721,0.03506
951.68742,0.03638
950.19763,0.04037
948.70784,0.04439
947.21805,0.06536
945.72826,0.08137
944.23848,0.10206
942.74869,0.11215
941.25890,0.12293
939.76911,0.13838
938.27932,0.15385
936.78953,0.17168
935.29974,0.19085
933.80996,0.21802
932.32017,0.21434
930.83038,0.21119
929.34059,0.20806
927.85080,0.22968
926.36101,0.25697
924.87123,0.28793
923.38144,0.33120
921.89165,0.36454
920.40186,0.39790
918.91207,0.51725
917.42228,0.61671
915.93250,0.75768
914.44271,0.95709
912.95292,1.04268
911.46313,1.12830
909.97334,1.38122
908.48355,1.59932
906.99376,1.75671
905.50398,1.89652
904.01419,1.93746
902.52440,1.97842
901.03461,1.99052
899.54482,2.00000
898.05503,1.86778
896.56525,1.67351
895.07546,1.54815
893.58567,1.42280
892.09588,1.15858
890.60609,0.89372
889.11630,0.64747
887.62651,0.50978
886.13673,0.44579
884.64694,0.38183
883.15715,0.27475
881.66736,0.17798
880.17757,0.13368
878.68778,0.10931
877.19800,0.08497
875.70821,0.05668
874.21842,0.07188
872.72863,0.02571
871.23884,0.01010
869.74905,0.00895
868.25927,0.00782
866.76948,0.00656
865.27969,0.02357
863.78990,0.01074
862.30011,0.02282
860.81032,0.02099
859.32053,0.01918
857.83075,0.05989
856.34096,0.06676
854.85117,0.07896
853.36138,0.09286
851.87159,0.08636
850.38180,0.07989
848.89202,0.09817
847.40223,0.11846
845.91244,0.10759
844.42265,0.12511
842.93286,0.14266
841.44307,0.14911
839.95329,0.16688
838.46350,0.17803
836.97371,0.19717
835.48392,0.19409
833.99413,0.19105
832.50434,0.19433
831.01455,0.18005
829.52477,0.18935
828.03498,0.13264
826.54519,0.12009
825.05540,0.10756
823.56561,0.09605
822.07582,0.09354
820.58604,0.07378
819.09625,0.07944
817.60646,0.08513
816.11667,0.08437
814.62688,0.06936
813.13709,0.08724
811.64730,0.08954
810.15752,0.08821
808.66773,0.08691
807.17794,0.09459
805.68815,0.07774
804.19836,0.08946
802.70857,0.09689
801.21879,0.10434
799.72900,0.08592
798.23921,0.08015
796.74942,0.07008
795.25963,0.07846
793.76984,0.08687
792.28006,0.09646
790.79027,0.09147
789.30048,0.08617
787.81069,0.13367
786.32090,0.14353
784.83111,0.15341
783.34132,0.19401
781.85154,0.20112
780.36175,0.25970
778.87196,0.26685
777.38217,0.27403
775.89238,0.28655
774.40259,0.33394
772.91281,0.33091
771.42302,0.32840
769.93323,0.32591
768.44344,0.29905
766.95365,0.23040
765.46386,0.18998
763.97407,0.13101
762.48429,0.13760
760.99450,0.14423
759.50471,0.10756
758.01492,0.10544
756.52513,0.09305
755.03534,0.08732
753.54556,0.08162
752.05577,0.06068
750.56598,0.04938
749.07619,0.04475
747.58640,0.03931
746.09661,0.03390
744.60683,0.03067
743.11704,0.03842
741.62725,0.01167
740.13746,0.00918
738.64767,0.00671
737.15788,0.01854
735.66809,0.01281
734.17831,0.00112
732.68852,0.00564
731.19873,0.01019
729.70894,0.00231
728.21915,0.00408
726.72936,0.00775
725.23958,0.00182
723.74979,0.00228
722.26000,0.00277
720.77021,0.00062
719.28042,0.00449
717.79063,0.00274
716.30084,0.00185
714.81106,0.00097
713.32127,0.00527
711.83148,0.01789
710.34169,0.02722
708.85190,0.01997
707.36211,0.01275
705.87233,0.01950
704.38254,0.03191
702.89275,0.04069
701.40296,0.04104
699.91317,0.04141
698.42338,0.05060
696.93360,0.08106
695.44381,0.09926
693.95402,0.10288
692.46423,0.10653
690.97444,0.15800
689.48465,0.15008
687.99486,0.16674
686.50508,0.17895
685.01529,0.19118
683.52550,0.25339
682.03571,0.25522
680.54592,0.27267
679.05613,0.27372
677.56635,0.27479
676.07656,0.25913
674.58677,0.24847
673.09698,0.24414
671.60719,0.22340
670.11740,0.20269
668.62761,0.19180
667.13783,0.17562
665.64804,0.14867
664.15825,0.12176
662.66846,0.10200
661.17867,0.09886
659.68888,0.06588
658.19910,0.04885
656.70931,0.03184
655.21952,0.04341
653.72973,0.01948
652.23994,0.07325
650.75015,0.07344
649.26037,0.07365
647.77058,0.05281
646.28079,0.04062
644.79100,0.04738
643.30121,0.04205
641.81142,0.03674
640.32163,0.03561
638.83185,0.02222
637.34206,0.02346
635.85227,0.01228
634.36248,0.00112
632.87269,0.00364
631.38290,0.03074
629.89312,0.03862
628.40333,0.03424
626.91354,0.02989
625.42375,0.03186
623.93396,0.04283
622.44417,0.05016
620.95438,0.05752
619.46460,0.03106
617.97481,0.04510
616.48502,0.04657
614.99523,0.06647
613.50544,0.08640
612.01565,0.11615
610.52587,0.14161
609.03608,0.18700
607.54629,0.19790
606.05650,0.20883
604.56671,0.26459
603.07692,0.33630
601.58714,0.35262
600.09735,0.36895
598.60756,0.44174
597.11777,0.45016
595.62798,0.43736
594.13819,0.41861
592.64840,0.39989
591.15862,0.38086
589.66883,0.32202
588.17904,0.27682
586.68925,0.25786
585.19946,0.23893
583.70967,0.16161
582.21989,0.12812
580.73010,0.10810
579.24031,0.08811
577.75052,0.06698
576.26073,0.08238
574.77094,0.04138
573.28115,0.03742
571.79137,0.03348
570.30158,0.05130
568.81179,0.08773
567.32200,0.09283
565.83221,0.09795
564.34242,0.08865
562.85264,0.13714
561.36285,0.13121
559.87306,0.12647
558.38327,0.12176
556.89348,0.13051
555.40369,0.17646
553.91391,0.17929
552.42412,0.18214
550.93433,0.16411
549.44454,0.18559
547.95475,0.17889
546.46496,0.17570
544.97517,0.17254
543.48539,0.18981
541.99560,0.20545
540.50581,0.23007
539.01602,0.25472
537.52623,0.31855
536.03644,0.37611
534.54666,0.41809
533.05687,0.43122
531.56708,0.44437
530.07729,0.51961
528.58750,0.54477
527.09771,0.57691
525.60792,0.60908
524.11814,0.69903
522.62835,0.78004
521.13856,0.84448
519.64877,0.84306
518.15898,0.84167
516.66919,0.84577
515.17941,0.89936
513.68962,0.87912
512.19983,0.85890
510.71004,0.81498
509.22025,0.81921
507.73046,0.73286
506.24068,0.66412
504.75089,0.59540
503.26110,0.50879
501.77131,0.41357
500.28152,0.36451
498.79173,0.31547
497.30194,0.23560
495.81216,0.17134
494.32237,0.17648
492.83258,0.18165
491.34279,0.13539
489.85300,0.12766
488.36321,0.10402
486.87343,0.06929
485.38364,0.03458
483.89385,0.07806
482.40406,0.14016
480.91427,0.12311
479.42448,0.10610
477.93469,0.13806
476.44491,0.13951
474.95512,0.13933
473.46533,0.13917
471.97554,0.18219
470.48575,0.14756
468.99596,0.15677
467.50618,0.16550
466.01639,0.17426
464.52660,0.09493
463.03681,0.10357
461.54702,0.08337
460.05723,0.06318
458.56745,0.04966
457.07766,0.03285
455.58787,0.02817
454.09808,0.02352
452.60829,0.03367
451.11850,0.03222
449.62871,0.03113
448.13893,0.03006
446.64914,0.01475
445.15935,0.02667
443.66956,0.00112
442.17977,0.02106
440.68998,0.04103
439.20020,0.02651
437.71041,0.05482
436.22062,0.03753
434.73083,0.02026
433.24104,0.02176
431.75125,0.01334
430.26146,0.02402
428.77168,0.03473
427.28189,0.03334
425.79210,0.06385
424.30231,0.06085
422.81252,0.05789
421.32273,0.07253
419.83295,0.04538
418.34316,0.02324
416.85337,0.00112
415.36358,0.02224
413.87379,0.02580
412.38400,0.03237
410.89422,0.03897
409.40443,0.04194
407.91464,0.03995
406.42485,0.03368
404.93506,0.03473
403.44527,0.03580
401.95548,0.04520
400.46570,0.05429
398.97591,0.03818
397.48612,0.02210
395.99633,0.02429
394.50654,0.01822
393.01675,0.02112
391.52697,0.02406
390.03718,0.04228
388.54739,0.00112
387.05760,0.00967
385.56781,0.01824
384.07802,0.02916
382.58824,0.02948
381.09845,0.03498
379.60866,0.04049
378.11887,0.02463
376.62908,0.01078
375.13929,0.01919
373.64950,0.02763
372.15972,0.01352
370.66993,0.03263
369.18014,0.01807
367.69035,0.00354
366.20056,0.02937
364.71077,0.04195
363.22099,0.04426
361.73120,0.04659
360.24141,0.07252
358.75162,0.08851
357.26183,0.08727
355.77204,0.08605
354.28225,0.07059
352.79247,0.08635
351.30268,0.07409
349.81289,0.06185
348.32310,0.02923
346.83331,0.06699
345.34352,0.07607
343.85374,0.08517
342.36395,0.07289
340.87416,0.05002
339.38437,0.04691
337.89458,0.04384
336.40479,0.00112
334.91501,0.05388
333.42522,0.05654
331.93543,0.05923
330.44564,0.06526
328.95585,0.04443
327.46606,0.05466
325.97627,0.06492
324.48649,0.03852
322.99670,0.05464
321.50691,0.05268
320.01712,0.05076
318.52733,0.09715
317.03754,0.07121
315.54776,0.07068
314.05797,0.07018
312.56818,0.09841
311.07839,0.08485
309.58860,0.08343
308.09881,0.08203
306.60902,0.05693
305.11924,0.07632
303.62945,0.04778
302.13966,0.01926
300.64987,0.00112
299.16008,0.00112
