1778.52000,0.01554
1777.03021,0.00940
1775.54042,0.01925
1774.05063,0.00698
1772.56085,0.00863
1771.07106,0.01753
1769.58127,0.00043
1768.09148,0.01711
1766.60169,0.00444
1765.11190,0.01936
1763.62212,0.01344
1762.13233,0.01244
1760.64254,0.01455
1759.15275,0.01025
1757.66296,0.00572
1756.17317,0.01280
1754.68339,0.00497
1753.19360,0.01004
1751.70381,0.01334
1750.21402,0.00352
1748.72423,0.01691
1747.23444,0.01693
1745.74465,0.01182
1744.25487,0.02297
1742.76508,0.03311
1741.27529,0.02138
1739.78550,0.02255
1738.29571,0.00572
1736.80592,0.02415
1735.31614,0.02637
1733.82635,0.00750
1732.33656,0.01158
1730.84677,0.01825
1729.35698,0.00203
1727.86719,0.01270
1726.37740,0.02752
1724.88762,0.02330
1723.39783,0.01267
1721.90804,0.00721
1720.41825,0.01543
1718.92846,0.02316
1717.43867,0.01392
1715.94889,0.00727
1714.45910,0.00786
1712.96931,0.00977
1711.47952,0.00371
1709.98973,0.00000
1708.49994,0.00952
1707.01016,0.00632
1705.52037,0.00314
1704.03058,0.00630
1702.54079,0.00948
1701.05100,0.00857
1699.56121,0.01515
1698.07142,0.01016
1696.58164,0.00572
1695.09185,0.01621
1693.60206,0.02646
1692.11227,0.02052
1690.62248,0.01665
1689.13269,0.01256
1687.64291,0.02188
1686.15312,0.02273
1684.66333,0.02180
1683.17354,0.02373
1681.68375,0.02569
1680.19396,0.03617
1678.70417,0.03019
1677.21439,0.02990
1675.72460,0.04405
1674.23481,0.04047
1672.74502,0.04463
1671.25523,0.05526
1669.76544,0.04968
1668.27566,0.05753
1666.78587,0.07158
1665.29608,0.07999
1663.80629,0.06421
1662.31650,0.07189
1660.82671,0.09532
1659.33693,0.09610
1657.84714,0.08145
1656.35735,0.07532
1654.86756,0.07618
1653.37777,0.08350
1651.88798,0.08183
1650.39819,0.09538
1648.90841,0.07779
1647.41862,0.08753
1645.92883,0.08608
1644.43904,0.08467
1642.94925,0.09036
1641.45946,0.08113
1639.96968,0.09615
1638.47989,0.11582
1636.99010,0.09173
1635.50031,0.08905
1634.01052,0.08999
1632.52073,0.08401
1631.03094,0.08861
1629.54116,0.08602
1628.05137,0.11488
1626.56158,0.10514
1625.07179,0.11241
1623.58200,0.10091
1622.09221,0.11622
1620.60243,0.10503
1619.11264,0.11086
1617.62285,0.12006
1616.13306,0.10404
1614.64327,0.09063
1613.15348,0.08420
1611.66370,0.09350
1610.17391,0.08789
1608.68412,0.10986
1607.19433,0.10584
1605.70454,0.11216
1604.21475,0.11231
1602.72496,0.11249
1601.23518,0.11450
1599.74539,0.10313
1598.25560,0.08561
1596.76581,0.09233
1595.27602,0.10268
1593.78623,0.09090
1592.29645,0.10362
1590.80666,0.08210
1589.31687,0.08379
1587.82708,0.07778
1586.33729,0.09266
1584.84750,0.08669
1583.35771,0.09827
1581.86793,0.08206
1580.37814,0.08879
1578.88835,0.07571
1577.39856,0.08018
1575.90877,0.07308
1574.41898,0.06703
1572.92920,0.06513
1571.43941,0.04394
1569.94962,0.04273
1568.45983,0.04155
1566.97004,0.04490
1565.48025,0.04132
1563.99047,0.02952
1562.50068,0.03553
1561.01089,0.02584
1559.52110,0.02107
1558.03131,0.04801
1556.54152,0.03325
1555.05173,0.03242
1553.56195,0.04217
1552.07216,0.01924
1550.58237,0.01720
1549.09258,0.01724
1547.60279,0.01035
1546.11300,0.00967
1544.62322,0.01468
1543.13343,0.01096
1541.64364,0.00572
1540.15385,0.00835
1538.66406,0.01101
1537.17427,0.03005
1535.68448,0.00919
1534.19470,0.01721
1532.70491,0.01906
1531.21512,0.01914
1529.72533,0.00791
1528.23554,0.00572
1526.74575,0.02058
1525.25597,0.03263
1523.76618,0.03543
1522.27639,0.03568
1520.78660,0.05553
1519.29681,0.04038
1517.80702,0.05229
1516.31724,0.06372
1514.82745,0.06358
1513.33766,0.06398
1511.84787,0.06440
1510.35808,0.04966
1508.86829,0.06121
1507.37850,0.05424
1505.88872,0.03287
1504.39893,0.03238
1502.90914,0.04815
1501.41935,0.06910
1499.92956,0.07462
1498.43977,0.08171
1496.94999,0.08830
1495.46020,0.08282
1493.97041,0.09565
1492.48062,0.11597
1490.99083,0.11726
1489.50104,0.12243
1488.01125,0.12107
1486.52147,0.11972
1485.03168,0.18293
1483.54189,0.19387
1482.05210,0.21926
1480.56231,0.20990
1479.07252,0.23508
1477.58274,0.26776
1476.09295,0.28372
1474.60316,0.29584
1473.11337,0.28970
1471.62358,0.28667
1470.13379,0.28831
1468.64401,0.30207
1467.15422,0.34471
1465.66443,0.35582
1464.17464,0.36696
1462.68485,0.39808
1461.19506,0.41557
1459.70527,0.46761
1458.21549,0.53641
1456.72570,0.59184
1455.23591,0.66533
1453.74612,0.74039
1452.25633,0.75365
1450.76654,0.76746
1449.27676,0.77562
1447.78697,0.73075
1446.29718,0.71244
1444.80739,0.70136
1443.31760,0.69030
1441.82781,0.64270
1440.33802,0.60156
1438.84824,0.56843
1437.35845,0.53198
1435.86866,0.53058
1434.37887,0.52971
1432.88908,0.55103
1431.39929,0.63213
1429.90951,0.68620
1428.41972,0.76941
1426.92993,0.83616
1425.44014,0.89237
1423.95035,0.93122
1422.46056,0.97009
1420.97078,1.03050
1419.48099,1.02010
1417.99120,1.00689
1416.50141,0.98109
1415.01162,0.93445
1413.52183,0.90844
1412.03204,0.86828
1410.54226,0.78153
1409.05247,0.74864
1407.56268,0.68899
1406.07289,0.62035
1404.58310,0.59023
1403.09331,0.56015
1401.60353,0.48359
1400.11374,0.41994
1398.62395,0.39881
1397.13416,0.32774
1395.64437,0.27473
1394.15458,0.23255
1392.66479,0.20509
1391.17501,0.17790
1389.68522,0.13683
1388.19543,0.11614
1386.70564,0.10422
1385.21585,0.09233
1383.72606,0.05909
1382.23628,0.05318
1380.74649,0.04394
1379.25670,0.03936
1377.76691,0.03610
1376.27712,0.00607
1374.78733,0.01650
1373.29755,0.02130
1371.80776,0.01324
1370.31797,0.00572
1368.82818,0.00661
1367.33839,0.00752
1365.84860,0.04142
1364.35881,0.04135
1362.86903,0.04285
1361.37924,0.06962
1359.88945,0.10259
1358.39966,0.12477
1356.90987,0.17505
1355.42008,0.20887
1353.93030,0.27027
1352.44051,0.30260
1350.95072,0.33495
1349.46093,0.40621
1347.97114,0.49991
1346.48135,0.56144
1344.99156,0.62609
1343.50178,0.74047
1342.01199,0.79357
1340.52220,0.88095
1339.03241,0.92638
1337.54262,0.94092
1336.05283,0.97120
1334.56305,1.00151
1333.07326,1.06583
1331.58347,1.07455
1330.09368,1.06964
1328.60389,1.03463
1327.11410,1.03749
1325.62432,0.97728
1324.13453,0.91942
1322.64474,0.89248
1321.15495,0.90292
1319.66516,0.87462
1318.17537,0.84634
1316.68558,0.79297
1315.19580,0.69559
1313.70601,0.64846
1312.21622,0.60598
1310.72643,0.56611
1309.23664,0.51519
1307.74685,0.48129
1306.25707,0.45231
1304.76728,0.42361
1303.27749,0.39494
1301.78770,0.39385
1300.29791,0.31062
1298.80812,0.26632
1297.31834,0.21791
1295.82855,0.20198
1294.33876,0.15517
1292.84897,0.13105
1291.35918,0.11520
1289.86939,0.12088
1288.37960,0.12658
1286.88982,0.10900
1285.40003,0.09170
1283.91024,0.09554
1282.42045,0.08602
1280.93066,0.06596
1279.44087,0.05391
1277.95109,0.07100
1276.46130,0.05436
1274.97151,0.05140
1273.48172,0.04847
1271.99193,0.05766
1270.50214,0.04499
1269.01235,0.05887
1267.52257,0.04805
1266.03278,0.03211
1264.54299,0.04091
1263.05320,0.02785
1261.56341,0.02550
1260.07362,0.02317
1258.58384,0.02074
1257.09405,0.00572
1255.60426,0.02211
1254.11447,0.02900
1252.62468,0.02535
1251.13489,0.01194
1249.64511,0.00808
1248.15532,0.04100
1246.66553,0.03569
1245.17574,0.03041
1243.68595,0.02347
1242.19616,0.02275
1240.70637,0.01200
1239.21659,0.00643
1237.72680,0.00346
1236.23701,0.02005
1234.74722,0.01915
1233.25743,0.01930
1231.76764,0.01948
1230.27786,0.03591
1228.78807,0.04644
1227.29828,0.03408
1225.80849,0.02637
1224.31870,0.00658
1222.82891,0.01309
1221.33912,0.00572
1219.84934,0.02238
1218.35955,0.03906
1216.86976,0.05242
1215.37997,0.06967
1213.89018,0.07586
1212.40039,0.08414
1210.91061,0.06798
1209.42082,0.07760
1207.93103,0.07450
1206.44124,0.07142
1204.95145,0.08137
1203.46166,0.07460
1201.97188,0.05550
1200.48209,0.07428
1198.99230,0.08459
1197.50251,0.06865
1196.01272,0.04218
1194.52293,0.03621
1193.03314,0.03026
1191.54336,0.01339
1190.05357,0.01483
1188.56378,0.01218
1187.07399,0.02552
1185.58420,0.02034
1184.09441,0.02986
1182.60463,0.01778
1181.11484,0.00572
1179.62505,0.02078
1178.13526,0.01655
1176.64547,0.01054
1175.15568,0.03417
1173.66589,0.02769
1172.17611,0.01223
1170.68632,0.01301
1169.19653,0.01382
1167.70674,0.01002
1166.21695,0.02015
1164.72716,0.02181
1163.23738,0.02890
1161.74759,0.03189
1160.25780,0.05552
1158.76801,0.05650
1157.27822,0.05751
1155.78843,0.06807
1154.29865,0.07815
1152.80886,0.10602
1151.31907,0.10094
1149.82928,0.11650
1148.33949,0.12848
1146.84970,0.12850
1145.35991,0.12855
1143.87013,0.13184
1142.38034,0.13928
1140.89055,0.19078
1139.40076,0.17252
1137.91097,0.17230
1136.42118,0.19555
1134.93140,0.20298
1133.44161,0.21044
1131.95182,0.24664
1130.46203,0.22389
1128.97224,0.23155
1127.48245,0.23743
1125.99266,0.24386
1124.50288,0.25752
1123.01309,0.25923
1121.52330,0.26096
1120.03351,0.25589
1118.54372,0.25523
1117.05393,0.26257
1115.56415,0.26350
1114.07436,0.27631
1112.58457,0.25784
1111.09478,0.23940
1109.60499,0.23863
1108.11520,0.25436
1106.62542,0.25132
1105.13563,0.23053
1103.64584,0.24635
1102.15605,0.26089
1100.66626,0.25241
1099.17647,0.24396
1097.68668,0.22535
1096.19690,0.21991
1094.70711,0.22789
1093.21732,0.24902
1091.72753,0.22356
1090.23774,0.20547
1088.74795,0.18740
1087.25817,0.18468
1085.76838,0.21573
1084.27859,0.21512
1082.78880,0.20552
1081.29901,0.21037
1079.80922,0.22349
1078.31943,0.22504
1076.82965,0.22662
1075.33986,0.24728
1073.85007,0.24916
1072.36028,0.25932
1070.87049,0.26975
1069.38070,0.28613
1067.89092,0.31838
1066.40113,0.35065
1064.91134,0.44335
1063.42155,0.50129
1061.93176,0.61078
1060.44197,0.71077
1058.95219,0.78862
1057.46240,0.84744
1055.97261,0.90629
1054.48282,1.03290
1052.99303,1.14486
1051.50324,1.16282
1050.01345,1.12132
1048.52367,1.08138
1047.03388,1.07225
1045.54409,1.06315
1044.05430,1.00165
1042.56451,0.92318
1041.07472,0.81872
1039.58494,0.78254
1038.09515,0.68225
1036.60536,0.65539
1035.11557,0.62855
1033.62578,0.54714
1032.13599,0.45622
1030.64620,0.37254
1029.15642,0.31541
1027.66663,0.30377
1026.17684,0.29215
1024.68705,0.27142
1023.19726,0.22443
1021.70747,0.21791
1020.21769,0.15862
1018.72790,0.16915
1017.23811,0.16798
1015.74832,0.16684
1014.25853,0.14963
1012.76874,0.13321
1011.27896,0.13562
1009.78917,0.11539
1008.29938,0.09905
1006.80959,0.07926
1005.31980,0.05949
1003.83001,0.05558
1002.34022,0.06304
1000.85044,0.05558
999.36065,0.06772
997.87086,0.07383
996.38107,0.07997
994.89128,0.10944
993.40149,0.11730
991.91171,0.10715
990.42192,0.13335
988.93213,0.14232
987.44234,0.15710
985.95255,0.17191
984.46276,0.16241
982.97297,0.15524
981.48319,0.12441
979.99340,0.12039
978.50361,0.11884
977.01382,0.11731
975.52403,0.05773
974.03424,0.05046
972.54446,0.03497
971.05467,0.02569
969.56488,0.01205
968.07509,0.00887
966.58530,0.00572
965.09551,0.02955
963.60573,0.01888
962.11594,0.02627
960.62615,0.00896
959.13636,0.01396
957.64657,0.01898
956.15678,0.03574
954.66699,0.03502
953.17721,0.03689
951.68742,0.03518
950.19763,0.03015
948.70784,0.02515
947.21805,0.05236
945.72826,0.06981
944.23848,0.08729
942.74869,0.11844
941.25890,0.13777
939.76911,0.14592
938.27932,0.15410
936.78953,0.15496
935.29974,0.16743
933.80996,0.18869
932.32017,0.20430
930.83038,0.20732
929.34059,0.21037
927.85080,0.23198
926.36101,0.27938
924.87123,0.32602
923.38144,0.38017
921.89165,0.42596
920.40186,0.47178
918.91207,0.57030
917.42228,0.71649
915.93250,0.87765
914.44271,1.10142
912.95292,1.20351
911.46313,1.30563
909.97334,1.50527
908.48355,1.69900
906.99376,1.89173
905.50398,2.00000
904.01419,1.99123
902.52440,1.98249
901.03461,1.94454
899.54482,1.90970
898.05503,1.83522
896.56525,1.64821
895.07546,1.50179
893.58567,1.35540
892.09588,1.11000
890.60609,0.84865
889.11630,0.60690
887.62651,0.45610
886.13673,0.39805
884.64694,0.34002
883.15715,0.23926
881.66736,0.16325
880.17757,0.14368
878.68778,0.12116
877.19800,0.09868
875.70821,0.07196
874.21842,0.04631
872.72863,0.03638
871.23884,0.02005
869.74905,0.01803
868.25927,0.01604
866.76948,0.01421
865.27969,0.01626
863.78990,0.03018
862.30011,0.04799
860.81032,0.06068
859.32053,0.07339
857.83075,0.07556
856.34096,0.11176
854.85117,0.12171
853.36138,0.13195
851.87159,0.13860
850.38180,0.14528
848.89202,0.18701
847.40223,0.19735
845.91244,0.20951
844.42265,0.21216
842.93286,0.21484
841.44307,0.24253
839.95329,0.27746
838.46350,0.29773
836.97371,0.29072
835.48392,0.28941
833.99413,0.28812
832.50434,0.28582
831.01455,0.28046
829.52477,0.28259
828.03498,0.25281
826.54519,0.23245
825.05540,0.21212
823.56561,0.19246
822.07582,0.14835
820.58604,0.15295
819.09625,0.14457
817.60646,0.13621
816.11667,0.13470
814.62688,0.14635
813.13709,0.15442
811.64730,0.12362
810.15752,0.13870
808.66773,0.15380
807.17794,0.15193
805.68815,0.15368
804.19836,0.18611
802.70857,0.17826
801.21879,0.17043
799.72900,0.16095
798.23921,0.14996
796.74942,0.13770
795.25963,0.13988
793.76984,0.14210
792.28006,0.16365
790.79027,0.19167
789.30048,0.17927
787.81069,0.22872
786.32090,0.25926
784.83111,0.28983
783.34132,0.30200
781.85154,0.33661
780.36175,0.38206
778.87196,0.40126
777.38217,0.42049
775.89238,0.44283
774.40259,0.44099
772.91281,0.42938
771.42302,0.41638
769.93323,0.40341
768.44344,0.34809
766.95365,0.28507
765.46386,0.24912
763.97407,0.20701
762.48429,0.18669
760.99450,0.16640
759.50471,0.14677
758.01492,0.12614
756.52513,0.10992
755.03534,0.10749
753.54556,0.10510
752.05577,0.09281
750.56598,0.08260
749.07619,0.07268
747.58640,0.07103
746.09661,0.06940
744.60683,0.04255
743.11704,0.02217
741.62725,0.02525
740.13746,0.01908
738.64767,0.01294
737.15788,0.01455
735.66809,0.02108
734.17831,0.00935
732.68852,0.01618
731.19873,0.02305
729.70894,0.00572
728.21915,0.00679
726.72936,0.01713
725.23958,0.00637
723.74979,0.01135
722.26000,0.01636
720.77021,0.02679
719.28042,0.02258
717.79063,0.00370
716.30084,0.00530
714.81106,0.00692
713.32127,0.00986
711.83148,0.01797
710.34169,0.00756
708.85190,0.02267
707.36211,0.03781
705.87233,0.03083
704.38254,0.03880
702.89275,0.03779
701.40296,0.04749
699.91317,0.05722
698.42338,0.04598
696.93360,0.07005
695.44381,0.09131
693.95402,0.08388
692.46423,0.07648
690.97444,0.10786
689.48465,0.13669
687.99486,0.17765
686.50508,0.17781
685.01529,0.17800
683.52550,0.22934
682.03571,0.25263
680.54592,0.24812
679.05613,0.24609
677.56635,0.24409
676.07656,0.24919
674.58677,0.26255
673.09698,0.24478
671.60719,0.21390
670.11740,0.18304
668.62761,0.19445
667.13783,0.16261
665.64804,0.15178
664.15825,0.14098
662.66846,0.10458
661.17867,0.08160
659.68888,0.04679
658.19910,0.04949
656.70931,0.05221
655.21952,0.04426
653.72973,0.02140
652.23994,0.03617
650.75015,0.04105
649.26037,0.04596
647.77058,0.03247
646.28079,0.01514
644.79100,0.01561
643.30121,0.02654
641.81142,0.03749
640.32163,0.02155
638.83185,0.03243
637.34206,0.00572
635.85227,0.00654
634.36248,0.00739
632.87269,0.01997
631.38290,0.01919
629.89312,0.02462
628.40333,0.01642
626.91354,0.00825
625.42375,0.00061
623.93396,0.00754
622.44417,0.01025
620.95438,0.01297
619.46460,0.01637
617.97481,0.03216
616.48502,0.06265
614.99523,0.06548
613.50544,0.06833
612.01565,0.10147
610.52587,0.17353
609.03608,0.19462
607.54629,0.21148
606.05650,0.22836
604.56671,0.25828
603.07692,0.33974
601.58714,0.36159
600.09735,0.38347
598.60756,0.40318
597.11777,0.43374
595.62798,0.43496
594.13819,0.45050
592.64840,0.46606
591.15862,0.40734
589.66883,0.36204
588.17904,0.27040
586.68925,0.23842
585.19946,0.20645
583.70967,0.16743
582.21989,0.13823
580.73010,0.12205
579.24031,0.10590
577.75052,0.07805
576.26073,0.08681
574.77094,0.06287
573.28115,0.05455
571.79137,0.04625
570.30158,0.05845
568.81179,0.09386
567.32200,0.09362
565.83221,0.09340
564.34242,0.13532
562.85264,0.14481
561.36285,0.17571
559.87306,0.18808
558.38327,0.20048
556.89348,0.19462
555.40369,0.20836
553.91391,0.21195
552.42412,0.21556
550.93433,0.22628
549.44454,0.21513
547.95475,0.23440
546.46496,0.23940
544.97517,0.24443
543.48539,0.27536
541.99560,0.29602
540.50581,0.30627
539.01602,0.31655
537.52623,0.36484
536.03644,0.41805
534.54666,0.44579
533.05687,0.46904
531.56708,0.49232
530.07729,0.53558
528.58750,0.58583
527.09771,0.61974
525.60792,0.65368
524.11814,0.70966
522.62835,0.79684
521.13856,0.84103
519.64877,0.85484
518.15898,0.86869
516.66919,0.84727
515.17941,0.86348
513.68962,0.87688
512.19983,0.89031
510.71004,0.83009
509.22025,0.79618
507.73046,0.77208
506.24068,0.71039
504.75089,0.64873
503.26110,0.50622
501.77131,0.42092
500.28152,0.37273
498.79173,0.32456
497.30194,0.27462
495.81216,0.19791
494.32237,0.17352
492.83258,0.14915
491.34279,0.10626
489.85300,0.09250
488.36321,0.08803
486.87343,0.09480
485.38364,0.10159
483.89385,0.09617
482.40406,0.14822
480.91427,0.14388
479.42448,0.13956
477.93469,0.15923
476.44491,0.16011
474.95512,0.19168
473.46533,0.22326
471.97554,0.21804
470.48575,0.20126
468.99596,0.22416
467.50618,0.21863
466.01639,0.21312
464.52660,0.17094
463.03681,0.13341
461.54702,0.12115
460.05723,0.10892
458.56745,0.07508
457.07766,0.05311
455.58787,0.04661
454.09808,0.04015
452.60829,0.03937
451.11850,0.02806
449.62871,0.03287
448.13893,0.03770
446.64914,0.04321
445.15935,0.05183
443.66956,0.02364
442.17977,0.01467
440.68998,0.00572
439.20020,0.02912
437.71041,0.04714
436.22062,0.04664
434.73083,0.04616
433.24104,0.02794
431.75125,0.04889
430.26146,0.04733
428.77168,0.04579
427.28189,0.02277
425.79210,0.04898
424.30231,0.03579
422.81252,0.02264
421.32273,0.04222
419.83295,0.02731
418.34316,0.03741
416.85337,0.04753
415.36358,0.04171
413.87379,0.03128
412.38400,0.02332
410.89422,0.01538
409.40443,0.03059
407.91464,0.05303
406.42485,0.01677
404.93506,0.02484
403.44527,0.03294
401.95548,0.00911
400.46570,0.00773
398.97591,0.02465
397.48612,0.04160
395.99633,0.05729
394.50654,0.02277
393.01675,0.02821
391.52697,0.03268
390.03718,0.02842
388.54739,0.02883
387.05760,0.02436
385.56781,0.01992
384.07802,0.00572
382.58824,0.01446
381.09845,0.02322
379.60866,0.03201
378.11887,0.03284
376.62908,0.02596
375.13929,0.01409
373.64950,0.00224
372.15972,0.04799
370.66993,0.03683
369.18014,0.03343
367.69035,0.03005
366.20056,0.04241
364.71077,0.04269
363.22099,0.03295
361.73120,0.02323
360.24141,0.03595
358.75162,0.07110
357.26183,0.06583
355.77204,0.06059
354.28225,0.08938
352.79247,0.09063
351.30268,0.09602
349.81289,0.10144
348.32310,0.06877
346.83331,0.06007
345.34352,0.06595
343.85374,0.07186
342.36395,0.07792
340.87416,0.04022
339.38437,0.04568
337.89458,0.05117
336.40479,0.06480
334.91501,0.05476
333.42522,0.06264
331.93543,0.07055
330.44564,0.00572
328.95585,0.04210
327.46606,0.04271
325.97627,0.04335
324.48649,0.06898
322.99670,0.08665
321.50691,0.07280
320.01712,0.05897
318.52733,0.08882
317.03754,0.07002
315.54776,0.05665
314.05797,0.04330
312.56818,0.06012
311.07839,0.05146
309.58860,0.03639
308.09881,0.02134
306.60902,0.04186
305.11924,0.06138
303.62945,0.03546
302.13966,0.00956
300.64987,0.01239
299.16008,0.00572
