1778.52000,0.02492
1777.03021,0.02299
1775.54042,0.02087
1774.05063,0.02138
1772.56085,0.02083
1771.07106,0.01812
1769.58127,0.01588
1768.09148,0.01975
1766.60169,0.01516
1765.11190,0.01516
1763.62212,0.00648
1762.13233,0.01589
1760.64254,0.00465
1759.15275,0.01737
1757.66296,0.01206
1756.17317,0.00742
1754.68339,0.01281
1753.19360,0.01105
1751.70381,0.01127
1750.21402,0.00934
1748.72423,0.01331
1747.23444,0.01208
1745.74465,0.00500
1744.25487,0.01382
1742.76508,0.00723
1741.27529,0.00805
1739.78550,0.00694
1738.29571,0.00803
1736.80592,0.01328
1735.31614,0.00593
1733.82635,0.00231
1732.33656,0.00654
1730.84677,0.00601
1729.35698,0.00616
1727.86719,0.00437
1726.37740,0.01022
1724.88762,0.00000
1723.39783,0.01656
1721.90804,0.00639
1720.41825,0.00233
1718.92846,0.01222
1717.43867,0.00668
1715.94889,0.00465
1714.45910,0.00916
1712.96931,0.01609
1711.47952,0.00498
1709.98973,0.00912
1708.49994,0.01938
1707.01016,0.01303
1705.52037,0.00669
1704.03058,0.01354
1702.54079,0.01041
1701.05100,0.01144
1699.56121,0.01314
1698.07142,0.02031
1696.58164,0.00465
1695.09185,0.01784
1693.60206,0.02561
1692.11227,0.02079
1690.62248,0.02187
1689.13269,0.02884
1687.64291,0.01909
1686.15312,0.02676
1684.66333,0.03621
1683.17354,0.03436
1681.68375,0.02861
1680.19396,0.03922
1678.70417,0.04701
1677.21439,0.05353
1675.72460,0.06420
1674.23481,0.06032
1672.74502,0.06212
1671.25523,0.05938
1669.76544,0.06514
1668.27566,0.05418
1666.78587,0.06870
1665.29608,0.08172
1663.80629,0.07518
1662.31650,0.08672
1660.82671,0.08175
1659.33693,0.09595
1657.84714,0.09125
1656.35735,0.09092
1654.86756,0.08540
1653.37777,0.10122
1651.88798,0.08378
1650.39819,0.08007
1648.90841,0.08051
1647.41862,0.08468
1645.92883,0.08333
1644.43904,0.08200
1642.94925,0.10430
1641.45946,0.08724
1639.96968,0.09850
1638.47989,0.10020
1636.99010,0.08539
1635.50031,0.08562
1634.01052,0.07717
1632.52073,0.08811
1631.03094,0.08732
1629.54116,0.09765
1628.05137,0.10301
1626.56158,0.10273
1625.07179,0.10030
1623.58200,0.10572
1622.09221,0.09747
1620.60243,0.10969
1619.11264,0.09604
1617.62285,0.10069
1616.13306,0.10058
1614.64327,0.08787
1613.15348,0.08651
1611.66370,0.11649
1610.17391,0.09407
1608.68412,0.10757
1607.19433,0.10652
1605.70454,0.10157
1604.21475,0.09970
1602.72496,0.09784
1601.23518,0.09536
1599.74539,0.08616
1598.25560,0.09200
1596.76581,0.09373
1595.27602,0.09461
1593.78623,0.08659
1592.29645,0.09122
1590.80666,0.08782
1589.31687,0.07618
1587.82708,0.07935
1586.33729,0.09017
1584.84750,0.07555
1583.35771,0.06945
1581.86793,0.08077
1580.37814,0.07428
1578.88835,0.08608
1577.39856,0.06028
1575.90877,0.06604
1574.41898,0.05116
1572.92920,0.05305
1571.43941,0.05497
1569.94962,0.05147
1568.45983,0.04800
1566.97004,0.05173
1565.48025,0.04244
1563.99047,0.03207
1562.50068,0.03697
1561.01089,0.02470
1559.52110,0.03660
1558.03131,0.03199
1556.54152,0.02828
1555.05173,0.03590
1553.56195,0.02375
1552.07216,0.02424
1550.58237,0.01671
1549.09258,0.01877
1547.60279,0.00519
1546.11300,0.01514
1544.62322,0.00487
1543.13343,0.00399
1541.64364,0.00465
1540.15385,0.00543
1538.66406,0.00622
1537.17427,0.01216
1535.68448,0.00724
1534.19470,0.02040
1532.70491,0.00530
1531.21512,0.00481
1529.72533,0.01742
1528.23554,0.01287
1526.74575,0.02661
1525.25597,0.01993
1523.76618,0.03221
1522.27639,0.02362
1520.78660,0.02659
1519.29681,0.04220
1517.80702,0.05000
1516.31724,0.04237
1514.82745,0.03673
1513.33766,0.03862
1511.84787,0.04054
1510.35808,0.05629
1508.86829,0.04596
1507.37850,0.04436
1505.88872,0.04822
1504.39893,0.05515
1502.90914,0.05079
1501.41935,0.07387
1499.92956,0.07326
1498.43977,0.06919
1496.94999,0.06645
1495.46020,0.08984
1493.97041,0.10042
1492.48062,0.11168
1490.99083,0.11839
1489.50104,0.11752
1488.01125,0.12264
1486.52147,0.12780
1485.03168,0.15462
1483.54189,0.19170
1482.05210,0.21858
1480.56231,0.23547
1479.07252,0.24194
1477.58274,0.25844
1476.09295,0.25190
1474.60316,0.27368
1473.11337,0.27742
1471.62358,0.27160
1470.13379,0.27300
1468.64401,0.29117
1467.15422,0.30893
1465.66443,0.32051
1464.17464,0.33212
1462.68485,0.35735
1461.19506,0.40414
1459.70527,0.44879
1458.21549,0.52892
1456.72570,0.59123
1455.23591,0.64987
1453.74612,0.69548
1452.25633,0.72110
1450.76654,0.75348
1449.27676,0.73085
1447.78697,0.73608
1446.29718,0.72024
1444.80739,0.70475
1443.31760,0.68928
1441.82781,0.63325
1440.33802,0.59075
1438.84824,0.53912
1437.35845,0.50841
1435.86866,0.49643
1434.37887,0.50929
1432.88908,0.55240
1431.39929,0.62057
1429.90951,0.72161
1428.41972,0.77677
1426.92993,0.81911
1425.44014,0.87323
1423.95035,0.90181
1422.46056,0.93041
1420.97078,0.96197
1419.48099,0.94787
1417.99120,0.95098
1416.50141,0.93214
1415.01162,0.89831
1413.52183,0.86950
1412.03204,0.79221
1410.54226,0.73604
1409.05247,0.69447
1407.56268,0.65924
1406.07289,0.59966
1404.58310,0.56567
1403.09331,0.53171
1401.60353,0.46502
1400.11374,0.41250
1398.62395,0.38612
1397.13416,0.31929
1395.64437,0.28033
1394.15458,0.23161
1392.66479,0.19139
1391.17501,0.15729
1389.68522,0.13627
1388.19543,0.11637
1386.70564,0.09485
1385.21585,0.07336
1383.72606,0.06049
1382.23628,0.04764
1380.74649,0.03874
1379.25670,0.02006
1377.76691,0.01055
1376.27712,0.00433
1374.78733,0.00465
1373.29755,0.00665
1371.80776,0.00693
1370.31797,0.00919
1368.82818,0.01408
1367.33839,0.01900
1365.84860,0.02156
1364.35881,0.03196
1362.86903,0.03304
1361.37924,0.07048
1359.88945,0.08661
1358.39966,0.10473
1356.90987,0.14594
1355.42008,0.17868
1353.93030,0.22886
1352.44051,0.26296
1350.95072,0.29708
1349.46093,0.36626
1347.97114,0.44242
1346.48135,0.49903
1344.99156,0.58046
1343.50178,0.67759
1342.01199,0.72339
1340.52220,0.78096
1339.03241,0.81549
1337.54262,0.87094
1336.05283,0.88148
1334.56305,0.89204
1333.07326,0.91471
1331.58347,0.94131
1330.09368,0.92312
1328.60389,0.89233
1327.11410,0.87180
1325.62432,0.82626
1324.13453,0.80860
1322.64474,0.79249
1321.15495,0.74028
1319.66516,0.72237
1318.17537,0.70448
1316.68558,0.65474
1315.19580,0.59914
1313.70601,0.54118
1312.21622,0.50522
1310.72643,0.48038
1309.23664,0.47123
1307.74685,0.43121
1306.25707,0.40383
1304.76728,0.39007
1303.27749,0.37634
1301.78770,0.31052
1300.29791,0.25387
1298.80812,0.19876
1297.31834,0.17936
1295.82855,0.15758
1294.33876,0.13497
1292.84897,0.10106
1291.35918,0.08959
1289.86939,0.08989
1288.37960,0.09021
1286.88982,0.06902
1285.40003,0.08245
1283.91024,0.05173
1282.42045,0.06456
1280.93066,0.04194
1279.44087,0.05307
1277.95109,0.03159
1276.46130,0.03711
1274.97151,0.03439
1273.48172,0.03169
1271.99193,0.03228
1270.50214,0.01527
1269.01235,0.02614
1267.52257,0.01853
1266.03278,0.01313
1264.54299,0.02450
1263.05320,0.01697
1261.56341,0.00990
1260.07362,0.00285
1258.58384,0.00769
1257.09405,0.02257
1255.60426,0.02050
1254.11447,0.01759
1252.62468,0.00948
1251.13489,0.00465
1249.64511,0.01143
1248.15532,0.00606
1246.66553,0.00853
1245.17574,0.01104
1243.68595,0.00704
1242.19616,0.01546
1240.70637,0.01086
1239.21659,0.01955
1237.72680,0.01934
1236.23701,0.02830
1234.74722,0.01879
1233.25743,0.01898
1231.76764,0.01920
1230.27786,0.02564
1228.78807,0.02754
1227.29828,0.01901
1225.80849,0.00595
1224.31870,0.00465
1222.82891,0.00503
1221.33912,0.02332
1219.84934,0.02335
1218.35955,0.02340
1216.86976,0.04524
1215.37997,0.05861
1213.89018,0.07680
1212.40039,0.07630
1210.91061,0.08844
1209.42082,0.07624
1207.93103,0.07581
1206.44124,0.07540
1204.95145,0.07393
1203.46166,0.07445
1201.97188,0.05540
1200.48209,0.04617
1198.99230,0.05046
1197.50251,0.04606
1196.01272,0.03190
1194.52293,0.02571
1193.03314,0.01953
1191.54336,0.02220
1190.05357,0.00465
1188.56378,0.01808
1187.07399,0.02000
1185.58420,0.04000
1184.09441,0.03043
1182.60463,0.02176
1181.11484,0.01311
1179.62505,0.01058
1178.13526,0.01547
1176.64547,0.01603
1175.15568,0.00465
1173.66589,0.01412
1172.17611,0.01904
1170.68632,0.01376
1169.19653,0.00851
1167.70674,0.02134
1166.21695,0.01722
1164.72716,0.02900
1163.23738,0.03995
1161.74759,0.03916
1160.25780,0.06060
1158.76801,0.05921
1157.27822,0.05785
1155.78843,0.07783
1154.29865,0.08739
1152.80886,0.08153
1151.31907,0.11355
1149.82928,0.10709
1148.33949,0.13133
1146.84970,0.12861
1145.35991,0.12592
1143.87013,0.13238
1142.38034,0.16325
1140.89055,0.18151
1139.40076,0.16891
1137.91097,0.19266
1136.42118,0.22079
1134.93140,0.22534
1133.44161,0.22991
1131.95182,0.24484
1130.46203,0.23629
1128.97224,0.24888
1127.48245,0.24908
1125.99266,0.27151
1124.50288,0.26589
1123.01309,0.26693
1121.52330,0.26800
1120.03351,0.24809
1118.54372,0.25562
1117.05393,0.28733
1115.56415,0.27968
1114.07436,0.26726
1112.58457,0.25542
1111.09478,0.24360
1109.60499,0.23648
1108.11520,0.24723
1106.62542,0.25234
1105.13563,0.25813
1103.64584,0.23610
1102.15605,0.24825
1100.66626,0.24660
1099.17647,0.24499
1097.68668,0.22718
1096.19690,0.23225
1094.70711,0.22080
1093.21732,0.21047
1091.72753,0.19515
1090.23774,0.19085
1088.74795,0.18657
1087.25817,0.19787
1085.76838,0.19310
1084.27859,0.19879
1082.78880,0.20277
1081.29901,0.20394
1079.80922,0.20797
1078.31943,0.21115
1076.82965,0.21435
1075.33986,0.22585
1073.85007,0.22605
1072.36028,0.22824
1070.87049,0.24742
1069.38070,0.27142
1067.89092,0.29696
1066.40113,0.32252
1064.91134,0.35029
1063.42155,0.42486
1061.93176,0.52338
1060.44197,0.63738
1058.95219,0.73748
1057.46240,0.77994
1055.97261,0.82243
1054.48282,0.93304
1052.99303,1.00321
1051.50324,1.00791
1050.01345,1.01046
1048.52367,1.01521
1047.03388,0.99148
1045.54409,0.96778
1044.05430,0.93496
1042.56451,0.83015
1041.07472,0.78954
1039.58494,0.70327
1038.09515,0.63835
1036.60536,0.60315
1035.11557,0.56798
1033.62578,0.50421
1032.13599,0.42981
1030.64620,0.38546
1029.15642,0.32895
1027.66663,0.32044
1026.17684,0.31195
1024.68705,0.26553
1023.19726,0.23413
1021.70747,0.17579
1020.21769,0.16250
1018.72790,0.15076
1017.23811,0.15025
1015.74832,0.14977
1014.25853,0.12744
1012.76874,0.11536
1011.27896,0.10418
1009.78917,0.11826
1008.29938,0.08907
1006.80959,0.07393
1005.31980,0.05882
1003.83001,0.04210
1002.34022,0.03607
1000.85044,0.03289
999.36065,0.04170
997.87086,0.04433
996.38107,0.04699
994.89128,0.04042
993.40149,0.04563
991.91171,0.06261
990.42192,0.09246
988.93213,0.10579
987.44234,0.11446
985.95255,0.12316
984.46276,0.11350
982.97297,0.10539
981.48319,0.09752
979.99340,0.06966
978.50361,0.05846
977.01382,0.04729
975.52403,0.03712
974.03424,0.02415
972.54446,0.01707
971.05467,0.01351
969.56488,0.00474
968.07509,0.00894
966.58530,0.01316
965.09551,0.01436
963.60573,0.02364
962.11594,0.00465
960.62615,0.00571
959.13636,0.01637
957.64657,0.02705
956.15678,0.01992
954.66699,0.02630
953.17721,0.03052
951.68742,0.03717
950.19763,0.04743
948.70784,0.05771
947.21805,0.05877
945.72826,0.07291
944.23848,0.09055
942.74869,0.11649
941.25890,0.13179
939.76911,0.13678
938.27932,0.14179
936.78953,0.15956
935.29974,0.18235
933.80996,0.19973
932.32017,0.21212
930.83038,0.20888
929.34059,0.20566
927.85080,0.22444
926.36101,0.26152
924.87123,0.31168
923.38144,0.34250
921.89165,0.38433
920.40186,0.42619
918.91207,0.53802
917.42228,0.65400
915.93250,0.80178
914.44271,1.03661
912.95292,1.14756
911.46313,1.25853
909.97334,1.46537
908.48355,1.67484
906.99376,1.83909
905.50398,1.97267
904.01419,1.97084
902.52440,1.96904
901.03461,2.00000
899.54482,1.97833
898.05503,1.87445
896.56525,1.67855
895.07546,1.54806
893.58567,1.41760
892.09588,1.14519
890.60609,0.88912
889.11630,0.66267
887.62651,0.48149
886.13673,0.42491
884.64694,0.36834
883.15715,0.26666
881.66736,0.18719
880.17757,0.12450
878.68778,0.10948
877.19800,0.09448
875.70821,0.05993
874.21842,0.03476
872.72863,0.02506
871.23884,0.01364
869.74905,0.01183
868.25927,0.01003
866.76948,0.01065
865.27969,0.01522
863.78990,0.01654
862.30011,0.03334
860.81032,0.03351
859.32053,0.03371
857.83075,0.04732
856.34096,0.06856
854.85117,0.08809
853.36138,0.09110
851.87159,0.10622
850.38180,0.12136
848.89202,0.14795
847.40223,0.14518
845.91244,0.14702
844.42265,0.16345
842.93286,0.17990
841.44307,0.18790
839.95329,0.20288
838.46350,0.23051
836.97371,0.22639
835.48392,0.23296
833.99413,0.23955
832.50434,0.24226
831.01455,0.22888
829.52477,0.20900
828.03498,0.17131
826.54519,0.16420
825.05540,0.15713
823.56561,0.13147
822.07582,0.10562
820.58604,0.08654
819.09625,0.09185
817.60646,0.09719
816.11667,0.09275
814.62688,0.08704
813.13709,0.09528
811.64730,0.10485
810.15752,0.10813
808.66773,0.11143
807.17794,0.13130
805.68815,0.11267
804.19836,0.10038
802.70857,0.10498
801.21879,0.10961
799.72900,0.12263
798.23921,0.09564
796.74942,0.09479
795.25963,0.08449
793.76984,0.07422
792.28006,0.12087
790.79027,0.11577
789.30048,0.14332
787.81069,0.16437
786.32090,0.18609
784.83111,0.20784
783.34132,0.21547
781.85154,0.24684
780.36175,0.29304
778.87196,0.30161
777.38217,0.31021
775.89238,0.34037
774.40259,0.33944
772.91281,0.35682
771.42302,0.34256
769.93323,0.32832
768.44344,0.30095
766.95365,0.26076
765.46386,0.22517
763.97407,0.17045
762.48429,0.15873
760.99450,0.14703
759.50471,0.12046
758.01492,0.10065
756.52513,0.08630
755.03534,0.08101
753.54556,0.07575
752.05577,0.05647
750.56598,0.06311
749.07619,0.03801
747.58640,0.03958
746.09661,0.04118
744.60683,0.02899
743.11704,0.00507
741.62725,0.01446
740.13746,0.01181
738.64767,0.00918
737.15788,0.01059
735.66809,0.00681
734.17831,0.00610
732.68852,0.00966
731.19873,0.01324
729.70894,0.00890
728.21915,0.01590
726.72936,0.00465
725.23958,0.01161
723.74979,0.01304
722.26000,0.01449
720.77021,0.01608
719.28042,0.00942
717.79063,0.00301
716.30084,0.00511
714.81106,0.00724
713.32127,0.01516
711.83148,0.01809
710.34169,0.01170
708.85190,0.00794
707.36211,0.00421
705.87233,0.02943
704.38254,0.04359
702.89275,0.03057
701.40296,0.03074
699.91317,0.03093
698.42338,0.05780
696.93360,0.06816
695.44381,0.09595
693.95402,0.09439
692.46423,0.09285
690.97444,0.13094
689.48465,0.13707
687.99486,0.17498
686.50508,0.18355
685.01529,0.19215
683.52550,0.23384
682.03571,0.24008
680.54592,0.25180
679.05613,0.25374
677.56635,0.25571
676.07656,0.26293
674.58677,0.25058
673.09698,0.22478
671.60719,0.20672
670.11740,0.18868
668.62761,0.16838
667.13783,0.15856
665.64804,0.14429
664.15825,0.13005
662.66846,0.09223
661.17867,0.06966
659.68888,0.05212
658.19910,0.04559
656.70931,0.03908
655.21952,0.02357
653.72973,0.03267
652.23994,0.04115
650.75015,0.03572
649.26037,0.03031
647.77058,0.02928
646.28079,0.01087
644.79100,0.02686
643.30121,0.02308
641.81142,0.01932
640.32163,0.02646
638.83185,0.02840
637.34206,0.01035
635.85227,0.00919
634.36248,0.00805
632.87269,0.00465
631.38290,0.00890
629.89312,0.01687
628.40333,0.01072
626.91354,0.00459
625.42375,0.00893
623.93396,0.02679
622.44417,0.02226
620.95438,0.01775
619.46460,0.04417
617.97481,0.04297
616.48502,0.05790
614.99523,0.07405
613.50544,0.09023
612.01565,0.12786
610.52587,0.16486
609.03608,0.19014
607.54629,0.21359
606.05650,0.23707
604.56671,0.27134
603.07692,0.34545
601.58714,0.36943
600.09735,0.39344
598.60756,0.43368
597.11777,0.45741
595.62798,0.47312
594.13819,0.46600
592.64840,0.45890
591.15862,0.40810
589.66883,0.32904
588.17904,0.27807
586.68925,0.24801
585.19946,0.21797
583.70967,0.16968
582.21989,0.13621
580.73010,0.11463
579.24031,0.09306
577.75052,0.05597
576.26073,0.05915
574.77094,0.04147
573.28115,0.05721
571.79137,0.07297
570.30158,0.05601
568.81179,0.07781
567.32200,0.08396
565.83221,0.09014
564.34242,0.10613
562.85264,0.12498
561.36285,0.14232
559.87306,0.15469
558.38327,0.16708
556.89348,0.16688
555.40369,0.17866
553.91391,0.18155
552.42412,0.18447
550.93433,0.18436
549.44454,0.19341
547.95475,0.20662
546.46496,0.20278
544.97517,0.19896
543.48539,0.22574
541.99560,0.26385
540.50581,0.28773
539.01602,0.31164
537.52623,0.33786
536.03644,0.40523
534.54666,0.42409
533.05687,0.46094
531.56708,0.49780
530.07729,0.55634
528.58750,0.60577
527.09771,0.63259
525.60792,0.65944
524.11814,0.74636
522.62835,0.79610
521.13856,0.84217
519.64877,0.84583
518.15898,0.84952
516.66919,0.88108
515.17941,0.89243
513.68962,0.90565
512.19983,0.91890
510.71004,0.84198
509.22025,0.82776
507.73046,0.74937
506.24068,0.68058
504.75089,0.61181
503.26110,0.50521
501.77131,0.42170
500.28152,0.37258
498.79173,0.32350
497.30194,0.26051
495.81216,0.17361
494.32237,0.14853
492.83258,0.12347
491.34279,0.10627
489.85300,0.08648
488.36321,0.08303
486.87343,0.07569
485.38364,0.06838
483.89385,0.05739
482.40406,0.10495
480.91427,0.10816
479.42448,0.11138
477.93469,0.11855
476.44491,0.13967
474.95512,0.15917
473.46533,0.17871
471.97554,0.17835
470.48575,0.18172
468.99596,0.18294
467.50618,0.17799
466.01639,0.17305
464.52660,0.13736
463.03681,0.11235
461.54702,0.09160
460.05723,0.07088
458.56745,0.05552
457.07766,0.03735
455.58787,0.03759
454.09808,0.03785
452.60829,0.03129
451.11850,0.02496
449.62871,0.02856
448.13893,0.03219
446.64914,0.02507
445.15935,0.03189
443.66956,0.01546
442.17977,0.01005
440.68998,0.00465
439.20020,0.03246
437.71041,0.04745
436.22062,0.04082
434.73083,0.03421
433.24104,0.03796
431.75125,0.05413
430.26146,0.04411
428.77168,0.03412
427.28189,0.02687
425.79210,0.02595
424.30231,0.02974
422.81252,0.03355
421.32273,0.04032
419.83295,0.01665
418.34316,0.01749
416.85337,0.01835
415.36358,0.00781
413.87379,0.02101
412.38400,0.02249
410.89422,0.02399
409.40443,0.01159
407.91464,0.02467
406.42485,0.03299
404.93506,0.02937
403.44527,0.02577
401.95548,0.03546
400.46570,0.03082
398.97591,0.03436
397.48612,0.03793
395.99633,0.03685
394.50654,0.00641
393.01675,0.01266
391.52697,0.01603
390.03718,0.02085
388.54739,0.01829
387.05760,0.02108
385.56781,0.02390
384.07802,0.00465
382.58824,0.00576
381.09845,0.01178
379.60866,0.01783
378.11887,0.00225
376.62908,0.00889
375.13929,0.00816
373.64950,0.00745
372.15972,0.02112
370.66993,0.02394
369.18014,0.02150
367.69035,0.01908
366.20056,0.02518
364.71077,0.03282
363.22099,0.01872
361.73120,0.00465
360.24141,0.02749
358.75162,0.05361
357.26183,0.05560
355.77204,0.05762
354.28225,0.07620
352.79247,0.06478
351.30268,0.06611
349.81289,0.06746
348.32310,0.06503
346.83331,0.06306
345.34352,0.06079
343.85374,0.05854
342.36395,0.05403
340.87416,0.07544
339.38437,0.05673
337.89458,0.03804
336.40479,0.01709
334.91501,0.02075
333.42522,0.01269
331.93543,0.00465
330.44564,0.02836
328.95585,0.04361
327.46606,0.03974
325.97627,0.03589
324.48649,0.08972
322.99670,0.05154
321.50691,0.04820
320.01712,0.04488
318.52733,0.02244
317.03754,0.03570
315.54776,0.03866
314.05797,0.04164
312.56818,0.04257
311.07839,0.05855
309.58860,0.06758
308.09881,0.07664
306.60902,0.07093
305.11924,0.06067
303.62945,0.04717
302.13966,0.03370
300.64987,0.02874
299.16008,0.00465
