1778.52000,0.01352
1777.03021,0.02192
1775.54042,0.02003
1774.05063,0.02365
1772.56085,0.01698
1771.07106,0.01714
1769.58127,0.00788
1768.09148,0.01203
1766.60169,0.01379
1765.11190,0.01668
1763.62212,0.00313
1762.13233,0.00913
1760.64254,0.00990
1759.15275,0.01595
1757.66296,0.01149
1756.17317,0.00816
1754.68339,0.01406
1753.19360,0.00616
1751.70381,0.01256
1750.21402,0.01458
1748.72423,0.01049
1747.23444,0.00510
1745.74465,0.00742
1744.25487,0.00581
1742.76508,0.00335
1741.27529,0.00749
1739.78550,0.01342
1738.29571,0.00313
1736.80592,0.01253
1735.31614,0.00593
1733.82635,0.01473
1732.33656,0.00269
1730.84677,0.01416
1729.35698,0.00569
1727.86719,0.00448
1726.37740,0.00461
1724.88762,0.00081
1723.39783,0.00538
1721.90804,0.00295
1720.41825,0.00713
1718.92846,0.00321
1717.43867,0.00853
1715.94889,0.00313
1714.45910,0.00665
1712.96931,0.00559
1711.47952,0.00774
1709.98973,0.00113
1708.49994,0.01826
1707.01016,0.01203
1705.52037,0.00583
1704.03058,0.01578
1702.54079,0.01325
1701.05100,0.00525
1699.56121,0.01264
1698.07142,0.01193
1696.58164,0.00313
1695.09185,0.01069
1693.60206,0.01564
1692.11227,0.01030
1690.62248,0.01178
1689.13269,0.01746
1687.64291,0.02558
1686.15312,0.03000
1684.66333,0.02982
1683.17354,0.02528
1681.68375,0.01725
1680.19396,0.02505
1678.70417,0.02893
1677.21439,0.03985
1675.72460,0.05277
1674.23481,0.04398
1672.74502,0.04488
1671.25523,0.05590
1669.76544,0.04082
1668.27566,0.05517
1666.78587,0.05441
1665.29608,0.05981
1663.80629,0.06810
1662.31650,0.07377
1660.82671,0.07266
1659.33693,0.07377
1657.84714,0.07601
1656.35735,0.07036
1654.86756,0.08296
1653.37777,0.07977
1651.88798,0.07617
1650.39819,0.08665
1648.90841,0.08771
1647.41862,0.07672
1645.92883,0.08540
1644.43904,0.09410
1642.94925,0.09065
1641.45946,0.08085
1639.96968,0.08469
1638.47989,0.09052
1636.99010,0.08936
1635.50031,0.09568
1634.01052,0.08798
1632.52073,0.07591
1631.03094,0.08143
1629.54116,0.09509
1628.05137,0.08639
1626.56158,0.09285
1625.07179,0.08178
1623.58200,0.09400
1622.09221,0.09615
1620.60243,0.09635
1619.11264,0.09459
1617.62285,0.09352
1616.13306,0.08962
1614.64327,0.09144
1613.15348,0.08364
1611.66370,0.08442
1610.17391,0.09773
1608.68412,0.08934
1607.19433,0.10709
1605.70454,0.10248
1604.21475,0.10327
1602.72496,0.10408
1601.23518,0.08834
1599.74539,0.08229
1598.25560,0.08285
1596.76581,0.08760
1595.27602,0.09544
1593.78623,0.08026
1592.29645,0.08179
1590.80666,0.07522
1589.31687,0.07768
1587.82708,0.07050
1586.33729,0.07520
1584.84750,0.07004
1583.35771,0.08708
1581.86793,0.05980
1580.37814,0.08193
1578.88835,0.06502
1577.39856,0.06942
1575.90877,0.06529
1574.41898,0.06227
1572.92920,0.05709
1571.43941,0.04008
1569.94962,0.04240
1568.45983,0.04475
1566.97004,0.04164
1565.48025,0.04338
1563.99047,0.03329
1562.50068,0.04057
1561.01089,0.03557
1559.52110,0.03697
1558.03131,0.02500
1556.54152,0.03039
1555.05173,0.03011
1553.56195,0.01623
1552.07216,0.02214
1550.58237,0.00612
1549.09258,0.00000
1547.60279,0.01647
1546.11300,0.00377
1544.62322,0.01392
1543.13343,0.00983
1541.64364,0.00313
1540.15385,0.00640
1538.66406,0.00969
1537.17427,0.00709
1535.68448,0.00560
1534.19470,0.00875
1532.70491,0.01324
1531.21512,0.01029
1529.72533,0.01351
1528.23554,0.01763
1526.74575,0.02573
1525.25597,0.01344
1523.76618,0.01258
1522.27639,0.02053
1520.78660,0.02345
1519.29681,0.02552
1517.80702,0.02323
1516.31724,0.03632
1514.82745,0.03956
1513.33766,0.04206
1511.84787,0.04458
1510.35808,0.04152
1508.86829,0.04815
1507.37850,0.04602
1505.88872,0.04348
1504.39893,0.05018
1502.90914,0.05163
1501.41935,0.05443
1499.92956,0.05659
1498.43977,0.03880
1496.94999,0.06867
1495.46020,0.08408
1493.97041,0.08567
1492.48062,0.08774
1490.99083,0.10651
1489.50104,0.09742
1488.01125,0.09769
1486.52147,0.09798
1485.03168,0.15175
1483.54189,0.15571
1482.05210,0.17813
1480.56231,0.20629
1479.07252,0.21208
1477.58274,0.21065
1476.09295,0.21275
1474.60316,0.23091
1473.11337,0.23108
1471.62358,0.22777
1470.13379,0.24381
1468.64401,0.25086
1467.15422,0.28801
1465.66443,0.28820
1464.17464,0.28841
1462.68485,0.31224
1461.19506,0.33149
1459.70527,0.40784
1458.21549,0.46247
1456.72570,0.50462
1455.23591,0.55448
1453.74612,0.60852
1452.25633,0.63933
1450.76654,0.66028
1449.27676,0.66348
1447.78697,0.65572
1446.29718,0.67521
1444.80739,0.64511
1443.31760,0.61503
1441.82781,0.56413
1440.33802,0.51588
1438.84824,0.48105
1437.35845,0.47302
1435.86866,0.45865
1434.37887,0.46493
1432.88908,0.51515
1431.39929,0.59129
1429.90951,0.66855
1428.41972,0.71028
1426.92993,0.77924
1425.44014,0.79094
1423.95035,0.82484
1422.46056,0.85876
1420.97078,0.88392
1419.48099,0.89483
1417.99120,0.89853
1416.50141,0.90159
1415.01162,0.85397
1413.52183,0.82745
1412.03204,0.75792
1410.54226,0.73386
1409.05247,0.66965
1407.56268,0.59779
1406.07289,0.54680
1404.58310,0.52525
1403.09331,0.50372
1401.60353,0.44402
1400.11374,0.41179
1398.62395,0.37277
1397.13416,0.30107
1395.64437,0.25266
1394.15458,0.20142
1392.66479,0.18863
1391.17501,0.15346
1389.68522,0.12600
1388.19543,0.11328
1386.70564,0.09860
1385.21585,0.08394
1383.72606,0.06317
1382.23628,0.04944
1380.74649,0.03222
1379.25670,0.02820
1377.76691,0.01125
1376.27712,0.01913
1374.78733,0.01386
1373.29755,0.00313
1371.80776,0.00347
1370.31797,0.01570
1368.82818,0.01533
1367.33839,0.01498
1365.84860,0.02618
1364.35881,0.02336
1362.86903,0.04404
1361.37924,0.06322
1359.88945,0.09361
1358.39966,0.10427
1356.90987,0.13032
1355.42008,0.15881
1353.93030,0.21981
1352.44051,0.25263
1350.95072,0.28547
1349.46093,0.35972
1347.97114,0.42652
1346.48135,0.50301
1344.99156,0.58061
1343.50178,0.64442
1342.01199,0.72756
1340.52220,0.78263
1339.03241,0.82016
1337.54262,0.84192
1336.05283,0.84942
1334.56305,0.85696
1333.07326,0.90666
1331.58347,0.93246
1330.09368,0.93699
1328.60389,0.89588
1327.11410,0.88224
1325.62432,0.84843
1324.13453,0.81662
1322.64474,0.79888
1321.15495,0.78665
1319.66516,0.75392
1318.17537,0.72121
1316.68558,0.65132
1315.19580,0.58124
1313.70601,0.51996
1312.21622,0.51973
1310.72643,0.49055
1309.23664,0.44383
1307.74685,0.42654
1306.25707,0.40072
1304.76728,0.37636
1303.27749,0.35201
1301.78770,0.28192
1300.29791,0.23666
1298.80812,0.20965
1297.31834,0.18375
1295.82855,0.17588
1294.33876,0.14016
1292.84897,0.11873
1291.35918,0.10346
1289.86939,0.10129
1288.37960,0.09913
1286.88982,0.09162
1285.40003,0.09226
1283.91024,0.07822
1282.42045,0.07429
1280.93066,0.06951
1279.44087,0.05225
1277.95109,0.05366
1276.46130,0.04742
1274.97151,0.04944
1273.48172,0.05147
1271.99193,0.04486
1270.50214,0.03411
1269.01235,0.02754
1267.52257,0.03813
1266.03278,0.03139
1264.54299,0.04181
1263.05320,0.03248
1261.56341,0.03208
1260.07362,0.03170
1258.58384,0.02486
1257.09405,0.03759
1255.60426,0.02576
1254.11447,0.02229
1252.62468,0.01226
1251.13489,0.00313
1249.64511,0.01768
1248.15532,0.00943
1246.66553,0.01195
1245.17574,0.01451
1243.68595,0.02454
1242.19616,0.02539
1240.70637,0.03679
1239.21659,0.02561
1237.72680,0.04782
1236.23701,0.02724
1234.74722,0.03106
1233.25743,0.02853
1231.76764,0.02603
1230.27786,0.03607
1228.78807,0.02352
1227.29828,0.02987
1225.80849,0.01670
1224.31870,0.00313
1222.82891,0.01419
1221.33912,0.03033
1219.84934,0.03331
1218.35955,0.03633
1216.86976,0.06153
1215.37997,0.07162
1213.89018,0.08283
1212.40039,0.07891
1210.91061,0.08643
1209.42082,0.06215
1207.93103,0.06291
1206.44124,0.06370
1204.95145,0.06561
1203.46166,0.07501
1201.97188,0.07412
1200.48209,0.06447
1198.99230,0.04606
1197.50251,0.05621
1196.01272,0.03544
1194.52293,0.03872
1193.03314,0.04203
1191.54336,0.02945
1190.05357,0.02984
1188.56378,0.02982
1187.07399,0.03005
1185.58420,0.02612
1184.09441,0.00422
1182.60463,0.00441
1181.11484,0.00461
1179.62505,0.01066
1178.13526,0.00313
1176.64547,0.00361
1175.15568,0.02365
1173.66589,0.02198
1172.17611,0.02473
1170.68632,0.01839
1169.19653,0.01208
1167.70674,0.02719
1166.21695,0.01599
1164.72716,0.04191
1163.23738,0.03953
1161.74759,0.04508
1160.25780,0.06514
1158.76801,0.07282
1157.27822,0.08053
1155.78843,0.08552
1154.29865,0.08987
1152.80886,0.10917
1151.31907,0.10611
1149.82928,0.11580
1148.33949,0.13320
1146.84970,0.13076
1145.35991,0.12834
1143.87013,0.15349
1142.38034,0.17428
1140.89055,0.17161
1139.40076,0.17005
1137.91097,0.18937
1136.42118,0.21004
1134.93140,0.21920
1133.44161,0.22839
1131.95182,0.24429
1130.46203,0.24486
1128.97224,0.25708
1127.48245,0.26450
1125.99266,0.25635
1124.50288,0.25745
1123.01309,0.24925
1121.52330,0.24106
1120.03351,0.24355
1118.54372,0.26077
1117.05393,0.24223
1115.56415,0.24677
1114.07436,0.25133
1112.58457,0.24636
1111.09478,0.24142
1109.60499,0.22761
1108.11520,0.24478
1106.62542,0.25604
1105.13563,0.27304
1103.64584,0.24945
1102.15605,0.23861
1100.66626,0.22319
1099.17647,0.20780
1097.68668,0.23786
1096.19690,0.20715
1094.70711,0.22387
1093.21732,0.21538
1091.72753,0.20471
1090.23774,0.19703
1088.74795,0.18937
1087.25817,0.19853
1085.76838,0.19784
1084.27859,0.19476
1082.78880,0.18731
1081.29901,0.20337
1079.80922,0.19267
1078.31943,0.19517
1076.82965,0.19769
1075.33986,0.20617
1073.85007,0.21840
1072.36028,0.23767
1070.87049,0.22866
1069.38070,0.26511
1067.89092,0.27985
1066.40113,0.29461
1064.91134,0.33969
1063.42155,0.41355
1061.93176,0.53068
1060.44197,0.62544
1058.95219,0.68423
1057.46240,0.73107
1055.97261,0.77794
1054.48282,0.86248
1052.99303,0.96900
1051.50324,0.99190
1050.01345,0.99793
1048.52367,0.96798
1047.03388,0.95463
1045.54409,0.94130
1044.05430,0.88728
1042.56451,0.81901
1041.07472,0.79994
1039.58494,0.71942
1038.09515,0.63059
1036.60536,0.59798
1035.11557,0.56539
1033.62578,0.48629
1032.13599,0.43400
1030.64620,0.36087
1029.15642,0.34199
1027.66663,0.31303
1026.17684,0.28410
1024.68705,0.24685
1023.19726,0.19931
1021.70747,0.16518
1020.21769,0.12713
1018.72790,0.13453
1017.23811,0.12243
1015.74832,0.11035
1014.25853,0.10114
1012.76874,0.10579
1011.27896,0.10717
1009.78917,0.08509
1008.29938,0.06742
1006.80959,0.06108
1005.31980,0.05476
1003.83001,0.04156
1002.34022,0.03232
1000.85044,0.03629
999.36065,0.00998
997.87086,0.02387
996.38107,0.03778
994.89128,0.03943
993.40149,0.04395
991.91171,0.06803
990.42192,0.08906
988.93213,0.10726
987.44234,0.11012
985.95255,0.11301
984.46276,0.12162
982.97297,0.10568
981.48319,0.08295
979.99340,0.07474
978.50361,0.06721
977.01382,0.05970
975.52403,0.04870
974.03424,0.02675
972.54446,0.01141
971.05467,0.01190
969.56488,0.00517
968.07509,0.00461
966.58530,0.00408
965.09551,0.00313
963.60573,0.01116
962.11594,0.00386
960.62615,0.00931
959.13636,0.00875
957.64657,0.00821
956.15678,0.01154
954.66699,0.02235
953.17721,0.02244
951.68742,0.02957
950.19763,0.03091
948.70784,0.03227
947.21805,0.06186
945.72826,0.07326
944.23848,0.08776
942.74869,0.10623
941.25890,0.12252
939.76911,0.12897
938.27932,0.13544
936.78953,0.15971
935.29974,0.17808
933.80996,0.20021
932.32017,0.19623
930.83038,0.19744
929.34059,0.19868
927.85080,0.25141
926.36101,0.25785
924.87123,0.30054
923.38144,0.32832
921.89165,0.36754
920.40186,0.40678
918.91207,0.49193
917.42228,0.60761
915.93250,0.76678
914.44271,0.95714
912.95292,1.06126
911.46313,1.16540
909.97334,1.37515
908.48355,1.54542
906.99376,1.76861
905.50398,1.87965
904.01419,1.90544
902.52440,1.93125
901.03461,2.00000
899.54482,1.97416
898.05503,1.85023
896.56525,1.66617
895.07546,1.54722
893.58567,1.42830
892.09588,1.10844
890.60609,0.88101
889.11630,0.66547
887.62651,0.51229
886.13673,0.44441
884.64694,0.37656
883.15715,0.25857
881.66736,0.16782
880.17757,0.11420
878.68778,0.09474
877.19800,0.07529
875.70821,0.05291
874.21842,0.03736
872.72863,0.03040
871.23884,0.02675
869.74905,0.02049
868.25927,0.01425
866.76948,0.01396
865.27969,0.01151
863.78990,0.01939
862.30011,0.02071
860.81032,0.02865
859.32053,0.03660
857.83075,0.04831
856.34096,0.07015
854.85117,0.06676
853.36138,0.09193
851.87159,0.09825
850.38180,0.10460
848.89202,0.11360
847.40223,0.12811
845.91244,0.14813
844.42265,0.15984
842.93286,0.17157
841.44307,0.18377
839.95329,0.20345
838.46350,0.22403
836.97371,0.21808
835.48392,0.22411
833.99413,0.23017
832.50434,0.21551
831.01455,0.22128
829.52477,0.18165
828.03498,0.16135
826.54519,0.15062
825.05540,0.13992
823.56561,0.11399
822.07582,0.11771
820.58604,0.10588
819.09625,0.10262
817.60646,0.09940
816.11667,0.09883
814.62688,0.09213
813.13709,0.10895
811.64730,0.11087
810.15752,0.11105
808.66773,0.11126
807.17794,0.11501
805.68815,0.12119
804.19836,0.13508
802.70857,0.12935
801.21879,0.12364
799.72900,0.11345
798.23921,0.08793
796.74942,0.09096
795.25963,0.09599
793.76984,0.10105
792.28006,0.12391
790.79027,0.11738
789.30048,0.13459
787.81069,0.16191
786.32090,0.17038
784.83111,0.17887
783.34132,0.22580
781.85154,0.25147
780.36175,0.28572
778.87196,0.30056
777.38217,0.31543
775.89238,0.34755
774.40259,0.35358
772.91281,0.36644
771.42302,0.35660
769.93323,0.34678
768.44344,0.30483
766.95365,0.24271
765.46386,0.19751
763.97407,0.14532
762.48429,0.13584
760.99450,0.12639
759.50471,0.12036
758.01492,0.09658
756.52513,0.08599
755.03534,0.08486
753.54556,0.08376
752.05577,0.08729
750.56598,0.06912
749.07619,0.05755
747.58640,0.05259
746.09661,0.04766
744.60683,0.03353
743.11704,0.01833
741.62725,0.02247
740.13746,0.01456
738.64767,0.00667
737.15788,0.01944
735.66809,0.00436
734.17831,0.00313
732.68852,0.00475
731.19873,0.00641
729.70894,0.01368
728.21915,0.00803
726.72936,0.02369
725.23958,0.02269
723.74979,0.01766
722.26000,0.01265
720.77021,0.01129
719.28042,0.00358
717.79063,0.01564
716.30084,0.00906
714.81106,0.00250
713.32127,0.02028
711.83148,0.02600
710.34169,0.03197
708.85190,0.02973
707.36211,0.02751
705.87233,0.03004
704.38254,0.03830
702.89275,0.04461
701.40296,0.04633
699.91317,0.04807
698.42338,0.06565
696.93360,0.08017
695.44381,0.10218
693.95402,0.10962
692.46423,0.11708
690.97444,0.12863
689.48465,0.15820
687.99486,0.16387
686.50508,0.17153
685.01529,0.17923
683.52550,0.22492
682.03571,0.24934
680.54592,0.26127
679.05613,0.26533
677.56635,0.26941
676.07656,0.26297
674.58677,0.25788
673.09698,0.23372
671.60719,0.22626
670.11740,0.21882
668.62761,0.18156
667.13783,0.15924
665.64804,0.13640
664.15825,0.11359
662.66846,0.09947
661.17867,0.07681
659.68888,0.06296
658.19910,0.05044
656.70931,0.03796
655.21952,0.03844
653.72973,0.04225
652.23994,0.05266
650.75015,0.05333
649.26037,0.05402
647.77058,0.03311
646.28079,0.04033
644.79100,0.03154
643.30121,0.03508
641.81142,0.03863
640.32163,0.04375
638.83185,0.03199
637.34206,0.00313
635.85227,0.00952
634.36248,0.01593
632.87269,0.00491
631.38290,0.01346
629.89312,0.00688
628.40333,0.00768
626.91354,0.00851
625.42375,0.01166
623.93396,0.02889
622.44417,0.02924
620.95438,0.02961
619.46460,0.03549
617.97481,0.04250
616.48502,0.04865
614.99523,0.06415
613.50544,0.07968
612.01565,0.12871
610.52587,0.15339
609.03608,0.19698
607.54629,0.20020
606.05650,0.20344
604.56671,0.28530
603.07692,0.32437
601.58714,0.35996
600.09735,0.39557
598.60756,0.42966
597.11777,0.46356
595.62798,0.44832
594.13819,0.44001
592.64840,0.43173
591.15862,0.38472
589.66883,0.32567
588.17904,0.28991
586.68925,0.26021
585.19946,0.23053
583.70967,0.17509
582.21989,0.12186
580.73010,0.10686
579.24031,0.09187
577.75052,0.07450
576.26073,0.05078
574.77094,0.05278
573.28115,0.04963
571.79137,0.04651
570.30158,0.05494
568.81179,0.06756
567.32200,0.08131
565.83221,0.09508
564.34242,0.10426
562.85264,0.11259
561.36285,0.12094
559.87306,0.13580
558.38327,0.15067
556.89348,0.14373
555.40369,0.18555
553.91391,0.18085
552.42412,0.17617
550.93433,0.18996
549.44454,0.18863
547.95475,0.21432
546.46496,0.20952
544.97517,0.20475
543.48539,0.21492
541.99560,0.26749
540.50581,0.27563
539.01602,0.28379
537.52623,0.36519
536.03644,0.42202
534.54666,0.43958
533.05687,0.45673
531.56708,0.47390
530.07729,0.54269
528.58750,0.57725
527.09771,0.61271
525.60792,0.64820
524.11814,0.71993
522.62835,0.81518
521.13856,0.82439
519.64877,0.84099
518.15898,0.85761
516.66919,0.90400
515.17941,0.90299
513.68962,0.90015
512.19983,0.89733
510.71004,0.85447
509.22025,0.84786
507.73046,0.74753
506.24068,0.68675
504.75089,0.62598
503.26110,0.52222
501.77131,0.41146
500.28152,0.36767
498.79173,0.32391
497.30194,0.24899
495.81216,0.17916
494.32237,0.15643
492.83258,0.13372
491.34279,0.11334
489.85300,0.11736
488.36321,0.09132
486.87343,0.07958
485.38364,0.06786
483.89385,0.08382
482.40406,0.11561
480.91427,0.12361
479.42448,0.13163
477.93469,0.14989
476.44491,0.14929
474.95512,0.15420
473.46533,0.15913
471.97554,0.17375
470.48575,0.18312
468.99596,0.19933
467.50618,0.18284
466.01639,0.16639
464.52660,0.11659
463.03681,0.09249
461.54702,0.08050
460.05723,0.06853
458.56745,0.06009
457.07766,0.03083
455.58787,0.03484
454.09808,0.03888
452.60829,0.02527
451.11850,0.00313
449.62871,0.01769
448.13893,0.03227
446.64914,0.02702
445.15935,0.00049
443.66956,0.00515
442.17977,0.01575
440.68998,0.02638
439.20020,0.02321
437.71041,0.04201
436.22062,0.02703
434.73083,0.01207
433.24104,0.04565
431.75125,0.02723
430.26146,0.02793
428.77168,0.02865
427.28189,0.03643
425.79210,0.04576
424.30231,0.04491
422.81252,0.04408
421.32273,0.05546
419.83295,0.02538
418.34316,0.01980
416.85337,0.01424
415.36358,0.00486
413.87379,0.00999
412.38400,0.01833
410.89422,0.02670
409.40443,0.03608
407.91464,0.02989
406.42485,0.04107
404.93506,0.03987
403.44527,0.03870
401.95548,0.02624
400.46570,0.04235
398.97591,0.03587
397.48612,0.02941
395.99633,0.02825
394.50654,0.01547
393.01675,0.02621
391.52697,0.03697
390.03718,0.02888
388.54739,0.03771
387.05760,0.02638
385.56781,0.01506
384.07802,0.01923
382.58824,0.02892
381.09845,0.03302
379.60866,0.03716
378.11887,0.03089
376.62908,0.00313
375.13929,0.00962
373.64950,0.01613
372.15972,0.01444
370.66993,0.02506
369.18014,0.02193
367.69035,0.01883
366.20056,0.00313
364.71077,0.03906
363.22099,0.03782
361.73120,0.03660
360.24141,0.04297
358.75162,0.07308
357.26183,0.07127
355.77204,0.06948
354.28225,0.06498
352.79247,0.08530
351.30268,0.07503
349.81289,0.06478
348.32310,0.06212
346.83331,0.05884
345.34352,0.05843
343.85374,0.05804
342.36395,0.07370
340.87416,0.03561
339.38437,0.03518
337.89458,0.03478
336.40479,0.00313
334.91501,0.03272
333.42522,0.03787
331.93543,0.04304
330.44564,0.02090
328.95585,0.02052
327.46606,0.03037
325.97627,0.04025
324.48649,0.06386
322.99670,0.04975
321.50691,0.03555
320.01712,0.02137
318.52733,0.05518
317.03754,0.05390
315.54776,0.05132
314.05797,0.04876
312.56818,0.08816
311.07839,0.06633
309.58860,0.05803
308.09881,0.04975
306.60902,0.04622
305.11924,0.04425
303.62945,0.02847
302.13966,0.01271
300.64987,0.00313
299.16008,0.00313
