1778.52000,0.00211
1777.03021,0.00519
1775.54042,0.00829
1774.05063,0.01692
1772.56085,0.00116
1771.07106,0.01706
1769.58127,0.01339
1768.09148,0.00320
1766.60169,0.00439
1765.11190,0.00285
1763.62212,0.01200
1762.13233,0.00604
1760.64254,0.01112
1759.15275,0.00693
1757.66296,0.01893
1756.17317,0.00000
1754.68339,0.00861
1753.19360,0.01106
1751.70381,0.00700
1750.21402,0.00674
1748.72423,0.00892
1747.23444,0.00562
1745.74465,0.00956
1744.25487,0.01250
1742.76508,0.00308
1741.27529,0.01713
1739.78550,0.01055
1738.29571,0.02017
1736.80592,0.01399
1735.31614,0.00577
1733.82635,0.01408
1732.33656,0.01933
1730.84677,0.00981
1729.35698,0.00685
1727.86719,0.01148
1726.37740,0.02405
1724.88762,0.00018
1723.39783,0.00557
1721.90804,0.01478
1720.41825,0.01300
1718.92846,0.00781
1717.43867,0.00160
1715.94889,0.01951
1714.45910,0.01955
1712.96931,0.00345
1711.47952,0.00285
1709.98973,0.01878
1708.49994,0.00756
1707.01016,0.01305
1705.52037,0.01856
1704.03058,0.01395
1702.54079,0.01659
1701.05100,0.03130
1699.56121,0.01507
1698.07142,0.02535
1696.58164,0.02052
1695.09185,0.01606
1693.60206,0.02091
1692.11227,0.01685
1690.62248,0.03241
1689.13269,0.02909
1687.64291,0.04161
1686.15312,0.04211
1684.66333,0.04299
1683.17354,0.03254
1681.68375,0.05238
1680.19396,0.05196
1678.70417,0.03711
1677.21439,0.06460
1675.72460,0.07250
1674.23481,0.06289
1672.74502,0.05777
1671.25523,0.06747
1669.76544,0.07479
1668.27566,0.07456
1666.78587,0.09947
1665.29608,0.09998
1663.80629,0.08917
1662.31650,0.11003
1660.82671,0.11818
1659.33693,0.12155
1657.84714,0.10257
1656.35735,0.10496
1654.86756,0.08810
1653.37777,0.11427
1651.88798,0.10331
1650.39819,0.09788
1648.90841,0.11001
1647.41862,0.10911
1645.92883,0.10667
1644.43904,0.10427
1642.94925,0.10722
1641.45946,0.09575
1639.96968,0.10459
1638.47989,0.10968
1636.99010,0.09863
1635.50031,0.08210
1634.01052,0.10412
1632.52073,0.10071
1631.03094,0.09423
1629.54116,0.10600
1628.05137,0.09854
1626.56158,0.09179
1625.07179,0.11361
1623.58200,0.11758
1622.09221,0.10987
1620.60243,0.09290
1619.11264,0.09934
1617.62285,0.10100
1616.13306,0.10474
1614.64327,0.10094
1613.15348,0.08926
1611.66370,0.11200
1610.17391,0.11688
1608.68412,0.09942
1607.19433,0.12774
1605.70454,0.13028
1604.21475,0.11891
1602.72496,0.10757
1601.23518,0.10813
1599.74539,0.10561
1598.25560,0.10415
1596.76581,0.09962
1595.27602,0.08273
1593.78623,0.08994
1592.29645,0.11129
1590.80666,0.08381
1589.31687,0.08525
1587.82708,0.10357
1586.33729,0.08374
1584.84750,0.06668
1583.35771,0.08886
1581.86793,0.08286
1580.37814,0.08720
1578.88835,0.08332
1577.39856,0.07223
1575.90877,0.06702
1574.41898,0.07490
1572.92920,0.07111
1571.43941,0.05944
1569.94962,0.04779
1568.45983,0.03616
1566.97004,0.05552
1565.48025,0.04877
1563.99047,0.03618
1562.50068,0.04943
1561.01089,0.04894
1559.52110,0.03265
1558.03131,0.02670
1556.54152,0.04761
1555.05173,0.03931
1553.56195,0.03825
1552.07216,0.02862
1550.58237,0.02280
1549.09258,0.02630
1547.60279,0.00745
1546.11300,0.01788
1544.62322,0.01869
1543.13343,0.01781
1541.64364,0.00285
1540.15385,0.01010
1538.66406,0.01737
1537.17427,0.02123
1535.68448,0.01307
1534.19470,0.02214
1532.70491,0.01541
1531.21512,0.00285
1529.72533,0.00702
1528.23554,0.02635
1526.74575,0.02851
1525.25597,0.04583
1523.76618,0.02636
1522.27639,0.02825
1520.78660,0.03360
1519.29681,0.04070
1517.80702,0.03027
1516.31724,0.06013
1514.82745,0.07074
1513.33766,0.06177
1511.84787,0.05282
1510.35808,0.04940
1508.86829,0.05771
1507.37850,0.03439
1505.88872,0.04962
1504.39893,0.04734
1502.90914,0.05333
1501.41935,0.04628
1499.92956,0.06678
1498.43977,0.07388
1496.94999,0.08617
1495.46020,0.08266
1493.97041,0.09293
1492.48062,0.12421
1490.99083,0.08466
1489.50104,0.10498
1488.01125,0.10521
1486.52147,0.10546
1485.03168,0.16542
1483.54189,0.20442
1482.05210,0.19288
1480.56231,0.20407
1479.07252,0.21356
1477.58274,0.22617
1476.09295,0.23675
1474.60316,0.23909
1473.11337,0.26760
1471.62358,0.24144
1470.13379,0.26828
1468.64401,0.26832
1467.15422,0.29900
1465.66443,0.31663
1464.17464,0.33428
1462.68485,0.35471
1461.19506,0.37998
1459.70527,0.42558
1458.21549,0.48462
1456.72570,0.57980
1455.23591,0.60861
1453.74612,0.66566
1452.25633,0.70416
1450.76654,0.70277
1449.27676,0.71723
1447.78697,0.72071
1446.29718,0.73454
1444.80739,0.69060
1443.31760,0.64668
1441.82781,0.57870
1440.33802,0.54584
1438.84824,0.50062
1437.35845,0.49533
1435.86866,0.48250
1434.37887,0.52336
1432.88908,0.54050
1431.39929,0.59483
1429.90951,0.68289
1428.41972,0.76410
1426.92993,0.81025
1425.44014,0.85298
1423.95035,0.87320
1422.46056,0.89345
1420.97078,0.93659
1419.48099,0.94433
1417.99120,1.01196
1416.50141,0.98397
1415.01162,0.92436
1413.52183,0.89435
1412.03204,0.80383
1410.54226,0.77009
1409.05247,0.70301
1407.56268,0.66209
1406.07289,0.61502
1404.58310,0.57811
1403.09331,0.54123
1401.60353,0.48528
1400.11374,0.40321
1398.62395,0.36899
1397.13416,0.31174
1395.64437,0.26414
1394.15458,0.21451
1392.66479,0.18107
1391.17501,0.15454
1389.68522,0.11806
1388.19543,0.10878
1386.70564,0.09505
1385.21585,0.08135
1383.72606,0.06182
1382.23628,0.03441
1380.74649,0.02387
1379.25670,0.02369
1377.76691,0.00667
1376.27712,0.00481
1374.78733,0.00126
1373.29755,0.02264
1371.80776,0.00757
1370.31797,0.00285
1368.82818,0.00770
1367.33839,0.01257
1365.84860,0.02537
1364.35881,0.03649
1362.86903,0.03455
1361.37924,0.09009
1359.88945,0.07823
1358.39966,0.09804
1356.90987,0.14815
1355.42008,0.15701
1353.93030,0.22678
1352.44051,0.25976
1350.95072,0.29277
1349.46093,0.35264
1347.97114,0.43283
1346.48135,0.49550
1344.99156,0.57678
1343.50178,0.64087
1342.01199,0.70534
1340.52220,0.81215
1339.03241,0.82540
1337.54262,0.85830
1336.05283,0.86128
1334.56305,0.86429
1333.07326,0.94886
1331.58347,0.95330
1330.09368,0.95811
1328.60389,0.95021
1327.11410,0.93993
1325.62432,0.87394
1324.13453,0.82862
1322.64474,0.82392
1321.15495,0.77934
1319.66516,0.75267
1318.17537,0.72602
1316.68558,0.63989
1315.19580,0.61777
1313.70601,0.55783
1312.21622,0.52647
1310.72643,0.48894
1309.23664,0.44938
1307.74685,0.42222
1306.25707,0.39302
1304.76728,0.37039
1303.27749,0.34778
1301.78770,0.27462
1300.29791,0.19977
1298.80812,0.17380
1297.31834,0.17812
1295.82855,0.16699
1294.33876,0.13146
1292.84897,0.09423
1291.35918,0.07560
1289.86939,0.07231
1288.37960,0.06905
1286.88982,0.08524
1285.40003,0.06052
1283.91024,0.06439
1282.42045,0.04006
1280.93066,0.06014
1279.44087,0.03931
1277.95109,0.05221
1276.46130,0.02799
1274.97151,0.03097
1273.48172,0.03397
1271.99193,0.03253
1270.50214,0.04005
1269.01235,0.02490
1267.52257,0.04073
1266.03278,0.03148
1264.54299,0.03601
1263.05320,0.01338
1261.56341,0.01659
1260.07362,0.01981
1258.58384,0.01963
1257.09405,0.01224
1255.60426,0.01933
1254.11447,0.01303
1252.62468,0.02498
1251.13489,0.00875
1249.64511,0.01284
1248.15532,0.00285
1246.66553,0.00881
1245.17574,0.01480
1243.68595,0.02683
1242.19616,0.03098
1240.70637,0.04168
1239.21659,0.02421
1237.72680,0.03496
1236.23701,0.03267
1234.74722,0.02318
1233.25743,0.02352
1231.76764,0.02388
1230.27786,0.03786
1228.78807,0.03053
1227.29828,0.03355
1225.80849,0.02249
1224.31870,0.00285
1222.82891,0.01467
1221.33912,0.01104
1219.84934,0.02136
1218.35955,0.03171
1216.86976,0.05533
1215.37997,0.07622
1213.89018,0.08062
1212.40039,0.07886
1210.91061,0.09019
1209.42082,0.06577
1207.93103,0.06666
1206.44124,0.06758
1204.95145,0.07832
1203.46166,0.05022
1201.97188,0.04106
1200.48209,0.03296
1198.99230,0.05206
1197.50251,0.02096
1196.01272,0.04802
1194.52293,0.04518
1193.03314,0.04237
1191.54336,0.04405
1190.05357,0.02752
1188.56378,0.01859
1187.07399,0.03135
1185.58420,0.03589
1184.09441,0.01602
1182.60463,0.00942
1181.11484,0.00285
1179.62505,0.01463
1178.13526,0.00511
1176.64547,0.01075
1175.15568,0.02020
1173.66589,0.02382
1172.17611,0.01061
1170.68632,0.00672
1169.19653,0.00285
1167.70674,0.00978
1166.21695,0.01570
1164.72716,0.01924
1163.23738,0.04345
1161.74759,0.04875
1160.25780,0.06510
1158.76801,0.07131
1157.27822,0.07756
1155.78843,0.08985
1154.29865,0.07292
1152.80886,0.07803
1151.31907,0.09659
1149.82928,0.09900
1148.33949,0.13171
1146.84970,0.13555
1145.35991,0.13941
1143.87013,0.12885
1142.38034,0.14962
1140.89055,0.15563
1139.40076,0.14893
1137.91097,0.16943
1136.42118,0.19374
1134.93140,0.19984
1133.44161,0.20597
1131.95182,0.21556
1130.46203,0.23446
1128.97224,0.23172
1127.48245,0.21662
1125.99266,0.24627
1124.50288,0.23741
1123.01309,0.22616
1121.52330,0.21495
1120.03351,0.20478
1118.54372,0.22183
1117.05393,0.22995
1115.56415,0.21952
1114.07436,0.23251
1112.58457,0.22832
1111.09478,0.22416
1109.60499,0.22174
1108.11520,0.23724
1106.62542,0.25517
1105.13563,0.26211
1103.64584,0.22711
1102.15605,0.22448
1100.66626,0.21068
1099.17647,0.19692
1097.68668,0.18713
1096.19690,0.19079
1094.70711,0.19275
1093.21732,0.20471
1091.72753,0.19709
1090.23774,0.18932
1088.74795,0.18157
1087.25817,0.16852
1085.76838,0.17304
1084.27859,0.18928
1082.78880,0.18972
1081.29901,0.18606
1079.80922,0.17141
1078.31943,0.17348
1076.82965,0.17556
1075.33986,0.18335
1073.85007,0.18050
1072.36028,0.17974
1070.87049,0.20653
1069.38070,0.23334
1067.89092,0.25312
1066.40113,0.27293
1064.91134,0.30601
1063.42155,0.38349
1061.93176,0.47510
1060.44197,0.53096
1058.95219,0.61471
1057.46240,0.66202
1055.97261,0.70935
1054.48282,0.82207
1052.99303,0.92072
1051.50324,0.94232
1050.01345,0.90203
1048.52367,0.89238
1047.03388,0.89996
1045.54409,0.90756
1044.05430,0.86668
1042.56451,0.75427
1041.07472,0.73133
1039.58494,0.68846
1038.09515,0.60605
1036.60536,0.57510
1035.11557,0.54417
1033.62578,0.50243
1032.13599,0.42529
1030.64620,0.36330
1029.15642,0.31476
1027.66663,0.30099
1026.17684,0.28724
1024.68705,0.22019
1023.19726,0.18586
1021.70747,0.17253
1020.21769,0.14787
1018.72790,0.13425
1017.23811,0.13321
1015.74832,0.13219
1014.25853,0.09388
1012.76874,0.11235
1011.27896,0.11468
1009.78917,0.11256
1008.29938,0.10014
1006.80959,0.08810
1005.31980,0.07608
1003.83001,0.05066
1002.34022,0.02355
1000.85044,0.01952
999.36065,0.01207
997.87086,0.02116
996.38107,0.03027
994.89128,0.02462
993.40149,0.06131
991.91171,0.06809
990.42192,0.09829
988.93213,0.10615
987.44234,0.10991
985.95255,0.11369
984.46276,0.09961
982.97297,0.12271
981.48319,0.09871
979.99340,0.06406
978.50361,0.05524
977.01382,0.04645
975.52403,0.02220
974.03424,0.02859
972.54446,0.03501
971.05467,0.01221
969.56488,0.00285
968.07509,0.00970
966.58530,0.01656
965.09551,0.01761
963.60573,0.00320
962.11594,0.01840
960.62615,0.00266
959.13636,0.00347
957.64657,0.00429
956.15678,0.02923
954.66699,0.02081
953.17721,0.03582
951.68742,0.04500
950.19763,0.04303
948.70784,0.04108
947.21805,0.05929
945.72826,0.06272
944.23848,0.09886
942.74869,0.12161
941.25890,0.11996
939.76911,0.12917
938.27932,0.13841
936.78953,0.15782
935.29974,0.21269
933.80996,0.21047
932.32017,0.20794
930.83038,0.21971
929.34059,0.23150
927.85080,0.26895
926.36101,0.28819
924.87123,0.29335
923.38144,0.37181
921.89165,0.41366
920.40186,0.45554
918.91207,0.53820
917.42228,0.66733
915.93250,0.79236
914.44271,0.99138
912.95292,1.10012
911.46313,1.20889
909.97334,1.40247
908.48355,1.62464
906.99376,1.75292
905.50398,1.90530
904.01419,1.91408
902.52440,1.92288
901.03461,2.00000
899.54482,1.91717
898.05503,1.80237
896.56525,1.64804
895.07546,1.54551
893.58567,1.44300
892.09588,1.11088
890.60609,0.84965
889.11630,0.66964
887.62651,0.50410
886.13673,0.43010
884.64694,0.35612
883.15715,0.26738
881.66736,0.16386
880.17757,0.15051
878.68778,0.12789
877.19800,0.10530
875.70821,0.07894
874.21842,0.03404
872.72863,0.02941
871.23884,0.02033
869.74905,0.02229
868.25927,0.02427
866.76948,0.01080
865.27969,0.00285
863.78990,0.02583
862.30011,0.03715
860.81032,0.03954
859.32053,0.04196
857.83075,0.06779
856.34096,0.08780
854.85117,0.07619
853.36138,0.08593
851.87159,0.07970
850.38180,0.07350
848.89202,0.10395
847.40223,0.10795
845.91244,0.12813
844.42265,0.14817
842.93286,0.16824
841.44307,0.19504
839.95329,0.17645
838.46350,0.18334
836.97371,0.20334
835.48392,0.21974
833.99413,0.23617
832.50434,0.21083
831.01455,0.19755
829.52477,0.17776
828.03498,0.16075
826.54519,0.14239
825.05540,0.12405
823.56561,0.10333
822.07582,0.11188
820.58604,0.08639
819.09625,0.09292
817.60646,0.09948
816.11667,0.08439
814.62688,0.08721
813.13709,0.10416
811.64730,0.10807
810.15752,0.11251
808.66773,0.11698
807.17794,0.09551
805.68815,0.11190
804.19836,0.10423
802.70857,0.09469
801.21879,0.08519
799.72900,0.10511
798.23921,0.07243
796.74942,0.09964
795.25963,0.09763
793.76984,0.09564
792.28006,0.10055
790.79027,0.11031
789.30048,0.10290
787.81069,0.13713
786.32090,0.15539
784.83111,0.17368
783.34132,0.21315
781.85154,0.23407
780.36175,0.27703
778.87196,0.27976
777.38217,0.28252
775.89238,0.32246
774.40259,0.33559
772.91281,0.31641
771.42302,0.31359
769.93323,0.31080
768.44344,0.27139
766.95365,0.22066
765.46386,0.17683
763.97407,0.15401
762.48429,0.14894
760.99450,0.14389
759.50471,0.11392
758.01492,0.08845
756.52513,0.07092
755.03534,0.07646
753.54556,0.08203
752.05577,0.07214
750.56598,0.09117
749.07619,0.04143
747.58640,0.04451
746.09661,0.04762
744.60683,0.02479
743.11704,0.01367
741.62725,0.01325
740.13746,0.02523
738.64767,0.03724
737.15788,0.01935
735.66809,0.00285
734.17831,0.02612
732.68852,0.01828
731.19873,0.01046
729.70894,0.00766
728.21915,0.01486
726.72936,0.01796
725.23958,0.00525
723.74979,0.02027
722.26000,0.03531
720.77021,0.02715
719.28042,0.00285
717.79063,0.01454
716.30084,0.00975
714.81106,0.00497
713.32127,0.04357
711.83148,0.03885
710.34169,0.03897
708.85190,0.04307
707.36211,0.04720
705.87233,0.05668
704.38254,0.04555
702.89275,0.06162
701.40296,0.06120
699.91317,0.06080
698.42338,0.07454
696.93360,0.08830
695.44381,0.08970
693.95402,0.10265
692.46423,0.11563
690.97444,0.14394
689.48465,0.15507
687.99486,0.15970
686.50508,0.16228
685.01529,0.16489
683.52550,0.21328
682.03571,0.24483
680.54592,0.25405
679.05613,0.27104
677.56635,0.28805
676.07656,0.26328
674.58677,0.25403
673.09698,0.22897
671.60719,0.23215
670.11740,0.23535
668.62761,0.19523
667.13783,0.16752
665.64804,0.15067
664.15825,0.13385
662.66846,0.12307
661.17867,0.10681
659.68888,0.07991
658.19910,0.06164
656.70931,0.04340
655.21952,0.05958
653.72973,0.06443
652.23994,0.06897
650.75015,0.07266
649.26037,0.07639
647.77058,0.07756
646.28079,0.05914
644.79100,0.07894
643.30121,0.06780
641.81142,0.05668
640.32163,0.06313
638.83185,0.05379
637.34206,0.02039
635.85227,0.01161
634.36248,0.00285
632.87269,0.01031
631.38290,0.03671
629.89312,0.03975
628.40333,0.04074
626.91354,0.04176
625.42375,0.06758
623.93396,0.04594
622.44417,0.05082
620.95438,0.05573
619.46460,0.05309
617.97481,0.03740
616.48502,0.06750
614.99523,0.07508
613.50544,0.08269
612.01565,0.12490
610.52587,0.15647
609.03608,0.16811
607.54629,0.19027
606.05650,0.21245
604.56671,0.25204
603.07692,0.28717
601.58714,0.31872
600.09735,0.35029
598.60756,0.37380
597.11777,0.40044
595.62798,0.39372
594.13819,0.39598
592.64840,0.39827
591.15862,0.34863
589.66883,0.28938
588.17904,0.26353
586.68925,0.24544
585.19946,0.22738
583.70967,0.16136
582.21989,0.14593
580.73010,0.12983
579.24031,0.11376
577.75052,0.08705
576.26073,0.05487
574.77094,0.07396
573.28115,0.06556
571.79137,0.05719
570.30158,0.05056
568.81179,0.09659
567.32200,0.09207
565.83221,0.08758
564.34242,0.11201
562.85264,0.11342
561.36285,0.12517
559.87306,0.13179
558.38327,0.13843
556.89348,0.14200
555.40369,0.15764
553.91391,0.16607
552.42412,0.17454
550.93433,0.19094
549.44454,0.20564
547.95475,0.20317
546.46496,0.20382
544.97517,0.20449
543.48539,0.21827
541.99560,0.23413
540.50581,0.25277
539.01602,0.27143
537.52623,0.32143
536.03644,0.36835
534.54666,0.42665
533.05687,0.44868
531.56708,0.47074
530.07729,0.47682
528.58750,0.53901
527.09771,0.55891
525.60792,0.57883
524.11814,0.65760
522.62835,0.73502
521.13856,0.77084
519.64877,0.75027
518.15898,0.72972
516.66919,0.78247
515.17941,0.83147
513.68962,0.81323
512.19983,0.79502
510.71004,0.79454
509.22025,0.74525
507.73046,0.70011
506.24068,0.63073
504.75089,0.56139
503.26110,0.47607
501.77131,0.35740
500.28152,0.31445
498.79173,0.27152
497.30194,0.23756
495.81216,0.20603
494.32237,0.15922
492.83258,0.11244
491.34279,0.13981
489.85300,0.12008
488.36321,0.09384
486.87343,0.08397
485.38364,0.07411
483.89385,0.09405
482.40406,0.11194
480.91427,0.10956
479.42448,0.10721
477.93469,0.11933
476.44491,0.09810
474.95512,0.12025
473.46533,0.14242
471.97554,0.14982
470.48575,0.15278
468.99596,0.15370
467.50618,0.14380
466.01639,0.13393
464.52660,0.12770
463.03681,0.10980
461.54702,0.10482
460.05723,0.09986
458.56745,0.07515
457.07766,0.05494
455.58787,0.04559
454.09808,0.03626
452.60829,0.02129
451.11850,0.01081
449.62871,0.01841
448.13893,0.02604
446.64914,0.01254
445.15935,0.00285
443.66956,0.03019
442.17977,0.03623
440.68998,0.04229
439.20020,0.05457
437.71041,0.07754
436.22062,0.05168
434.73083,0.02584
433.24104,0.04510
431.75125,0.05785
430.26146,0.04929
428.77168,0.04076
427.28189,0.04326
425.79210,0.06540
424.30231,0.05901
422.81252,0.05264
421.32273,0.05971
419.83295,0.05236
418.34316,0.03523
416.85337,0.01813
415.36358,0.02908
413.87379,0.03456
412.38400,0.03594
410.89422,0.03734
409.40443,0.05631
407.91464,0.04262
406.42485,0.04685
404.93506,0.05299
403.44527,0.05916
401.95548,0.07276
400.46570,0.05025
398.97591,0.03602
397.48612,0.02182
395.99633,0.05788
394.50654,0.03685
393.01675,0.04044
391.52697,0.04051
390.03718,0.04593
388.54739,0.02902
387.05760,0.02452
385.56781,0.02004
384.07802,0.01903
382.58824,0.02424
381.09845,0.02723
379.60866,0.03025
378.11887,0.00285
376.62908,0.01629
375.13929,0.01548
373.64950,0.01470
372.15972,0.04370
370.66993,0.06997
369.18014,0.05773
367.69035,0.04552
366.20056,0.05687
364.71077,0.04175
363.22099,0.06915
361.73120,0.09657
360.24141,0.08772
358.75162,0.11811
357.26183,0.10862
355.77204,0.09916
354.28225,0.11002
352.79247,0.12435
351.30268,0.10206
349.81289,0.07979
348.32310,0.07940
346.83331,0.07869
345.34352,0.07680
343.85374,0.07493
342.36395,0.05606
340.87416,0.05889
339.38437,0.03525
337.89458,0.01164
336.40479,0.06168
334.91501,0.05325
333.42522,0.05707
331.93543,0.06090
330.44564,0.01230
328.95585,0.07278
327.46606,0.07394
325.97627,0.07513
324.48649,0.05553
322.99670,0.03801
321.50691,0.04134
320.01712,0.04469
318.52733,0.07817
317.03754,0.08690
315.54776,0.07845
314.05797,0.07004
312.56818,0.08916
311.07839,0.09800
309.58860,0.07727
308.09881,0.05656
306.60902,0.06547
305.11924,0.04379
303.62945,0.04586
302.13966,0.04796
300.64987,0.00330
299.16008,0.00285
