1778.52000,0.00914
1777.03021,0.01130
1775.54042,0.01996
1774.05063,0.02101
1772.56085,0.01631
1771.07106,0.00979
1769.58127,0.00352
1768.09148,0.00906
1766.60169,0.01255
1765.11190,0.01352
1763.62212,0.00874
1762.13233,0.01692
1760.64254,0.01542
1759.15275,0.01048
1757.66296,0.01180
1756.17317,0.00413
1754.68339,0.01544
1753.19360,0.01129
1751.70381,0.01548
1750.21402,0.01831
1748.72423,0.02232
1747.23444,0.00208
1745.74465,0.00568
1744.25487,0.00976
1742.76508,0.00902
1741.27529,0.01130
1739.78550,0.01152
1738.29571,0.00831
1736.80592,0.01413
1735.31614,0.00680
1733.82635,0.01591
1732.33656,0.00586
1730.84677,0.01570
1729.35698,0.00316
1727.86719,0.01259
1726.37740,0.01165
1724.88762,0.00750
1723.39783,0.00591
1721.90804,0.00319
1720.41825,0.00073
1718.92846,0.00093
1717.43867,0.00524
1715.94889,0.00818
1714.45910,0.00352
1712.96931,0.00429
1711.47952,0.00442
1709.98973,0.00944
1708.49994,0.00570
1707.01016,0.00672
1705.52037,0.00776
1704.03058,0.00571
1702.54079,0.01269
1701.05100,0.00977
1699.56121,0.00640
1698.07142,0.00352
1696.58164,0.01278
1695.09185,0.00982
1693.60206,0.01891
1692.11227,0.02177
1690.62248,0.01981
1689.13269,0.02203
1687.64291,0.01873
1686.15312,0.03116
1684.66333,0.02629
1683.17354,0.02006
1681.68375,0.03165
1680.19396,0.02523
1678.70417,0.02646
1677.21439,0.03789
1675.72460,0.04935
1674.23481,0.04557
1672.74502,0.04575
1671.25523,0.04641
1669.76544,0.06027
1668.27566,0.05590
1666.78587,0.06773
1665.29608,0.07241
1663.80629,0.07251
1662.31650,0.07170
1660.82671,0.08293
1659.33693,0.09234
1657.84714,0.08975
1656.35735,0.08557
1654.86756,0.08442
1653.37777,0.08353
1651.88798,0.07341
1650.39819,0.06840
1648.90841,0.08468
1647.41862,0.07302
1645.92883,0.07306
1644.43904,0.07312
1642.94925,0.07979
1641.45946,0.07608
1639.96968,0.08419
1638.47989,0.08492
1636.99010,0.07944
1635.50031,0.08877
1634.01052,0.07201
1632.52073,0.07469
1631.03094,0.08549
1629.54116,0.08383
1628.05137,0.08958
1626.56158,0.07942
1625.07179,0.09632
1623.58200,0.09614
1622.09221,0.08558
1620.60243,0.09539
1619.11264,0.09944
1617.62285,0.10005
1616.13306,0.09052
1614.64327,0.07569
1613.15348,0.08401
1611.66370,0.09581
1610.17391,0.09978
1608.68412,0.10308
1607.19433,0.09900
1605.70454,0.10443
1604.21475,0.10434
1602.72496,0.10427
1601.23518,0.09682
1599.74539,0.07854
1598.25560,0.08432
1596.76581,0.08781
1595.27602,0.10289
1593.78623,0.10389
1592.29645,0.09936
1590.80666,0.07984
1589.31687,0.08415
1587.82708,0.08085
1586.33729,0.08729
1584.84750,0.08427
1583.35771,0.08244
1581.86793,0.08294
1580.37814,0.08762
1578.88835,0.07939
1577.39856,0.06979
1575.90877,0.07409
1574.41898,0.06593
1572.92920,0.06588
1571.43941,0.06169
1569.94962,0.05961
1568.45983,0.05756
1566.97004,0.04189
1565.48025,0.04497
1563.99047,0.04576
1562.50068,0.04473
1561.01089,0.04210
1559.52110,0.05105
1558.03131,0.04154
1556.54152,0.04915
1555.05173,0.03483
1553.56195,0.01407
1552.07216,0.03562
1550.58237,0.02115
1549.09258,0.01502
1547.60279,0.01423
1546.11300,0.00352
1544.62322,0.01771
1543.13343,0.01529
1541.64364,0.01034
1540.15385,0.01178
1538.66406,0.01324
1537.17427,0.00976
1535.68448,0.01508
1534.19470,0.00933
1532.70491,0.02626
1531.21512,0.02126
1529.72533,0.02737
1528.23554,0.01294
1526.74575,0.02996
1525.25597,0.01697
1523.76618,0.01254
1522.27639,0.02017
1520.78660,0.02827
1519.29681,0.03433
1517.80702,0.04503
1516.31724,0.03934
1514.82745,0.03992
1513.33766,0.04387
1511.84787,0.04785
1510.35808,0.05636
1508.86829,0.04802
1507.37850,0.04641
1505.88872,0.03511
1504.39893,0.05065
1502.90914,0.03455
1501.41935,0.04713
1499.92956,0.04795
1498.43977,0.06082
1496.94999,0.07394
1495.46020,0.07737
1493.97041,0.07737
1492.48062,0.08524
1490.99083,0.09730
1489.50104,0.09482
1488.01125,0.10000
1486.52147,0.10520
1485.03168,0.14278
1483.54189,0.16582
1482.05210,0.17988
1480.56231,0.19072
1479.07252,0.19881
1477.58274,0.19954
1476.09295,0.21299
1474.60316,0.21492
1473.11337,0.21340
1471.62358,0.22486
1470.13379,0.23934
1468.64401,0.24575
1467.15422,0.26582
1465.66443,0.27587
1464.17464,0.28594
1462.68485,0.29915
1461.19506,0.32603
1459.70527,0.38251
1458.21549,0.44226
1456.72570,0.49024
1455.23591,0.54125
1453.74612,0.56616
1452.25633,0.61422
1450.76654,0.64681
1449.27676,0.65238
1447.78697,0.66052
1446.29718,0.63772
1444.80739,0.62788
1443.31760,0.61806
1441.82781,0.54934
1440.33802,0.51114
1438.84824,0.47528
1437.35845,0.45470
1435.86866,0.46974
1434.37887,0.47232
1432.88908,0.50798
1431.39929,0.57671
1429.90951,0.67436
1428.41972,0.70777
1426.92993,0.74861
1425.44014,0.75873
1423.95035,0.79638
1422.46056,0.83406
1420.97078,0.86922
1419.48099,0.85887
1417.99120,0.87258
1416.50141,0.89047
1415.01162,0.82079
1413.52183,0.79806
1412.03204,0.71595
1410.54226,0.69072
1409.05247,0.63616
1407.56268,0.57400
1406.07289,0.54838
1404.58310,0.50742
1403.09331,0.46648
1401.60353,0.43885
1400.11374,0.39114
1398.62395,0.33213
1397.13416,0.28401
1395.64437,0.24354
1394.15458,0.20170
1392.66479,0.17122
1391.17501,0.14677
1389.68522,0.12997
1388.19543,0.09840
1386.70564,0.08858
1385.21585,0.07879
1383.72606,0.04683
1382.23628,0.04240
1380.74649,0.02436
1379.25670,0.02137
1377.76691,0.01054
1376.27712,0.00575
1374.78733,0.00352
1373.29755,0.01622
1371.80776,0.01069
1370.31797,0.00981
1368.82818,0.00791
1367.33839,0.00603
1365.84860,0.00776
1364.35881,0.02408
1362.86903,0.03811
1361.37924,0.06557
1359.88945,0.08334
1358.39966,0.07456
1356.90987,0.12359
1355.42008,0.15369
1353.93030,0.21963
1352.44051,0.24504
1350.95072,0.27047
1349.46093,0.33603
1347.97114,0.40739
1346.48135,0.47438
1344.99156,0.54186
1343.50178,0.61260
1342.01199,0.67505
1340.52220,0.74930
1339.03241,0.76025
1337.54262,0.78486
1336.05283,0.79262
1334.56305,0.80041
1333.07326,0.86023
1331.58347,0.87292
1330.09368,0.86968
1328.60389,0.84197
1327.11410,0.80989
1325.62432,0.75635
1324.13453,0.73980
1322.64474,0.72537
1321.15495,0.71765
1319.66516,0.67911
1318.17537,0.64059
1316.68558,0.60707
1315.19580,0.53820
1313.70601,0.50403
1312.21622,0.47983
1310.72643,0.44108
1309.23664,0.39774
1307.74685,0.39210
1306.25707,0.36752
1304.76728,0.33743
1303.27749,0.30736
1301.78770,0.26183
1300.29791,0.22995
1298.80812,0.18170
1297.31834,0.16212
1295.82855,0.15113
1294.33876,0.12351
1292.84897,0.09962
1291.35918,0.09309
1289.86939,0.08484
1288.37960,0.07663
1286.88982,0.09467
1285.40003,0.07829
1283.91024,0.07696
1282.42045,0.06803
1280.93066,0.04965
1279.44087,0.03962
1277.95109,0.04231
1276.46130,0.05428
1274.97151,0.04339
1273.48172,0.03253
1271.99193,0.03093
1270.50214,0.03676
1269.01235,0.03567
1267.52257,0.02814
1266.03278,0.02919
1264.54299,0.03673
1263.05320,0.02973
1261.56341,0.02553
1260.07362,0.02136
1258.58384,0.02252
1257.09405,0.02949
1255.60426,0.02377
1254.11447,0.01114
1252.62468,0.02511
1251.13489,0.00352
1249.64511,0.01341
1248.15532,0.02517
1246.66553,0.01604
1245.17574,0.00693
1243.68595,0.02315
1242.19616,0.02438
1240.70637,0.01430
1239.21659,0.02829
1237.72680,0.03352
1236.23701,0.01034
1234.74722,0.00244
1233.25743,0.00595
1231.76764,0.00948
1230.27786,0.02448
1228.78807,0.01662
1227.29828,0.00763
1225.80849,0.00352
1224.31870,0.01125
1222.82891,0.00721
1221.33912,0.01313
1219.84934,0.01908
1218.35955,0.02506
1216.86976,0.04354
1215.37997,0.04817
1213.89018,0.04798
1212.40039,0.07208
1210.91061,0.06754
1209.42082,0.05170
1207.93103,0.05091
1206.44124,0.05014
1204.95145,0.06812
1203.46166,0.05146
1201.97188,0.04106
1200.48209,0.03900
1198.99230,0.04021
1197.50251,0.02156
1196.01272,0.03044
1194.52293,0.02004
1193.03314,0.00967
1191.54336,0.03272
1190.05357,0.02159
1188.56378,0.01557
1187.07399,0.02621
1185.58420,0.01723
1184.09441,0.01383
1182.60463,0.01067
1181.11484,0.00755
1179.62505,0.00352
1178.13526,0.00716
1176.64547,0.00690
1175.15568,0.01313
1173.66589,0.02332
1172.17611,0.01874
1170.68632,0.01141
1169.19653,0.00410
1167.70674,0.00352
1166.21695,0.01926
1164.72716,0.03225
1163.23738,0.03949
1161.74759,0.03034
1160.25780,0.05288
1158.76801,0.05371
1157.27822,0.05458
1155.78843,0.06263
1154.29865,0.06469
1152.80886,0.07210
1151.31907,0.09109
1149.82928,0.09947
1148.33949,0.11642
1146.84970,0.11976
1145.35991,0.12313
1143.87013,0.13623
1142.38034,0.15814
1140.89055,0.15164
1139.40076,0.15510
1137.91097,0.17407
1136.42118,0.19654
1134.93140,0.20285
1133.44161,0.20918
1131.95182,0.22340
1130.46203,0.22539
1128.97224,0.22602
1127.48245,0.22067
1125.99266,0.23498
1124.50288,0.22598
1123.01309,0.22612
1121.52330,0.22630
1120.03351,0.22291
1118.54372,0.23180
1117.05393,0.22222
1115.56415,0.23093
1114.07436,0.22094
1112.58457,0.21733
1111.09478,0.21374
1109.60499,0.22647
1108.11520,0.23160
1106.62542,0.24161
1105.13563,0.23407
1103.64584,0.23188
1102.15605,0.22278
1100.66626,0.21670
1099.17647,0.21065
1097.68668,0.19700
1096.19690,0.19099
1094.70711,0.18987
1093.21732,0.18969
1091.72753,0.18053
1090.23774,0.17428
1088.74795,0.16805
1087.25817,0.14925
1085.76838,0.17277
1084.27859,0.16488
1082.78880,0.17042
1081.29901,0.17321
1079.80922,0.16864
1078.31943,0.16593
1076.82965,0.16325
1075.33986,0.17584
1073.85007,0.18615
1072.36028,0.20573
1070.87049,0.21516
1069.38070,0.23502
1067.89092,0.25491
1066.40113,0.27481
1064.91134,0.33727
1063.42155,0.38565
1061.93176,0.47590
1060.44197,0.54467
1058.95219,0.59798
1057.46240,0.64195
1055.97261,0.68595
1054.48282,0.80128
1052.99303,0.88889
1051.50324,0.88038
1050.01345,0.85479
1048.52367,0.83385
1047.03388,0.81339
1045.54409,0.79296
1044.05430,0.77625
1042.56451,0.72027
1041.07472,0.65577
1039.58494,0.63636
1038.09515,0.59062
1036.60536,0.55416
1035.11557,0.51772
1033.62578,0.47044
1032.13599,0.39614
1030.64620,0.35815
1029.15642,0.31857
1027.66663,0.28225
1026.17684,0.24596
1024.68705,0.21454
1023.19726,0.17852
1021.70747,0.13976
1020.21769,0.15233
1018.72790,0.11291
1017.23811,0.11860
1015.74832,0.12431
1014.25853,0.09491
1012.76874,0.09396
1011.27896,0.09604
1009.78917,0.08613
1008.29938,0.06492
1006.80959,0.05899
1005.31980,0.05308
1003.83001,0.03494
1002.34022,0.01591
1000.85044,0.02324
999.36065,0.01720
997.87086,0.01407
996.38107,0.01096
994.89128,0.02903
993.40149,0.05567
991.91171,0.06986
990.42192,0.09031
988.93213,0.10154
987.44234,0.10955
985.95255,0.11760
984.46276,0.11457
982.97297,0.08753
981.48319,0.08062
979.99340,0.07165
978.50361,0.06121
977.01382,0.05079
975.52403,0.01995
974.03424,0.02263
972.54446,0.02697
971.05467,0.01260
969.56488,0.00889
968.07509,0.00624
966.58530,0.00362
965.09551,0.01650
963.60573,0.00352
962.11594,0.00349
960.62615,0.01851
959.13636,0.01830
957.64657,0.01811
956.15678,0.01147
954.66699,0.01133
953.17721,0.02301
951.68742,0.03817
950.19763,0.02874
948.70784,0.01934
947.21805,0.05214
945.72826,0.08011
944.23848,0.08176
942.74869,0.11210
941.25890,0.13691
939.76911,0.13851
938.27932,0.14014
936.78953,0.15924
935.29974,0.17352
933.80996,0.18897
932.32017,0.20307
930.83038,0.20378
929.34059,0.20451
927.85080,0.23393
926.36101,0.25482
924.87123,0.28660
923.38144,0.32349
921.89165,0.35890
920.40186,0.39433
918.91207,0.50711
917.42228,0.60187
915.93250,0.73804
914.44271,0.93154
912.95292,1.03863
911.46313,1.14575
909.97334,1.34811
908.48355,1.58910
906.99376,1.76562
905.50398,1.88924
904.01419,1.92425
902.52440,1.95928
901.03461,2.00000
899.54482,1.94644
898.05503,1.79329
896.56525,1.68385
895.07546,1.54081
893.58567,1.39778
892.09588,1.07485
890.60609,0.84555
889.11630,0.64887
887.62651,0.49080
886.13673,0.41839
884.64694,0.34601
883.15715,0.26106
881.66736,0.15047
880.17757,0.12196
878.68778,0.09948
877.19800,0.07703
875.70821,0.06292
874.21842,0.04375
872.72863,0.02299
871.23884,0.02351
869.74905,0.01748
868.25927,0.01146
866.76948,0.01137
865.27969,0.00968
863.78990,0.01379
862.30011,0.01677
860.81032,0.02475
859.32053,0.03275
857.83075,0.06192
856.34096,0.08234
854.85117,0.08891
853.36138,0.08810
851.87159,0.08906
850.38180,0.09004
848.89202,0.10688
847.40223,0.11842
845.91244,0.12999
844.42265,0.14690
842.93286,0.16384
841.44307,0.17039
839.95329,0.20055
838.46350,0.21432
836.97371,0.20477
835.48392,0.20588
833.99413,0.20701
832.50434,0.20493
831.01455,0.19779
829.52477,0.18767
828.03498,0.13689
826.54519,0.12613
825.05540,0.11539
823.56561,0.11230
822.07582,0.11224
820.58604,0.09625
819.09625,0.09508
817.60646,0.09394
816.11667,0.08935
814.62688,0.08664
813.13709,0.09273
811.64730,0.10809
810.15752,0.10800
808.66773,0.10792
807.17794,0.08915
805.68815,0.10530
804.19836,0.10577
802.70857,0.10556
801.21879,0.10537
799.72900,0.08279
798.23921,0.08127
796.74942,0.09202
795.25963,0.08986
793.76984,0.08771
792.28006,0.10501
790.79027,0.11193
789.30048,0.11171
787.81069,0.14295
786.32090,0.16207
784.83111,0.18122
783.34132,0.18595
781.85154,0.23647
780.36175,0.27684
778.87196,0.28939
777.38217,0.30196
775.89238,0.31097
774.40259,0.33341
772.91281,0.32282
771.42302,0.32613
769.93323,0.32946
768.44344,0.28011
766.95365,0.23311
765.46386,0.18820
763.97407,0.13685
762.48429,0.13071
760.99450,0.12460
759.50471,0.11400
758.01492,0.08956
756.52513,0.08987
755.03534,0.09136
753.54556,0.09288
752.05577,0.06738
750.56598,0.05415
749.07619,0.04649
747.58640,0.03909
746.09661,0.03172
744.60683,0.03615
743.11704,0.01542
741.62725,0.00627
740.13746,0.00488
738.64767,0.00352
737.15788,0.02096
735.66809,0.01069
734.17831,0.01131
732.68852,0.00929
731.19873,0.00730
729.70894,0.02047
728.21915,0.01818
726.72936,0.01453
725.23958,0.00443
723.74979,0.01308
722.26000,0.02175
720.77021,0.00975
719.28042,0.02229
717.79063,0.00688
716.30084,0.00467
714.81106,0.00248
713.32127,0.01289
711.83148,0.03349
710.34169,0.03192
708.85190,0.04125
707.36211,0.05059
705.87233,0.04610
704.38254,0.04509
702.89275,0.03117
701.40296,0.03611
699.91317,0.04107
698.42338,0.05958
696.93360,0.08666
695.44381,0.08649
693.95402,0.10091
692.46423,0.11536
690.97444,0.12705
689.48465,0.15564
687.99486,0.16924
686.50508,0.17534
685.01529,0.18147
683.52550,0.22125
682.03571,0.24211
680.54592,0.25351
679.05613,0.26112
677.56635,0.26876
676.07656,0.26637
674.58677,0.24273
673.09698,0.22329
671.60719,0.21137
670.11740,0.19949
668.62761,0.18196
667.13783,0.14296
665.64804,0.12953
664.15825,0.11612
662.66846,0.09107
661.17867,0.06511
659.68888,0.04426
658.19910,0.03742
656.70931,0.03061
655.21952,0.03063
653.72973,0.04039
652.23994,0.04786
650.75015,0.04646
649.26037,0.04508
647.77058,0.04754
646.28079,0.03292
644.79100,0.03751
643.30121,0.03403
641.81142,0.03058
640.32163,0.03871
638.83185,0.01335
637.34206,0.00604
635.85227,0.00477
634.36248,0.00352
632.87269,0.00780
631.38290,0.00910
629.89312,0.01482
628.40333,0.01248
626.91354,0.01015
625.42375,0.00739
623.93396,0.01760
622.44417,0.02078
620.95438,0.02398
619.46460,0.02802
617.97481,0.03394
616.48502,0.03918
614.99523,0.04676
613.50544,0.05436
612.01565,0.10313
610.52587,0.14152
609.03608,0.14919
607.54629,0.17481
606.05650,0.20044
604.56671,0.22483
603.07692,0.29709
601.58714,0.31933
600.09735,0.34160
598.60756,0.38897
597.11777,0.36979
595.62798,0.38069
594.13819,0.36399
592.64840,0.34732
591.15862,0.33217
589.66883,0.29047
588.17904,0.27306
586.68925,0.23233
585.19946,0.19163
583.70967,0.13454
582.21989,0.10729
580.73010,0.08295
579.24031,0.05864
577.75052,0.05365
576.26073,0.04730
574.77094,0.02571
573.28115,0.02218
571.79137,0.01868
570.30158,0.02629
568.81179,0.06259
567.32200,0.06851
565.83221,0.07447
564.34242,0.08518
562.85264,0.08043
561.36285,0.10391
559.87306,0.10429
558.38327,0.10471
556.89348,0.12409
555.40369,0.15044
553.91391,0.14953
552.42412,0.14865
550.93433,0.14063
549.44454,0.14535
547.95475,0.16673
546.46496,0.15474
544.97517,0.14277
543.48539,0.17393
541.99560,0.20027
540.50581,0.22189
539.01602,0.24353
537.52623,0.30345
536.03644,0.35414
534.54666,0.37574
533.05687,0.38939
531.56708,0.40307
530.07729,0.47143
528.58750,0.50075
527.09771,0.53449
525.60792,0.56826
524.11814,0.65359
522.62835,0.71999
521.13856,0.74412
519.64877,0.75267
518.15898,0.76125
516.66919,0.79747
515.17941,0.81453
513.68962,0.80527
512.19983,0.79603
510.71004,0.76809
509.22025,0.74596
507.73046,0.68271
506.24068,0.61741
504.75089,0.55212
503.26110,0.44734
501.77131,0.37379
500.28152,0.33308
498.79173,0.29240
497.30194,0.20620
495.81216,0.13598
494.32237,0.12033
492.83258,0.10471
491.34279,0.09165
489.85300,0.08115
488.36321,0.06075
486.87343,0.05250
485.38364,0.04427
483.89385,0.05422
482.40406,0.07690
480.91427,0.08851
479.42448,0.10014
477.93469,0.10579
476.44491,0.10060
474.95512,0.12051
473.46533,0.14045
471.97554,0.12771
470.48575,0.14804
468.99596,0.15522
467.50618,0.14428
466.01639,0.13337
464.52660,0.08284
463.03681,0.07394
461.54702,0.06437
460.05723,0.05482
458.56745,0.03952
457.07766,0.02263
455.58787,0.02171
454.09808,0.02081
452.60829,0.02087
451.11850,0.00684
449.62871,0.00694
448.13893,0.00707
446.64914,0.00352
445.15935,0.01060
443.66956,0.00685
442.17977,0.00393
440.68998,0.00103
439.20020,0.02339
437.71041,0.01342
436.22062,0.01722
434.73083,0.02104
433.24104,0.02131
431.75125,0.03223
430.26146,0.02920
428.77168,0.02618
427.28189,0.02793
425.79210,0.02093
424.30231,0.03336
422.81252,0.04581
421.32273,0.05043
419.83295,0.01810
418.34316,0.01271
416.85337,0.00735
415.36358,0.00352
413.87379,0.01676
412.38400,0.03014
410.89422,0.04354
409.40443,0.03836
407.91464,0.03574
406.42485,0.02923
404.93506,0.01961
403.44527,0.01002
401.95548,0.03362
400.46570,0.02397
398.97591,0.02462
397.48612,0.02530
395.99633,0.01849
394.50654,0.01401
393.01675,0.01800
391.52697,0.02018
390.03718,0.02598
388.54739,0.02209
387.05760,0.01279
385.56781,0.00352
384.07802,0.01524
382.58824,0.04086
381.09845,0.03981
379.60866,0.03878
378.11887,0.04066
376.62908,0.01021
375.13929,0.00509
373.64950,0.00000
372.15972,0.02324
370.66993,0.03080
369.18014,0.02323
367.69035,0.01569
366.20056,0.03329
364.71077,0.06200
363.22099,0.04301
361.73120,0.02405
360.24141,0.03342
358.75162,0.07240
357.26183,0.07488
355.77204,0.07739
354.28225,0.07461
352.79247,0.08526
351.30268,0.06982
349.81289,0.05439
348.32310,0.05125
346.83331,0.06454
345.34352,0.05705
343.85374,0.04958
342.36395,0.05323
340.87416,0.00352
339.38437,0.01224
337.89458,0.02099
336.40479,0.03046
334.91501,0.04665
333.42522,0.03756
331.93543,0.02849
330.44564,0.00015
328.95585,0.01737
327.46606,0.03079
325.97627,0.04424
324.48649,0.03102
322.99670,0.02083
321.50691,0.02141
320.01712,0.02201
318.52733,0.06459
317.03754,0.08593
315.54776,0.06962
314.05797,0.05333
312.56818,0.06665
311.07839,0.07861
309.58860,0.07591
308.09881,0.07325
306.60902,0.06794
305.11924,0.06428
303.62945,0.04759
302.13966,0.03091
300.64987,0.00352
299.16008,0.00352
