1778.52000,0.01164
1777.03021,0.00718
1775.54042,0.00819
1774.05063,0.01555
1772.56085,0.01605
1771.07106,0.01169
1769.58127,0.00793
1768.09148,0.00648
1766.60169,0.00335
1765.11190,0.01373
1763.62212,0.00547
1762.13233,0.01590
1760.64254,0.02118
1759.15275,0.01788
1757.66296,0.01231
1756.17317,0.00762
1754.68339,0.00985
1753.19360,0.01440
1751.70381,0.01438
1750.21402,0.01668
1748.72423,0.01471
1747.23444,0.00787
1745.74465,0.01226
1744.25487,0.01552
1742.76508,0.01709
1741.27529,0.01179
1739.78550,0.01139
1738.29571,0.00643
1736.80592,0.01468
1735.31614,0.01951
1733.82635,0.01461
1732.33656,0.01891
1730.84677,0.01320
1729.35698,0.02272
1727.86719,0.02480
1726.37740,0.01141
1724.88762,0.01297
1723.39783,0.02001
1721.90804,0.00698
1720.41825,0.00861
1718.92846,0.01286
1717.43867,0.00335
1715.94889,0.02249
1714.45910,0.02070
1712.96931,0.01548
1711.47952,0.00140
1709.98973,0.01317
1708.49994,0.00000
1707.01016,0.00858
1705.52037,0.01719
1704.03058,0.01937
1702.54079,0.01267
1701.05100,0.01260
1699.56121,0.02432
1698.07142,0.00880
1696.58164,0.00335
1695.09185,0.01538
1693.60206,0.01911
1692.11227,0.01512
1690.62248,0.01632
1689.13269,0.01266
1687.64291,0.02855
1686.15312,0.02811
1684.66333,0.01333
1683.17354,0.01781
1681.68375,0.02863
1680.19396,0.00819
1678.70417,0.03112
1677.21439,0.03455
1675.72460,0.03916
1674.23481,0.03747
1672.74502,0.04213
1671.25523,0.05111
1669.76544,0.05697
1668.27566,0.04878
1666.78587,0.05640
1665.29608,0.06262
1663.80629,0.06312
1662.31650,0.06077
1660.82671,0.06132
1659.33693,0.07682
1657.84714,0.06794
1656.35735,0.07287
1654.86756,0.06634
1653.37777,0.05582
1651.88798,0.07718
1650.39819,0.05695
1648.90841,0.06200
1647.41862,0.07053
1645.92883,0.06673
1644.43904,0.06296
1642.94925,0.06466
1641.45946,0.06008
1639.96968,0.05897
1638.47989,0.07367
1636.99010,0.07146
1635.50031,0.05779
1634.01052,0.06481
1632.52073,0.06038
1631.03094,0.06888
1629.54116,0.06852
1628.05137,0.06732
1626.56158,0.06614
1625.07179,0.07331
1623.58200,0.07391
1622.09221,0.06333
1620.60243,0.07632
1619.11264,0.08733
1617.62285,0.06591
1616.13306,0.06721
1614.64327,0.04929
1613.15348,0.05781
1611.66370,0.07411
1610.17391,0.07320
1608.68412,0.07778
1607.19433,0.07578
1605.70454,0.09016
1604.21475,0.09180
1602.72496,0.09346
1601.23518,0.08782
1599.74539,0.06786
1598.25560,0.05969
1596.76581,0.07164
1595.27602,0.05606
1593.78623,0.05715
1592.29645,0.07320
1590.80666,0.06056
1589.31687,0.04852
1587.82708,0.06062
1586.33729,0.06815
1584.84750,0.06738
1583.35771,0.07267
1581.86793,0.06075
1580.37814,0.06580
1578.88835,0.07059
1577.39856,0.06276
1575.90877,0.04693
1574.41898,0.06758
1572.92920,0.05266
1571.43941,0.05756
1569.94962,0.05059
1568.45983,0.04363
1566.97004,0.03799
1565.48025,0.04099
1563.99047,0.03454
1562.50068,0.04104
1561.01089,0.02717
1559.52110,0.04032
1558.03131,0.02966
1556.54152,0.03540
1555.05173,0.02450
1553.56195,0.02110
1552.07216,0.02116
1550.58237,0.02843
1549.09258,0.01333
1547.60279,0.01060
1546.11300,0.02512
1544.62322,0.01153
1543.13343,0.02093
1541.64364,0.00767
1540.15385,0.00550
1538.66406,0.00335
1537.17427,0.01860
1535.68448,0.01408
1534.19470,0.01877
1532.70491,0.02377
1531.21512,0.01013
1529.72533,0.02695
1528.23554,0.01508
1526.74575,0.02162
1525.25597,0.02071
1523.76618,0.03045
1522.27639,0.02615
1520.78660,0.02532
1519.29681,0.03399
1517.80702,0.01971
1516.31724,0.03532
1514.82745,0.03057
1513.33766,0.04737
1511.84787,0.06420
1510.35808,0.05924
1508.86829,0.03851
1507.37850,0.05742
1505.88872,0.04076
1504.39893,0.03791
1502.90914,0.06522
1501.41935,0.04261
1499.92956,0.04959
1498.43977,0.05487
1496.94999,0.06334
1495.46020,0.08360
1493.97041,0.06254
1492.48062,0.08343
1490.99083,0.09659
1489.50104,0.09197
1488.01125,0.09427
1486.52147,0.09659
1485.03168,0.11186
1483.54189,0.14495
1482.05210,0.15539
1480.56231,0.18623
1479.07252,0.20734
1477.58274,0.18886
1476.09295,0.20686
1474.60316,0.22259
1473.11337,0.20762
1471.62358,0.19670
1470.13379,0.23375
1468.64401,0.22603
1467.15422,0.28064
1465.66443,0.29092
1464.17464,0.30123
1462.68485,0.31773
1461.19506,0.32650
1459.70527,0.37779
1458.21549,0.43570
1456.72570,0.49852
1455.23591,0.54816
1453.74612,0.58491
1452.25633,0.60187
1450.76654,0.63666
1449.27676,0.65798
1447.78697,0.63425
1446.29718,0.65131
1444.80739,0.62806
1443.31760,0.60484
1441.82781,0.57260
1440.33802,0.50220
1438.84824,0.46943
1437.35845,0.46482
1435.86866,0.45766
1434.37887,0.45138
1432.88908,0.51890
1431.39929,0.59621
1429.90951,0.65603
1428.41972,0.71933
1426.92993,0.76255
1425.44014,0.80579
1423.95035,0.83887
1422.46056,0.87198
1420.97078,0.91128
1419.48099,0.89922
1417.99120,0.89867
1416.50141,0.86886
1415.01162,0.84080
1413.52183,0.79381
1412.03204,0.73853
1410.54226,0.70135
1409.05247,0.64353
1407.56268,0.61961
1406.07289,0.57476
1404.58310,0.53654
1403.09331,0.49834
1401.60353,0.42399
1400.11374,0.39044
1398.62395,0.36638
1397.13416,0.30159
1395.64437,0.27356
1394.15458,0.21312
1392.66479,0.19318
1391.17501,0.14571
1389.68522,0.12811
1388.19543,0.10997
1386.70564,0.09717
1385.21585,0.08439
1383.72606,0.06000
1382.23628,0.03679
1380.74649,0.03629
1379.25670,0.02605
1377.76691,0.02157
1376.27712,0.01999
1374.78733,0.00896
1373.29755,0.00830
1371.80776,0.00335
1370.31797,0.00595
1368.82818,0.00672
1367.33839,0.00751
1365.84860,0.02828
1364.35881,0.03558
1362.86903,0.06415
1361.37924,0.08585
1359.88945,0.11504
1358.39966,0.12618
1356.90987,0.15312
1355.42008,0.17263
1353.93030,0.23694
1352.44051,0.26727
1350.95072,0.29761
1349.46093,0.37406
1347.97114,0.45570
1346.48135,0.53277
1344.99156,0.58661
1343.50178,0.65598
1342.01199,0.72222
1340.52220,0.83470
1339.03241,0.82262
1337.54262,0.85390
1336.05283,0.84876
1334.56305,0.84364
1333.07326,0.91347
1331.58347,0.90380
1330.09368,0.91483
1328.60389,0.89833
1327.11410,0.87697
1325.62432,0.84817
1324.13453,0.79958
1322.64474,0.78719
1321.15495,0.75847
1319.66516,0.74556
1318.17537,0.73267
1316.68558,0.64689
1315.19580,0.58324
1313.70601,0.52306
1312.21622,0.51114
1310.72643,0.50842
1309.23664,0.45521
1307.74685,0.44020
1306.25707,0.39421
1304.76728,0.37724
1303.27749,0.36029
1301.78770,0.30548
1300.29791,0.23749
1298.80812,0.20741
1297.31834,0.17966
1295.82855,0.17145
1294.33876,0.15035
1292.84897,0.12640
1291.35918,0.10793
1289.86939,0.10686
1288.37960,0.10581
1286.88982,0.09517
1285.40003,0.09517
1283.91024,0.08860
1282.42045,0.07746
1280.93066,0.07667
1279.44087,0.06472
1277.95109,0.06571
1276.46130,0.05725
1274.97151,0.05585
1273.48172,0.05448
1271.99193,0.04035
1270.50214,0.02366
1269.01235,0.03456
1267.52257,0.05209
1266.03278,0.03807
1264.54299,0.06253
1263.05320,0.03391
1261.56341,0.04092
1260.07362,0.04795
1258.58384,0.02888
1257.09405,0.04400
1255.60426,0.04766
1254.11447,0.04474
1252.62468,0.02663
1251.13489,0.01543
1249.64511,0.02379
1248.15532,0.00920
1246.66553,0.00626
1245.17574,0.00335
1243.68595,0.02974
1242.19616,0.03577
1240.70637,0.04929
1239.21659,0.05250
1237.72680,0.04368
1236.23701,0.05498
1234.74722,0.04506
1233.25743,0.03775
1231.76764,0.03046
1230.27786,0.04646
1228.78807,0.04984
1227.29828,0.02167
1225.80849,0.01678
1224.31870,0.00618
1222.82891,0.00335
1221.33912,0.01426
1219.84934,0.03524
1218.35955,0.05625
1216.86976,0.05661
1215.37997,0.07595
1213.89018,0.07981
1212.40039,0.09604
1210.91061,0.08071
1209.42082,0.08924
1207.93103,0.07353
1206.44124,0.05785
1204.95145,0.06760
1203.46166,0.06847
1201.97188,0.06621
1200.48209,0.07087
1198.99230,0.05230
1197.50251,0.03863
1196.01272,0.03417
1194.52293,0.03391
1193.03314,0.03366
1191.54336,0.03215
1190.05357,0.03325
1188.56378,0.03839
1187.07399,0.04528
1185.58420,0.06827
1184.09441,0.03301
1182.60463,0.02074
1181.11484,0.00850
1179.62505,0.00317
1178.13526,0.01257
1176.64547,0.00335
1175.15568,0.03352
1173.66589,0.02725
1172.17611,0.01814
1170.68632,0.02441
1169.19653,0.03071
1167.70674,0.04637
1166.21695,0.02932
1164.72716,0.03899
1163.23738,0.03118
1161.74759,0.05813
1160.25780,0.05840
1158.76801,0.07521
1157.27822,0.09204
1155.78843,0.10215
1154.29865,0.09908
1152.80886,0.08398
1151.31907,0.09962
1149.82928,0.14399
1148.33949,0.13097
1146.84970,0.13635
1145.35991,0.14176
1143.87013,0.14029
1142.38034,0.16470
1140.89055,0.15410
1139.40076,0.18372
1137.91097,0.18810
1136.42118,0.19709
1134.93140,0.21846
1133.44161,0.23985
1131.95182,0.24376
1130.46203,0.25774
1128.97224,0.27231
1127.48245,0.27285
1125.99266,0.28632
1124.50288,0.26423
1123.01309,0.26010
1121.52330,0.25600
1120.03351,0.25379
1118.54372,0.25591
1117.05393,0.24714
1115.56415,0.23725
1114.07436,0.24892
1112.58457,0.24454
1111.09478,0.24018
1109.60499,0.23929
1108.11520,0.25708
1106.62542,0.26285
1105.13563,0.26777
1103.64584,0.25550
1102.15605,0.24497
1100.66626,0.23533
1099.17647,0.22572
1097.68668,0.22072
1096.19690,0.19680
1094.70711,0.20850
1093.21732,0.20817
1091.72753,0.18605
1090.23774,0.17788
1088.74795,0.16973
1087.25817,0.17639
1085.76838,0.16728
1084.27859,0.19208
1082.78880,0.20714
1081.29901,0.19495
1079.80922,0.19198
1078.31943,0.19433
1076.82965,0.19672
1075.33986,0.21075
1073.85007,0.20070
1072.36028,0.20302
1070.87049,0.21167
1069.38070,0.25767
1067.89092,0.26365
1066.40113,0.26965
1064.91134,0.31831
1063.42155,0.40575
1061.93176,0.46451
1060.44197,0.53564
1058.95219,0.59731
1057.46240,0.64811
1055.97261,0.69892
1054.48282,0.82268
1052.99303,0.89336
1051.50324,0.90779
1050.01345,0.89699
1048.52367,0.86410
1047.03388,0.85120
1045.54409,0.83831
1044.05430,0.81813
1042.56451,0.72162
1041.07472,0.69976
1039.58494,0.65239
1038.09515,0.58637
1036.60536,0.55613
1035.11557,0.52591
1033.62578,0.46083
1032.13599,0.42075
1030.64620,0.34654
1029.15642,0.31943
1027.66663,0.29737
1026.17684,0.27534
1024.68705,0.25979
1023.19726,0.24111
1021.70747,0.17451
1020.21769,0.13578
1018.72790,0.14100
1017.23811,0.12930
1015.74832,0.11763
1014.25853,0.10743
1012.76874,0.11361
1011.27896,0.09857
1009.78917,0.10279
1008.29938,0.11220
1006.80959,0.09723
1005.31980,0.08229
1003.83001,0.04298
1002.34022,0.05335
1000.85044,0.01695
999.36065,0.03972
997.87086,0.03725
996.38107,0.03480
994.89128,0.03267
993.40149,0.02970
991.91171,0.06580
990.42192,0.10019
988.93213,0.12514
987.44234,0.12127
985.95255,0.11742
984.46276,0.09708
982.97297,0.11410
981.48319,0.09955
979.99340,0.07183
978.50361,0.06466
977.01382,0.05751
975.52403,0.04422
974.03424,0.03640
972.54446,0.01569
971.05467,0.01826
969.56488,0.00564
968.07509,0.00883
966.58530,0.01205
965.09551,0.03711
963.60573,0.00335
962.11594,0.02198
960.62615,0.03203
959.13636,0.03522
957.64657,0.03842
956.15678,0.04166
954.66699,0.02769
953.17721,0.05222
951.68742,0.05438
950.19763,0.05226
948.70784,0.05016
947.21805,0.08857
945.72826,0.09772
944.23848,0.09943
942.74869,0.11465
941.25890,0.13708
939.76911,0.14719
938.27932,0.15733
936.78953,0.15744
935.29974,0.18140
933.80996,0.21314
932.32017,0.22854
930.83038,0.21555
929.34059,0.20258
927.85080,0.25193
926.36101,0.28868
924.87123,0.29789
923.38144,0.35851
921.89165,0.39317
920.40186,0.42787
918.91207,0.53392
917.42228,0.64230
915.93250,0.79032
914.44271,0.99491
912.95292,1.09159
911.46313,1.18830
909.97334,1.38809
908.48355,1.62867
906.99376,1.77741
905.50398,1.85843
904.01419,1.92196
902.52440,1.98551
901.03461,2.00000
899.54482,1.96714
898.05503,1.89211
896.56525,1.66065
895.07546,1.54174
893.58567,1.42286
892.09588,1.10535
890.60609,0.86365
889.11630,0.67394
887.62651,0.52214
886.13673,0.44645
884.64694,0.37078
883.15715,0.28423
881.66736,0.19885
880.17757,0.14880
878.68778,0.13352
877.19800,0.11826
875.70821,0.06054
874.21842,0.03615
872.72863,0.05513
871.23884,0.04399
869.74905,0.03531
868.25927,0.02666
866.76948,0.01962
865.27969,0.02063
863.78990,0.02110
862.30011,0.02446
860.81032,0.03345
859.32053,0.04246
857.83075,0.06944
856.34096,0.08238
854.85117,0.07725
853.36138,0.08134
851.87159,0.09521
850.38180,0.10911
848.89202,0.11786
847.40223,0.11459
845.91244,0.13688
844.42265,0.14930
842.93286,0.16174
841.44307,0.17062
839.95329,0.19244
838.46350,0.20941
836.97371,0.21004
835.48392,0.22189
833.99413,0.23376
832.50434,0.20174
831.01455,0.18610
829.52477,0.18570
828.03498,0.13136
826.54519,0.13259
825.05540,0.13385
823.56561,0.11289
822.07582,0.09309
820.58604,0.09572
819.09625,0.09406
817.60646,0.09243
816.11667,0.09110
814.62688,0.10388
813.13709,0.11437
811.64730,0.11083
810.15752,0.10516
808.66773,0.09951
807.17794,0.09806
805.68815,0.10839
804.19836,0.10842
802.70857,0.10301
801.21879,0.09764
799.72900,0.10520
798.23921,0.08236
796.74942,0.08797
795.25963,0.09173
793.76984,0.09552
792.28006,0.11699
790.79027,0.11207
789.30048,0.11292
787.81069,0.12556
786.32090,0.15000
784.83111,0.17447
783.34132,0.19436
781.85154,0.21744
780.36175,0.27442
778.87196,0.28377
777.38217,0.29314
775.89238,0.32005
774.40259,0.34182
772.91281,0.31595
771.42302,0.31064
769.93323,0.30535
768.44344,0.29937
766.95365,0.22653
765.46386,0.19792
763.97407,0.13833
762.48429,0.13173
760.99450,0.12516
759.50471,0.11961
758.01492,0.10347
756.52513,0.08219
755.03534,0.09150
753.54556,0.10084
752.05577,0.06614
750.56598,0.07424
749.07619,0.05853
747.58640,0.06151
746.09661,0.06452
744.60683,0.03798
743.11704,0.03816
741.62725,0.00335
740.13746,0.01688
738.64767,0.03045
737.15788,0.03901
735.66809,0.01746
734.17831,0.01746
732.68852,0.01519
731.19873,0.01295
729.70894,0.01417
728.21915,0.01686
726.72936,0.00837
725.23958,0.01512
723.74979,0.02061
722.26000,0.02612
720.77021,0.01400
719.28042,0.00335
717.79063,0.02333
716.30084,0.02139
714.81106,0.01946
713.32127,0.03953
711.83148,0.04440
710.34169,0.03035
708.85190,0.03140
707.36211,0.03247
705.87233,0.01907
704.38254,0.03498
702.89275,0.04029
701.40296,0.04261
699.91317,0.04495
698.42338,0.05407
696.93360,0.08101
695.44381,0.10166
693.95402,0.12578
692.46423,0.14992
690.97444,0.14395
689.48465,0.15752
687.99486,0.16681
686.50508,0.17770
685.01529,0.18862
683.52550,0.22669
682.03571,0.24555
680.54592,0.27191
679.05613,0.26570
677.56635,0.25952
676.07656,0.26786
674.58677,0.22972
673.09698,0.23035
671.60719,0.22829
670.11740,0.22625
668.62761,0.18563
667.13783,0.15881
665.64804,0.15124
664.15825,0.14371
662.66846,0.10835
661.17867,0.09799
659.68888,0.06383
658.19910,0.05481
656.70931,0.04582
655.21952,0.03872
653.72973,0.04542
652.23994,0.06736
650.75015,0.06177
649.26037,0.05621
647.77058,0.04665
646.28079,0.04400
644.79100,0.05659
643.30121,0.05443
641.81142,0.05229
640.32163,0.05233
638.83185,0.05985
637.34206,0.03295
635.85227,0.01814
634.36248,0.00335
632.87269,0.02823
631.38290,0.02329
629.89312,0.05139
628.40333,0.04506
626.91354,0.03876
625.42375,0.04655
623.93396,0.06182
622.44417,0.05804
620.95438,0.05427
619.46460,0.04723
617.97481,0.03849
616.48502,0.04959
614.99523,0.06990
613.50544,0.09023
612.01565,0.10455
610.52587,0.15049
609.03608,0.18238
607.54629,0.20266
606.05650,0.22298
604.56671,0.25724
603.07692,0.32339
601.58714,0.34420
600.09735,0.36505
598.60756,0.36582
597.11777,0.41226
595.62798,0.40763
594.13819,0.39957
592.64840,0.39155
591.15862,0.36574
589.66883,0.25872
588.17904,0.25335
586.68925,0.22404
585.19946,0.19474
583.70967,0.14466
582.21989,0.12647
580.73010,0.09984
579.24031,0.07323
577.75052,0.07722
576.26073,0.06516
574.77094,0.06260
573.28115,0.05862
571.79137,0.05468
570.30158,0.04587
568.81179,0.06207
567.32200,0.07456
565.83221,0.08707
564.34242,0.07607
562.85264,0.10098
561.36285,0.09577
559.87306,0.10034
558.38327,0.10495
556.89348,0.11818
555.40369,0.15527
553.91391,0.16181
552.42412,0.16838
550.93433,0.14009
549.44454,0.15489
547.95475,0.17315
546.46496,0.16991
544.97517,0.16670
543.48539,0.19193
541.99560,0.21948
540.50581,0.22180
539.01602,0.22414
537.52623,0.30631
536.03644,0.33942
534.54666,0.35102
533.05687,0.36508
531.56708,0.37917
530.07729,0.43937
528.58750,0.49241
527.09771,0.52581
525.60792,0.55923
524.11814,0.61608
522.62835,0.69218
521.13856,0.70601
519.64877,0.72461
518.15898,0.74323
516.66919,0.74881
515.17941,0.77279
513.68962,0.76680
512.19983,0.76083
510.71004,0.71197
509.22025,0.67634
507.73046,0.65078
506.24068,0.59208
504.75089,0.53342
503.26110,0.42181
501.77131,0.34554
500.28152,0.29039
498.79173,0.23526
497.30194,0.20098
495.81216,0.11849
494.32237,0.11354
492.83258,0.10861
491.34279,0.10112
489.85300,0.08533
488.36321,0.08163
486.87343,0.06431
485.38364,0.04702
483.89385,0.07353
482.40406,0.10523
480.91427,0.09950
479.42448,0.09379
477.93469,0.10002
476.44491,0.09278
474.95512,0.10997
473.46533,0.12718
471.97554,0.11858
470.48575,0.14560
468.99596,0.14366
467.50618,0.12939
466.01639,0.11515
464.52660,0.07596
463.03681,0.04856
461.54702,0.04200
460.05723,0.03546
458.56745,0.03197
457.07766,0.02907
455.58787,0.03438
454.09808,0.03971
452.60829,0.02426
451.11850,0.03754
449.62871,0.03104
448.13893,0.02456
446.64914,0.02298
445.15935,0.00335
443.66956,0.01106
442.17977,0.00890
440.68998,0.00676
439.20020,0.02833
437.71041,0.03959
436.22062,0.02848
434.73083,0.01740
433.24104,0.03161
431.75125,0.02947
430.26146,0.02593
428.77168,0.02241
427.28189,0.04361
425.79210,0.04301
424.30231,0.03698
422.81252,0.03098
421.32273,0.05916
419.83295,0.05809
418.34316,0.04183
416.85337,0.02559
415.36358,0.00335
413.87379,0.01917
412.38400,0.02799
410.89422,0.03683
409.40443,0.03953
407.91464,0.03708
406.42485,0.06049
404.93506,0.05652
403.44527,0.05256
401.95548,0.06313
400.46570,0.03555
398.97591,0.03239
397.48612,0.02925
395.99633,0.02959
394.50654,0.03282
393.01675,0.03306
391.52697,0.03332
390.03718,0.03577
388.54739,0.04024
387.05760,0.02752
385.56781,0.01483
384.07802,0.01733
382.58824,0.04109
381.09845,0.03848
379.60866,0.03588
378.11887,0.01896
376.62908,0.03565
375.13929,0.02668
373.64950,0.01772
372.15972,0.01037
370.66993,0.02372
369.18014,0.01925
367.69035,0.01480
366.20056,0.00335
364.71077,0.02219
363.22099,0.02916
361.73120,0.03614
360.24141,0.06482
358.75162,0.08463
357.26183,0.06643
355.77204,0.04825
354.28225,0.05493
352.79247,0.07111
351.30268,0.07281
349.81289,0.07454
348.32310,0.07845
346.83331,0.07291
345.34352,0.07557
343.85374,0.07826
342.36395,0.06074
340.87416,0.02085
339.38437,0.03174
337.89458,0.04266
336.40479,0.03423
334.91501,0.03817
333.42522,0.04945
331.93543,0.06075
330.44564,0.04295
328.95585,0.00335
327.46606,0.03162
325.97627,0.05992
324.48649,0.06758
322.99670,0.03450
321.50691,0.03646
320.01712,0.03845
318.52733,0.06199
317.03754,0.08040
315.54776,0.06925
314.05797,0.05814
312.56818,0.07145
311.07839,0.09942
309.58860,0.08350
308.09881,0.06760
306.60902,0.06235
305.11924,0.07234
303.62945,0.05235
302.13966,0.03239
300.64987,0.00399
299.16008,0.00335
