1778.52000,0.02463
1777.03021,0.01701
1775.54042,0.02127
1774.05063,0.01050
1772.56085,0.00776
1771.07106,0.02458
1769.58127,0.02157
1768.09148,0.02402
1766.60169,0.01209
1765.11190,0.01267
1763.62212,0.01648
1762.13233,0.01135
1760.64254,0.00528
1759.15275,0.01397
1757.66296,0.01147
1756.17317,0.00835
1754.68339,0.01423
1753.19360,0.01725
1751.70381,0.01324
1750.21402,0.00542
1748.72423,0.00979
1747.23444,0.00490
1745.74465,0.01028
1744.25487,0.01409
1742.76508,0.00606
1741.27529,0.00575
1739.78550,0.00962
1738.29571,0.01510
1736.80592,0.01645
1735.31614,0.01398
1733.82635,0.00000
1732.33656,0.01039
1730.84677,0.01600
1729.35698,0.01747
1727.86719,0.02088
1726.37740,0.01087
1724.88762,0.01593
1723.39783,0.00244
1721.90804,0.01044
1720.41825,0.00661
1718.92846,0.00376
1717.43867,0.00744
1715.94889,0.01819
1714.45910,0.00815
1712.96931,0.00677
1711.47952,0.01156
1709.98973,0.00773
1708.49994,0.01289
1707.01016,0.00927
1705.52037,0.00567
1704.03058,0.01154
1702.54079,0.01072
1701.05100,0.00639
1699.56121,0.02162
1698.07142,0.00773
1696.58164,0.00764
1695.09185,0.01622
1693.60206,0.00401
1692.11227,0.00976
1690.62248,0.00528
1689.13269,0.02173
1687.64291,0.01802
1686.15312,0.02907
1684.66333,0.01709
1683.17354,0.03171
1681.68375,0.03451
1680.19396,0.01651
1678.70417,0.03569
1677.21439,0.03952
1675.72460,0.05298
1674.23481,0.05013
1672.74502,0.04602
1671.25523,0.05027
1669.76544,0.06479
1668.27566,0.06909
1666.78587,0.05931
1665.29608,0.06269
1663.80629,0.06162
1662.31650,0.08042
1660.82671,0.06402
1659.33693,0.08255
1657.84714,0.08702
1656.35735,0.07453
1654.86756,0.07264
1653.37777,0.08102
1651.88798,0.07789
1650.39819,0.07511
1648.90841,0.08420
1647.41862,0.07058
1645.92883,0.07620
1644.43904,0.08184
1642.94925,0.09039
1641.45946,0.08231
1639.96968,0.08578
1638.47989,0.08864
1636.99010,0.09152
1635.50031,0.09603
1634.01052,0.08198
1632.52073,0.08749
1631.03094,0.08599
1629.54116,0.09123
1628.05137,0.09041
1626.56158,0.10468
1625.07179,0.09430
1623.58200,0.09003
1622.09221,0.09892
1620.60243,0.09214
1619.11264,0.08089
1617.62285,0.10235
1616.13306,0.07097
1614.64327,0.10368
1613.15348,0.07941
1611.66370,0.08622
1610.17391,0.08153
1608.68412,0.09640
1607.19433,0.09112
1605.70454,0.08394
1604.21475,0.09440
1602.72496,0.10488
1601.23518,0.09009
1599.74539,0.09421
1598.25560,0.07978
1596.76581,0.08172
1595.27602,0.08143
1593.78623,0.08597
1592.29645,0.07068
1590.80666,0.08585
1589.31687,0.07669
1587.82708,0.07780
1586.33729,0.07254
1584.84750,0.06506
1583.35771,0.08258
1581.86793,0.09436
1580.37814,0.05845
1578.88835,0.06772
1577.39856,0.06452
1575.90877,0.06487
1574.41898,0.05723
1572.92920,0.06788
1571.43941,0.05677
1569.94962,0.04889
1568.45983,0.04103
1566.97004,0.03224
1565.48025,0.02923
1563.99047,0.02593
1562.50068,0.02266
1561.01089,0.03894
1559.52110,0.03411
1558.03131,0.02867
1556.54152,0.04791
1555.05173,0.03514
1553.56195,0.01471
1552.07216,0.01801
1550.58237,0.02326
1549.09258,0.00867
1547.60279,0.01140
1546.11300,0.00999
1544.62322,0.00188
1543.13343,0.01285
1541.64364,0.00334
1540.15385,0.00619
1538.66406,0.00907
1537.17427,0.01437
1535.68448,0.00528
1534.19470,0.00594
1532.70491,0.02007
1531.21512,0.01405
1529.72533,0.02599
1528.23554,0.02707
1526.74575,0.03297
1525.25597,0.03089
1523.76618,0.02307
1522.27639,0.01719
1520.78660,0.02704
1519.29681,0.03755
1517.80702,0.04552
1516.31724,0.04871
1514.82745,0.05096
1513.33766,0.06236
1511.84787,0.07380
1510.35808,0.05050
1508.86829,0.04708
1507.37850,0.05682
1505.88872,0.05474
1504.39893,0.05972
1502.90914,0.06729
1501.41935,0.05503
1499.92956,0.06777
1498.43977,0.04979
1496.94999,0.08084
1495.46020,0.10199
1493.97041,0.09657
1492.48062,0.09631
1490.99083,0.10247
1489.50104,0.10802
1488.01125,0.11279
1486.52147,0.11758
1485.03168,0.15651
1483.54189,0.19771
1482.05210,0.18800
1480.56231,0.20587
1479.07252,0.20069
1477.58274,0.25160
1476.09295,0.21092
1474.60316,0.24009
1473.11337,0.24910
1471.62358,0.25174
1470.13379,0.26337
1468.64401,0.27310
1467.15422,0.29150
1465.66443,0.30528
1464.17464,0.31908
1462.68485,0.35229
1461.19506,0.37143
1459.70527,0.42070
1458.21549,0.47000
1456.72570,0.53789
1455.23591,0.57154
1453.74612,0.62251
1452.25633,0.67158
1450.76654,0.67263
1449.27676,0.72015
1447.78697,0.69050
1446.29718,0.69803
1444.80739,0.67900
1443.31760,0.66000
1441.82781,0.58368
1440.33802,0.54935
1438.84824,0.49934
1437.35845,0.49517
1435.86866,0.49005
1434.37887,0.50354
1432.88908,0.53371
1431.39929,0.59785
1429.90951,0.67932
1428.41972,0.74447
1426.92993,0.79299
1425.44014,0.85371
1423.95035,0.88226
1422.46056,0.91084
1420.97078,0.94280
1419.48099,0.93795
1417.99120,0.96324
1416.50141,0.93186
1415.01162,0.90274
1413.52183,0.87365
1412.03204,0.78756
1410.54226,0.75660
1409.05247,0.71797
1407.56268,0.65053
1406.07289,0.59978
1404.58310,0.57244
1403.09331,0.54511
1401.60353,0.46144
1400.11374,0.43321
1398.62395,0.38354
1397.13416,0.32044
1395.64437,0.27370
1394.15458,0.22986
1392.66479,0.17869
1391.17501,0.16758
1389.68522,0.13919
1388.19543,0.10218
1386.70564,0.09226
1385.21585,0.08236
1383.72606,0.06432
1382.23628,0.05143
1380.74649,0.03889
1379.25670,0.03149
1377.76691,0.02476
1376.27712,0.01677
1374.78733,0.00528
1373.29755,0.01654
1371.80776,0.01342
1370.31797,0.01384
1368.82818,0.02134
1367.33839,0.02885
1365.84860,0.01526
1364.35881,0.04460
1362.86903,0.04098
1361.37924,0.07198
1359.88945,0.10396
1358.39966,0.12027
1356.90987,0.14878
1355.42008,0.17923
1353.93030,0.24622
1352.44051,0.27368
1350.95072,0.30116
1349.46093,0.39449
1347.97114,0.45613
1346.48135,0.50787
1344.99156,0.59294
1343.50178,0.66139
1342.01199,0.71063
1340.52220,0.80667
1339.03241,0.84828
1337.54262,0.86493
1336.05283,0.88448
1334.56305,0.90406
1333.07326,0.94161
1331.58347,0.95963
1330.09368,0.95302
1328.60389,0.94355
1327.11410,0.91297
1325.62432,0.85774
1324.13453,0.84162
1322.64474,0.82328
1321.15495,0.78382
1319.66516,0.76008
1318.17537,0.73637
1316.68558,0.69154
1315.19580,0.63232
1313.70601,0.56992
1312.21622,0.54695
1310.72643,0.52175
1309.23664,0.48857
1307.74685,0.44645
1306.25707,0.40403
1304.76728,0.37093
1303.27749,0.33785
1301.78770,0.29070
1300.29791,0.24741
1298.80812,0.22466
1297.31834,0.18430
1295.82855,0.16512
1294.33876,0.14275
1292.84897,0.13290
1291.35918,0.10962
1289.86939,0.09982
1288.37960,0.09004
1286.88982,0.10143
1285.40003,0.08145
1283.91024,0.07751
1282.42045,0.09057
1280.93066,0.05689
1279.44087,0.06776
1277.95109,0.05751
1276.46130,0.04792
1274.97151,0.05534
1273.48172,0.06278
1271.99193,0.03885
1270.50214,0.03577
1269.01235,0.03303
1267.52257,0.02840
1266.03278,0.03212
1264.54299,0.03682
1263.05320,0.02617
1261.56341,0.03156
1260.07362,0.03698
1258.58384,0.03377
1257.09405,0.02002
1255.60426,0.03832
1254.11447,0.03166
1252.62468,0.03143
1251.13489,0.00528
1249.64511,0.01944
1248.15532,0.02978
1246.66553,0.02350
1245.17574,0.01723
1243.68595,0.02893
1242.19616,0.02527
1240.70637,0.02196
1239.21659,0.01964
1237.72680,0.03624
1236.23701,0.03588
1234.74722,0.03716
1233.25743,0.02884
1231.76764,0.02055
1230.27786,0.05361
1228.78807,0.03576
1227.29828,0.01505
1225.80849,0.01230
1224.31870,0.02367
1222.82891,0.00528
1221.33912,0.02304
1219.84934,0.03523
1218.35955,0.04743
1216.86976,0.07776
1215.37997,0.08858
1213.89018,0.08436
1212.40039,0.09298
1210.91061,0.09073
1209.42082,0.07634
1207.93103,0.07655
1206.44124,0.07678
1204.95145,0.08680
1203.46166,0.08563
1201.97188,0.07937
1200.48209,0.05775
1198.99230,0.05538
1197.50251,0.04951
1196.01272,0.02957
1194.52293,0.03255
1193.03314,0.03556
1191.54336,0.04228
1190.05357,0.03589
1188.56378,0.04265
1187.07399,0.05777
1185.58420,0.04569
1184.09441,0.03010
1182.60463,0.02239
1181.11484,0.01470
1179.62505,0.00528
1178.13526,0.02547
1176.64547,0.03576
1175.15568,0.02910
1173.66589,0.03495
1172.17611,0.04339
1170.68632,0.04353
1169.19653,0.04369
1167.70674,0.01633
1166.21695,0.03512
1164.72716,0.05040
1163.23738,0.03753
1161.74759,0.05607
1160.25780,0.07463
1158.76801,0.08393
1157.27822,0.09325
1155.78843,0.10196
1154.29865,0.10364
1152.80886,0.09990
1151.31907,0.13238
1149.82928,0.10948
1148.33949,0.14136
1146.84970,0.14349
1145.35991,0.14564
1143.87013,0.15518
1142.38034,0.14969
1140.89055,0.16120
1139.40076,0.17914
1137.91097,0.17212
1136.42118,0.22822
1134.93140,0.22814
1133.44161,0.22808
1131.95182,0.23942
1130.46203,0.24789
1128.97224,0.24967
1127.48245,0.25435
1125.99266,0.24848
1124.50288,0.24328
1123.01309,0.24724
1121.52330,0.25121
1120.03351,0.24096
1118.54372,0.25444
1117.05393,0.23014
1115.56415,0.24302
1114.07436,0.23831
1112.58457,0.23411
1111.09478,0.22992
1109.60499,0.21280
1108.11520,0.23861
1106.62542,0.22826
1105.13563,0.24835
1103.64584,0.26111
1102.15605,0.23513
1100.66626,0.22263
1099.17647,0.21016
1097.68668,0.20796
1096.19690,0.20674
1094.70711,0.19498
1093.21732,0.20470
1091.72753,0.17953
1090.23774,0.18610
1088.74795,0.19269
1087.25817,0.18041
1085.76838,0.17968
1084.27859,0.18474
1082.78880,0.17926
1081.29901,0.19750
1079.80922,0.19783
1078.31943,0.20363
1076.82965,0.20945
1075.33986,0.19224
1073.85007,0.20164
1072.36028,0.19152
1070.87049,0.22402
1069.38070,0.23285
1067.89092,0.26204
1066.40113,0.29126
1064.91134,0.32354
1063.42155,0.38819
1061.93176,0.47946
1060.44197,0.55954
1058.95219,0.61370
1057.46240,0.65315
1055.97261,0.69262
1054.48282,0.80579
1052.99303,0.86741
1051.50324,0.90407
1050.01345,0.93788
1048.52367,0.88843
1047.03388,0.87616
1045.54409,0.86391
1044.05430,0.83408
1042.56451,0.74885
1041.07472,0.71682
1039.58494,0.67776
1038.09515,0.60766
1036.60536,0.56177
1035.11557,0.51590
1033.62578,0.46189
1032.13599,0.38356
1030.64620,0.33697
1029.15642,0.31954
1027.66663,0.29285
1026.17684,0.26619
1024.68705,0.25012
1023.19726,0.20332
1021.70747,0.16103
1020.21769,0.12422
1018.72790,0.13675
1017.23811,0.13121
1015.74832,0.12569
1014.25853,0.09634
1012.76874,0.08558
1011.27896,0.09888
1009.78917,0.10034
1008.29938,0.07621
1006.80959,0.06075
1005.31980,0.04531
1003.83001,0.05072
1002.34022,0.04270
1000.85044,0.03246
999.36065,0.04499
997.87086,0.03336
996.38107,0.02175
994.89128,0.01961
993.40149,0.03608
991.91171,0.06250
990.42192,0.08542
988.93213,0.10068
987.44234,0.10603
985.95255,0.11141
984.46276,0.10176
982.97297,0.10302
981.48319,0.08989
979.99340,0.08159
978.50361,0.07940
977.01382,0.07724
975.52403,0.05140
974.03424,0.05248
972.54446,0.02605
971.05467,0.00604
969.56488,0.00528
968.07509,0.00770
966.58530,0.01014
965.09551,0.03455
963.60573,0.01478
962.11594,0.00464
960.62615,0.01582
959.13636,0.01613
957.64657,0.01646
956.15678,0.02739
954.66699,0.01689
953.17721,0.02530
951.68742,0.03118
950.19763,0.05037
948.70784,0.06959
947.21805,0.07939
945.72826,0.08536
944.23848,0.08815
942.74869,0.09674
941.25890,0.10951
939.76911,0.11638
938.27932,0.12328
936.78953,0.16175
935.29974,0.20152
933.80996,0.22275
932.32017,0.19499
930.83038,0.20168
929.34059,0.20840
927.85080,0.24317
926.36101,0.26548
924.87123,0.28236
923.38144,0.34891
921.89165,0.38890
920.40186,0.42892
918.91207,0.48690
917.42228,0.60672
915.93250,0.74258
914.44271,0.97167
912.95292,1.06321
911.46313,1.15478
909.97334,1.35224
908.48355,1.57598
906.99376,1.72383
905.50398,1.82815
904.01419,1.88013
902.52440,1.93212
901.03461,2.00000
899.54482,1.95868
898.05503,1.84307
896.56525,1.64966
895.07546,1.53394
893.58567,1.41824
892.09588,1.12080
890.60609,0.89642
889.11630,0.67173
887.62651,0.53804
886.13673,0.46074
884.64694,0.38347
883.15715,0.27771
881.66736,0.17390
880.17757,0.13322
878.68778,0.12378
877.19800,0.11437
875.70821,0.07440
874.21842,0.04310
872.72863,0.03809
871.23884,0.03694
869.74905,0.02493
868.25927,0.01295
866.76948,0.02020
865.27969,0.01755
863.78990,0.01653
862.30011,0.00528
860.81032,0.02759
859.32053,0.04992
857.83075,0.06123
856.34096,0.08826
854.85117,0.09193
853.36138,0.10747
851.87159,0.10814
850.38180,0.10884
848.89202,0.13151
847.40223,0.14427
845.91244,0.14103
844.42265,0.15720
842.93286,0.17340
841.44307,0.18529
839.95329,0.20361
838.46350,0.23093
836.97371,0.24610
835.48392,0.24608
833.99413,0.24608
832.50434,0.21841
831.01455,0.21413
829.52477,0.18330
828.03498,0.14801
826.54519,0.14797
825.05540,0.14796
823.56561,0.12139
822.07582,0.11342
820.58604,0.10227
819.09625,0.10524
817.60646,0.10823
816.11667,0.09171
814.62688,0.10148
813.13709,0.11575
811.64730,0.12557
810.15752,0.12372
808.66773,0.12189
807.17794,0.12057
805.68815,0.10838
804.19836,0.11799
802.70857,0.11819
801.21879,0.11840
799.72900,0.11720
798.23921,0.09456
796.74942,0.10334
795.25963,0.10237
793.76984,0.10142
792.28006,0.14358
790.79027,0.15662
789.30048,0.14438
787.81069,0.15266
786.32090,0.17169
784.83111,0.19075
783.34132,0.21352
781.85154,0.24720
780.36175,0.29340
778.87196,0.30631
777.38217,0.31924
775.89238,0.34149
774.40259,0.34102
772.91281,0.34441
771.42302,0.33326
769.93323,0.32213
768.44344,0.30030
766.95365,0.25895
765.46386,0.19457
763.97407,0.16608
762.48429,0.15283
760.99450,0.13961
759.50471,0.10895
758.01492,0.08697
756.52513,0.09063
755.03534,0.08775
753.54556,0.08490
752.05577,0.06621
750.56598,0.06228
749.07619,0.04205
747.58640,0.04473
746.09661,0.04745
744.60683,0.04298
743.11704,0.01355
741.62725,0.00528
740.13746,0.01241
738.64767,0.01957
737.15788,0.03348
735.66809,0.01346
734.17831,0.01301
732.68852,0.01001
731.19873,0.00704
729.70894,0.02203
728.21915,0.00566
726.72936,0.00528
725.23958,0.02202
723.74979,0.01989
722.26000,0.01778
720.77021,0.00576
719.28042,0.00818
717.79063,0.00358
716.30084,0.00734
714.81106,0.01111
713.32127,0.00466
711.83148,0.02515
710.34169,0.03316
708.85190,0.03191
707.36211,0.03068
705.87233,0.03748
704.38254,0.04752
702.89275,0.03067
701.40296,0.03194
699.91317,0.03323
698.42338,0.07411
696.93360,0.10092
695.44381,0.10405
693.95402,0.10528
692.46423,0.10654
690.97444,0.14017
689.48465,0.16101
687.99486,0.17836
686.50508,0.18307
685.01529,0.18782
683.52550,0.24143
682.03571,0.23965
680.54592,0.26096
679.05613,0.27380
677.56635,0.28667
676.07656,0.28755
674.58677,0.25163
673.09698,0.24103
671.60719,0.22340
670.11740,0.20581
668.62761,0.18855
667.13783,0.15467
665.64804,0.15444
664.15825,0.15423
662.66846,0.09095
661.17867,0.09400
659.68888,0.06696
658.19910,0.06573
656.70931,0.06452
655.21952,0.02314
653.72973,0.03560
652.23994,0.06537
650.75015,0.06571
649.26037,0.06606
647.77058,0.05171
646.28079,0.05276
644.79100,0.04870
643.30121,0.05268
641.81142,0.05668
640.32163,0.05366
638.83185,0.02568
637.34206,0.01469
635.85227,0.02216
634.36248,0.02964
632.87269,0.00528
631.38290,0.02265
629.89312,0.02755
628.40333,0.03424
626.91354,0.04095
625.42375,0.04016
623.93396,0.06598
622.44417,0.05979
620.95438,0.05362
619.46460,0.02378
617.97481,0.05834
616.48502,0.08012
614.99523,0.08686
613.50544,0.09363
612.01565,0.11324
610.52587,0.17707
609.03608,0.21658
607.54629,0.23434
606.05650,0.25212
604.56671,0.27056
603.07692,0.33772
601.58714,0.36790
600.09735,0.39811
598.60756,0.41921
597.11777,0.42977
595.62798,0.43939
594.13819,0.43943
592.64840,0.43949
591.15862,0.38000
589.66883,0.32854
588.17904,0.27391
586.68925,0.25420
585.19946,0.23453
583.70967,0.17900
582.21989,0.12959
580.73010,0.10678
579.24031,0.08400
577.75052,0.08366
576.26073,0.08591
574.77094,0.04238
573.28115,0.05028
571.79137,0.05821
570.30158,0.03397
568.81179,0.07253
567.32200,0.06756
565.83221,0.06261
564.34242,0.11854
562.85264,0.12485
561.36285,0.13631
559.87306,0.14123
558.38327,0.14617
556.89348,0.15674
555.40369,0.17790
553.91391,0.18116
552.42412,0.18443
550.93433,0.18517
549.44454,0.17504
547.95475,0.19793
546.46496,0.19025
544.97517,0.18260
543.48539,0.24111
541.99560,0.25673
540.50581,0.26372
539.01602,0.27074
537.52623,0.30885
536.03644,0.37197
534.54666,0.41013
533.05687,0.43422
531.56708,0.45833
530.07729,0.49721
528.58750,0.55884
527.09771,0.59408
525.60792,0.62934
524.11814,0.69714
522.62835,0.79378
521.13856,0.82896
519.64877,0.81755
518.15898,0.80617
516.66919,0.85006
515.17941,0.86227
513.68962,0.86634
512.19983,0.87043
510.71004,0.82922
509.22025,0.80053
507.73046,0.74239
506.24068,0.67643
504.75089,0.61050
503.26110,0.51560
501.77131,0.40823
500.28152,0.35806
498.79173,0.30792
497.30194,0.20735
495.81216,0.16895
494.32237,0.15892
492.83258,0.14891
491.34279,0.11826
489.85300,0.11294
488.36321,0.09708
486.87343,0.07596
485.38364,0.05486
483.89385,0.08391
482.40406,0.10882
480.91427,0.10589
479.42448,0.10299
477.93469,0.12509
476.44491,0.13569
474.95512,0.14006
473.46533,0.14446
471.97554,0.15128
470.48575,0.16358
468.99596,0.20088
467.50618,0.18007
466.01639,0.15928
464.52660,0.10313
463.03681,0.08415
461.54702,0.07834
460.05723,0.07254
458.56745,0.04115
457.07766,0.02451
455.58787,0.02744
454.09808,0.03039
452.60829,0.03817
451.11850,0.03060
449.62871,0.01793
448.13893,0.00528
446.64914,0.01985
445.15935,0.00818
443.66956,0.00774
442.17977,0.01566
440.68998,0.02360
439.20020,0.05047
437.71041,0.04436
436.22062,0.05254
434.73083,0.06073
433.24104,0.02523
431.75125,0.05062
430.26146,0.03711
428.77168,0.02362
427.28189,0.03562
425.79210,0.06238
424.30231,0.04785
422.81252,0.03334
421.32273,0.05152
419.83295,0.03578
418.34316,0.03480
416.85337,0.03383
415.36358,0.01112
413.87379,0.02457
412.38400,0.02685
410.89422,0.02914
409.40443,0.03786
407.91464,0.02900
406.42485,0.02976
404.93506,0.04497
403.44527,0.06019
401.95548,0.03060
400.46570,0.04107
398.97591,0.04324
397.48612,0.04543
395.99633,0.03388
394.50654,0.03388
393.01675,0.03150
391.52697,0.02914
390.03718,0.04808
388.54739,0.02764
387.05760,0.02437
385.56781,0.02112
384.07802,0.01934
382.58824,0.01693
381.09845,0.01296
379.60866,0.00900
378.11887,0.01660
376.62908,0.01238
375.13929,0.00882
373.64950,0.00528
372.15972,0.03446
370.66993,0.04348
369.18014,0.03294
367.69035,0.02243
366.20056,0.04509
364.71077,0.02709
363.22099,0.03667
361.73120,0.04627
360.24141,0.06967
358.75162,0.08765
357.26183,0.08163
355.77204,0.07563
354.28225,0.08023
352.79247,0.09222
351.30268,0.07620
349.81289,0.06021
348.32310,0.04825
346.83331,0.06834
345.34352,0.07148
343.85374,0.07465
342.36395,0.06439
340.87416,0.05062
339.38437,0.03384
337.89458,0.01708
336.40479,0.02229
334.91501,0.02432
333.42522,0.03518
331.93543,0.04607
330.44564,0.03632
328.95585,0.03332
327.46606,0.04075
325.97627,0.04821
324.48649,0.06354
322.99670,0.05199
321.50691,0.03406
320.01712,0.01615
318.52733,0.08059
317.03754,0.05824
315.54776,0.06235
314.05797,0.06648
312.56818,0.09898
311.07839,0.10524
309.58860,0.09743
308.09881,0.08964
306.60902,0.06907
305.11924,0.05076
303.62945,0.05922
302.13966,0.06771
300.64987,0.00559
299.16008,0.00528
