1778.52000,0.01020
1777.03021,0.00464
1775.54042,0.00428
1774.05063,0.01297
1772.56085,0.00534
1771.07106,0.00375
1769.58127,0.01597
1768.09148,0.00475
1766.60169,0.00410
1765.11190,0.00713
1763.62212,0.00825
1762.13233,0.00616
1760.64254,0.00174
1759.15275,0.00917
1757.66296,0.00780
1756.17317,0.00797
1754.68339,0.01311
1753.19360,0.01655
1751.70381,0.01012
1750.21402,0.00199
1748.72423,0.02056
1747.23444,0.00796
1745.74465,0.00055
1744.25487,0.01293
1742.76508,0.01113
1741.27529,0.00892
1739.78550,0.01728
1738.29571,0.00888
1736.80592,0.01944
1735.31614,0.00571
1733.82635,0.00046
1732.33656,0.00577
1730.84677,0.01283
1729.35698,0.01173
1727.86719,0.00786
1726.37740,0.01091
1724.88762,0.00515
1723.39783,0.00480
1721.90804,0.00318
1720.41825,0.01536
1718.92846,0.00174
1717.43867,0.01081
1715.94889,0.00829
1714.45910,0.00622
1712.96931,0.00848
1711.47952,0.00000
1709.98973,0.01328
1708.49994,0.01002
1707.01016,0.00807
1705.52037,0.00615
1704.03058,0.00145
1702.54079,0.00302
1701.05100,0.00354
1699.56121,0.00774
1698.07142,0.00121
1696.58164,0.00029
1695.09185,0.01904
1693.60206,0.01523
1692.11227,0.00842
1690.62248,0.00293
1689.13269,0.01533
1687.64291,0.01311
1686.15312,0.03782
1684.66333,0.01974
1683.17354,0.01630
1681.68375,0.01311
1680.19396,0.03017
1678.70417,0.01950
1677.21439,0.03187
1675.72460,0.04169
1674.23481,0.03711
1672.74502,0.03945
1671.25523,0.04138
1669.76544,0.04978
1668.27566,0.04681
1666.78587,0.05591
1665.29608,0.06138
1663.80629,0.05934
1662.31650,0.07067
1660.82671,0.08138
1659.33693,0.07468
1657.84714,0.08285
1656.35735,0.07125
1654.86756,0.06182
1653.37777,0.06060
1651.88798,0.07339
1650.39819,0.07501
1648.90841,0.06483
1647.41862,0.06370
1645.92883,0.07088
1644.43904,0.07809
1642.94925,0.08543
1641.45946,0.07730
1639.96968,0.07221
1638.47989,0.07295
1636.99010,0.07436
1635.50031,0.07150
1634.01052,0.06995
1632.52073,0.07337
1631.03094,0.08628
1629.54116,0.08179
1628.05137,0.08227
1626.56158,0.07546
1625.07179,0.07707
1623.58200,0.07612
1622.09221,0.08660
1620.60243,0.07407
1619.11264,0.08374
1617.62285,0.07127
1616.13306,0.07861
1614.64327,0.07609
1613.15348,0.06691
1611.66370,0.07756
1610.17391,0.08544
1608.68412,0.09162
1607.19433,0.08706
1605.70454,0.08511
1604.21475,0.09179
1602.72496,0.09850
1601.23518,0.08995
1599.74539,0.07734
1598.25560,0.07594
1596.76581,0.08296
1595.27602,0.06526
1593.78623,0.06522
1592.29645,0.07059
1590.80666,0.06329
1589.31687,0.07603
1587.82708,0.07200
1586.33729,0.07747
1584.84750,0.07586
1583.35771,0.07406
1581.86793,0.06497
1580.37814,0.08301
1578.88835,0.08085
1577.39856,0.07291
1575.90877,0.07425
1574.41898,0.06614
1572.92920,0.05030
1571.43941,0.04698
1569.94962,0.04507
1568.45983,0.04319
1566.97004,0.04102
1565.48025,0.03069
1563.99047,0.03846
1562.50068,0.03441
1561.01089,0.03126
1559.52110,0.04211
1558.03131,0.03212
1556.54152,0.03226
1555.05173,0.03458
1553.56195,0.02552
1552.07216,0.00810
1550.58237,0.01135
1549.09258,0.01269
1547.60279,0.02030
1546.11300,0.01868
1544.62322,0.00266
1543.13343,0.00174
1541.64364,0.00809
1540.15385,0.00715
1538.66406,0.00623
1537.17427,0.02428
1535.68448,0.01158
1534.19470,0.01590
1532.70491,0.00217
1531.21512,0.01709
1529.72533,0.00986
1528.23554,0.01277
1526.74575,0.02798
1525.25597,0.02750
1523.76618,0.02618
1522.27639,0.03521
1520.78660,0.02814
1519.29681,0.03442
1517.80702,0.03535
1516.31724,0.05202
1514.82745,0.04396
1513.33766,0.05013
1511.84787,0.05632
1510.35808,0.03995
1508.86829,0.04877
1507.37850,0.05870
1505.88872,0.05014
1504.39893,0.06076
1502.90914,0.06430
1501.41935,0.06529
1499.92956,0.06092
1498.43977,0.08002
1496.94999,0.07721
1495.46020,0.10218
1493.97041,0.10500
1492.48062,0.12937
1490.99083,0.12988
1489.50104,0.12202
1488.01125,0.12785
1486.52147,0.13371
1485.03168,0.17907
1483.54189,0.20725
1482.05210,0.22641
1480.56231,0.24624
1479.07252,0.24953
1477.58274,0.24896
1476.09295,0.26543
1474.60316,0.27072
1473.11337,0.25452
1471.62358,0.27859
1470.13379,0.27729
1468.64401,0.31259
1467.15422,0.33522
1465.66443,0.34917
1464.17464,0.36313
1462.68485,0.37551
1461.19506,0.40276
1459.70527,0.45133
1458.21549,0.52274
1456.72570,0.58858
1455.23591,0.65036
1453.74612,0.70656
1452.25633,0.71567
1450.76654,0.74825
1449.27676,0.73718
1447.78697,0.73215
1446.29718,0.73253
1444.80739,0.72293
1443.31760,0.71335
1441.82781,0.65656
1440.33802,0.56989
1438.84824,0.54844
1437.35845,0.52486
1435.86866,0.50971
1434.37887,0.55030
1432.88908,0.57285
1431.39929,0.65115
1429.90951,0.75208
1428.41972,0.82569
1426.92993,0.83629
1425.44014,0.89360
1423.95035,0.93480
1422.46056,0.97602
1420.97078,0.99188
1419.48099,0.95784
1417.99120,0.95696
1416.50141,0.94448
1415.01162,0.89846
1413.52183,0.86215
1412.03204,0.78713
1410.54226,0.73472
1409.05247,0.71204
1407.56268,0.65280
1406.07289,0.58089
1404.58310,0.55677
1403.09331,0.53268
1401.60353,0.45181
1400.11374,0.40388
1398.62395,0.36975
1397.13416,0.30401
1395.64437,0.25615
1394.15458,0.20681
1392.66479,0.18634
1391.17501,0.15448
1389.68522,0.12587
1388.19543,0.10460
1386.70564,0.09574
1385.21585,0.08689
1383.72606,0.05774
1382.23628,0.04281
1380.74649,0.03393
1379.25670,0.03476
1377.76691,0.02206
1376.27712,0.01454
1374.78733,0.01437
1373.29755,0.00174
1371.80776,0.00974
1370.31797,0.01260
1368.82818,0.01355
1367.33839,0.01453
1365.84860,0.01918
1364.35881,0.03333
1362.86903,0.04944
1361.37924,0.07548
1359.88945,0.10476
1358.39966,0.11772
1356.90987,0.15846
1355.42008,0.18911
1353.93030,0.24216
1352.44051,0.27932
1350.95072,0.31649
1349.46093,0.38253
1347.97114,0.46409
1346.48135,0.53297
1344.99156,0.60855
1343.50178,0.69147
1342.01199,0.73718
1340.52220,0.82381
1339.03241,0.87216
1337.54262,0.85877
1336.05283,0.86499
1334.56305,0.87124
1333.07326,0.91947
1331.58347,0.90768
1330.09368,0.89463
1328.60389,0.86827
1327.11410,0.82428
1325.62432,0.80248
1324.13453,0.77963
1322.64474,0.77553
1321.15495,0.73680
1319.66516,0.71510
1318.17537,0.69342
1316.68558,0.63584
1315.19580,0.57763
1313.70601,0.52396
1312.21622,0.52390
1310.72643,0.49331
1309.23664,0.47845
1307.74685,0.42897
1306.25707,0.41588
1304.76728,0.38312
1303.27749,0.35039
1301.78770,0.30079
1300.29791,0.25208
1298.80812,0.21523
1297.31834,0.18162
1295.82855,0.16505
1294.33876,0.13773
1292.84897,0.12422
1291.35918,0.10319
1289.86939,0.09769
1288.37960,0.09221
1286.88982,0.08546
1285.40003,0.07637
1283.91024,0.07333
1282.42045,0.07806
1280.93066,0.05720
1279.44087,0.05639
1277.95109,0.05473
1276.46130,0.04213
1274.97151,0.03482
1273.48172,0.02754
1271.99193,0.02964
1270.50214,0.03242
1269.01235,0.02897
1267.52257,0.02770
1266.03278,0.03528
1264.54299,0.04160
1263.05320,0.03115
1261.56341,0.02385
1260.07362,0.01657
1258.58384,0.00856
1257.09405,0.01994
1255.60426,0.01973
1254.11447,0.02815
1252.62468,0.00174
1251.13489,0.00202
1249.64511,0.02681
1248.15532,0.01009
1246.66553,0.01115
1245.17574,0.01223
1243.68595,0.01172
1242.19616,0.01318
1240.70637,0.02305
1239.21659,0.02735
1237.72680,0.02543
1236.23701,0.03323
1234.74722,0.01329
1233.25743,0.01435
1231.76764,0.01544
1230.27786,0.02935
1228.78807,0.02069
1227.29828,0.01142
1225.80849,0.00174
1224.31870,0.00261
1222.82891,0.00436
1221.33912,0.01518
1219.84934,0.02419
1218.35955,0.03323
1216.86976,0.05122
1215.37997,0.06407
1213.89018,0.07286
1212.40039,0.07952
1210.91061,0.07415
1209.42082,0.05913
1207.93103,0.05833
1206.44124,0.05756
1204.95145,0.06541
1203.46166,0.07050
1201.97188,0.05732
1200.48209,0.07256
1198.99230,0.04458
1197.50251,0.02717
1196.01272,0.02334
1194.52293,0.02448
1193.03314,0.02565
1191.54336,0.01629
1190.05357,0.01041
1188.56378,0.02284
1187.07399,0.03034
1185.58420,0.02883
1184.09441,0.01508
1182.60463,0.01115
1181.11484,0.00724
1179.62505,0.00174
1178.13526,0.00334
1176.64547,0.00432
1175.15568,0.01737
1173.66589,0.02614
1172.17611,0.00546
1170.68632,0.00417
1169.19653,0.00290
1167.70674,0.00984
1166.21695,0.01357
1164.72716,0.02400
1163.23738,0.02326
1161.74759,0.03115
1160.25780,0.04897
1158.76801,0.05594
1157.27822,0.06294
1155.78843,0.08169
1154.29865,0.06130
1152.80886,0.08504
1151.31907,0.08837
1149.82928,0.09840
1148.33949,0.12738
1146.84970,0.12982
1145.35991,0.13227
1143.87013,0.13680
1142.38034,0.16287
1140.89055,0.15669
1139.40076,0.16215
1137.91097,0.18076
1136.42118,0.20284
1134.93140,0.20837
1133.44161,0.21393
1131.95182,0.24663
1130.46203,0.24384
1128.97224,0.22860
1127.48245,0.24587
1125.99266,0.25155
1124.50288,0.24930
1123.01309,0.25201
1121.52330,0.25475
1120.03351,0.24030
1118.54372,0.25127
1117.05393,0.27194
1115.56415,0.25304
1114.07436,0.25806
1112.58457,0.25395
1111.09478,0.24987
1109.60499,0.24269
1108.11520,0.23295
1106.62542,0.25853
1105.13563,0.26240
1103.64584,0.25403
1102.15605,0.24676
1100.66626,0.23510
1099.17647,0.22346
1097.68668,0.23671
1096.19690,0.22888
1094.70711,0.20667
1093.21732,0.21870
1091.72753,0.20557
1090.23774,0.19925
1088.74795,0.19295
1087.25817,0.19883
1085.76838,0.19677
1084.27859,0.20055
1082.78880,0.20608
1081.29901,0.21313
1079.80922,0.21333
1078.31943,0.21419
1076.82965,0.21508
1075.33986,0.23299
1073.85007,0.25373
1072.36028,0.25210
1070.87049,0.26966
1069.38070,0.31543
1067.89092,0.32539
1066.40113,0.33538
1064.91134,0.41393
1063.42155,0.48820
1061.93176,0.60080
1060.44197,0.69126
1058.95219,0.75269
1057.46240,0.79144
1055.97261,0.83022
1054.48282,0.94746
1052.99303,1.01867
1051.50324,0.99265
1050.01345,0.97998
1048.52367,0.94712
1047.03388,0.93709
1045.54409,0.92709
1044.05430,0.86697
1042.56451,0.78041
1041.07472,0.74960
1039.58494,0.69859
1038.09515,0.62803
1036.60536,0.59676
1035.11557,0.56551
1033.62578,0.50018
1032.13599,0.43316
1030.64620,0.38617
1029.15642,0.31962
1027.66663,0.30453
1026.17684,0.28946
1024.68705,0.25010
1023.19726,0.22648
1021.70747,0.18846
1020.21769,0.16122
1018.72790,0.14649
1017.23811,0.13770
1015.74832,0.12893
1014.25853,0.11535
1012.76874,0.10158
1011.27896,0.11258
1009.78917,0.10100
1008.29938,0.07697
1006.80959,0.06674
1005.31980,0.05653
1003.83001,0.05668
1002.34022,0.03683
1000.85044,0.04542
999.36065,0.05295
997.87086,0.05589
996.38107,0.05884
994.89128,0.06301
993.40149,0.06741
991.91171,0.09658
990.42192,0.13826
988.93213,0.14446
987.44234,0.15283
985.95255,0.16123
984.46276,0.14943
982.97297,0.14045
981.48319,0.11061
979.99340,0.08425
978.50361,0.07674
977.01382,0.06925
975.52403,0.05480
974.03424,0.05048
972.54446,0.03736
971.05467,0.02212
969.56488,0.00174
968.07509,0.00457
966.58530,0.00743
965.09551,0.01827
963.60573,0.00891
962.11594,0.00066
960.62615,0.00611
959.13636,0.00803
957.64657,0.00998
956.15678,0.01335
954.66699,0.01502
953.17721,0.01328
951.68742,0.01371
950.19763,0.01804
948.70784,0.02239
947.21805,0.05152
945.72826,0.05893
944.23848,0.07089
942.74869,0.08890
941.25890,0.10478
939.76911,0.12359
938.27932,0.14242
936.78953,0.16849
935.29974,0.16854
933.80996,0.19530
932.32017,0.19498
930.83038,0.20156
929.34059,0.20816
927.85080,0.23136
926.36101,0.26061
924.87123,0.27741
923.38144,0.32586
921.89165,0.38197
920.40186,0.43811
918.91207,0.53290
917.42228,0.64169
915.93250,0.79226
914.44271,1.01709
912.95292,1.10994
911.46313,1.20280
909.97334,1.44191
908.48355,1.64381
906.99376,1.83347
905.50398,1.91966
904.01419,1.95982
902.52440,2.00000
901.03461,1.96188
899.54482,1.96252
898.05503,1.81836
896.56525,1.62581
895.07546,1.49161
893.58567,1.35742
892.09588,1.06080
890.60609,0.81390
889.11630,0.61739
887.62651,0.46178
886.13673,0.39798
884.64694,0.33420
883.15715,0.23934
881.66736,0.17335
880.17757,0.11900
878.68778,0.10169
877.19800,0.08441
875.70821,0.05251
874.21842,0.04151
872.72863,0.03377
871.23884,0.00560
869.74905,0.00447
868.25927,0.00336
866.76948,0.00582
865.27969,0.02230
863.78990,0.02331
862.30011,0.03682
860.81032,0.03884
859.32053,0.04089
857.83075,0.06029
856.34096,0.07798
854.85117,0.08774
853.36138,0.11991
851.87159,0.12391
850.38180,0.12793
848.89202,0.13435
847.40223,0.15413
845.91244,0.16791
844.42265,0.18333
842.93286,0.19877
841.44307,0.19756
839.95329,0.21940
838.46350,0.24535
836.97371,0.24400
835.48392,0.25483
833.99413,0.26568
832.50434,0.24805
831.01455,0.22829
829.52477,0.20748
828.03498,0.17528
826.54519,0.16410
825.05540,0.15293
823.56561,0.14922
822.07582,0.11131
820.58604,0.11432
819.09625,0.11541
817.60646,0.11653
816.11667,0.09486
814.62688,0.10355
813.13709,0.11184
811.64730,0.12855
810.15752,0.12441
808.66773,0.12029
807.17794,0.11749
805.68815,0.11966
804.19836,0.11906
802.70857,0.12472
801.21879,0.13041
799.72900,0.11912
798.23921,0.11884
796.74942,0.11190
795.25963,0.10886
793.76984,0.10585
792.28006,0.12653
790.79027,0.12550
789.30048,0.14430
787.81069,0.16634
786.32090,0.18680
784.83111,0.20728
783.34132,0.24920
781.85154,0.27866
780.36175,0.32880
778.87196,0.35217
777.38217,0.37557
775.89238,0.38275
774.40259,0.41319
772.91281,0.41762
771.42302,0.40066
769.93323,0.38373
768.44344,0.35100
766.95365,0.29248
765.46386,0.21806
763.97407,0.16410
762.48429,0.15934
760.99450,0.15461
759.50471,0.13731
758.01492,0.10905
756.52513,0.10471
755.03534,0.09878
753.54556,0.09288
752.05577,0.08667
750.56598,0.07296
749.07619,0.05088
747.58640,0.05024
746.09661,0.04962
744.60683,0.03600
743.11704,0.02413
741.62725,0.02843
740.13746,0.01758
738.64767,0.00675
737.15788,0.01779
735.66809,0.00174
734.17831,0.01134
732.68852,0.01397
731.19873,0.01663
729.70894,0.00737
728.21915,0.00696
726.72936,0.00377
725.23958,0.01352
723.74979,0.01383
722.26000,0.01416
720.77021,0.01430
719.28042,0.01661
717.79063,0.00174
716.30084,0.00560
714.81106,0.00948
713.32127,0.01059
711.83148,0.03691
710.34169,0.03204
708.85190,0.03151
707.36211,0.03100
705.87233,0.04127
704.38254,0.04274
702.89275,0.04747
701.40296,0.04770
699.91317,0.04795
698.42338,0.06200
696.93360,0.08598
695.44381,0.08975
693.95402,0.09613
692.46423,0.10253
690.97444,0.15092
689.48465,0.17544
687.99486,0.16643
686.50508,0.17680
685.01529,0.18720
683.52550,0.23334
682.03571,0.25842
680.54592,0.27470
679.05613,0.27422
677.56635,0.27376
676.07656,0.27979
674.58677,0.27594
673.09698,0.24435
671.60719,0.22882
670.11740,0.21332
668.62761,0.19752
667.13783,0.16345
665.64804,0.14856
664.15825,0.13369
662.66846,0.10335
661.17867,0.07648
659.68888,0.06384
658.19910,0.05111
656.70931,0.03841
655.21952,0.01981
653.72973,0.02211
652.23994,0.04488
650.75015,0.04282
649.26037,0.04078
647.77058,0.04275
646.28079,0.02623
644.79100,0.04267
643.30121,0.03449
641.81142,0.02633
640.32163,0.04349
638.83185,0.02860
637.34206,0.01374
635.85227,0.00773
634.36248,0.00174
632.87269,0.00437
631.38290,0.00531
629.89312,0.00885
628.40333,0.01317
626.91354,0.01752
625.42375,0.00263
623.93396,0.01531
622.44417,0.03221
620.95438,0.04913
619.46460,0.04553
617.97481,0.04970
616.48502,0.05367
614.99523,0.06801
613.50544,0.08236
612.01565,0.13139
610.52587,0.16516
609.03608,0.19314
607.54629,0.20609
606.05650,0.21906
604.56671,0.24776
603.07692,0.35224
601.58714,0.36861
600.09735,0.38502
598.60756,0.42652
597.11777,0.45297
595.62798,0.44331
594.13819,0.42731
592.64840,0.41135
591.15862,0.35484
589.66883,0.31192
588.17904,0.26385
586.68925,0.23798
585.19946,0.21212
583.70967,0.16650
582.21989,0.10239
580.73010,0.08608
579.24031,0.06980
577.75052,0.06623
576.26073,0.06312
574.77094,0.04884
573.28115,0.05407
571.79137,0.05931
570.30158,0.03327
568.81179,0.06105
567.32200,0.07681
565.83221,0.09259
564.34242,0.10796
562.85264,0.13132
561.36285,0.14158
559.87306,0.14003
558.38327,0.13850
556.89348,0.15185
555.40369,0.17834
553.91391,0.19335
552.42412,0.20838
550.93433,0.18782
549.44454,0.19612
547.95475,0.21004
546.46496,0.21075
544.97517,0.21149
543.48539,0.21903
541.99560,0.24466
540.50581,0.26032
539.01602,0.27600
537.52623,0.33614
536.03644,0.39178
534.54666,0.41905
533.05687,0.43235
531.56708,0.44568
530.07729,0.50960
528.58750,0.54234
527.09771,0.56198
525.60792,0.58165
524.11814,0.68526
522.62835,0.76759
521.13856,0.78991
519.64877,0.80290
518.15898,0.81591
516.66919,0.83335
515.17941,0.85318
513.68962,0.84281
512.19983,0.83246
510.71004,0.77942
509.22025,0.78042
507.73046,0.73840
506.24068,0.67188
504.75089,0.60538
503.26110,0.47672
501.77131,0.38789
500.28152,0.34761
498.79173,0.30736
497.30194,0.23711
495.81216,0.15376
494.32237,0.13606
492.83258,0.11839
491.34279,0.11150
489.85300,0.09065
488.36321,0.06982
486.87343,0.05688
485.38364,0.04395
483.89385,0.07334
482.40406,0.09801
480.91427,0.10593
479.42448,0.11386
477.93469,0.13366
476.44491,0.13885
474.95512,0.15558
473.46533,0.17233
471.97554,0.17093
470.48575,0.18869
468.99596,0.18497
467.50618,0.17255
466.01639,0.16016
464.52660,0.10852
463.03681,0.09327
461.54702,0.08429
460.05723,0.07533
458.56745,0.04423
457.07766,0.02951
455.58787,0.03181
454.09808,0.03414
452.60829,0.05392
451.11850,0.03242
449.62871,0.01706
448.13893,0.00174
446.64914,0.01690
445.15935,0.00046
443.66956,0.00010
442.17977,0.00601
440.68998,0.01195
439.20020,0.02070
437.71041,0.02432
436.22062,0.01634
434.73083,0.00838
433.24104,0.01293
431.75125,0.03063
430.26146,0.03136
428.77168,0.03210
427.28189,0.02900
425.79210,0.04530
424.30231,0.04214
422.81252,0.03900
421.32273,0.03535
419.83295,0.03065
418.34316,0.02307
416.85337,0.01552
415.36358,0.00530
413.87379,0.03189
412.38400,0.04120
410.89422,0.05052
409.40443,0.02684
407.91464,0.03654
406.42485,0.03830
404.93506,0.03653
403.44527,0.03479
401.95548,0.04437
400.46570,0.05397
398.97591,0.04251
397.48612,0.03108
395.99633,0.02397
394.50654,0.02399
393.01675,0.01983
391.52697,0.01570
390.03718,0.03128
388.54739,0.03075
387.05760,0.02270
385.56781,0.01469
384.07802,0.01487
382.58824,0.02132
381.09845,0.01875
379.60866,0.01621
378.11887,0.03285
376.62908,0.00174
375.13929,0.01089
373.64950,0.02008
372.15972,0.02025
370.66993,0.02560
369.18014,0.01841
367.69035,0.01125
366.20056,0.01906
364.71077,0.04304
363.22099,0.03907
361.73120,0.03512
360.24141,0.04691
358.75162,0.06280
357.26183,0.05990
355.77204,0.05702
354.28225,0.07105
352.79247,0.09737
351.30268,0.08886
349.81289,0.08038
348.32310,0.03318
346.83331,0.07036
345.34352,0.06797
343.85374,0.06561
342.36395,0.06865
340.87416,0.02243
339.38437,0.01207
337.89458,0.00174
336.40479,0.00275
334.91501,0.03284
333.42522,0.02648
331.93543,0.02014
330.44564,0.01114
328.95585,0.01012
327.46606,0.02193
325.97627,0.03377
324.48649,0.05520
322.99670,0.03427
321.50691,0.01799
320.01712,0.00174
318.52733,0.06266
317.03754,0.06100
315.54776,0.05591
314.05797,0.05085
312.56818,0.06131
311.07839,0.07674
309.58860,0.07972
308.09881,0.08271
306.60902,0.05841
305.11924,0.06705
303.62945,0.05377
302.13966,0.04051
300.64987,0.00253
299.16008,0.00174
