1778.52000,0.00218
1777.03021,0.00000
1775.54042,0.00719
1774.05063,0.01373
1772.56085,0.00570
1771.07106,0.00567
1769.58127,0.00931
1768.09148,0.01001
1766.60169,0.00550
1765.11190,0.00328
1763.62212,0.01341
1762.13233,0.01489
1760.64254,0.01207
1759.15275,0.01337
1757.66296,0.01242
1756.17317,0.01355
1754.68339,0.00512
1753.19360,0.00219
1751.70381,0.01091
1750.21402,0.00598
1748.72423,0.01817
1747.23444,0.01761
1745.74465,0.01526
1744.25487,0.02319
1742.76508,0.01199
1741.27529,0.01860
1739.78550,0.00654
1738.29571,0.00938
1736.80592,0.02364
1735.31614,0.01125
1733.82635,0.00914
1732.33656,0.00340
1730.84677,0.01320
1729.35698,0.00934
1727.86719,0.01144
1726.37740,0.00375
1724.88762,0.00749
1723.39783,0.01581
1721.90804,0.01047
1720.41825,0.00813
1718.92846,0.00284
1717.43867,0.00396
1715.94889,0.00328
1714.45910,0.00579
1712.96931,0.00558
1711.47952,0.00244
1709.98973,0.01254
1708.49994,0.00328
1707.01016,0.00435
1705.52037,0.00544
1704.03058,0.00724
1702.54079,0.01066
1701.05100,0.01501
1699.56121,0.01073
1698.07142,0.01103
1696.58164,0.01454
1695.09185,0.01535
1693.60206,0.01572
1692.11227,0.01611
1690.62248,0.01973
1689.13269,0.02428
1687.64291,0.02315
1686.15312,0.03071
1684.66333,0.02233
1683.17354,0.03884
1681.68375,0.03210
1680.19396,0.03885
1678.70417,0.04243
1677.21439,0.05629
1675.72460,0.05946
1674.23481,0.05992
1672.74502,0.05356
1671.25523,0.05544
1669.76544,0.06554
1668.27566,0.06952
1666.78587,0.07420
1665.29608,0.08940
1663.80629,0.07133
1662.31650,0.07358
1660.82671,0.08953
1659.33693,0.09365
1657.84714,0.07522
1656.35735,0.07574
1654.86756,0.08335
1653.37777,0.08392
1651.88798,0.08018
1650.39819,0.07875
1648.90841,0.08099
1647.41862,0.07664
1645.92883,0.07721
1644.43904,0.07781
1642.94925,0.08471
1641.45946,0.08820
1639.96968,0.07622
1638.47989,0.07407
1636.99010,0.08516
1635.50031,0.07075
1634.01052,0.07300
1632.52073,0.07778
1631.03094,0.07507
1629.54116,0.07488
1628.05137,0.08498
1626.56158,0.08941
1625.07179,0.08588
1623.58200,0.08442
1622.09221,0.09918
1620.60243,0.08683
1619.11264,0.09981
1617.62285,0.09024
1616.13306,0.08343
1614.64327,0.07346
1613.15348,0.07719
1611.66370,0.08117
1610.17391,0.08176
1608.68412,0.08054
1607.19433,0.09304
1605.70454,0.08480
1604.21475,0.08685
1602.72496,0.08893
1601.23518,0.08145
1599.74539,0.07742
1598.25560,0.08185
1596.76581,0.07444
1595.27602,0.07869
1593.78623,0.07658
1592.29645,0.08954
1590.80666,0.07380
1589.31687,0.05785
1587.82708,0.08912
1586.33729,0.06456
1584.84750,0.08676
1583.35771,0.08117
1581.86793,0.08199
1580.37814,0.06824
1578.88835,0.07526
1577.39856,0.07934
1575.90877,0.06863
1574.41898,0.04996
1572.92920,0.04499
1571.43941,0.04347
1569.94962,0.04563
1568.45983,0.04780
1566.97004,0.05137
1565.48025,0.03421
1563.99047,0.03737
1562.50068,0.04534
1561.01089,0.03715
1559.52110,0.03172
1558.03131,0.03749
1556.54152,0.03233
1555.05173,0.04499
1553.56195,0.03441
1552.07216,0.02020
1550.58237,0.00830
1549.09258,0.00669
1547.60279,0.00487
1546.11300,0.01266
1544.62322,0.01841
1543.13343,0.00458
1541.64364,0.00081
1540.15385,0.00698
1538.66406,0.01317
1537.17427,0.01426
1535.68448,0.00328
1534.19470,0.00725
1532.70491,0.00828
1531.21512,0.01207
1529.72533,0.01337
1528.23554,0.02428
1526.74575,0.04136
1525.25597,0.02974
1523.76618,0.02567
1522.27639,0.03257
1520.78660,0.03721
1519.29681,0.04484
1517.80702,0.04588
1516.31724,0.06199
1514.82745,0.04917
1513.33766,0.04846
1511.84787,0.04778
1510.35808,0.04392
1508.86829,0.04648
1507.37850,0.05384
1505.88872,0.04140
1504.39893,0.06113
1502.90914,0.05967
1501.41935,0.08355
1499.92956,0.07622
1498.43977,0.06937
1496.94999,0.06756
1495.46020,0.08857
1493.97041,0.10414
1492.48062,0.09806
1490.99083,0.10205
1489.50104,0.11814
1488.01125,0.11761
1486.52147,0.11711
1485.03168,0.16292
1483.54189,0.20351
1482.05210,0.18415
1480.56231,0.20586
1479.07252,0.24105
1477.58274,0.25506
1476.09295,0.24743
1474.60316,0.24826
1473.11337,0.25254
1471.62358,0.26596
1470.13379,0.24702
1468.64401,0.27486
1467.15422,0.31457
1465.66443,0.31270
1464.17464,0.31085
1462.68485,0.36112
1461.19506,0.37471
1459.70527,0.43256
1458.21549,0.49613
1456.72570,0.56725
1455.23591,0.62221
1453.74612,0.67035
1452.25633,0.71532
1450.76654,0.74094
1449.27676,0.73648
1447.78697,0.69898
1446.29718,0.68294
1444.80739,0.66978
1443.31760,0.65664
1441.82781,0.62175
1440.33802,0.57685
1438.84824,0.50803
1437.35845,0.50673
1435.86866,0.50067
1434.37887,0.51606
1432.88908,0.53011
1431.39929,0.61646
1429.90951,0.70215
1428.41972,0.79517
1426.92993,0.83143
1425.44014,0.88482
1423.95035,0.91064
1422.46056,0.93649
1420.97078,0.97125
1419.48099,0.94197
1417.99120,0.92457
1416.50141,0.91927
1415.01162,0.85609
1413.52183,0.83716
1412.03204,0.77653
1410.54226,0.72391
1409.05247,0.66811
1407.56268,0.63811
1406.07289,0.58852
1404.58310,0.54557
1403.09331,0.50265
1401.60353,0.44606
1400.11374,0.40045
1398.62395,0.35873
1397.13416,0.30883
1395.64437,0.24095
1394.15458,0.21481
1392.66479,0.18528
1391.17501,0.14665
1389.68522,0.12834
1388.19543,0.09204
1386.70564,0.08723
1385.21585,0.08244
1383.72606,0.06035
1382.23628,0.04991
1380.74649,0.02764
1379.25670,0.03367
1377.76691,0.00734
1376.27712,0.00270
1374.78733,0.01017
1373.29755,0.02769
1371.80776,0.00328
1370.31797,0.01491
1368.82818,0.01733
1367.33839,0.01977
1365.84860,0.03330
1364.35881,0.03294
1362.86903,0.04286
1361.37924,0.07424
1359.88945,0.11066
1358.39966,0.12317
1356.90987,0.17287
1355.42008,0.20024
1353.93030,0.25819
1352.44051,0.29998
1350.95072,0.34179
1349.46093,0.41281
1347.97114,0.45376
1346.48135,0.53715
1344.99156,0.62238
1343.50178,0.67731
1342.01199,0.76122
1340.52220,0.83831
1339.03241,0.87667
1337.54262,0.85395
1336.05283,0.86431
1334.56305,0.87469
1333.07326,0.89832
1331.58347,0.90237
1330.09368,0.90918
1328.60389,0.88386
1327.11410,0.82026
1325.62432,0.79568
1324.13453,0.80897
1322.64474,0.76642
1321.15495,0.71910
1319.66516,0.70248
1318.17537,0.68588
1316.68558,0.62154
1315.19580,0.57888
1313.70601,0.54058
1312.21622,0.51781
1310.72643,0.48093
1309.23664,0.45000
1307.74685,0.40267
1306.25707,0.39801
1304.76728,0.37263
1303.27749,0.34726
1301.78770,0.32124
1300.29791,0.26697
1298.80812,0.20862
1297.31834,0.18267
1295.82855,0.16039
1294.33876,0.13404
1292.84897,0.11979
1291.35918,0.09257
1289.86939,0.09205
1288.37960,0.09155
1286.88982,0.08971
1285.40003,0.08152
1283.91024,0.06764
1282.42045,0.05037
1280.93066,0.05912
1279.44087,0.04303
1277.95109,0.05160
1276.46130,0.04195
1274.97151,0.04281
1273.48172,0.04370
1271.99193,0.04119
1270.50214,0.03780
1269.01235,0.03328
1267.52257,0.01831
1266.03278,0.03003
1264.54299,0.02628
1263.05320,0.02596
1261.56341,0.02112
1260.07362,0.01629
1258.58384,0.00328
1257.09405,0.01381
1255.60426,0.02437
1254.11447,0.02172
1252.62468,0.00610
1251.13489,0.00943
1249.64511,0.00891
1248.15532,0.01959
1246.66553,0.02173
1245.17574,0.02391
1243.68595,0.01049
1242.19616,0.03106
1240.70637,0.01906
1239.21659,0.00913
1237.72680,0.02567
1236.23701,0.04065
1234.74722,0.01232
1233.25743,0.01868
1231.76764,0.02506
1230.27786,0.03465
1228.78807,0.03470
1227.29828,0.03317
1225.80849,0.01092
1224.31870,0.00328
1222.82891,0.01278
1221.33912,0.00816
1219.84934,0.02020
1218.35955,0.03228
1216.86976,0.05919
1215.37997,0.05467
1213.89018,0.07662
1212.40039,0.07465
1210.91061,0.06701
1209.42082,0.05893
1207.93103,0.05738
1206.44124,0.05585
1204.95145,0.07179
1203.46166,0.05834
1201.97188,0.05403
1200.48209,0.05408
1198.99230,0.05028
1197.50251,0.03305
1196.01272,0.03477
1194.52293,0.02580
1193.03314,0.01685
1191.54336,0.02411
1190.05357,0.01156
1188.56378,0.01158
1187.07399,0.02096
1185.58420,0.02376
1184.09441,0.01952
1182.60463,0.01644
1181.11484,0.01338
1179.62505,0.00328
1178.13526,0.01135
1176.64547,0.01146
1175.15568,0.01114
1173.66589,0.01358
1172.17611,0.01581
1170.68632,0.01659
1169.19653,0.01739
1167.70674,0.00328
1166.21695,0.01687
1164.72716,0.02342
1163.23738,0.02816
1161.74759,0.02632
1160.25780,0.04001
1158.76801,0.05349
1157.27822,0.06700
1155.78843,0.05111
1154.29865,0.06467
1152.80886,0.07939
1151.31907,0.09048
1149.82928,0.08747
1148.33949,0.09154
1146.84970,0.09940
1145.35991,0.10729
1143.87013,0.12010
1142.38034,0.14069
1140.89055,0.15218
1139.40076,0.15572
1137.91097,0.17342
1136.42118,0.21303
1134.93140,0.22268
1133.44161,0.23235
1131.95182,0.22598
1130.46203,0.21370
1128.97224,0.22470
1127.48245,0.23755
1125.99266,0.24108
1124.50288,0.23802
1123.01309,0.24410
1121.52330,0.25021
1120.03351,0.25064
1118.54372,0.25041
1117.05393,0.23743
1115.56415,0.25390
1114.07436,0.25214
1112.58457,0.24597
1111.09478,0.23982
1109.60499,0.22514
1108.11520,0.23717
1106.62542,0.22869
1105.13563,0.25308
1103.64584,0.23462
1102.15605,0.22759
1100.66626,0.22195
1099.17647,0.21634
1097.68668,0.21417
1096.19690,0.21202
1094.70711,0.20443
1093.21732,0.18158
1091.72753,0.17380
1090.23774,0.16776
1088.74795,0.16175
1087.25817,0.17206
1085.76838,0.16096
1084.27859,0.16630
1082.78880,0.16164
1081.29901,0.16931
1079.80922,0.17176
1078.31943,0.17561
1076.82965,0.17948
1075.33986,0.18519
1073.85007,0.19504
1072.36028,0.19100
1070.87049,0.20568
1069.38070,0.23543
1067.89092,0.25176
1066.40113,0.26811
1064.91134,0.32370
1063.42155,0.39346
1061.93176,0.46141
1060.44197,0.52962
1058.95219,0.59534
1057.46240,0.63293
1055.97261,0.67054
1054.48282,0.77464
1052.99303,0.82860
1051.50324,0.81601
1050.01345,0.78451
1048.52367,0.81826
1047.03388,0.80687
1045.54409,0.79552
1044.05430,0.74633
1042.56451,0.69193
1041.07472,0.65511
1039.58494,0.61444
1038.09515,0.55623
1036.60536,0.53191
1035.11557,0.50761
1033.62578,0.43078
1032.13599,0.38156
1030.64620,0.32917
1029.15642,0.28707
1027.66663,0.27213
1026.17684,0.25721
1024.68705,0.24460
1023.19726,0.20784
1021.70747,0.16107
1020.21769,0.15377
1018.72790,0.14490
1017.23811,0.14028
1015.74832,0.13568
1014.25853,0.12733
1012.76874,0.09941
1011.27896,0.11209
1009.78917,0.11158
1008.29938,0.08145
1006.80959,0.06536
1005.31980,0.04930
1003.83001,0.02402
1002.34022,0.02477
1000.85044,0.02828
999.36065,0.02975
997.87086,0.03844
996.38107,0.04715
994.89128,0.04893
993.40149,0.05141
991.91171,0.05643
990.42192,0.07812
988.93213,0.10576
987.44234,0.11541
985.95255,0.12509
984.46276,0.11290
982.97297,0.10803
981.48319,0.07628
979.99340,0.05185
978.50361,0.05105
977.01382,0.05027
975.52403,0.03913
974.03424,0.03031
972.54446,0.01512
971.05467,0.02891
969.56488,0.00328
968.07509,0.01107
966.58530,0.01887
965.09551,0.01508
963.60573,0.02612
962.11594,0.00345
960.62615,0.00520
959.13636,0.01381
957.64657,0.02244
956.15678,0.03612
954.66699,0.01379
953.17721,0.02866
951.68742,0.02850
950.19763,0.03315
948.70784,0.03783
947.21805,0.06989
945.72826,0.08488
944.23848,0.09487
942.74869,0.10033
941.25890,0.13591
939.76911,0.13822
938.27932,0.14056
936.78953,0.17462
935.29974,0.18042
933.80996,0.18306
932.32017,0.21765
930.83038,0.21258
929.34059,0.20754
927.85080,0.22783
926.36101,0.25317
924.87123,0.28742
923.38144,0.34746
921.89165,0.39281
920.40186,0.43819
918.91207,0.52521
917.42228,0.66538
915.93250,0.79531
914.44271,1.00850
912.95292,1.14748
911.46313,1.28650
909.97334,1.50294
908.48355,1.70094
906.99376,1.88734
905.50398,1.98575
904.01419,1.99286
902.52440,2.00000
901.03461,1.99701
899.54482,1.99565
898.05503,1.85134
896.56525,1.63797
895.07546,1.51971
893.58567,1.40147
892.09588,1.09788
890.60609,0.85223
889.11630,0.65152
887.62651,0.47842
886.13673,0.41423
884.64694,0.35006
883.15715,0.25274
881.66736,0.17870
880.17757,0.12406
878.68778,0.11027
877.19800,0.09650
875.70821,0.06314
874.21842,0.05740
872.72863,0.02090
871.23884,0.02729
869.74905,0.01991
868.25927,0.01255
866.76948,0.00328
865.27969,0.02675
863.78990,0.03702
862.30011,0.05210
860.81032,0.04406
859.32053,0.03605
857.83075,0.06671
856.34096,0.08029
854.85117,0.08409
853.36138,0.09384
851.87159,0.10214
850.38180,0.11046
848.89202,0.12895
847.40223,0.13675
845.91244,0.14457
844.42265,0.15584
842.93286,0.16713
841.44307,0.17822
839.95329,0.20187
838.46350,0.20708
836.97371,0.20569
835.48392,0.20867
833.99413,0.21167
832.50434,0.22723
831.01455,0.19722
829.52477,0.20280
828.03498,0.14411
826.54519,0.14289
825.05540,0.14171
823.56561,0.12800
822.07582,0.08445
820.58604,0.07786
819.09625,0.07757
817.60646,0.07730
816.11667,0.08037
814.62688,0.08961
813.13709,0.07904
811.64730,0.09608
810.15752,0.09536
808.66773,0.09467
807.17794,0.11042
805.68815,0.08515
804.19836,0.09410
802.70857,0.09499
801.21879,0.09590
799.72900,0.08737
798.23921,0.07955
796.74942,0.08338
795.25963,0.07914
793.76984,0.07493
792.28006,0.08339
790.79027,0.10374
789.30048,0.12867
787.81069,0.16411
786.32090,0.16732
784.83111,0.17055
783.34132,0.19740
781.85154,0.23180
780.36175,0.27397
778.87196,0.29315
777.38217,0.31234
775.89238,0.32905
774.40259,0.32458
772.91281,0.33268
771.42302,0.32769
769.93323,0.32272
768.44344,0.29737
766.95365,0.24993
765.46386,0.19658
763.97407,0.16059
762.48429,0.14833
760.99450,0.13610
759.50471,0.12640
758.01492,0.10282
756.52513,0.08655
755.03534,0.08570
753.54556,0.08488
752.05577,0.07895
750.56598,0.04317
749.07619,0.04504
747.58640,0.03554
746.09661,0.02605
744.60683,0.03005
743.11704,0.00557
741.62725,0.00779
740.13746,0.00923
738.64767,0.01070
737.15788,0.00570
735.66809,0.00778
734.17831,0.00328
732.68852,0.00832
731.19873,0.01338
729.70894,0.00319
728.21915,0.00328
726.72936,0.00302
725.23958,0.00938
723.74979,0.01109
722.26000,0.01283
720.77021,0.00764
719.28042,0.00703
717.79063,0.00052
716.30084,0.00816
714.81106,0.01582
713.32127,0.00811
711.83148,0.02323
710.34169,0.02424
708.85190,0.02288
707.36211,0.02154
705.87233,0.01487
704.38254,0.03969
702.89275,0.04971
701.40296,0.04641
699.91317,0.04314
698.42338,0.05119
696.93360,0.07157
695.44381,0.09721
693.95402,0.10293
692.46423,0.10868
690.97444,0.13052
689.48465,0.15193
687.99486,0.17382
686.50508,0.18457
685.01529,0.19534
683.52550,0.24899
682.03571,0.24841
680.54592,0.25583
679.05613,0.26020
677.56635,0.26459
676.07656,0.25908
674.58677,0.25041
673.09698,0.22968
671.60719,0.22082
670.11740,0.21200
668.62761,0.17880
667.13783,0.18073
665.64804,0.16548
664.15825,0.15025
662.66846,0.10620
661.17867,0.07358
659.68888,0.07176
658.19910,0.06620
656.70931,0.06067
655.21952,0.03818
653.72973,0.04444
652.23994,0.05004
650.75015,0.04392
649.26037,0.03782
647.77058,0.05011
646.28079,0.03095
644.79100,0.02208
643.30121,0.02497
641.81142,0.02789
640.32163,0.03938
638.83185,0.04269
637.34206,0.01844
635.85227,0.01085
634.36248,0.00328
632.87269,0.01722
631.38290,0.00928
629.89312,0.01802
628.40333,0.01857
626.91354,0.01914
625.42375,0.01313
623.93396,0.02470
622.44417,0.03196
620.95438,0.03925
619.46460,0.04177
617.97481,0.04477
616.48502,0.05235
614.99523,0.06030
613.50544,0.06828
612.01565,0.12428
610.52587,0.13173
609.03608,0.17113
607.54629,0.19721
606.05650,0.22332
604.56671,0.25299
603.07692,0.32806
601.58714,0.34603
600.09735,0.36403
598.60756,0.41774
597.11777,0.42518
595.62798,0.42740
594.13819,0.41780
592.64840,0.40821
591.15862,0.37585
589.66883,0.29928
588.17904,0.23527
586.68925,0.21951
585.19946,0.20378
583.70967,0.16971
582.21989,0.12153
580.73010,0.08980
579.24031,0.05808
577.75052,0.05193
576.26073,0.02597
574.77094,0.03628
573.28115,0.03670
571.79137,0.03715
570.30158,0.04115
568.81179,0.07413
567.32200,0.07192
565.83221,0.06972
564.34242,0.06493
562.85264,0.08068
561.36285,0.10010
559.87306,0.11397
558.38327,0.12785
556.89348,0.12364
555.40369,0.13997
553.91391,0.13717
552.42412,0.13439
550.93433,0.15239
549.44454,0.14693
547.95475,0.17159
546.46496,0.16059
544.97517,0.14961
543.48539,0.17229
541.99560,0.22577
540.50581,0.24759
539.01602,0.26943
537.52623,0.29426
536.03644,0.32572
534.54666,0.36200
533.05687,0.38542
531.56708,0.40886
530.07729,0.46094
528.58750,0.54018
527.09771,0.56153
525.60792,0.58291
524.11814,0.67932
522.62835,0.73677
521.13856,0.78193
519.64877,0.78881
518.15898,0.79571
516.66919,0.81837
515.17941,0.81711
513.68962,0.81439
512.19983,0.81170
510.71004,0.78361
509.22025,0.71678
507.73046,0.70675
506.24068,0.63016
504.75089,0.55360
503.26110,0.43602
501.77131,0.35609
500.28152,0.31768
498.79173,0.27929
497.30194,0.21630
495.81216,0.15949
494.32237,0.13646
492.83258,0.11344
491.34279,0.08772
489.85300,0.09781
488.36321,0.07123
486.87343,0.06119
485.38364,0.05118
483.89385,0.05066
482.40406,0.09120
480.91427,0.08799
479.42448,0.08481
477.93469,0.09875
476.44491,0.12183
474.95512,0.13183
473.46533,0.14185
471.97554,0.15794
470.48575,0.14372
468.99596,0.14983
467.50618,0.14341
466.01639,0.13703
464.52660,0.10216
463.03681,0.08351
461.54702,0.06898
460.05723,0.05448
458.56745,0.02815
457.07766,0.01256
455.58787,0.01227
454.09808,0.01200
452.60829,0.03228
451.11850,0.00903
449.62871,0.01009
448.13893,0.01117
446.64914,0.03360
445.15935,0.01957
443.66956,0.00328
442.17977,0.00352
440.68998,0.00378
439.20020,0.01717
437.71041,0.02967
436.22062,0.03308
434.73083,0.03652
433.24104,0.02447
431.75125,0.02499
430.26146,0.01561
428.77168,0.00626
427.28189,0.03580
425.79210,0.03984
424.30231,0.03124
422.81252,0.02267
421.32273,0.04410
419.83295,0.03387
418.34316,0.02640
416.85337,0.01895
415.36358,0.02201
413.87379,0.01050
412.38400,0.01669
410.89422,0.02291
409.40443,0.01512
407.91464,0.01512
406.42485,0.02653
404.93506,0.02065
403.44527,0.01478
401.95548,0.01213
400.46570,0.02274
398.97591,0.03872
397.48612,0.05473
395.99633,0.04329
394.50654,0.02594
393.01675,0.02652
391.52697,0.02712
390.03718,0.01782
388.54739,0.02097
387.05760,0.01514
385.56781,0.00934
384.07802,0.00892
382.58824,0.03451
381.09845,0.03448
379.60866,0.03447
378.11887,0.03688
376.62908,0.00534
375.13929,0.01635
373.64950,0.02739
372.15972,0.03468
370.66993,0.03060
369.18014,0.02191
367.69035,0.01325
366.20056,0.00917
364.71077,0.00328
363.22099,0.01095
361.73120,0.01864
360.24141,0.02692
358.75162,0.04184
357.26183,0.04515
355.77204,0.04849
354.28225,0.05436
352.79247,0.06870
351.30268,0.06128
349.81289,0.05388
348.32310,0.02907
346.83331,0.03571
345.34352,0.04773
343.85374,0.05977
342.36395,0.05531
340.87416,0.02260
339.38437,0.02377
337.89458,0.02497
336.40479,0.00852
334.91501,0.00509
333.42522,0.00417
331.93543,0.00328
330.44564,0.00310
328.95585,0.00157
327.46606,0.01414
325.97627,0.02674
324.48649,0.04529
322.99670,0.04973
321.50691,0.03310
320.01712,0.01650
318.52733,0.04997
317.03754,0.03170
315.54776,0.02588
314.05797,0.02009
312.56818,0.04545
311.07839,0.06878
309.58860,0.05257
308.09881,0.03639
306.60902,0.04246
305.11924,0.03829
303.62945,0.03438
302.13966,0.03049
300.64987,0.00406
299.16008,0.00328
