1778.52000,0.02503
1777.03021,0.07860
1775.54042,0.00000
1774.05063,0.07769
1772.56085,0.06828
1771.07106,0.18211
1769.58127,0.17279
1768.09148,0.10642
1766.60169,0.09417
1765.11190,0.07595
1763.62212,0.00670
1762.13233,0.08472
1760.64254,0.12973
1759.15275,0.24389
1757.66296,0.17480
1756.17317,0.10876
1754.68339,0.00670
1753.19360,0.08170
1751.70381,0.09664
1750.21402,0.07857
1748.72423,0.11764
1747.23444,0.05158
1745.74465,0.10875
1744.25487,0.08784
1742.76508,0.12106
1741.27529,0.07019
1739.78550,0.12753
1738.29571,0.08275
1736.80592,0.08909
1735.31614,0.08646
1733.82635,0.14697
1732.33656,0.08733
1730.84677,0.00670
1729.35698,0.07898
1727.86719,0.14228
1726.37740,0.12149
1724.88762,0.08572
1723.39783,0.05900
1721.90804,0.04434
1720.41825,0.08682
1718.92846,0.06023
1717.43867,0.17490
1715.94889,0.08829
1714.45910,0.15797
1712.96931,0.11652
1711.47952,0.11117
1709.98973,0.00670
1708.49994,0.18427
1707.01016,0.15755
1705.52037,0.13087
1704.03058,0.23946
1702.54079,0.06262
1701.05100,0.24641
1699.56121,0.16881
1698.07142,0.09427
1696.58164,0.15798
1695.09185,0.20672
1693.60206,0.20741
1692.11227,0.16909
1690.62248,0.18490
1689.13269,0.18872
1687.64291,0.14451
1686.15312,0.24157
1684.66333,0.20946
1683.17354,0.15937
1681.68375,0.21448
1680.19396,0.16747
1678.70417,0.28276
1677.21439,0.23884
1675.72460,0.24605
1674.23481,0.17517
1672.74502,0.23353
1671.25523,0.16874
1669.76544,0.15207
1668.27566,0.23460
1666.78587,0.17294
1665.29608,0.07827
1663.80629,0.17895
1662.31650,0.22258
1660.82671,0.11301
1659.33693,0.15973
1657.84714,0.20048
1656.35735,0.10606
1654.86756,0.09581
1653.37777,0.08560
1651.88798,0.17760
1650.39819,0.11339
1648.90841,0.05523
1647.41862,0.03617
1645.92883,0.05772
1644.43904,0.07931
1642.94925,0.09643
1641.45946,0.07754
1639.96968,0.06170
1638.47989,0.14205
1636.99010,0.12027
1635.50031,0.07150
1634.01052,0.03479
1632.52073,0.19943
1631.03094,0.10872
1629.54116,0.17129
1628.05137,0.19183
1626.56158,0.05917
1625.07179,0.05876
1623.58200,0.10647
1622.09221,0.06408
1620.60243,0.00670
1619.11264,0.03681
1617.62285,0.04594
1616.13306,0.06712
1614.64327,0.16947
1613.15348,0.21778
1611.66370,0.16396
1610.17391,0.12822
1608.68412,0.12557
1607.19433,0.18606
1605.70454,0.15345
1604.21475,0.12238
1602.72496,0.09134
1601.23518,0.18205
1599.74539,0.22171
1598.25560,0.01803
1596.76581,0.00670
1595.27602,0.15413
1593.78623,0.07325
1592.29645,0.06452
1590.80666,0.16700
1589.31687,0.04718
1587.82708,0.05660
1586.33729,0.10813
1584.84750,0.17172
1583.35771,0.11215
1581.86793,0.04662
1580.37814,0.08029
1578.88835,0.15906
1577.39856,0.01253
1575.90877,0.05533
1574.41898,0.03508
1572.92920,0.06594
1571.43941,0.09084
1569.94962,0.09625
1568.45983,0.10170
1566.97004,0.07564
1565.48025,0.07066
1563.99047,0.07173
1562.50068,0.05781
1561.01089,0.00788
1559.52110,0.05114
1558.03131,0.07641
1556.54152,0.09872
1555.05173,0.12107
1553.56195,0.12242
1552.07216,0.05170
1550.58237,0.06516
1549.09258,0.07566
1547.60279,0.10422
1546.11300,0.10278
1544.62322,0.12542
1543.13343,0.13307
1541.64364,0.14678
1540.15385,0.12447
1538.66406,0.10220
1537.17427,0.06795
1535.68448,0.00670
1534.19470,0.02734
1532.70491,0.06906
1531.21512,0.03269
1529.72533,0.11656
1528.23554,0.06825
1526.74575,0.06206
1525.25597,0.07994
1523.76618,0.10388
1522.27639,0.11584
1520.78660,0.05271
1519.29681,0.14889
1517.80702,0.10087
1516.31724,0.10699
1514.82745,0.10413
1513.33766,0.06224
1511.84787,0.02040
1510.35808,0.06875
1508.86829,0.09009
1507.37850,0.09345
1505.88872,0.00670
1504.39893,0.22593
1502.90914,0.10567
1501.41935,0.09662
1499.92956,0.03353
1498.43977,0.05762
1496.94999,0.05170
1495.46020,0.09691
1493.97041,0.20826
1492.48062,0.25955
1490.99083,0.19972
1489.50104,0.30819
1488.01125,0.30101
1486.52147,0.29388
1485.03168,0.48060
1483.54189,0.49008
1482.05210,0.45152
1480.56231,0.64136
1479.07252,0.65397
1477.58274,0.80484
1476.09295,0.88664
1474.60316,0.84528
1473.11337,1.02031
1471.62358,1.04214
1470.13379,1.00090
1468.64401,0.95370
1467.15422,0.86748
1465.66443,0.81736
1464.17464,0.76728
1462.68485,0.69620
1461.19506,0.67926
1459.70527,0.77052
1458.21549,0.63948
1456.72570,0.50246
1455.23591,0.38653
1453.74612,0.35476
1452.25633,0.27496
1450.76654,0.22826
1449.27676,0.20563
1447.78697,0.20408
1446.29718,0.32276
1444.80739,0.26570
1443.31760,0.20869
1441.82781,0.18927
1440.33802,0.11882
1438.84824,0.24371
1437.35845,0.07118
1435.86866,0.08499
1434.37887,0.14690
1432.88908,0.15779
1431.39929,0.12364
1429.90951,0.20972
1428.41972,0.10654
1426.92993,0.11158
1425.44014,0.16774
1423.95035,0.12929
1422.46056,0.09088
1420.97078,0.21026
1419.48099,0.16743
1417.99120,0.23881
1416.50141,0.24414
1415.01162,0.15636
1413.52183,0.22787
1412.03204,0.27839
1410.54226,0.26886
1409.05247,0.25636
1407.56268,0.33104
1406.07289,0.48089
1404.58310,0.44297
1403.09331,0.40510
1401.60353,0.55507
1400.11374,0.49174
1398.62395,0.38338
1397.13416,0.55450
1395.64437,0.66857
1394.15458,0.67452
1392.66479,0.65647
1391.17501,0.64747
1389.68522,0.65053
1388.19543,0.67167
1386.70564,0.61622
1385.21585,0.56081
1383.72606,0.72029
1382.23628,0.70252
1380.74649,0.70283
1379.25670,0.72722
1377.76691,0.69455
1376.27712,0.69198
1374.78733,0.75255
1373.29755,0.83419
1371.80776,0.80169
1370.31797,1.04267
1368.82818,1.07936
1367.33839,1.11609
1365.84860,1.06874
1364.35881,1.29786
1362.86903,1.30167
1361.37924,1.47378
1359.88945,1.48067
1358.39966,1.31934
1356.90987,1.21815
1355.42008,1.28826
1353.93030,1.46659
1352.44051,1.40909
1350.95072,1.35163
1349.46093,1.11543
1347.97114,0.96640
1346.48135,1.01874
1344.99156,0.81271
1343.50178,0.78700
1342.01199,0.67420
1340.52220,0.69365
1339.03241,0.67408
1337.54262,0.66356
1336.05283,0.65910
1334.56305,0.65467
1333.07326,0.59020
1331.58347,0.60388
1330.09368,0.46437
1328.60389,0.56227
1327.11410,0.38077
1325.62432,0.37359
1324.13453,0.33640
1322.64474,0.33531
1321.15495,0.10290
1319.66516,0.15147
1318.17537,0.20008
1316.68558,0.21719
1315.19580,0.28542
1313.70601,0.10129
1312.21622,0.08245
1310.72643,0.19588
1309.23664,0.06896
1307.74685,0.11937
1306.25707,0.10070
1304.76728,0.13166
1303.27749,0.16266
1301.78770,0.18017
1300.29791,0.14665
1298.80812,0.29646
1297.31834,0.27504
1295.82855,0.23864
1294.33876,0.23833
1292.84897,0.20502
1291.35918,0.28893
1289.86939,0.32030
1288.37960,0.35171
1286.88982,0.27950
1285.40003,0.29446
1283.91024,0.48074
1282.42045,0.33955
1280.93066,0.25848
1279.44087,0.42986
1277.95109,0.29780
1276.46130,0.52035
1274.97151,0.48001
1273.48172,0.43972
1271.99193,0.51215
1270.50214,0.57861
1269.01235,0.41976
1267.52257,0.50733
1266.03278,0.45974
1264.54299,0.38814
1263.05320,0.37969
1261.56341,0.44039
1260.07362,0.50113
1258.58384,0.42970
1257.09405,0.31625
1255.60426,0.32903
1254.11447,0.33285
1252.62468,0.35774
1251.13489,0.27450
1249.64511,0.32351
1248.15532,0.22833
1246.66553,0.28493
1245.17574,0.34158
1243.68595,0.31864
1242.19616,0.38588
1240.70637,0.35401
1239.21659,0.25908
1237.72680,0.23931
1236.23701,0.32175
1234.74722,0.23295
1233.25743,0.21481
1231.76764,0.19671
1230.27786,0.32738
1228.78807,0.23274
1227.29828,0.14415
1225.80849,0.16077
1224.31870,0.05423
1222.82891,0.18812
1221.33912,0.14176
1219.84934,0.14652
1218.35955,0.15133
1216.86976,0.15918
1215.37997,0.22416
1213.89018,0.15397
1212.40039,0.16795
1210.91061,0.23607
1209.42082,0.09989
1207.93103,0.09147
1206.44124,0.08308
1204.95145,0.14835
1203.46166,0.05441
1201.97188,0.05366
1200.48209,0.01089
1198.99230,0.01022
1197.50251,0.00659
1196.01272,0.05408
1194.52293,0.08509
1193.03314,0.11613
1191.54336,0.06459
1190.05357,0.10023
1188.56378,0.00670
1187.07399,0.02244
1185.58420,0.15841
1184.09441,0.01197
1182.60463,0.09845
1181.11484,0.18496
1179.62505,0.03264
1178.13526,0.14779
1176.64547,0.00757
1175.15568,0.20521
1173.66589,0.26168
1172.17611,0.23405
1170.68632,0.25754
1169.19653,0.28108
1167.70674,0.30165
1166.21695,0.30423
1164.72716,0.34291
1163.23738,0.40868
1161.74759,0.40839
1160.25780,0.57940
1158.76801,0.57017
1157.27822,0.56099
1155.78843,0.65100
1154.29865,0.51870
1152.80886,0.61179
1151.31907,0.79508
1149.82928,0.93033
1148.33949,0.90035
1146.84970,0.90347
1145.35991,0.90664
1143.87013,0.85275
1142.38034,0.81693
1140.89055,0.73308
1139.40076,0.86561
1137.91097,1.03725
1136.42118,1.05267
1134.93140,1.11322
1133.44161,1.17380
1131.95182,1.24945
1130.46203,1.15987
1128.97224,1.23561
1127.48245,1.36546
1125.99266,1.25798
1124.50288,1.25572
1123.01309,1.30907
1121.52330,1.36248
1120.03351,1.41442
1118.54372,1.22301
1117.05393,1.29907
1115.56415,1.12578
1114.07436,1.19892
1112.58457,1.04373
1111.09478,0.88859
1109.60499,1.09106
1108.11520,1.14333
1106.62542,1.05742
1105.13563,1.11879
1103.64584,1.02996
1102.15605,1.14549
1100.66626,1.09430
1099.17647,1.04316
1097.68668,1.15581
1096.19690,1.19038
1094.70711,1.08377
1093.21732,1.25064
1091.72753,1.24327
1090.23774,1.22842
1088.74795,1.21362
1087.25817,1.35061
1085.76838,1.40951
1084.27859,1.47145
1082.78880,1.39522
1081.29901,1.46325
1079.80922,1.48927
1078.31943,1.42067
1076.82965,1.35211
1075.33986,1.55252
1073.85007,1.58170
1072.36028,1.61393
1070.87049,1.64019
1069.38070,1.43512
1067.89092,1.47949
1066.40113,1.52391
1064.91134,1.46920
1063.42155,1.46261
1061.93176,1.36592
1060.44197,1.39247
1058.95219,1.23277
1057.46240,1.16024
1055.97261,1.08775
1054.48282,1.09644
1052.99303,1.12920
1051.50324,1.07487
1050.01345,1.14077
1048.52367,0.95431
1047.03388,0.93616
1045.54409,0.91804
1044.05430,0.62654
1042.56451,0.71368
1041.07472,0.71072
1039.58494,0.37126
1038.09515,0.38340
1036.60536,0.42113
1035.11557,0.45890
1033.62578,0.57633
1032.13599,0.40234
1030.64620,0.43572
1029.15642,0.54427
1027.66663,0.53116
1026.17684,0.51809
1024.68705,0.62075
1023.19726,0.68739
1021.70747,0.64891
1020.21769,0.84784
1018.72790,0.88757
1017.23811,1.13015
1015.74832,1.37278
1014.25853,1.45169
1012.76874,1.67186
1011.27896,1.74484
1009.78917,1.61354
1008.29938,1.64454
1006.80959,1.63051
1005.31980,1.61652
1003.83001,1.68670
1002.34022,1.75692
1000.85044,1.63789
999.36065,1.71120
997.87086,1.76202
996.38107,1.81288
994.89128,1.66095
993.40149,1.57818
991.91171,1.58259
990.42192,1.60808
988.93213,1.68168
987.44234,1.65766
985.95255,1.63369
984.46276,1.56920
982.97297,1.51977
981.48319,1.52446
979.99340,1.20469
978.50361,1.15238
977.01382,1.10011
975.52403,1.05088
974.03424,1.06781
972.54446,1.03369
971.05467,0.88844
969.56488,0.88145
968.07509,0.82792
966.58530,0.77444
965.09551,0.79461
963.60573,0.68562
962.11594,0.81405
960.62615,0.63904
959.13636,0.57826
957.64657,0.51751
956.15678,0.51089
954.66699,0.56140
953.17721,0.47974
951.68742,0.48827
950.19763,0.52989
948.70784,0.57155
947.21805,0.47804
945.72826,0.49575
944.23848,0.47444
942.74869,0.57336
941.25890,0.53710
939.76911,0.59403
938.27932,0.65101
936.78953,0.73808
935.29974,0.89129
933.80996,0.88529
932.32017,0.91238
930.83038,1.03116
929.34059,1.14998
927.85080,1.10508
926.36101,1.15938
924.87123,1.20170
923.38144,1.28914
921.89165,1.36460
920.40186,1.44010
918.91207,1.25723
917.42228,1.37488
915.93250,1.30327
914.44271,1.22869
912.95292,1.14064
911.46313,1.05263
909.97334,1.11639
908.48355,1.10809
906.99376,0.87447
905.50398,0.82118
904.01419,0.83703
902.52440,0.85293
901.03461,0.87188
899.54482,0.70156
898.05503,0.73862
896.56525,0.89892
895.07546,0.90150
893.58567,0.90413
892.09588,0.95938
890.60609,1.04171
889.11630,0.87469
887.62651,1.09833
886.13673,1.05008
884.64694,1.00187
883.15715,1.21662
881.66736,1.22409
880.17757,1.24962
878.68778,1.36534
877.19800,1.48110
875.70821,1.35351
874.21842,1.40925
872.72863,1.57622
871.23884,1.79430
869.74905,1.74951
868.25927,1.70476
866.76948,1.95603
865.27969,2.00000
863.78990,1.80063
862.30011,1.85070
860.81032,1.77009
859.32053,1.68954
857.83075,1.78780
856.34096,1.84705
854.85117,1.75910
853.36138,1.74932
851.87159,1.71855
850.38180,1.68781
848.89202,1.58801
847.40223,1.33801
845.91244,1.33745
844.42265,1.30839
842.93286,1.27936
841.44307,1.08362
839.95329,0.87289
838.46350,0.70126
836.97371,0.67090
835.48392,0.54443
833.99413,0.41800
832.50434,0.55302
831.01455,0.27042
829.52477,0.43257
828.03498,0.43852
826.54519,0.40695
825.05540,0.37541
823.56561,0.34843
822.07582,0.26740
820.58604,0.18340
819.09625,0.25720
817.60646,0.33104
816.11667,0.32830
814.62688,0.22945
813.13709,0.19675
811.64730,0.20615
810.15752,0.14198
808.66773,0.07784
807.17794,0.14446
805.68815,0.19009
804.19836,0.19369
802.70857,0.15827
801.21879,0.12288
799.72900,0.11158
798.23921,0.19948
796.74942,0.19427
795.25963,0.10047
793.76984,0.00670
792.28006,0.12658
790.79027,0.21946
789.30048,0.13210
787.81069,0.19801
786.32090,0.13477
784.83111,0.07157
783.34132,0.09254
781.85154,0.09552
780.36175,0.16465
778.87196,0.13617
777.38217,0.10773
775.89238,0.09886
774.40259,0.02392
772.91281,0.01514
771.42302,0.01090
769.93323,0.00670
768.44344,0.09055
766.95365,0.03623
765.46386,0.11415
763.97407,0.00582
762.48429,0.06898
760.99450,0.13217
759.50471,0.03014
758.01492,0.18656
756.52513,0.16875
755.03534,0.15548
753.54556,0.14226
752.05577,0.19368
750.56598,0.09190
749.07619,0.03523
747.58640,0.05373
746.09661,0.07226
744.60683,0.00670
743.11704,0.03964
741.62725,0.22285
740.13746,0.18676
738.64767,0.15071
737.15788,0.06362
735.66809,0.13883
734.17831,0.16000
732.68852,0.16919
731.19873,0.17842
729.70894,0.05247
728.21915,0.08282
726.72936,0.07714
725.23958,0.18269
723.74979,0.12151
722.26000,0.06038
720.77021,0.15403
719.28042,0.25073
717.79063,0.25131
716.30084,0.23541
714.81106,0.21956
713.32127,0.34046
711.83148,0.36524
710.34169,0.21880
708.85190,0.22865
707.36211,0.23854
705.87233,0.21241
704.38254,0.30652
702.89275,0.25644
701.40296,0.19738
699.91317,0.13837
698.42338,0.30775
696.93360,0.22178
695.44381,0.31313
693.95402,0.31437
692.46423,0.31566
690.97444,0.21783
689.48465,0.20418
687.99486,0.33480
686.50508,0.31822
685.01529,0.30169
683.52550,0.38435
682.03571,0.37090
680.54592,0.31243
679.05613,0.30056
677.56635,0.28874
676.07656,0.31753
674.58677,0.17207
673.09698,0.18892
671.60719,0.26741
670.11740,0.34594
668.62761,0.23370
667.13783,0.08545
665.64804,0.07246
664.15825,0.05951
662.66846,0.02557
661.17867,0.04575
659.68888,0.01189
658.19910,0.06070
656.70931,0.10955
655.21952,0.00670
653.72973,0.10075
652.23994,0.13174
650.75015,0.11170
649.26037,0.09169
647.77058,0.17989
646.28079,0.00973
644.79100,0.17915
643.30121,0.15630
641.81142,0.13350
640.32163,0.06867
638.83185,0.03693
637.34206,0.03528
635.85227,0.04870
634.36248,0.06215
632.87269,0.05763
631.38290,0.04713
629.89312,0.12381
628.40333,0.13593
626.91354,0.14809
625.42375,0.18884
623.93396,0.22663
622.44417,0.20586
620.95438,0.18514
619.46460,0.00670
617.97481,0.20427
616.48502,0.04131
614.99523,0.04515
613.50544,0.04904
612.01565,0.12058
610.52587,0.08999
609.03608,0.28180
607.54629,0.27984
606.05650,0.27792
604.56671,0.24750
603.07692,0.17505
601.58714,0.21833
600.09735,0.26165
598.60756,0.21036
597.11777,0.08700
595.62798,0.18303
594.13819,0.19797
592.64840,0.21295
591.15862,0.09576
589.66883,0.11383
588.17904,0.30321
586.68925,0.28831
585.19946,0.27345
583.70967,0.27966
582.21989,0.40611
580.73010,0.29071
579.24031,0.17536
577.75052,0.39207
576.26073,0.54272
574.77094,0.60627
573.28115,0.57522
571.79137,0.54420
570.30158,0.57482
568.81179,0.64756
567.32200,0.71582
565.83221,0.78413
564.34242,0.82694
562.85264,0.92988
561.36285,1.08695
559.87306,1.11937
558.38327,1.15183
556.89348,1.19784
555.40369,1.47828
553.91391,1.48982
552.42412,1.50141
550.93433,1.52957
549.44454,1.69899
547.95475,1.77230
546.46496,1.77654
544.97517,1.78082
543.48539,1.82120
541.99560,1.69937
540.50581,1.68725
539.01602,1.67517
537.52623,1.56548
536.03644,1.70823
534.54666,1.54153
533.05687,1.60173
531.56708,1.66197
530.07729,1.72375
528.58750,1.57825
527.09771,1.49740
525.60792,1.41658
524.11814,1.34632
522.62835,1.13788
521.13856,1.04066
519.64877,1.09973
518.15898,1.15884
516.66919,0.97762
515.17941,1.14799
513.68962,1.22525
512.19983,1.30255
510.71004,1.26271
509.22025,0.98854
507.73046,0.88569
506.24068,0.96466
504.75089,1.04367
503.26110,1.04310
501.77131,0.98548
500.28152,0.89485
498.79173,0.80426
497.30194,0.74976
495.81216,0.66226
494.32237,0.67546
492.83258,0.68870
491.34279,0.60132
489.85300,0.45389
488.36321,0.67007
486.87343,0.58732
485.38364,0.50462
483.89385,0.45049
482.40406,0.28524
480.91427,0.25073
479.42448,0.21627
477.93469,0.12926
476.44491,0.20154
474.95512,0.10410
473.46533,0.00670
471.97554,0.07027
470.48575,0.12788
468.99596,0.03529
467.50618,0.07795
466.01639,0.12066
464.52660,0.25355
463.03681,0.30235
461.54702,0.26254
460.05723,0.22278
458.56745,0.50908
457.07766,0.54903
455.58787,0.64611
454.09808,0.74323
452.60829,0.81636
451.11850,0.98267
449.62871,1.11597
448.13893,1.24931
446.64914,1.25650
445.15935,1.34485
443.66956,1.40921
442.17977,1.36544
440.68998,1.32171
439.20020,1.26299
437.71041,1.19531
436.22062,1.15020
434.73083,1.10513
433.24104,1.07963
431.75125,1.19841
430.26146,1.24060
428.77168,1.28283
427.28189,1.39272
425.79210,1.38546
424.30231,1.42481
422.81252,1.46421
421.32273,1.67942
419.83295,1.80453
418.34316,1.78696
416.85337,1.76943
415.36358,1.66631
413.87379,1.66839
412.38400,1.63296
410.89422,1.59756
409.40443,1.47056
407.91464,1.32558
406.42485,1.27378
404.93506,1.05977
403.44527,0.84580
401.95548,0.87525
400.46570,0.75752
398.97591,0.81560
397.48612,0.87373
395.99633,0.96044
394.50654,0.74071
393.01675,0.75388
391.52697,0.76710
390.03718,0.79388
388.54739,0.70653
387.05760,0.72137
385.56781,0.73626
384.07802,0.72414
382.58824,0.54681
381.09845,0.58886
379.60866,0.63095
378.11887,0.42670
376.62908,0.58907
375.13929,0.53964
373.64950,0.49025
372.15972,0.50852
370.66993,0.44870
369.18014,0.40845
367.69035,0.36824
366.20056,0.38066
364.71077,0.48026
363.22099,0.34402
361.73120,0.20783
360.24141,0.20839
358.75162,0.34722
357.26183,0.28777
355.77204,0.22836
354.28225,0.24712
352.79247,0.26592
351.30268,0.25321
349.81289,0.24054
348.32310,0.13927
346.83331,0.25740
345.34352,0.23133
343.85374,0.20531
342.36395,0.23641
340.87416,0.15939
339.38437,0.15903
337.89458,0.15871
336.40479,0.17496
334.91501,0.03200
333.42522,0.03030
331.93543,0.02864
330.44564,0.07811
328.95585,0.08555
327.46606,0.11256
325.97627,0.13962
324.48649,0.09610
322.99670,0.01356
321.50691,0.11395
320.01712,0.21437
318.52733,0.00835
317.03754,0.00670
315.54776,0.06751
314.05797,0.12836
312.56818,0.18324
311.07839,0.19309
309.58860,0.15640
308.09881,0.11976
306.60902,0.37312
305.11924,0.26896
303.62945,0.22643
302.13966,0.18394
300.64987,0.00779
299.16008,0.00670
