1778.52000,0.04049
1777.03021,-0.00000
1775.54042,0.00632
1774.05063,0.06612
1772.56085,0.03108
1771.07106,0.03082
1769.58127,0.06399
1768.09148,0.03707
1766.60169,0.00884
1765.11190,0.01807
1763.62212,0.04737
1762.13233,0.02192
1760.64254,0.00719
1759.15275,0.08203
1757.66296,0.05267
1756.17317,0.05808
1754.68339,0.07022
1753.19360,0.03294
1751.70381,0.02643
1750.21402,0.02797
1748.72423,0.03356
1747.23444,0.11668
1745.74465,0.05418
1744.25487,0.10931
1742.76508,0.02683
1741.27529,0.00719
1739.78550,0.04170
1738.29571,0.05486
1736.80592,0.06806
1735.31614,0.09866
1733.82635,0.06649
1732.33656,0.02901
1730.84677,0.01561
1729.35698,0.06238
1727.86719,0.03703
1726.37740,0.07184
1724.88762,0.03185
1723.39783,0.07074
1721.90804,0.05354
1720.41825,0.01899
1718.92846,0.01656
1717.43867,0.09968
1715.94889,0.10265
1714.45910,0.09363
1712.96931,0.03120
1711.47952,0.03695
1709.98973,0.04807
1708.49994,0.05790
1707.01016,0.05239
1705.52037,0.04691
1704.03058,0.06218
1702.54079,0.10154
1701.05100,0.09416
1699.56121,0.08815
1698.07142,0.07415
1696.58164,0.11364
1695.09185,0.13847
1693.60206,0.06711
1692.11227,0.06929
1690.62248,0.11426
1689.13269,0.10180
1687.64291,0.11210
1686.15312,0.08634
1684.66333,0.10205
1683.17354,0.17926
1681.68375,0.10683
1680.19396,0.11061
1678.70417,0.12913
1677.21439,0.16905
1675.72460,0.13819
1674.23481,0.09400
1672.74502,0.06186
1671.25523,0.11796
1669.76544,0.12732
1668.27566,0.12869
1666.78587,0.05794
1665.29608,0.10081
1663.80629,0.08625
1662.31650,0.14522
1660.82671,0.09465
1659.33693,0.12028
1657.84714,0.09783
1656.35735,0.08879
1654.86756,0.08245
1653.37777,0.02402
1651.88798,0.09659
1650.39819,0.03690
1648.90841,0.06944
1647.41862,0.05659
1645.92883,0.09321
1644.43904,0.12987
1642.94925,0.06767
1641.45946,0.06697
1639.96968,0.04226
1638.47989,0.04297
1636.99010,0.09583
1635.50031,0.06453
1634.01052,0.05599
1632.52073,0.06218
1631.03094,0.07374
1629.54116,0.12811
1628.05137,0.07693
1626.56158,0.06054
1625.07179,0.07224
1623.58200,0.05458
1622.09221,0.04764
1620.60243,0.05543
1619.11264,0.03787
1617.62285,0.04573
1616.13306,0.08302
1614.64327,0.09095
1613.15348,0.14033
1611.66370,0.12026
1610.17391,0.09889
1608.68412,0.11631
1607.19433,0.09367
1605.70454,0.07507
1604.21475,0.07388
1602.72496,0.07272
1601.23518,0.07293
1599.74539,0.06649
1598.25560,0.11354
1596.76581,0.09648
1595.27602,0.07411
1593.78623,0.11190
1592.29645,0.04951
1590.80666,0.00719
1589.31687,0.06149
1587.82708,0.04367
1586.33729,0.05394
1584.84750,0.08429
1583.35771,0.05722
1581.86793,0.04888
1580.37814,0.05929
1578.88835,0.05236
1577.39856,0.04145
1575.90877,0.04528
1574.41898,0.02775
1572.92920,0.06238
1571.43941,0.02355
1569.94962,0.05022
1568.45983,0.07693
1566.97004,0.03553
1565.48025,0.08368
1563.99047,0.07308
1562.50068,0.02643
1561.01089,0.05999
1559.52110,0.03077
1558.03131,0.04970
1556.54152,0.00719
1555.05173,0.07694
1553.56195,0.03981
1552.07216,0.04148
1550.58237,0.07124
1549.09258,0.03689
1547.60279,0.02395
1546.11300,0.07252
1544.62322,0.03025
1543.13343,0.06285
1541.64364,0.07276
1540.15385,0.04195
1538.66406,0.01118
1537.17427,0.05460
1535.68448,0.00719
1534.19470,0.02482
1532.70491,0.02511
1531.21512,0.00272
1529.72533,0.02707
1528.23554,0.02473
1526.74575,0.05850
1525.25597,0.03885
1523.76618,0.01122
1522.27639,0.01302
1520.78660,0.02688
1519.29681,0.01271
1517.80702,0.01461
1516.31724,0.00719
1514.82745,0.03570
1513.33766,0.04152
1511.84787,0.04737
1510.35808,0.01451
1508.86829,0.02177
1507.37850,0.06247
1505.88872,0.06445
1504.39893,0.07582
1502.90914,0.05381
1501.41935,0.01714
1499.92956,0.04866
1498.43977,0.09089
1496.94999,0.10644
1495.46020,0.13538
1493.97041,0.16970
1492.48062,0.19871
1490.99083,0.26383
1489.50104,0.31162
1488.01125,0.31934
1486.52147,0.32711
1485.03168,0.46185
1483.54189,0.54050
1482.05210,0.53768
1480.56231,0.68588
1479.07252,0.78602
1477.58274,0.82472
1476.09295,0.93695
1474.60316,0.95968
1473.11337,0.99847
1471.62358,0.99855
1470.13379,0.99466
1468.64401,0.97743
1467.15422,0.88808
1465.66443,0.90767
1464.17464,0.92729
1462.68485,0.76320
1461.19506,0.73278
1459.70527,0.68101
1458.21549,0.62661
1456.72570,0.56822
1455.23591,0.49384
1453.74612,0.37672
1452.25633,0.27701
1450.76654,0.22277
1449.27676,0.23004
1447.78697,0.19190
1446.29718,0.19656
1444.80739,0.19657
1443.31760,0.19662
1441.82781,0.17332
1440.33802,0.11664
1438.84824,0.16556
1437.35845,0.13701
1435.86866,0.16061
1434.37887,0.12679
1432.88908,0.09834
1431.39929,0.13407
1429.90951,0.14043
1428.41972,0.09070
1426.92993,0.19468
1425.44014,0.21184
1423.95035,0.20831
1422.46056,0.20482
1420.97078,0.21138
1419.48099,0.23001
1417.99120,0.21793
1416.50141,0.17782
1415.01162,0.19254
1413.52183,0.20328
1412.03204,0.19534
1410.54226,0.26896
1409.05247,0.28915
1407.56268,0.36952
1406.07289,0.29624
1404.58310,0.32722
1403.09331,0.35824
1401.60353,0.42137
1400.11374,0.52462
1398.62395,0.50095
1397.13416,0.54680
1395.64437,0.65282
1394.15458,0.63193
1392.66479,0.69926
1391.17501,0.65973
1389.68522,0.70040
1388.19543,0.68231
1386.70564,0.68430
1385.21585,0.68633
1383.72606,0.73248
1382.23628,0.73457
1380.74649,0.70061
1379.25670,0.72950
1377.76691,0.72100
1376.27712,0.77267
1374.78733,0.71078
1373.29755,0.81196
1371.80776,0.91317
1370.31797,0.98635
1368.82818,1.01815
1367.33839,1.04997
1365.84860,1.17671
1364.35881,1.33287
1362.86903,1.30466
1361.37924,1.46491
1359.88945,1.48354
1358.39966,1.54229
1356.90987,1.45809
1355.42008,1.38862
1353.93030,1.43812
1352.44051,1.35937
1350.95072,1.28064
1349.46093,1.12445
1347.97114,1.06451
1346.48135,0.94713
1344.99156,0.83647
1343.50178,0.83409
1342.01199,0.75290
1340.52220,0.73054
1339.03241,0.68282
1337.54262,0.60306
1336.05283,0.59884
1334.56305,0.59466
1333.07326,0.56845
1331.58347,0.52625
1330.09368,0.51481
1328.60389,0.51276
1327.11410,0.38915
1325.62432,0.36712
1324.13453,0.31573
1322.64474,0.30045
1321.15495,0.32797
1319.66516,0.26198
1318.17537,0.19602
1316.68558,0.19424
1315.19580,0.21120
1313.70601,0.17608
1312.21622,0.16371
1310.72643,0.13267
1309.23664,0.19253
1307.74685,0.15754
1306.25707,0.17470
1304.76728,0.16116
1303.27749,0.14766
1301.78770,0.14354
1300.29791,0.18222
1298.80812,0.22627
1297.31834,0.22359
1295.82855,0.22763
1294.33876,0.31455
1292.84897,0.34137
1291.35918,0.27468
1289.86939,0.30824
1288.37960,0.34185
1286.88982,0.38884
1285.40003,0.37975
1283.91024,0.32392
1282.42045,0.38839
1280.93066,0.33262
1279.44087,0.34237
1277.95109,0.43500
1276.46130,0.40473
1274.97151,0.44932
1273.48172,0.49395
1271.99193,0.46244
1270.50214,0.52183
1269.01235,0.45698
1267.52257,0.50308
1266.03278,0.51981
1264.54299,0.45640
1263.05320,0.48656
1261.56341,0.48602
1260.07362,0.48551
1258.58384,0.42490
1257.09405,0.36700
1255.60426,0.41203
1254.11447,0.39295
1252.62468,0.40197
1251.13489,0.40701
1249.64511,0.29716
1248.15532,0.32899
1246.66553,0.32812
1245.17574,0.32728
1243.68595,0.36990
1242.19616,0.35644
1240.70637,0.36572
1239.21659,0.20666
1237.72680,0.24942
1236.23701,0.28553
1234.74722,0.22011
1233.25743,0.21754
1231.76764,0.21500
1230.27786,0.20180
1228.78807,0.24208
1227.29828,0.27038
1225.80849,0.13033
1224.31870,0.17606
1222.82891,0.16704
1221.33912,0.15805
1219.84934,0.19119
1218.35955,0.22436
1216.86976,0.15133
1215.37997,0.21864
1213.89018,0.10960
1212.40039,0.11284
1210.91061,0.07869
1209.42082,0.13144
1207.93103,0.10538
1206.44124,0.07936
1204.95145,0.06138
1203.46166,0.05680
1201.97188,0.01752
1200.48209,0.06646
1198.99230,0.00719
1197.50251,0.03675
1196.01272,0.07704
1194.52293,0.04720
1193.03314,0.01740
1191.54336,0.04308
1190.05357,0.04876
1188.56378,0.01705
1187.07399,0.06422
1185.58420,0.00719
1184.09441,0.01657
1182.60463,0.04134
1181.11484,0.06615
1179.62505,0.08632
1178.13526,0.04772
1176.64547,0.09467
1175.15568,0.04144
1173.66589,0.10985
1172.17611,0.19165
1170.68632,0.18797
1169.19653,0.18431
1167.70674,0.17267
1166.21695,0.23590
1164.72716,0.25240
1163.23738,0.34776
1161.74759,0.36298
1160.25780,0.45708
1158.76801,0.47905
1157.27822,0.50106
1155.78843,0.46029
1154.29865,0.49038
1152.80886,0.51917
1151.31907,0.63351
1149.82928,0.65301
1148.33949,0.69927
1146.84970,0.69679
1145.35991,0.69434
1143.87013,0.71932
1142.38034,0.75635
1140.89055,0.77205
1139.40076,0.81182
1137.91097,0.89306
1136.42118,0.80730
1134.93140,0.90798
1133.44161,1.00869
1131.95182,1.02592
1130.46203,1.13940
1128.97224,1.17540
1127.48245,1.18204
1125.99266,1.23014
1124.50288,1.19007
1123.01309,1.22755
1121.52330,1.26506
1120.03351,1.31596
1118.54372,1.21991
1117.05393,1.18001
1115.56415,1.05061
1114.07436,0.95065
1112.58457,0.98101
1111.09478,1.01140
1109.60499,1.08392
1108.11520,1.01884
1106.62542,1.04064
1105.13563,0.94355
1103.64584,0.92534
1102.15605,1.04213
1100.66626,1.04469
1099.17647,1.04729
1097.68668,1.18823
1096.19690,1.07130
1094.70711,1.12678
1093.21732,1.12751
1091.72753,1.16034
1090.23774,1.23864
1088.74795,1.31698
1087.25817,1.33789
1085.76838,1.34012
1084.27859,1.31165
1082.78880,1.41818
1081.29901,1.45526
1079.80922,1.42956
1078.31943,1.39321
1076.82965,1.35689
1075.33986,1.48631
1073.85007,1.46342
1072.36028,1.69045
1070.87049,1.65159
1069.38070,1.59406
1067.89092,1.53522
1066.40113,1.47642
1064.91134,1.50318
1063.42155,1.45780
1061.93176,1.46859
1060.44197,1.38052
1058.95219,1.37534
1057.46240,1.30872
1055.97261,1.24214
1054.48282,1.14886
1052.99303,1.26542
1051.50324,1.05595
1050.01345,1.01756
1048.52367,1.02330
1047.03388,0.91282
1045.54409,0.80237
1044.05430,0.79618
1042.56451,0.74861
1041.07472,0.66098
1039.58494,0.59877
1038.09515,0.46043
1036.60536,0.47445
1035.11557,0.48852
1033.62578,0.49460
1032.13599,0.47264
1030.64620,0.49483
1029.15642,0.55312
1027.66663,0.54731
1026.17684,0.54152
1024.68705,0.65471
1023.19726,0.73051
1021.70747,0.87984
1020.21769,0.90359
1018.72790,1.16391
1017.23811,1.27726
1015.74832,1.39064
1014.25853,1.51609
1012.76874,1.70437
1011.27896,1.84325
1009.78917,1.87659
1008.29938,1.90729
1006.80959,1.90061
1005.31980,1.89396
1003.83001,1.89670
1002.34022,1.98500
1000.85044,1.93302
999.36065,1.95724
997.87086,1.94608
996.38107,1.93496
994.89128,1.80159
993.40149,1.78853
991.91171,1.86370
990.42192,1.83066
988.93213,1.91792
987.44234,1.87359
985.95255,1.82930
984.46276,1.79773
982.97297,1.74615
981.48319,1.69460
979.99340,1.52816
978.50361,1.49740
977.01382,1.46667
975.52403,1.25891
974.03424,1.13136
972.54446,1.08268
971.05467,1.08082
969.56488,0.95470
968.07509,0.93486
966.58530,0.91505
965.09551,0.92535
963.60573,0.87955
962.11594,0.76964
960.62615,0.75732
959.13636,0.74235
957.64657,0.72742
956.15678,0.62567
954.66699,0.67895
953.17721,0.61067
951.68742,0.58786
950.19763,0.58245
948.70784,0.57708
947.21805,0.53699
945.72826,0.52634
944.23848,0.53978
942.74869,0.60670
941.25890,0.75383
939.76911,0.76937
938.27932,0.78494
936.78953,0.80522
935.29974,0.93245
933.80996,0.99289
932.32017,1.14824
930.83038,1.13859
929.34059,1.12897
927.85080,1.25102
926.36101,1.35572
924.87123,1.33351
923.38144,1.42359
921.89165,1.38808
920.40186,1.35261
918.91207,1.43477
917.42228,1.32052
915.93250,1.21833
914.44271,1.11350
912.95292,1.08354
911.46313,1.05362
909.97334,1.12261
908.48355,1.05667
906.99376,0.93197
905.50398,0.84872
904.01419,0.83767
902.52440,0.82665
901.03461,0.83973
899.54482,0.82744
898.05503,0.79381
896.56525,0.93927
895.07546,0.93577
893.58567,0.93231
892.09588,0.94691
890.60609,0.93216
889.11630,1.01365
887.62651,1.11521
886.13673,1.18675
884.64694,1.25832
883.15715,1.23170
881.66736,1.25323
880.17757,1.38169
878.68778,1.42065
877.19800,1.45965
875.70821,1.50937
874.21842,1.74621
872.72863,1.85479
871.23884,1.74025
869.74905,1.76471
868.25927,1.78921
866.76948,1.96608
865.27969,2.00000
863.78990,1.92037
862.30011,1.86749
860.81032,1.84205
859.32053,1.81663
857.83075,1.86007
856.34096,1.93028
854.85117,1.78937
853.36138,1.80886
851.87159,1.73284
850.38180,1.65685
848.89202,1.59358
847.40223,1.42479
845.91244,1.30814
844.42265,1.21959
842.93286,1.13107
841.44307,1.02387
839.95329,0.82718
838.46350,0.70001
836.97371,0.58223
835.48392,0.52661
833.99413,0.47104
832.50434,0.50703
831.01455,0.48025
829.52477,0.46820
828.03498,0.38804
826.54519,0.38675
825.05540,0.38549
823.56561,0.38561
822.07582,0.30691
820.58604,0.28972
819.09625,0.23448
817.60646,0.17927
816.11667,0.19158
814.62688,0.21327
813.13709,0.19892
811.64730,0.13382
810.15752,0.11553
808.66773,0.09727
807.17794,0.09107
805.68815,0.08758
804.19836,0.07343
802.70857,0.05865
801.21879,0.04389
799.72900,0.04722
798.23921,0.07596
796.74942,0.04194
795.25963,0.05538
793.76984,0.06886
792.28006,0.07636
790.79027,0.06786
789.30048,0.05538
787.81069,0.06164
786.32090,0.06059
784.83111,0.05957
783.34132,0.05658
781.85154,0.06966
780.36175,0.02130
778.87196,0.02576
777.38217,0.03026
775.89238,0.09024
774.40259,0.01262
772.91281,0.00719
771.42302,0.02814
769.93323,0.04912
768.44344,0.03806
766.95365,0.04307
765.46386,0.09221
763.97407,0.03315
762.48429,0.07635
760.99450,0.11958
759.50471,0.05126
758.01492,0.07117
756.52513,0.05504
755.03534,0.02825
753.54556,0.00149
752.05577,0.02773
750.56598,0.05133
749.07619,0.05092
747.58640,0.08662
746.09661,0.12235
744.60683,0.04720
743.11704,0.08701
741.62725,0.02529
740.13746,0.05982
738.64767,0.09438
737.15788,0.06884
735.66809,0.05537
734.17831,0.09270
732.68852,0.08464
731.19873,0.07661
729.70894,0.01916
728.21915,0.00719
726.72936,0.05653
725.23958,0.08052
723.74979,0.12926
722.26000,0.17804
720.77021,0.15669
719.28042,0.20487
717.79063,0.20497
716.30084,0.19575
714.81106,0.18657
713.32127,0.22419
711.83148,0.20705
710.34169,0.19663
708.85190,0.17288
707.36211,0.14916
705.87233,0.17091
704.38254,0.17666
702.89275,0.17309
701.40296,0.19427
699.91317,0.21549
698.42338,0.17326
696.93360,0.23397
695.44381,0.25595
693.95402,0.24456
692.46423,0.23321
690.97444,0.16843
689.48465,0.27340
687.99486,0.29689
686.50508,0.30171
685.01529,0.30655
683.52550,0.33816
682.03571,0.32170
680.54592,0.31996
679.05613,0.26214
677.56635,0.20435
676.07656,0.24948
674.58677,0.23185
673.09698,0.20757
671.60719,0.18933
670.11740,0.17113
668.62761,0.12423
667.13783,0.09741
665.64804,0.06795
664.15825,0.03852
662.66846,0.07861
661.17867,0.02387
659.68888,0.02928
658.19910,0.03273
656.70931,0.03621
655.21952,0.02703
653.72973,0.00719
652.23994,0.02780
650.75015,0.04110
649.26037,0.05443
647.77058,0.01634
646.28079,0.02907
644.79100,0.09528
643.30121,0.07868
641.81142,0.06211
640.32163,0.07631
638.83185,0.10658
637.34206,0.07407
635.85227,0.05296
634.36248,0.03188
632.87269,0.03555
631.38290,0.00719
629.89312,0.02927
628.40333,0.04337
626.91354,0.05751
625.42375,0.08905
623.93396,0.08988
622.44417,0.09009
620.95438,0.09032
619.46460,0.04984
617.97481,0.07219
616.48502,0.03845
614.99523,0.07824
613.50544,0.11806
612.01565,0.15525
610.52587,0.21786
609.03608,0.22839
607.54629,0.21155
606.05650,0.19475
604.56671,0.31095
603.07692,0.26147
601.58714,0.27284
600.09735,0.28423
598.60756,0.15735
597.11777,0.21626
595.62798,0.20036
594.13819,0.20587
592.64840,0.21142
591.15862,0.19563
589.66883,0.13042
588.17904,0.23897
586.68925,0.26670
585.19946,0.29447
583.70967,0.33630
582.21989,0.33139
580.73010,0.34590
579.24031,0.36044
577.75052,0.43848
576.26073,0.43905
574.77094,0.45436
573.28115,0.46703
571.79137,0.47973
570.30158,0.60204
568.81179,0.66693
567.32200,0.72115
565.83221,0.77541
564.34242,0.82436
562.85264,0.82123
561.36285,1.01858
559.87306,1.08633
558.38327,1.15413
556.89348,1.25669
555.40369,1.40740
553.91391,1.43454
552.42412,1.46171
550.93433,1.54704
549.44454,1.64577
547.95475,1.74853
546.46496,1.76916
544.97517,1.78981
543.48539,1.84190
541.99560,1.68155
540.50581,1.69897
539.01602,1.71641
537.52623,1.66307
536.03644,1.63916
534.54666,1.63265
533.05687,1.61616
531.56708,1.59970
530.07729,1.59864
528.58750,1.59226
527.09771,1.45296
525.60792,1.31370
524.11814,1.30342
522.62835,1.19295
521.13856,1.04108
519.64877,1.06231
518.15898,1.08357
516.66919,1.08949
515.17941,1.06070
513.68962,1.05734
512.19983,1.05401
510.71004,1.05071
509.22025,1.10624
507.73046,1.08564
506.24068,1.04436
504.75089,1.00311
503.26110,1.00132
501.77131,1.00624
500.28152,0.97311
498.79173,0.94002
497.30194,0.76197
495.81216,0.84720
494.32237,0.85697
492.83258,0.86677
491.34279,0.82649
489.85300,0.69270
488.36321,0.65517
486.87343,0.61633
485.38364,0.57752
483.89385,0.51068
482.40406,0.41314
480.91427,0.37110
479.42448,0.32908
477.93469,0.28911
476.44491,0.18502
474.95512,0.14778
473.46533,0.11058
471.97554,0.05069
470.48575,0.08839
468.99596,0.00719
467.50618,0.04429
466.01639,0.08142
464.52660,0.23285
463.03681,0.28809
461.54702,0.30929
460.05723,0.33052
458.56745,0.49945
457.07766,0.70716
455.58787,0.70778
454.09808,0.70843
452.60829,0.80667
451.11850,1.01051
449.62871,1.03198
448.13893,1.05348
446.64914,1.17189
445.15935,1.31974
443.66956,1.32598
442.17977,1.27679
440.68998,1.22763
439.20020,1.20857
437.71041,1.25102
436.22062,1.23871
434.73083,1.22644
433.24104,1.18079
431.75125,1.14319
430.26146,1.18046
428.77168,1.21777
427.28189,1.28851
425.79210,1.43679
424.30231,1.41073
422.81252,1.38469
421.32273,1.55312
419.83295,1.58528
418.34316,1.63551
416.85337,1.68578
415.36358,1.68329
413.87379,1.60601
412.38400,1.59958
410.89422,1.59319
409.40443,1.59752
407.91464,1.33997
406.42485,1.14258
404.93506,1.08488
403.44527,1.02721
401.95548,0.82591
400.46570,0.83579
398.97591,0.81029
397.48612,0.78482
395.99633,0.83088
394.50654,0.82886
393.01675,0.79014
391.52697,0.75144
390.03718,0.75086
388.54739,0.72359
387.05760,0.71773
385.56781,0.71191
384.07802,0.64732
382.58824,0.53065
381.09845,0.51825
379.60866,0.50588
378.11887,0.52294
376.62908,0.41710
375.13929,0.45026
373.64950,0.48346
372.15972,0.45656
370.66993,0.43637
369.18014,0.46098
367.69035,0.48563
366.20056,0.45619
364.71077,0.42411
363.22099,0.31790
361.73120,0.21172
360.24141,0.25858
358.75162,0.29078
357.26183,0.29695
355.77204,0.30316
354.28225,0.24860
352.79247,0.24752
351.30268,0.21040
349.81289,0.17331
348.32310,0.17100
346.83331,0.11259
345.34352,0.13240
343.85374,0.15223
342.36395,0.17812
340.87416,0.14524
339.38437,0.11573
337.89458,0.08626
336.40479,0.12832
334.91501,0.14635
333.42522,0.13435
331.93543,0.12239
330.44564,0.08974
328.95585,0.15067
327.46606,0.15083
325.97627,0.15103
324.48649,0.15593
322.99670,0.02323
321.50691,0.06661
320.01712,0.11002
318.52733,0.02852
317.03754,0.00719
315.54776,0.02549
314.05797,0.04382
312.56818,0.05951
311.07839,0.08726
309.58860,0.10236
308.09881,0.11748
306.60902,0.03843
305.11924,0.03023
303.62945,0.04746
302.13966,0.06473
300.64987,0.00719
299.16008,0.00719
