1778.52000,0.03829
1777.03021,0.09701
1775.54042,0.15176
1774.05063,0.00235
1772.56085,0.10321
1771.07106,0.18810
1769.58127,0.22898
1768.09148,0.17781
1766.60169,0.18673
1765.11190,0.01151
1763.62212,0.07655
1762.13233,0.19969
1760.64254,0.28282
1759.15275,0.25388
1757.66296,0.21897
1756.17317,0.21413
1754.68339,0.16127
1753.19360,0.00235
1751.70381,0.08289
1750.21402,0.12544
1748.72423,0.26611
1747.23444,0.36478
1745.74465,0.31734
1744.25487,0.26393
1742.76508,0.21657
1741.27529,0.19125
1739.78550,0.08590
1738.29571,0.12473
1736.80592,0.21964
1735.31614,0.11439
1733.82635,0.17334
1732.33656,0.13623
1730.84677,0.14721
1729.35698,0.10016
1727.86719,0.08918
1726.37740,0.12228
1724.88762,0.02129
1723.39783,0.16857
1721.90804,0.19177
1720.41825,0.19699
1718.92846,0.09414
1717.43867,0.03536
1715.94889,0.17281
1714.45910,0.24223
1712.96931,0.26564
1711.47952,0.23304
1709.98973,0.03630
1708.49994,0.12789
1707.01016,0.16846
1705.52037,0.20906
1704.03058,0.30876
1702.54079,0.26435
1701.05100,0.25402
1699.56121,0.19967
1698.07142,0.28350
1696.58164,0.17917
1695.09185,0.18900
1693.60206,0.09275
1692.11227,0.09864
1690.62248,0.25672
1689.13269,0.26669
1687.64291,0.30071
1686.15312,0.29073
1684.66333,0.27678
1683.17354,0.30891
1681.68375,0.19893
1680.19396,0.23113
1678.70417,0.19330
1677.21439,0.21957
1675.72460,0.30192
1674.23481,0.25819
1672.74502,0.20048
1671.25523,0.36502
1669.76544,0.21729
1668.27566,0.17771
1666.78587,0.37038
1665.29608,0.25279
1663.80629,0.23133
1662.31650,0.23393
1660.82671,0.18051
1659.33693,0.41340
1657.84714,0.25795
1656.35735,0.18662
1654.86756,0.22943
1653.37777,0.25026
1651.88798,0.24309
1650.39819,0.08982
1648.90841,0.17482
1647.41862,0.16976
1645.92883,0.18176
1644.43904,0.19379
1642.94925,0.11677
1641.45946,0.08183
1639.96968,0.13100
1638.47989,0.18422
1636.99010,0.17941
1635.50031,0.14061
1634.01052,0.15589
1632.52073,0.28732
1631.03094,0.25463
1629.54116,0.29404
1628.05137,0.25742
1626.56158,0.14676
1625.07179,0.11821
1623.58200,0.21382
1622.09221,0.12328
1620.60243,0.18894
1619.11264,0.21258
1617.62285,0.22225
1616.13306,0.30803
1614.64327,0.26972
1613.15348,0.44566
1611.66370,0.36137
1610.17391,0.21107
1608.68412,0.30102
1607.19433,0.15679
1605.70454,0.07265
1604.21475,0.20075
1602.72496,0.32889
1601.23518,0.32694
1599.74539,0.22492
1598.25560,0.19101
1596.76581,0.27525
1595.27602,0.34351
1593.78623,0.40179
1592.29645,0.24990
1590.80666,0.21417
1589.31687,0.15844
1587.82708,0.04871
1586.33729,0.18724
1584.84750,0.23773
1583.35771,0.21418
1581.86793,0.26875
1580.37814,0.19122
1578.88835,0.15777
1577.39856,0.25247
1575.90877,0.23711
1574.41898,0.23179
1572.92920,0.20849
1571.43941,0.24729
1569.94962,0.27711
1568.45983,0.30697
1566.97004,0.37791
1565.48025,0.31475
1563.99047,0.30167
1562.50068,0.00235
1561.01089,0.14634
1559.52110,0.13020
1558.03131,0.25825
1556.54152,0.24018
1555.05173,0.13407
1553.56195,0.20016
1552.07216,0.19422
1550.58237,0.13826
1549.09258,0.11637
1547.60279,0.14456
1546.11300,0.21083
1544.62322,0.22508
1543.13343,0.29943
1541.64364,0.18362
1540.15385,0.16695
1538.66406,0.15032
1537.17427,0.10869
1535.68448,0.02906
1534.19470,0.16769
1532.70491,0.25029
1531.21512,0.29088
1529.72533,0.28147
1528.23554,0.37018
1526.74575,0.30879
1525.25597,0.14333
1523.76618,0.08400
1522.27639,0.06876
1520.78660,0.10760
1519.29681,0.04438
1517.80702,0.18139
1516.31724,0.22635
1514.82745,0.41348
1513.33766,0.30135
1511.84787,0.18926
1510.35808,0.14427
1508.86829,0.09731
1507.37850,0.00235
1505.88872,0.10188
1504.39893,0.26552
1502.90914,0.13690
1501.41935,0.13645
1499.92956,0.15205
1498.43977,0.18570
1496.94999,0.15132
1495.46020,0.20906
1493.97041,0.15473
1492.48062,0.32065
1490.99083,0.43055
1489.50104,0.46041
1488.01125,0.50632
1486.52147,0.55226
1485.03168,0.58023
1483.54189,0.43606
1482.05210,0.42806
1480.56231,0.65232
1479.07252,0.66241
1477.58274,0.72658
1476.09295,0.78479
1474.60316,0.93912
1473.11337,0.88729
1471.62358,0.76343
1470.13379,0.84980
1468.64401,1.01429
1467.15422,0.84449
1465.66443,0.81285
1464.17464,0.78126
1462.68485,0.69364
1461.19506,0.67413
1459.70527,0.65064
1458.21549,0.59917
1456.72570,0.50569
1455.23591,0.36620
1453.74612,0.25677
1452.25633,0.31955
1450.76654,0.11010
1449.27676,0.22099
1447.78697,0.31791
1446.29718,0.25471
1444.80739,0.30665
1443.31760,0.35863
1441.82781,0.20144
1440.33802,0.10835
1438.84824,0.18947
1437.35845,0.09845
1435.86866,0.13159
1434.37887,0.08069
1432.88908,0.03982
1431.39929,0.11711
1429.90951,0.12837
1428.41972,0.19972
1426.92993,0.18703
1425.44014,0.29049
1423.95035,0.32691
1422.46056,0.36338
1420.97078,0.19668
1419.48099,0.19817
1417.99120,0.28379
1416.50141,0.25533
1415.01162,0.08877
1413.52183,0.33665
1412.03204,0.28427
1410.54226,0.24395
1409.05247,0.24369
1407.56268,0.36159
1406.07289,0.34739
1404.58310,0.36226
1403.09331,0.37716
1401.60353,0.24895
1400.11374,0.32299
1398.62395,0.37903
1397.13416,0.39908
1395.64437,0.44920
1394.15458,0.62747
1392.66479,0.76173
1391.17501,0.82597
1389.68522,0.69405
1388.19543,0.53213
1386.70564,0.45834
1385.21585,0.38458
1383.72606,0.38493
1382.23628,0.42335
1380.74649,0.51185
1379.25670,0.50030
1377.76691,0.67095
1376.27712,0.50132
1374.78733,0.64201
1373.29755,0.65262
1371.80776,0.81941
1370.31797,0.91217
1368.82818,0.91087
1367.33839,0.90961
1365.84860,0.99247
1364.35881,1.09537
1362.86903,1.08621
1361.37924,1.07308
1359.88945,1.00793
1358.39966,1.12500
1356.90987,1.18004
1355.42008,1.13301
1353.93030,1.11005
1352.44051,1.04007
1350.95072,0.97013
1349.46093,0.93126
1347.97114,0.72626
1346.48135,0.65143
1344.99156,0.63868
1343.50178,0.65801
1342.01199,0.52722
1340.52220,0.49857
1339.03241,0.52601
1337.54262,0.41735
1336.05283,0.42885
1334.56305,0.44038
1333.07326,0.51801
1331.58347,0.38147
1330.09368,0.45917
1328.60389,0.45482
1327.11410,0.33040
1325.62432,0.27808
1324.13453,0.33991
1322.64474,0.34372
1321.15495,0.18740
1319.66516,0.19328
1318.17537,0.19920
1316.68558,0.23518
1315.19580,0.28320
1313.70601,0.22316
1312.21622,0.15915
1310.72643,0.18126
1309.23664,0.15936
1307.74685,0.16752
1306.25707,0.10165
1304.76728,0.10288
1303.27749,0.10415
1301.78770,0.00235
1300.29791,0.13237
1298.80812,0.45262
1297.31834,0.29644
1295.82855,0.28643
1294.33876,0.38457
1292.84897,0.36863
1291.35918,0.36073
1289.86939,0.40793
1288.37960,0.45515
1286.88982,0.40933
1285.40003,0.26744
1283.91024,0.10758
1282.42045,0.18197
1280.93066,0.28043
1279.44087,0.32487
1277.95109,0.54551
1276.46130,0.28773
1274.97151,0.30425
1273.48172,0.32080
1271.99193,0.25331
1270.50214,0.35201
1269.01235,0.38869
1267.52257,0.38937
1266.03278,0.47817
1264.54299,0.45490
1263.05320,0.49572
1261.56341,0.46852
1260.07362,0.44135
1258.58384,0.48228
1257.09405,0.41114
1255.60426,0.31601
1254.11447,0.22892
1252.62468,0.26800
1251.13489,0.21301
1249.64511,0.33023
1248.15532,0.31135
1246.66553,0.38660
1245.17574,0.46189
1243.68595,0.33701
1242.19616,0.49645
1240.70637,0.44372
1239.21659,0.15078
1237.72680,0.16018
1236.23701,0.16761
1234.74722,0.17108
1233.25743,0.16757
1231.76764,0.16410
1230.27786,0.20971
1228.78807,0.22932
1227.29828,0.17291
1225.80849,0.17458
1224.31870,0.18230
1222.82891,0.21207
1221.33912,0.36600
1219.84934,0.26571
1218.35955,0.16547
1216.86976,0.17136
1215.37997,0.29740
1213.89018,0.09316
1212.40039,0.13319
1210.91061,0.14723
1209.42082,0.05120
1207.93103,0.02828
1206.44124,0.00539
1204.95145,0.09765
1203.46166,0.18193
1201.97188,0.13212
1200.48209,0.06834
1198.99230,0.10468
1197.50251,0.00493
1196.01272,0.07138
1194.52293,0.11184
1193.03314,0.15233
1191.54336,0.12679
1190.05357,0.04123
1188.56378,0.08784
1187.07399,0.00235
1185.58420,0.12268
1184.09441,0.17498
1182.60463,0.13222
1181.11484,0.08950
1179.62505,0.15792
1178.13526,0.11627
1176.64547,0.25483
1175.15568,0.35739
1173.66589,0.26180
1172.17611,0.22229
1170.68632,0.16681
1169.19653,0.11136
1167.70674,0.16805
1166.21695,0.31687
1164.72716,0.30157
1163.23738,0.25827
1161.74759,0.22302
1160.25780,0.28790
1158.76801,0.42688
1157.27822,0.56591
1155.78843,0.51478
1154.29865,0.49772
1152.80886,0.59681
1151.31907,0.76000
1149.82928,0.86517
1148.33949,0.99840
1146.84970,0.89343
1145.35991,0.78850
1143.87013,0.77769
1142.38034,0.76492
1140.89055,0.74018
1139.40076,0.65341
1137.91097,0.68479
1136.42118,0.86034
1134.93140,0.90881
1133.44161,0.95731
1131.95182,1.00284
1130.46203,1.05242
1128.97224,1.09002
1127.48245,1.19171
1125.99266,1.39955
1124.50288,1.17299
1123.01309,1.20072
1121.52330,1.22849
1120.03351,1.11215
1118.54372,1.30014
1117.05393,1.21791
1115.56415,1.11169
1114.07436,0.84935
1112.58457,0.94139
1111.09478,1.03347
1109.60499,1.09755
1108.11520,1.13364
1106.62542,1.07568
1105.13563,1.15789
1103.64584,1.06196
1102.15605,1.25835
1100.66626,1.26559
1099.17647,1.27287
1097.68668,1.11703
1096.19690,1.05131
1094.70711,0.87751
1093.21732,1.03608
1091.72753,1.03052
1090.23774,1.12310
1088.74795,1.21571
1087.25817,1.26831
1085.76838,1.26890
1084.27859,1.35761
1082.78880,1.37629
1081.29901,1.42304
1079.80922,1.32768
1078.31943,1.32044
1076.82965,1.31323
1075.33986,1.39215
1073.85007,1.65327
1072.36028,1.66419
1070.87049,1.69717
1069.38070,1.73619
1067.89092,1.58906
1066.40113,1.44197
1064.91134,1.38100
1063.42155,1.24599
1061.93176,1.27918
1060.44197,1.17828
1058.95219,1.38370
1057.46240,1.38897
1055.97261,1.39428
1054.48282,1.21944
1052.99303,1.20680
1051.50324,1.18218
1050.01345,1.18363
1048.52367,0.98491
1047.03388,0.91636
1045.54409,0.84784
1044.05430,0.95152
1042.56451,0.89108
1041.07472,0.87272
1039.58494,0.81435
1038.09515,0.66793
1036.60536,0.78181
1035.11557,0.89571
1033.62578,0.72538
1032.13599,0.53907
1030.64620,0.59302
1029.15642,0.69706
1027.66663,0.74208
1026.17684,0.78713
1024.68705,0.95334
1023.19726,1.03149
1021.70747,1.00758
1020.21769,1.00173
1018.72790,1.15606
1017.23811,1.18431
1015.74832,1.21260
1014.25853,1.44712
1012.76874,1.48949
1011.27896,1.70206
1009.78917,1.83058
1008.29938,1.98317
1006.80959,1.97363
1005.31980,1.96412
1003.83001,1.99670
1002.34022,1.73302
1000.85044,1.67757
999.36065,1.75630
997.87086,1.74497
996.38107,1.73368
994.89128,1.81051
993.40149,1.59509
991.91171,1.66999
990.42192,1.68686
988.93213,1.71178
987.44234,1.69670
985.95255,1.68165
984.46276,1.90887
982.97297,2.00000
981.48319,1.78487
979.99340,1.50570
978.50361,1.47181
977.01382,1.43796
975.52403,1.11887
974.03424,1.14614
972.54446,1.32360
971.05467,1.34895
969.56488,1.09406
968.07509,1.10346
966.58530,1.11290
965.09551,0.87213
963.60573,0.86562
962.11594,1.07135
960.62615,0.90876
959.13636,0.90837
957.64657,0.90801
956.15678,0.92370
954.66699,1.02351
953.17721,1.03527
951.68742,0.75077
950.19763,0.70054
948.70784,0.65035
947.21805,0.60419
945.72826,0.68620
944.23848,0.64211
942.74869,0.92238
941.25890,0.97647
939.76911,1.06161
938.27932,1.14680
936.78953,1.19298
935.29974,1.11107
933.80996,1.17334
932.32017,1.29170
930.83038,1.33102
929.34059,1.37037
927.85080,1.55490
926.36101,1.48122
924.87123,1.39756
923.38144,1.51813
921.89165,1.45556
920.40186,1.39303
918.91207,1.27147
917.42228,1.26006
915.93250,1.25669
914.44271,1.13124
912.95292,1.22604
911.46313,1.32087
909.97334,1.35968
908.48355,1.20434
906.99376,0.92892
905.50398,1.00988
904.01419,1.08287
902.52440,1.15590
901.03461,1.04077
899.54482,0.86763
898.05503,0.78061
896.56525,0.95987
895.07546,1.02106
893.58567,1.08229
892.09588,1.08149
890.60609,0.96061
889.11630,1.17209
887.62651,1.21744
886.13673,1.20377
884.64694,1.19014
883.15715,1.23760
881.66736,1.34115
880.17757,1.33062
878.68778,1.36518
877.19800,1.39977
875.70821,1.42939
874.21842,1.71529
872.72863,1.61886
871.23884,1.62857
869.74905,1.76543
868.25927,1.90234
866.76948,1.96620
865.27969,1.75984
863.78990,1.53750
862.30011,1.70558
860.81032,1.71053
859.32053,1.71552
857.83075,1.65347
856.34096,1.80968
854.85117,1.65962
853.36138,1.79988
851.87159,1.73498
850.38180,1.67011
848.89202,1.57425
847.40223,1.44639
845.91244,1.19244
844.42265,1.10970
842.93286,1.02699
841.44307,1.00538
839.95329,0.81564
838.46350,0.86216
836.97371,0.78260
835.48392,0.59096
833.99413,0.39936
832.50434,0.48006
831.01455,0.61484
829.52477,0.71964
828.03498,0.63828
826.54519,0.59701
825.05540,0.55576
823.56561,0.51456
822.07582,0.39531
820.58604,0.31214
819.09625,0.28905
817.60646,0.26601
816.11667,0.20896
814.62688,0.36216
813.13709,0.53741
811.64730,0.28228
810.15752,0.24639
808.66773,0.21055
807.17794,0.22579
805.68815,0.32914
804.19836,0.29641
802.70857,0.27271
801.21879,0.24906
799.72900,0.17038
798.23921,0.23788
796.74942,0.17329
795.25963,0.22685
793.76984,0.28045
792.28006,0.17592
790.79027,0.18354
789.30048,0.24325
787.81069,0.14484
786.32090,0.11753
784.83111,0.09026
783.34132,0.09606
781.85154,0.07787
780.36175,0.23188
778.87196,0.20876
777.38217,0.18567
775.89238,0.04550
774.40259,0.03950
772.91281,0.02752
771.42302,0.07064
769.93323,0.11379
768.44344,0.06389
766.95365,0.05807
765.46386,0.03426
763.97407,0.19267
762.48429,0.14391
760.99450,0.09518
759.50471,0.16561
758.01492,0.13998
756.52513,0.09436
755.03534,0.08982
753.54556,0.08532
752.05577,0.08386
750.56598,0.00235
749.07619,0.04163
747.58640,0.11198
746.09661,0.18237
744.60683,0.25179
743.11704,0.22315
741.62725,0.21656
740.13746,0.21202
738.64767,0.20751
737.15788,0.12496
735.66809,0.02242
734.17831,0.00000
732.68852,0.09315
731.19873,0.18634
729.70894,0.14443
728.21915,0.22468
726.72936,0.22889
725.23958,0.30920
723.74979,0.25843
722.26000,0.20769
720.77021,0.25208
719.28042,0.33654
717.79063,0.21484
716.30084,0.22931
714.81106,0.24381
713.32127,0.23432
711.83148,0.11276
710.34169,0.18343
708.85190,0.21809
707.36211,0.25279
705.87233,0.16140
704.38254,0.21619
702.89275,0.21095
701.40296,0.18874
699.91317,0.16656
698.42338,0.12540
696.93360,0.13832
695.44381,0.02316
693.95402,0.17029
692.46423,0.31745
690.97444,0.24443
689.48465,0.28156
687.99486,0.30871
686.50508,0.29186
685.01529,0.27504
683.52550,0.36436
682.03571,0.33760
680.54592,0.22479
679.05613,0.19310
677.56635,0.16145
676.07656,0.17287
674.58677,0.22837
673.09698,0.35997
671.60719,0.30043
670.11740,0.24093
668.62761,0.22250
667.13783,0.25615
665.64804,0.18774
664.15825,0.11937
662.66846,0.05103
661.17867,0.14289
659.68888,0.16671
658.19910,0.15153
656.70931,0.13639
655.21952,0.15031
653.72973,0.15225
652.23994,0.28236
650.75015,0.23732
649.26037,0.19233
647.77058,0.16238
646.28079,0.00235
644.79100,0.15354
643.30121,0.12458
641.81142,0.09567
640.32163,0.17689
638.83185,0.12803
637.34206,0.23335
635.85227,0.15152
634.36248,0.06973
632.87269,0.04303
631.38290,0.00235
629.89312,0.11594
628.40333,0.18953
626.91354,0.26316
625.42375,0.32681
623.93396,0.18630
622.44417,0.15694
620.95438,0.12761
619.46460,0.26147
617.97481,0.05904
616.48502,0.09488
614.99523,0.10072
613.50544,0.10660
612.01565,0.15056
610.52587,0.24860
609.03608,0.27060
607.54629,0.28563
606.05650,0.30070
604.56671,0.27676
603.07692,0.33694
601.58714,0.25402
600.09735,0.17113
598.60756,0.10330
597.11777,0.24770
595.62798,0.26202
594.13819,0.23232
592.64840,0.20267
591.15862,0.13901
589.66883,0.07539
588.17904,0.25204
586.68925,0.34865
585.19946,0.44529
583.70967,0.32976
582.21989,0.37042
580.73010,0.35706
579.24031,0.34374
577.75052,0.31644
576.26073,0.38126
574.77094,0.41209
573.28115,0.43395
571.79137,0.45583
570.30158,0.42270
568.81179,0.60182
567.32200,0.63783
565.83221,0.67387
564.34242,0.70695
562.85264,0.75408
561.36285,0.89132
559.87306,0.88647
558.38327,0.88165
556.89348,1.08708
555.40369,1.01627
553.91391,1.08463
552.42412,1.15302
550.93433,1.33857
549.44454,1.30794
547.95475,1.39345
546.46496,1.40794
544.97517,1.42246
543.48539,1.31390
541.99560,1.50766
540.50581,1.48926
539.01602,1.47089
537.52623,1.46857
536.03644,1.39622
534.54666,1.12771
533.05687,1.24462
531.56708,1.36155
530.07729,1.24731
528.58750,1.16512
527.09771,1.14704
525.60792,1.12899
524.11814,1.07894
522.62835,0.77869
521.13856,0.83482
519.64877,0.90599
518.15898,0.97721
516.66919,0.79721
515.17941,0.82946
513.68962,0.84473
512.19983,0.86003
510.71004,0.79429
509.22025,0.86071
507.73046,0.78303
506.24068,0.79647
504.75089,0.80995
503.26110,0.88452
501.77131,0.90107
500.28152,0.84859
498.79173,0.79614
497.30194,0.57657
495.81216,0.46914
494.32237,0.53392
492.83258,0.59873
491.34279,0.59351
489.85300,0.44018
488.36321,0.55915
486.87343,0.51900
485.38364,0.47889
483.89385,0.35973
482.40406,0.27865
480.91427,0.18859
479.42448,0.09857
477.93469,0.13371
476.44491,0.13685
474.95512,0.10900
473.46533,0.08118
471.97554,0.00235
470.48575,0.00507
468.99596,0.17399
467.50618,0.13574
466.01639,0.09753
464.52660,0.10840
463.03681,0.11730
461.54702,0.17529
460.05723,0.23331
458.56745,0.33441
457.07766,0.41953
455.58787,0.46565
454.09808,0.51180
452.60829,0.67310
451.11850,0.78840
449.62871,0.80963
448.13893,0.83090
446.64914,1.02438
445.15935,0.96564
443.66956,1.02105
442.17977,0.99842
440.68998,0.97583
439.20020,0.81714
437.71041,0.99681
436.22062,0.96631
434.73083,0.93586
433.24104,0.97350
431.75125,0.81699
430.26146,0.89474
428.77168,0.97252
427.28189,1.03033
425.79210,1.18826
424.30231,1.17607
422.81252,1.16391
421.32273,1.18782
419.83295,1.22979
418.34316,1.30582
416.85337,1.38189
415.36358,1.19374
413.87379,1.31592
412.38400,1.32804
410.89422,1.34019
409.40443,1.17220
407.91464,1.05829
406.42485,0.89037
404.93506,0.79356
403.44527,0.69678
401.95548,0.52496
400.46570,0.55538
398.97591,0.58183
397.48612,0.60831
395.99633,0.56075
394.50654,0.57329
393.01675,0.55484
391.52697,0.53642
390.03718,0.62114
388.54739,0.54373
387.05760,0.56245
385.56781,0.58121
384.07802,0.22564
382.58824,0.41263
381.09845,0.36944
379.60866,0.32628
378.11887,0.24312
376.62908,0.19002
375.13929,0.28210
373.64950,0.37421
372.15972,0.34524
370.66993,0.13213
369.18014,0.15528
367.69035,0.17847
366.20056,0.40589
364.71077,0.30103
363.22099,0.24525
361.73120,0.18950
360.24141,0.11477
358.75162,0.25829
357.26183,0.27672
355.77204,0.29519
354.28225,0.12251
352.79247,0.10001
351.30268,0.08455
349.81289,0.06912
348.32310,0.17685
346.83331,0.00235
345.34352,0.05476
343.85374,0.10722
342.36395,0.11166
340.87416,0.01203
339.38437,0.02255
337.89458,0.03310
336.40479,0.07372
334.91501,0.13639
333.42522,0.07098
331.93543,0.00560
330.44564,0.04636
328.95585,0.11318
327.46606,0.11597
325.97627,0.11880
324.48649,0.13768
322.99670,0.01446
321.50691,0.00839
320.01712,0.00235
318.52733,0.12761
317.03754,0.07273
315.54776,0.09196
314.05797,0.11122
312.56818,0.07847
311.07839,0.04375
309.58860,0.06612
308.09881,0.08853
306.60902,0.12599
305.11924,0.08541
303.62945,0.04386
302.13966,0.00235
300.64987,0.00633
299.16008,0.00235
