1778.52000,0.00526
1777.03021,0.14558
1775.54042,0.06040
1774.05063,0.14692
1772.56085,0.19646
1771.07106,0.08781
1769.58127,0.28216
1768.09148,0.09615
1766.60169,0.10206
1765.11190,0.15176
1763.62212,0.06012
1762.13233,0.05266
1760.64254,0.17989
1759.15275,0.13211
1757.66296,0.17862
1756.17317,0.08377
1754.68339,0.03609
1753.19360,0.13319
1751.70381,0.13944
1750.21402,0.05820
1748.72423,0.12175
1747.23444,0.05404
1745.74465,0.19171
1744.25487,0.12407
1742.76508,0.01943
1741.27529,0.04275
1739.78550,0.04927
1738.29571,0.16018
1736.80592,0.20043
1735.31614,0.14983
1733.82635,0.13965
1732.33656,0.14971
1730.84677,0.08238
1729.35698,0.07567
1727.86719,0.15989
1726.37740,0.15325
1724.88762,0.00526
1723.39783,0.06011
1721.90804,0.05104
1720.41825,0.22377
1718.92846,0.15417
1717.43867,0.12500
1715.94889,0.13289
1714.45910,0.14081
1712.96931,0.09491
1711.47952,0.06251
1709.98973,0.09747
1708.49994,0.13582
1707.01016,0.12035
1705.52037,0.10492
1704.03058,0.19387
1702.54079,0.23573
1701.05100,0.17327
1699.56121,0.30272
1698.07142,0.14944
1696.58164,0.17798
1695.09185,0.15268
1693.60206,0.17791
1692.11227,0.18298
1690.62248,0.19145
1689.13269,0.24035
1687.64291,0.19840
1686.15312,0.31469
1684.66333,0.27280
1683.17354,0.22085
1681.68375,0.19586
1680.19396,0.20120
1678.70417,0.18975
1677.21439,0.26249
1675.72460,0.16021
1674.23481,0.11183
1672.74502,0.21833
1671.25523,0.21714
1669.76544,0.31025
1668.27566,0.14082
1666.78587,0.21716
1665.29608,0.07809
1663.80629,0.06361
1662.31650,0.12995
1660.82671,0.12564
1659.33693,0.21899
1657.84714,0.24840
1656.35735,0.12301
1654.86756,0.17942
1653.37777,0.07092
1651.88798,0.05672
1650.39819,0.13007
1648.90841,0.15632
1647.41862,0.14222
1645.92883,0.14498
1644.43904,0.14777
1642.94925,0.17416
1641.45946,0.19722
1639.96968,0.10923
1638.47989,0.13573
1636.99010,0.19592
1635.50031,0.16189
1634.01052,0.09086
1632.52073,0.15452
1631.03094,0.09030
1629.54116,0.24155
1628.05137,0.18412
1626.56158,0.12000
1625.07179,0.09968
1623.58200,0.07265
1622.09221,0.00526
1620.60243,0.05787
1619.11264,0.04992
1617.62285,0.05547
1616.13306,0.12838
1614.64327,0.17775
1613.15348,0.21370
1611.66370,0.18572
1610.17391,0.20154
1608.68412,0.21402
1607.19433,0.18951
1605.70454,0.02702
1604.21475,0.09010
1602.72496,0.15321
1601.23518,0.20290
1599.74539,0.12806
1598.25560,0.24514
1596.76581,0.19057
1595.27602,0.15960
1593.78623,0.10174
1592.29645,0.13479
1590.80666,0.18808
1589.31687,0.06973
1587.82708,0.00526
1586.33729,0.18806
1584.84750,0.12179
1583.35771,0.09258
1581.86793,0.11390
1580.37814,0.13525
1578.88835,0.08931
1577.39856,0.07034
1575.90877,0.08170
1574.41898,0.06279
1572.92920,0.00689
1571.43941,0.04192
1569.94962,0.05677
1568.45983,0.07167
1566.97004,0.05630
1565.48025,0.06789
1563.99047,0.04923
1562.50068,0.13495
1561.01089,0.07259
1559.52110,0.07422
1558.03131,0.05906
1556.54152,0.12472
1555.05173,0.05576
1553.56195,0.15179
1552.07216,0.08290
1550.58237,0.10493
1549.09258,0.04284
1547.60279,0.03129
1546.11300,0.06015
1544.62322,0.10252
1543.13343,0.16849
1541.64364,0.15707
1540.15385,0.15578
1538.66406,0.15452
1537.17427,0.16340
1535.68448,0.01746
1534.19470,0.08027
1532.70491,0.00172
1531.21512,0.02757
1529.72533,0.14097
1528.23554,0.11302
1526.74575,0.12887
1525.25597,0.00000
1523.76618,0.07759
1522.27639,0.01720
1520.78660,0.03427
1519.29681,0.03118
1517.80702,0.03148
1516.31724,0.01836
1514.82745,0.00526
1513.33766,0.05787
1511.84787,0.11050
1510.35808,0.14634
1508.86829,0.11489
1507.37850,0.03298
1505.88872,0.05545
1504.39893,0.14192
1502.90914,0.05338
1501.41935,0.06586
1499.92956,0.07500
1498.43977,0.14141
1496.94999,0.17083
1495.46020,0.06899
1493.97041,0.21292
1492.48062,0.20878
1490.99083,0.43694
1489.50104,0.43622
1488.01125,0.43723
1486.52147,0.43827
1485.03168,0.49151
1483.54189,0.60876
1482.05210,0.56782
1480.56231,0.81642
1479.07252,0.83277
1477.58274,0.80877
1476.09295,0.94301
1474.60316,1.01333
1473.11337,1.06013
1471.62358,1.11368
1470.13379,0.98213
1468.64401,0.92466
1467.15422,0.98169
1465.66443,0.93608
1464.17464,0.89050
1462.68485,0.83317
1461.19506,0.87350
1459.70527,0.79605
1458.21549,0.56714
1456.72570,0.57391
1455.23591,0.52349
1453.74612,0.34181
1452.25633,0.42274
1450.76654,0.29163
1449.27676,0.25144
1447.78697,0.13050
1446.29718,0.29909
1444.80739,0.29098
1443.31760,0.28291
1441.82781,0.28665
1440.33802,0.25004
1438.84824,0.17642
1437.35845,0.16007
1435.86866,0.21108
1434.37887,0.12411
1432.88908,0.13816
1431.39929,0.27342
1429.90951,0.15962
1428.41972,0.17714
1426.92993,0.21488
1425.44014,0.24930
1423.95035,0.25513
1422.46056,0.26101
1420.97078,0.29216
1419.48099,0.28968
1417.99120,0.27377
1416.50141,0.27136
1415.01162,0.21176
1413.52183,0.31041
1412.03204,0.24751
1410.54226,0.33276
1409.05247,0.31369
1407.56268,0.40574
1406.07289,0.30258
1404.58310,0.37787
1403.09331,0.45319
1401.60353,0.45786
1400.11374,0.48949
1398.62395,0.44036
1397.13416,0.57977
1395.64437,0.70240
1394.15458,0.63317
1392.66479,0.69527
1391.17501,0.64631
1389.68522,0.75224
1388.19543,0.67305
1386.70564,0.68311
1385.21585,0.69319
1383.72606,0.73866
1382.23628,0.79763
1380.74649,0.81624
1379.25670,0.77765
1377.76691,0.95117
1376.27712,0.81503
1374.78733,0.90110
1373.29755,0.82562
1371.80776,0.97909
1370.31797,1.03496
1368.82818,1.07404
1367.33839,1.11315
1365.84860,1.23982
1364.35881,1.37999
1362.86903,1.31821
1361.37924,1.44162
1359.88945,1.40011
1358.39966,1.44952
1356.90987,1.44848
1355.42008,1.27915
1353.93030,1.38590
1352.44051,1.28060
1350.95072,1.17533
1349.46093,1.14416
1347.97114,1.07263
1346.48135,0.90351
1344.99156,0.90610
1343.50178,0.86160
1342.01199,0.86426
1340.52220,0.78617
1339.03241,0.76533
1337.54262,0.77146
1336.05283,0.72882
1334.56305,0.68620
1333.07326,0.52749
1331.58347,0.54722
1330.09368,0.53332
1328.60389,0.52283
1327.11410,0.49217
1325.62432,0.48510
1324.13453,0.40738
1322.64474,0.28930
1321.15495,0.23185
1319.66516,0.25858
1318.17537,0.28535
1316.68558,0.27513
1315.19580,0.26494
1313.70601,0.19419
1312.21622,0.21437
1310.72643,0.15378
1309.23664,0.21442
1307.74685,0.29529
1306.25707,0.23818
1304.76728,0.21981
1303.27749,0.20148
1301.78770,0.17476
1300.29791,0.26254
1298.80812,0.24599
1297.31834,0.27324
1295.82855,0.36448
1294.33876,0.36823
1292.84897,0.44608
1291.35918,0.49702
1289.86939,0.44029
1288.37960,0.38358
1286.88982,0.47166
1285.40003,0.43522
1283.91024,0.37862
1282.42045,0.46344
1280.93066,0.36651
1279.44087,0.41100
1277.95109,0.32423
1276.46130,0.55730
1274.97151,0.58675
1273.48172,0.61622
1271.99193,0.58009
1270.50214,0.52379
1269.01235,0.52476
1267.52257,0.56616
1266.03278,0.63452
1264.54299,0.51440
1263.05320,0.48520
1261.56341,0.52169
1260.07362,0.55820
1258.58384,0.41129
1257.09405,0.54045
1255.60426,0.42053
1254.11447,0.48243
1252.62468,0.54100
1251.13489,0.41782
1249.64511,0.38893
1248.15532,0.35671
1246.66553,0.35987
1245.17574,0.36307
1243.68595,0.49253
1242.19616,0.45372
1240.70637,0.41157
1239.21659,0.33579
1237.72680,0.27014
1236.23701,0.30552
1234.74722,0.36450
1233.25743,0.36123
1231.76764,0.35800
1230.27786,0.38342
1228.78807,0.26075
1227.29828,0.26940
1225.80849,0.30839
1224.31870,0.37097
1222.82891,0.17775
1221.33912,0.21683
1219.84934,0.22397
1218.35955,0.23115
1216.86976,0.32756
1215.37997,0.39371
1213.89018,0.19059
1212.40039,0.17939
1210.91061,0.31297
1209.42082,0.12006
1207.93103,0.15440
1206.44124,0.18878
1204.95145,0.20804
1203.46166,0.08932
1201.97188,0.10528
1200.48209,0.09772
1198.99230,0.11038
1197.50251,0.00526
1196.01272,0.13739
1194.52293,0.11976
1193.03314,0.10216
1191.54336,0.13677
1190.05357,0.02330
1188.56378,0.03441
1187.07399,0.03210
1185.58420,0.12070
1184.09441,0.09489
1182.60463,0.10278
1181.11484,0.11070
1179.62505,0.09845
1178.13526,0.14347
1176.64547,0.10436
1175.15568,0.16291
1173.66589,0.12387
1172.17611,0.24308
1170.68632,0.25629
1169.19653,0.26953
1167.70674,0.21716
1166.21695,0.38364
1164.72716,0.40877
1163.23738,0.36997
1161.74759,0.37833
1160.25780,0.45068
1158.76801,0.46921
1157.27822,0.48778
1155.78843,0.57707
1154.29865,0.66302
1152.80886,0.57060
1151.31907,0.69029
1149.82928,0.60467
1148.33949,0.79175
1146.84970,0.77352
1145.35991,0.75533
1143.87013,0.72034
1142.38034,0.77627
1140.89055,0.73462
1139.40076,0.76706
1137.91097,0.74903
1136.42118,0.99361
1134.93140,0.92348
1133.44161,0.85338
1131.95182,1.19906
1130.46203,1.17447
1128.97224,1.20378
1127.48245,1.20956
1125.99266,1.11439
1124.50288,1.20439
1123.01309,1.28602
1121.52330,1.36767
1120.03351,1.28947
1118.54372,1.25169
1117.05393,1.13652
1115.56415,1.17287
1114.07436,0.95678
1112.58457,0.98142
1111.09478,1.00609
1109.60499,1.04257
1108.11520,1.16662
1106.62542,0.97426
1105.13563,1.11857
1103.64584,0.99024
1102.15605,0.92255
1100.66626,1.07369
1099.17647,1.22487
1097.68668,1.18083
1096.19690,1.00892
1094.70711,1.15683
1093.21732,1.07251
1091.72753,1.23732
1090.23774,1.29276
1088.74795,1.34824
1087.25817,1.46266
1085.76838,1.38524
1084.27859,1.42230
1082.78880,1.42237
1081.29901,1.49654
1079.80922,1.34183
1078.31943,1.30160
1076.82965,1.26141
1075.33986,1.48046
1073.85007,1.32252
1072.36028,1.64936
1070.87049,1.57901
1069.38070,1.60295
1067.89092,1.52257
1066.40113,1.44222
1064.91134,1.60428
1063.42155,1.56104
1061.93176,1.29901
1060.44197,1.38039
1058.95219,1.37427
1057.46240,1.35977
1055.97261,1.34531
1054.48282,1.21810
1052.99303,1.06401
1051.50324,1.06479
1050.01345,1.01512
1048.52367,0.97557
1047.03388,0.96973
1045.54409,0.96392
1044.05430,0.85379
1042.56451,0.65954
1041.07472,0.69759
1039.58494,0.53707
1038.09515,0.43717
1036.60536,0.45513
1035.11557,0.47312
1033.62578,0.47768
1032.13599,0.45535
1030.64620,0.59799
1029.15642,0.53196
1027.66663,0.54676
1026.17684,0.56159
1024.68705,0.59665
1023.19726,0.67551
1021.70747,0.81500
1020.21769,1.03867
1018.72790,1.07387
1017.23811,1.19663
1015.74832,1.31942
1014.25853,1.54323
1012.76874,1.53817
1011.27896,1.74522
1009.78917,1.81429
1008.29938,1.91368
1006.80959,1.88519
1005.31980,1.85674
1003.83001,2.00000
1002.34022,1.91439
1000.85044,1.88603
999.36065,1.70623
997.87086,1.79409
996.38107,1.88198
994.89128,1.81000
993.40149,1.80201
991.91171,1.76713
990.42192,1.76595
988.93213,1.90282
987.44234,1.85794
985.95255,1.81310
984.46276,1.72453
982.97297,1.80431
981.48319,1.61819
979.99340,1.35804
978.50361,1.34198
977.01382,1.32596
975.52403,1.31501
974.03424,1.21322
972.54446,1.09799
971.05467,1.19824
969.56488,1.01238
968.07509,0.94775
966.58530,0.88316
965.09551,0.99028
963.60573,0.92575
962.11594,0.88145
960.62615,0.64531
959.13636,0.66336
957.64657,0.68144
956.15678,0.60698
954.66699,0.63018
953.17721,0.62648
951.68742,0.57569
950.19763,0.55355
948.70784,0.53144
947.21805,0.66926
945.72826,0.50752
944.23848,0.58818
942.74869,0.57126
941.25890,0.71259
939.76911,0.72939
938.27932,0.74624
936.78953,0.91796
935.29974,0.89111
933.80996,1.08310
932.32017,1.05632
930.83038,1.11204
929.34059,1.16780
927.85080,1.19161
926.36101,1.24239
924.87123,1.29656
923.38144,1.41137
921.89165,1.40334
920.40186,1.39534
918.91207,1.51361
917.42228,1.38955
915.93250,1.42373
914.44271,1.07756
912.95292,1.01419
911.46313,0.95086
909.97334,1.13666
908.48355,1.01617
906.99376,0.92937
905.50398,0.80894
904.01419,0.82657
902.52440,0.84423
901.03461,0.75420
899.54482,0.69450
898.05503,0.79979
896.56525,0.98253
895.07546,0.98521
893.58567,0.98793
892.09588,1.00583
890.60609,1.00020
889.11630,1.06192
887.62651,1.14725
886.13673,1.17875
884.64694,1.21029
883.15715,1.23849
881.66736,1.26335
880.17757,1.28826
878.68778,1.29637
877.19800,1.30451
875.70821,1.50119
874.21842,1.64068
872.72863,1.76001
871.23884,1.71106
869.74905,1.69076
868.25927,1.67049
866.76948,1.90441
865.27969,1.87243
863.78990,1.87414
862.30011,1.95668
860.81032,1.95173
859.32053,1.94682
857.83075,1.81738
856.34096,1.77214
854.85117,1.75723
853.36138,1.78611
851.87159,1.74097
850.38180,1.69586
848.89202,1.44545
847.40223,1.20516
845.91244,1.30828
844.42265,1.27677
842.93286,1.24530
841.44307,0.92099
839.95329,0.88286
838.46350,0.64615
836.97371,0.71580
835.48392,0.59361
833.99413,0.47146
832.50434,0.45705
831.01455,0.51674
829.52477,0.55964
828.03498,0.37366
826.54519,0.45365
825.05540,0.53368
823.56561,0.38483
822.07582,0.40096
820.58604,0.23535
819.09625,0.17581
817.60646,0.11631
816.11667,0.17297
814.62688,0.22631
813.13709,0.20561
811.64730,0.21189
810.15752,0.16602
808.66773,0.12018
807.17794,0.21408
805.68815,0.20030
804.19836,0.15961
802.70857,0.16272
801.21879,0.16587
799.72900,0.08489
798.23921,0.14870
796.74942,0.24284
795.25963,0.18216
793.76984,0.12152
792.28006,0.03734
790.79027,0.12489
789.30048,0.16870
787.81069,0.23275
786.32090,0.12346
784.83111,0.01421
783.34132,0.03123
781.85154,0.05165
780.36175,0.16300
778.87196,0.12289
777.38217,0.08282
775.89238,0.05289
774.40259,0.12734
772.91281,0.08737
771.42302,0.05922
769.93323,0.03110
768.44344,0.03836
766.95365,0.00526
765.46386,0.20643
763.97407,0.16862
762.48429,0.10897
760.99450,0.04934
759.50471,0.08906
758.01492,0.07159
756.52513,0.11138
755.03534,0.11417
753.54556,0.11699
752.05577,0.08619
750.56598,0.04533
749.07619,0.05162
747.58640,0.05122
746.09661,0.05085
744.60683,0.11447
743.11704,0.11417
741.62725,0.17450
740.13746,0.18268
738.64767,0.19090
737.15788,0.16717
735.66809,0.06605
734.17831,0.15347
732.68852,0.07935
731.19873,0.00526
729.70894,0.15978
728.21915,0.12581
726.72936,0.10871
725.23958,0.16907
723.74979,0.19580
722.26000,0.22257
720.77021,0.23927
719.28042,0.28966
717.79063,0.31989
716.30084,0.32491
714.81106,0.32997
713.32127,0.17516
711.83148,0.18870
710.34169,0.27633
708.85190,0.30003
707.36211,0.32377
705.87233,0.12537
704.38254,0.12561
702.89275,0.30767
701.40296,0.28778
699.91317,0.26793
698.42338,0.22791
696.93360,0.28555
695.44381,0.27927
693.95402,0.27807
692.46423,0.27690
690.97444,0.28082
689.48465,0.23427
687.99486,0.35271
686.50508,0.42069
685.01529,0.48870
683.52550,0.47596
682.03571,0.34206
680.54592,0.36978
679.05613,0.35714
677.56635,0.34453
676.07656,0.36225
674.58677,0.34298
673.09698,0.26651
671.60719,0.26246
670.11740,0.25843
668.62761,0.26959
667.13783,0.15960
665.64804,0.15905
664.15825,0.15853
662.66846,0.09240
661.17867,0.26868
659.68888,0.06797
658.19910,0.07768
656.70931,0.08743
655.21952,0.14939
653.72973,0.16763
652.23994,0.20609
650.75015,0.22944
649.26037,0.25283
647.77058,0.00526
646.28079,0.14876
644.79100,0.31249
643.30121,0.30121
641.81142,0.28996
640.32163,0.19795
638.83185,0.19350
637.34206,0.19918
635.85227,0.13589
634.36248,0.07264
632.87269,0.08516
631.38290,0.18187
629.89312,0.06653
628.40333,0.14143
626.91354,0.21636
625.42375,0.20885
623.93396,0.26534
622.44417,0.26968
620.95438,0.27406
619.46460,0.24649
617.97481,0.19539
616.48502,0.16452
614.99523,0.08488
613.50544,0.00526
612.01565,0.16053
610.52587,0.21148
609.03608,0.27929
607.54629,0.31347
606.05650,0.34769
604.56671,0.42907
603.07692,0.26811
601.58714,0.29570
600.09735,0.32332
598.60756,0.23988
597.11777,0.19688
595.62798,0.22797
594.13819,0.22543
592.64840,0.22292
591.15862,0.12956
589.66883,0.27188
588.17904,0.30987
586.68925,0.38324
585.19946,0.45665
583.70967,0.49474
582.21989,0.47228
580.73010,0.47677
579.24031,0.48131
577.75052,0.46231
576.26073,0.51741
574.77094,0.63650
573.28115,0.65464
571.79137,0.67281
570.30158,0.78190
568.81179,0.76311
567.32200,0.80326
565.83221,0.84345
564.34242,0.76080
562.85264,0.94075
561.36285,1.06688
559.87306,1.11899
558.38327,1.17113
556.89348,1.35122
555.40369,1.56164
553.91391,1.53141
552.42412,1.50121
550.93433,1.58382
549.44454,1.72368
547.95475,1.73903
546.46496,1.69382
544.97517,1.64864
543.48539,1.66073
541.99560,1.85126
540.50581,1.72371
539.01602,1.59620
537.52623,1.53773
536.03644,1.68463
534.54666,1.55217
533.05687,1.62004
531.56708,1.68794
530.07729,1.50845
528.58750,1.44345
527.09771,1.45255
525.60792,1.46168
524.11814,1.37995
522.62835,1.11984
521.13856,1.06848
519.64877,1.09625
518.15898,1.12407
516.66919,1.05597
515.17941,1.04514
513.68962,1.02088
512.19983,0.99665
510.71004,1.05998
509.22025,1.20413
507.73046,0.98813
506.24068,0.93879
504.75089,0.88948
503.26110,1.13139
501.77131,0.99295
500.28152,0.98078
498.79173,0.96864
497.30194,0.73604
495.81216,0.75258
494.32237,0.75064
492.83258,0.74874
491.34279,0.72835
489.85300,0.70463
488.36321,0.74154
486.87343,0.66067
485.38364,0.57983
483.89385,0.43842
482.40406,0.41151
480.91427,0.37453
479.42448,0.33759
477.93469,0.35117
476.44491,0.17291
474.95512,0.14449
473.46533,0.11610
471.97554,0.00526
470.48575,0.13955
468.99596,0.08536
467.50618,0.16081
466.01639,0.23629
464.52660,0.16200
463.03681,0.31666
461.54702,0.32660
460.05723,0.33657
458.56745,0.54519
457.07766,0.59563
455.58787,0.67808
454.09808,0.76056
452.60829,0.75051
451.11850,0.96940
449.62871,1.04357
448.13893,1.11778
446.64914,1.21895
445.15935,1.34035
443.66956,1.43486
442.17977,1.36108
440.68998,1.28734
439.20020,1.20017
437.71041,1.08610
436.22062,1.11514
434.73083,1.14420
433.24104,1.06390
431.75125,1.43472
430.26146,1.39151
428.77168,1.34834
427.28189,1.42975
425.79210,1.47417
424.30231,1.45130
422.81252,1.42847
421.32273,1.52685
419.83295,1.53775
418.34316,1.62273
416.85337,1.70775
415.36358,1.66152
413.87379,1.61196
412.38400,1.58768
410.89422,1.56343
409.40443,1.43655
407.91464,1.40058
406.42485,1.18961
404.93506,1.12510
403.44527,1.06063
401.95548,1.02144
400.46570,0.80051
398.97591,0.84217
397.48612,0.88387
395.99633,0.85155
394.50654,0.69808
393.01675,0.69780
391.52697,0.69756
390.03718,0.77983
388.54739,0.79481
387.05760,0.79130
385.56781,0.78783
384.07802,0.67836
382.58824,0.56219
381.09845,0.50328
379.60866,0.44440
378.11887,0.42259
376.62908,0.59605
375.13929,0.49015
373.64950,0.38428
372.15972,0.52081
370.66993,0.50253
369.18014,0.40855
367.69035,0.31460
366.20056,0.53207
364.71077,0.46680
363.22099,0.38473
361.73120,0.30270
360.24141,0.28129
358.75162,0.34408
357.26183,0.31096
355.77204,0.27787
354.28225,0.28354
352.79247,0.32626
351.30268,0.30506
349.81289,0.28389
348.32310,0.18197
346.83331,0.29552
345.34352,0.25763
343.85374,0.21977
342.36395,0.33342
340.87416,0.19127
339.38437,0.14173
337.89458,0.09222
336.40479,0.10503
334.91501,0.18855
333.42522,0.14252
331.93543,0.09651
330.44564,0.11618
328.95585,0.14262
327.46606,0.15900
325.97627,0.17541
324.48649,0.15145
322.99670,0.17803
321.50691,0.18612
320.01712,0.19425
318.52733,0.15360
317.03754,0.00526
315.54776,0.03453
314.05797,0.06383
312.56818,0.32208
311.07839,0.19323
309.58860,0.16204
308.09881,0.13089
306.60902,0.09303
305.11924,0.16293
303.62945,0.17396
302.13966,0.18502
300.64987,0.19443
299.16008,0.00526
