1778.52000,0.01298
1777.03021,0.00049
1775.54042,0.08740
1774.05063,0.05970
1772.56085,0.08247
1771.07106,0.03650
1769.58127,0.07616
1768.09148,0.02720
1766.60169,0.04094
1765.11190,0.04097
1763.62212,0.03186
1762.13233,0.09157
1760.64254,0.04890
1759.15275,0.06893
1757.66296,0.06761
1756.17317,0.05714
1754.68339,0.05741
1753.19360,0.01187
1751.70381,0.08711
1750.21402,0.08901
1748.72423,0.02064
1747.23444,0.03790
1745.74465,0.00935
1744.25487,0.07101
1742.76508,0.01348
1741.27529,0.06909
1739.78550,0.05596
1738.29571,0.03369
1736.80592,0.15514
1735.31614,0.07639
1733.82635,0.06034
1732.33656,0.00001
1730.84677,0.01918
1729.35698,0.05368
1727.86719,0.05918
1726.37740,0.03108
1724.88762,0.03359
1723.39783,0.03766
1721.90804,0.00049
1720.41825,0.08169
1718.92846,0.04675
1717.43867,0.05923
1715.94889,0.11455
1714.45910,0.08277
1712.96931,0.01282
1711.47952,0.04073
1709.98973,0.04880
1708.49994,0.07219
1707.01016,0.06964
1705.52037,0.06712
1704.03058,0.11660
1702.54079,0.07441
1701.05100,0.10868
1699.56121,0.13075
1698.07142,0.09631
1696.58164,0.13527
1695.09185,0.10548
1693.60206,0.09713
1692.11227,0.10869
1690.62248,0.11110
1689.13269,0.17775
1687.64291,0.08548
1686.15312,0.10481
1684.66333,0.15628
1683.17354,0.12678
1681.68375,0.11413
1680.19396,0.12596
1678.70417,0.10574
1677.21439,0.19560
1675.72460,0.10513
1674.23481,0.13392
1672.74502,0.11995
1671.25523,0.12741
1669.76544,0.13338
1668.27566,0.11034
1666.78587,0.13473
1665.29608,0.10259
1663.80629,0.07813
1662.31650,0.10415
1660.82671,0.08282
1659.33693,0.14559
1657.84714,0.10599
1656.35735,0.07100
1654.86756,0.05287
1653.37777,0.08827
1651.88798,0.13594
1650.39819,0.10721
1648.90841,0.11062
1647.41862,0.07585
1645.92883,0.08620
1644.43904,0.09660
1642.94925,0.10779
1641.45946,0.13277
1639.96968,0.09359
1638.47989,0.14310
1636.99010,0.08260
1635.50031,0.03588
1634.01052,0.11760
1632.52073,0.13973
1631.03094,0.09771
1629.54116,0.10311
1628.05137,0.17732
1626.56158,0.06356
1625.07179,0.05684
1623.58200,0.07613
1622.09221,0.04655
1620.60243,0.09801
1619.11264,0.04557
1617.62285,0.05431
1616.13306,0.14256
1614.64327,0.11468
1613.15348,0.16326
1611.66370,0.16756
1610.17391,0.09546
1608.68412,0.09676
1607.19433,0.07670
1605.70454,0.11782
1604.21475,0.11082
1602.72496,0.10386
1601.23518,0.13592
1599.74539,0.07476
1598.25560,0.15427
1596.76581,0.15433
1595.27602,0.06730
1593.78623,0.09800
1592.29645,0.06912
1590.80666,0.04945
1589.31687,0.07720
1587.82708,0.11263
1586.33729,0.04415
1584.84750,0.05214
1583.35771,0.06474
1581.86793,0.06516
1580.37814,0.08853
1578.88835,0.07067
1577.39856,0.07119
1575.90877,0.09162
1574.41898,0.00049
1572.92920,0.03021
1571.43941,0.04009
1569.94962,0.05460
1568.45983,0.06913
1566.97004,0.06842
1565.48025,0.12889
1563.99047,0.03348
1562.50068,0.06803
1561.01089,0.03689
1559.52110,0.02259
1558.03131,0.05725
1556.54152,0.02316
1555.05173,0.09304
1553.56195,0.02081
1552.07216,0.07853
1550.58237,0.04305
1549.09258,0.06722
1547.60279,0.07461
1546.11300,0.09885
1544.62322,0.08491
1543.13343,0.08782
1541.64364,0.04644
1540.15385,0.02344
1538.66406,0.00047
1537.17427,0.03256
1535.68448,0.00049
1534.19470,0.02325
1532.70491,0.04450
1531.21512,0.04134
1529.72533,0.00000
1528.23554,0.02289
1526.74575,0.05805
1525.25597,0.06420
1523.76618,0.00619
1522.27639,0.05368
1520.78660,0.02172
1519.29681,0.00049
1517.80702,0.08977
1516.31724,0.09654
1514.82745,0.06513
1513.33766,0.04981
1511.84787,0.03452
1510.35808,0.02921
1508.86829,0.06978
1507.37850,0.06759
1505.88872,0.00889
1504.39893,0.00371
1502.90914,0.04137
1501.41935,0.03474
1499.92956,0.00674
1498.43977,0.03992
1496.94999,0.10370
1495.46020,0.12778
1493.97041,0.13508
1492.48062,0.21732
1490.99083,0.23233
1489.50104,0.33604
1488.01125,0.31673
1486.52147,0.29746
1485.03168,0.43337
1483.54189,0.52651
1482.05210,0.56925
1480.56231,0.63037
1479.07252,0.65789
1477.58274,0.92390
1476.09295,0.86896
1474.60316,0.86449
1473.11337,0.92425
1471.62358,0.98864
1470.13379,0.99345
1468.64401,0.96161
1467.15422,0.88089
1465.66443,0.88351
1464.17464,0.88617
1462.68485,0.74901
1461.19506,0.70664
1459.70527,0.63222
1458.21549,0.58840
1456.72570,0.51863
1455.23591,0.46876
1453.74612,0.35932
1452.25633,0.26520
1450.76654,0.15430
1449.27676,0.21310
1447.78697,0.16342
1446.29718,0.24216
1444.80739,0.22617
1443.31760,0.21022
1441.82781,0.18818
1440.33802,0.14020
1438.84824,0.10754
1437.35845,0.10243
1435.86866,0.18142
1434.37887,0.09995
1432.88908,0.18054
1431.39929,0.10984
1429.90951,0.14618
1428.41972,0.12446
1426.92993,0.12724
1425.44014,0.18967
1423.95035,0.16806
1422.46056,0.14648
1420.97078,0.14940
1419.48099,0.17834
1417.99120,0.14465
1416.50141,0.19964
1415.01162,0.26843
1413.52183,0.18440
1412.03204,0.19976
1410.54226,0.25336
1409.05247,0.22599
1407.56268,0.32094
1406.07289,0.28447
1404.58310,0.30918
1403.09331,0.33392
1401.60353,0.45194
1400.11374,0.50121
1398.62395,0.43893
1397.13416,0.52037
1395.64437,0.53306
1394.15458,0.64667
1392.66479,0.72974
1391.17501,0.71808
1389.68522,0.59640
1388.19543,0.66124
1386.70564,0.67644
1385.21585,0.69167
1383.72606,0.67713
1382.23628,0.73599
1380.74649,0.69095
1379.25670,0.72390
1377.76691,0.75689
1376.27712,0.69361
1374.78733,0.72361
1373.29755,0.82702
1371.80776,0.93351
1370.31797,0.95292
1368.82818,1.01210
1367.33839,1.07132
1365.84860,1.20700
1364.35881,1.30908
1362.86903,1.41426
1361.37924,1.37885
1359.88945,1.51467
1358.39966,1.40138
1356.90987,1.32481
1355.42008,1.33998
1353.93030,1.34449
1352.44051,1.26573
1350.95072,1.18701
1349.46093,1.02501
1347.97114,1.01132
1346.48135,0.88761
1344.99156,0.79604
1343.50178,0.87111
1342.01199,0.71082
1340.52220,0.69730
1339.03241,0.62421
1337.54262,0.57561
1336.05283,0.57978
1334.56305,0.58399
1333.07326,0.57065
1331.58347,0.48550
1330.09368,0.49822
1328.60389,0.39175
1327.11410,0.32811
1325.62432,0.32106
1324.13453,0.32475
1322.64474,0.26886
1321.15495,0.28332
1319.66516,0.24967
1318.17537,0.21605
1316.68558,0.21991
1315.19580,0.24827
1313.70601,0.16508
1312.21622,0.03607
1310.72643,0.15777
1309.23664,0.11443
1307.74685,0.21633
1306.25707,0.10733
1304.76728,0.09237
1303.27749,0.07745
1301.78770,0.12140
1300.29791,0.14859
1298.80812,0.24306
1297.31834,0.24738
1295.82855,0.27620
1294.33876,0.30963
1292.84897,0.23764
1291.35918,0.24210
1289.86939,0.25654
1288.37960,0.27101
1286.88982,0.35659
1285.40003,0.35814
1283.91024,0.36126
1282.42045,0.35371
1280.93066,0.32326
1279.44087,0.32648
1277.95109,0.36489
1276.46130,0.39417
1274.97151,0.39597
1273.48172,0.39780
1271.99193,0.36298
1270.50214,0.50092
1269.01235,0.43102
1267.52257,0.46204
1266.03278,0.41819
1264.54299,0.51042
1263.05320,0.45441
1261.56341,0.43972
1260.07362,0.42505
1258.58384,0.48226
1257.09405,0.37902
1255.60426,0.37210
1254.11447,0.38968
1252.62468,0.48372
1251.13489,0.44634
1249.64511,0.32493
1248.15532,0.37475
1246.66553,0.36957
1245.17574,0.36443
1243.68595,0.37003
1242.19616,0.32828
1240.70637,0.27128
1239.21659,0.23877
1237.72680,0.20476
1236.23701,0.25181
1234.74722,0.17813
1233.25743,0.20614
1231.76764,0.23418
1230.27786,0.26150
1228.78807,0.25216
1227.29828,0.22605
1225.80849,0.22748
1224.31870,0.20144
1222.82891,0.19836
1221.33912,0.16169
1219.84934,0.17091
1218.35955,0.18016
1216.86976,0.16194
1215.37997,0.12082
1213.89018,0.12560
1212.40039,0.09678
1210.91061,0.16276
1209.42082,0.03467
1207.93103,0.04799
1206.44124,0.06135
1204.95145,0.18250
1203.46166,0.01327
1201.97188,0.02139
1200.48209,0.00049
1198.99230,0.04332
1197.50251,0.07396
1196.01272,0.07711
1194.52293,0.03980
1193.03314,0.00252
1191.54336,0.03482
1190.05357,0.03201
1188.56378,0.02617
1187.07399,0.00049
1185.58420,0.04211
1184.09441,0.10209
1182.60463,0.12161
1181.11484,0.14117
1179.62505,0.09121
1178.13526,0.09172
1176.64547,0.11520
1175.15568,0.10968
1173.66589,0.13934
1172.17611,0.13695
1170.68632,0.16057
1169.19653,0.18423
1167.70674,0.26447
1166.21695,0.24235
1164.72716,0.23248
1163.23738,0.30519
1161.74759,0.42074
1160.25780,0.39264
1158.76801,0.39056
1157.27822,0.38851
1155.78843,0.50114
1154.29865,0.51598
1152.80886,0.58283
1151.31907,0.60538
1149.82928,0.60810
1148.33949,0.71479
1146.84970,0.72064
1145.35991,0.72652
1143.87013,0.68199
1142.38034,0.73991
1140.89055,0.75049
1139.40076,0.86350
1137.91097,0.85275
1136.42118,0.92151
1134.93140,0.97502
1133.44161,1.02857
1131.95182,1.09285
1130.46203,1.18010
1128.97224,1.23222
1127.48245,1.18656
1125.99266,1.20360
1124.50288,1.26653
1123.01309,1.23702
1121.52330,1.20755
1120.03351,1.31338
1118.54372,1.23430
1117.05393,1.13844
1115.56415,1.08389
1114.07436,1.04160
1112.58457,1.09106
1111.09478,1.14055
1109.60499,1.11518
1108.11520,1.09137
1106.62542,1.02633
1105.13563,0.98120
1103.64584,1.01100
1102.15605,1.02096
1100.66626,1.04701
1099.17647,1.07309
1097.68668,1.07399
1096.19690,1.08562
1094.70711,1.16913
1093.21732,1.15790
1091.72753,1.37141
1090.23774,1.29682
1088.74795,1.22227
1087.25817,1.33041
1085.76838,1.44317
1084.27859,1.38478
1082.78880,1.37686
1081.29901,1.54781
1079.80922,1.37488
1078.31943,1.38694
1076.82965,1.39903
1075.33986,1.44173
1073.85007,1.63578
1072.36028,1.53334
1070.87049,1.61589
1069.38070,1.63886
1067.89092,1.58161
1066.40113,1.52441
1064.91134,1.55665
1063.42155,1.50945
1061.93176,1.53718
1060.44197,1.33873
1058.95219,1.25648
1057.46240,1.24381
1055.97261,1.23117
1054.48282,1.18418
1052.99303,1.12500
1051.50324,1.07044
1050.01345,1.03578
1048.52367,0.94614
1047.03388,0.98110
1045.54409,1.01610
1044.05430,0.89293
1042.56451,0.73617
1041.07472,0.65434
1039.58494,0.55268
1038.09515,0.49079
1036.60536,0.48779
1035.11557,0.48482
1033.62578,0.53615
1032.13599,0.48052
1030.64620,0.45703
1029.15642,0.56655
1027.66663,0.59662
1026.17684,0.62673
1024.68705,0.64311
1023.19726,0.67788
1021.70747,0.82273
1020.21769,1.03334
1018.72790,1.12324
1017.23811,1.20859
1015.74832,1.29397
1014.25853,1.48485
1012.76874,1.66049
1011.27896,1.78572
1009.78917,1.90945
1008.29938,1.90789
1006.80959,1.92776
1005.31980,1.94766
1003.83001,1.94926
1002.34022,1.95547
1000.85044,1.87919
999.36065,1.85643
997.87086,1.88492
996.38107,1.91344
994.89128,1.84799
993.40149,1.74131
991.91171,1.67899
990.42192,1.85210
988.93213,1.83724
987.44234,1.81935
985.95255,1.80150
984.46276,1.84330
982.97297,1.70018
981.48319,1.66409
979.99340,1.60359
978.50361,1.50643
977.01382,1.40931
975.52403,1.23427
974.03424,1.17696
972.54446,1.02492
971.05467,1.04716
969.56488,0.87226
968.07509,0.87624
966.58530,0.88024
965.09551,0.90569
963.60573,0.83945
962.11594,0.80383
960.62615,0.77741
959.13636,0.74109
957.64657,0.70480
956.15678,0.64180
954.66699,0.64304
953.17721,0.55871
951.68742,0.52944
950.19763,0.58581
948.70784,0.64221
947.21805,0.47854
945.72826,0.49680
944.23848,0.54873
942.74869,0.50744
941.25890,0.68172
939.76911,0.71693
938.27932,0.75218
936.78953,0.86390
935.29974,0.90533
933.80996,1.00947
932.32017,1.11823
930.83038,1.10704
929.34059,1.09588
927.85080,1.22309
926.36101,1.25557
924.87123,1.32782
923.38144,1.50863
921.89165,1.43498
920.40186,1.36137
918.91207,1.48115
917.42228,1.39767
915.93250,1.30505
914.44271,1.10242
912.95292,1.08859
911.46313,1.07480
909.97334,1.06181
908.48355,1.05803
906.99376,0.96868
905.50398,0.87173
904.01419,0.86347
902.52440,0.85524
901.03461,0.80272
899.54482,0.83124
898.05503,0.83076
896.56525,0.94802
895.07546,0.93996
893.58567,0.93195
892.09588,0.95607
890.60609,0.95729
889.11630,1.05638
887.62651,1.14327
886.13673,1.14613
884.64694,1.14903
883.15715,1.18100
881.66736,1.28943
880.17757,1.27104
878.68778,1.35126
877.19800,1.43153
875.70821,1.53704
874.21842,1.60133
872.72863,1.79098
871.23884,1.72236
869.74905,1.77223
868.25927,1.82213
866.76948,1.95385
865.27969,2.00000
863.78990,1.91779
862.30011,1.91816
860.81032,1.90939
859.32053,1.90066
857.83075,1.80637
856.34096,1.89706
854.85117,1.94652
853.36138,1.83246
851.87159,1.75130
850.38180,1.67018
848.89202,1.46757
847.40223,1.40868
845.91244,1.24436
844.42265,1.22375
842.93286,1.20318
841.44307,0.97171
839.95329,0.86867
838.46350,0.69077
836.97371,0.60461
835.48392,0.54371
833.99413,0.48285
832.50434,0.45641
831.01455,0.50032
829.52477,0.49688
828.03498,0.49195
826.54519,0.45037
825.05540,0.40882
823.56561,0.42845
822.07582,0.40837
820.58604,0.28592
819.09625,0.28731
817.60646,0.28874
816.11667,0.15417
814.62688,0.21528
813.13709,0.22140
811.64730,0.12820
810.15752,0.10994
808.66773,0.09171
807.17794,0.08269
805.68815,0.07981
804.19836,0.15187
802.70857,0.11162
801.21879,0.07141
799.72900,0.04575
798.23921,0.05069
796.74942,0.06179
795.25963,0.07903
793.76984,0.09631
792.28006,0.11821
790.79027,0.11875
789.30048,0.01538
787.81069,0.06949
786.32090,0.03497
784.83111,0.00049
783.34132,0.04282
781.85154,0.11269
780.36175,0.03586
778.87196,0.05307
777.38217,0.07031
775.89238,0.04556
774.40259,0.03612
772.91281,0.08175
771.42302,0.05557
769.93323,0.02943
768.44344,0.06752
766.95365,0.02922
765.46386,0.03528
763.97407,0.03068
762.48429,0.05363
760.99450,0.07661
759.50471,0.04613
758.01492,0.02791
756.52513,0.02196
755.03534,0.04203
753.54556,0.06213
752.05577,0.03947
750.56598,0.05811
749.07619,0.11501
747.58640,0.09016
746.09661,0.06534
744.60683,0.06884
743.11704,0.01888
741.62725,0.04659
740.13746,0.03306
738.64767,0.01957
737.15788,0.08101
735.66809,0.03243
734.17831,0.03586
732.68852,0.05384
731.19873,0.07186
729.70894,0.00049
728.21915,0.08705
726.72936,0.05137
725.23958,0.10284
723.74979,0.13601
722.26000,0.16921
720.77021,0.17341
719.28042,0.25254
717.79063,0.22012
716.30084,0.24429
714.81106,0.26850
713.32127,0.20867
711.83148,0.29104
710.34169,0.22364
708.85190,0.21513
707.36211,0.20665
705.87233,0.21120
704.38254,0.17910
702.89275,0.18525
701.40296,0.17997
699.91317,0.17472
698.42338,0.16875
696.93360,0.28051
695.44381,0.21346
693.95402,0.22747
692.46423,0.24150
690.97444,0.15775
689.48465,0.21772
687.99486,0.24562
686.50508,0.31712
685.01529,0.38865
683.52550,0.36775
682.03571,0.25517
680.54592,0.33674
679.05613,0.32206
677.56635,0.30741
676.07656,0.26681
674.58677,0.29961
673.09698,0.15667
671.60719,0.16739
670.11740,0.17814
668.62761,0.24012
667.13783,0.13554
665.64804,0.08143
664.15825,0.02736
662.66846,0.01306
661.17867,0.00338
659.68888,0.08112
658.19910,0.06642
656.70931,0.05175
655.21952,0.01495
653.72973,0.05156
652.23994,0.03317
650.75015,0.03928
649.26037,0.04543
647.77058,0.07912
646.28079,0.01655
644.79100,0.08547
643.30121,0.07341
641.81142,0.06139
640.32163,0.17474
638.83185,0.06649
637.34206,0.05152
635.85227,0.05721
634.36248,0.06295
632.87269,0.00681
631.38290,0.02344
629.89312,0.08750
628.40333,0.09121
626.91354,0.09496
625.42375,0.12855
623.93396,0.05823
622.44417,0.08196
620.95438,0.10572
619.46460,0.07220
617.97481,0.00049
616.48502,0.08283
614.99523,0.09107
613.50544,0.09935
612.01565,0.13135
610.52587,0.17868
609.03608,0.23368
607.54629,0.23522
606.05650,0.23679
604.56671,0.30260
603.07692,0.31036
601.58714,0.27765
600.09735,0.24497
598.60756,0.16113
597.11777,0.10636
595.62798,0.20601
594.13819,0.21398
592.64840,0.22198
591.15862,0.17959
589.66883,0.18308
588.17904,0.27984
586.68925,0.27576
585.19946,0.27172
583.70967,0.28758
582.21989,0.35086
580.73010,0.35456
579.24031,0.35830
577.75052,0.33457
576.26073,0.43314
574.77094,0.39572
573.28115,0.45616
571.79137,0.51663
570.30158,0.52975
568.81179,0.58112
567.32200,0.63482
565.83221,0.68855
564.34242,0.82104
562.85264,0.86491
561.36285,1.00053
559.87306,0.97951
558.38327,0.95852
556.89348,1.22417
555.40369,1.40272
553.91391,1.45292
552.42412,1.50315
550.93433,1.41738
549.44454,1.50742
547.95475,1.62960
546.46496,1.64864
544.97517,1.66771
543.48539,1.69064
541.99560,1.69373
540.50581,1.68998
539.01602,1.68627
537.52623,1.64362
536.03644,1.69424
534.54666,1.57217
533.05687,1.61292
531.56708,1.65371
530.07729,1.57302
528.58750,1.48931
527.09771,1.44537
525.60792,1.40147
524.11814,1.25672
522.62835,1.06310
521.13856,1.10490
519.64877,1.07566
518.15898,1.04646
516.66919,0.97220
515.17941,1.03249
513.68962,1.03778
512.19983,1.04311
510.71004,1.09280
509.22025,1.07681
507.73046,0.99664
506.24068,0.99753
504.75089,0.99845
503.26110,0.99635
501.77131,0.98206
500.28152,0.92500
498.79173,0.86798
497.30194,0.80794
495.81216,0.74640
494.32237,0.75598
492.83258,0.76559
491.34279,0.75460
489.85300,0.67180
488.36321,0.70827
486.87343,0.67828
485.38364,0.64833
483.89385,0.47702
482.40406,0.37606
480.91427,0.32634
479.42448,0.27666
477.93469,0.13301
476.44491,0.20033
474.95512,0.12171
473.46533,0.04312
471.97554,0.00049
470.48575,0.06900
468.99596,0.09779
467.50618,0.08459
466.01639,0.07143
464.52660,0.16147
463.03681,0.20111
461.54702,0.22703
460.05723,0.25298
458.56745,0.41806
457.07766,0.54038
455.58787,0.57638
454.09808,0.61240
452.60829,0.76234
451.11850,0.99791
449.62871,1.01876
448.13893,1.03965
446.64914,1.14082
445.15935,1.31539
443.66956,1.30657
442.17977,1.26799
440.68998,1.22944
439.20020,1.19322
437.71041,1.14633
436.22062,1.13693
434.73083,1.12756
433.24104,1.12358
431.75125,1.07225
430.26146,1.14706
428.77168,1.22190
427.28189,1.27614
425.79210,1.41908
424.30231,1.40231
422.81252,1.38559
421.32273,1.48124
419.83295,1.54636
418.34316,1.59929
416.85337,1.65225
415.36358,1.66856
413.87379,1.56721
412.38400,1.56296
410.89422,1.55875
409.40443,1.57520
407.91464,1.35936
406.42485,1.20010
404.93506,1.07451
403.44527,0.94896
401.95548,0.83108
400.46570,0.82481
398.97591,0.83770
397.48612,0.85061
395.99633,0.80471
394.50654,0.83681
393.01675,0.79251
391.52697,0.74825
390.03718,0.80949
388.54739,0.66442
387.05760,0.66459
385.56781,0.66479
384.07802,0.55040
382.58824,0.68671
381.09845,0.57926
379.60866,0.47185
378.11887,0.47682
376.62908,0.38247
375.13929,0.35388
373.64950,0.32533
372.15972,0.37324
370.66993,0.42118
369.18014,0.39732
367.69035,0.37349
366.20056,0.40779
364.71077,0.34276
363.22099,0.28312
361.73120,0.22352
360.24141,0.20751
358.75162,0.32146
357.26183,0.30858
355.77204,0.29574
354.28225,0.13620
352.79247,0.14941
351.30268,0.18482
349.81289,0.22027
348.32310,0.09296
346.83331,0.17815
345.34352,0.18008
343.85374,0.18204
342.36395,0.16187
340.87416,0.11728
339.38437,0.08266
337.89458,0.04808
336.40479,0.07238
334.91501,0.09672
333.42522,0.08670
331.93543,0.07671
330.44564,0.19287
328.95585,0.14703
327.46606,0.14785
325.97627,0.14871
324.48649,0.13508
322.99670,0.07257
321.50691,0.08212
320.01712,0.09171
318.52733,0.03637
317.03754,0.17978
315.54776,0.09012
314.05797,0.00049
312.56818,0.14516
311.07839,0.10491
309.58860,0.11819
308.09881,0.13151
306.60902,0.21212
305.11924,0.10782
303.62945,0.06316
302.13966,0.01854
300.64987,0.00873
299.16008,0.00049
