1778.52000,0.01233
1777.03021,0.05108
1775.54042,0.00277
1774.05063,0.09519
1772.56085,0.07375
1771.07106,0.16958
1769.58127,0.13146
1768.09148,0.11013
1766.60169,0.12568
1765.11190,0.06757
1763.62212,0.10328
1762.13233,0.06199
1760.64254,0.04084
1759.15275,0.15371
1757.66296,0.18287
1756.17317,0.05463
1754.68339,0.13746
1753.19360,0.05283
1751.70381,0.10893
1750.21402,0.15837
1748.72423,0.14755
1747.23444,0.00277
1745.74465,0.07719
1744.25487,0.12820
1742.76508,0.03855
1741.27529,0.05614
1739.78550,0.09385
1738.29571,0.09810
1736.80592,0.08899
1735.31614,0.16366
1733.82635,0.17472
1732.33656,0.03508
1730.84677,0.11655
1729.35698,0.17797
1727.86719,0.14562
1726.37740,0.00277
1724.88762,0.10090
1723.39783,0.04832
1721.90804,0.03598
1720.41825,0.18446
1718.92846,0.12194
1717.43867,0.08961
1715.94889,0.21475
1714.45910,0.07194
1712.96931,0.12681
1711.47952,0.08792
1709.98973,0.03231
1708.49994,0.16433
1707.01016,0.11382
1705.52037,0.06335
1704.03058,0.15862
1702.54079,0.14339
1701.05100,0.22869
1699.56121,0.12644
1698.07142,0.17831
1696.58164,0.12637
1695.09185,0.12137
1693.60206,0.04271
1692.11227,0.17177
1690.62248,0.12332
1689.13269,0.22230
1687.64291,0.23423
1686.15312,0.26293
1684.66333,0.16439
1683.17354,0.28361
1681.68375,0.17844
1680.19396,0.18384
1678.70417,0.24957
1677.21439,0.20815
1675.72460,0.14666
1674.23481,0.07516
1672.74502,0.19798
1671.25523,0.13995
1669.76544,0.18245
1668.27566,0.20489
1666.78587,0.09002
1665.29608,0.10248
1663.80629,0.05468
1662.31650,0.14760
1660.82671,0.19366
1659.33693,0.14261
1657.84714,0.16530
1656.35735,0.10762
1654.86756,0.09688
1653.37777,0.18667
1651.88798,0.08555
1650.39819,0.09837
1648.90841,0.13131
1647.41862,0.06715
1645.92883,0.09850
1644.43904,0.12988
1642.94925,0.19311
1641.45946,0.16594
1639.96968,0.23260
1638.47989,0.11506
1636.99010,0.17174
1635.50031,0.13131
1634.01052,0.17466
1632.52073,0.18120
1631.03094,0.19113
1629.54116,0.21784
1628.05137,0.25798
1626.56158,0.11728
1625.07179,0.08045
1623.58200,0.15085
1622.09221,0.09734
1620.60243,0.05727
1619.11264,0.03733
1617.62285,0.12462
1616.13306,0.19185
1614.64327,0.24906
1613.15348,0.23932
1611.66370,0.18941
1610.17391,0.12614
1608.68412,0.20694
1607.19433,0.16384
1605.70454,0.16768
1604.21475,0.18996
1602.72496,0.21229
1601.23518,0.22293
1599.74539,0.18670
1598.25560,0.26776
1596.76581,0.21151
1595.27602,0.23568
1593.78623,0.07567
1592.29645,0.00277
1590.80666,0.10647
1589.31687,0.15661
1587.82708,0.07279
1586.33729,0.15650
1584.84750,0.27039
1583.35771,0.24027
1581.86793,0.15660
1580.37814,0.21365
1578.88835,0.26738
1577.39856,0.19387
1575.90877,0.20413
1574.41898,0.14408
1572.92920,0.10082
1571.43941,0.17148
1569.94962,0.15006
1568.45983,0.12868
1566.97004,0.13245
1565.48025,0.11952
1563.99047,0.00277
1562.50068,0.06998
1561.01089,0.24440
1559.52110,0.02696
1558.03131,0.16126
1556.54152,0.01757
1555.05173,0.17204
1553.56195,0.06862
1552.07216,0.14278
1550.58237,0.13322
1549.09258,0.09020
1547.60279,0.02042
1546.11300,0.14831
1544.62322,0.17910
1543.13343,0.12952
1541.64364,0.17043
1540.15385,0.15944
1538.66406,0.14850
1537.17427,0.20291
1535.68448,0.00277
1534.19470,0.03903
1532.70491,0.15237
1531.21512,0.05472
1529.72533,0.12458
1528.23554,0.01360
1526.74575,0.14383
1525.25597,0.00277
1523.76618,0.04919
1522.27639,0.14923
1520.78660,0.04163
1519.29681,0.05800
1517.80702,0.16820
1516.31724,0.18130
1514.82745,0.08724
1513.33766,0.05853
1511.84787,0.02986
1510.35808,0.13689
1508.86829,0.00277
1507.37850,0.13488
1505.88872,0.09284
1504.39893,0.04749
1502.90914,0.10601
1501.41935,0.10428
1499.92956,0.06573
1498.43977,0.15116
1496.94999,0.29022
1495.46020,0.10104
1493.97041,0.29376
1492.48062,0.11136
1490.99083,0.22041
1489.50104,0.38644
1488.01125,0.38838
1486.52147,0.39035
1485.03168,0.51294
1483.54189,0.54513
1482.05210,0.57065
1480.56231,0.66320
1479.07252,0.67205
1477.58274,0.96566
1476.09295,0.95783
1474.60316,0.87969
1473.11337,1.08966
1471.62358,0.87760
1470.13379,0.96371
1468.64401,0.94600
1467.15422,0.95514
1465.66443,0.86046
1464.17464,0.76582
1462.68485,0.73152
1461.19506,0.61350
1459.70527,0.69985
1458.21549,0.64555
1456.72570,0.57789
1455.23591,0.44662
1453.74612,0.27519
1452.25633,0.31147
1450.76654,0.22720
1449.27676,0.38415
1447.78697,0.24300
1446.29718,0.20909
1444.80739,0.22210
1443.31760,0.23515
1441.82781,0.13770
1440.33802,0.20441
1438.84824,0.14388
1437.35845,0.21401
1435.86866,0.26074
1434.37887,0.15341
1432.88908,0.17676
1431.39929,0.18675
1429.90951,0.18337
1428.41972,0.26042
1426.92993,0.21692
1425.44014,0.29739
1423.95035,0.29917
1422.46056,0.30100
1420.97078,0.27439
1419.48099,0.21431
1417.99120,0.18107
1416.50141,0.17132
1415.01162,0.27213
1413.52183,0.26580
1412.03204,0.16570
1410.54226,0.30013
1409.05247,0.33744
1407.56268,0.24751
1406.07289,0.37868
1404.58310,0.37591
1403.09331,0.37318
1401.60353,0.52121
1400.11374,0.39125
1398.62395,0.47571
1397.13416,0.46977
1395.64437,0.63804
1394.15458,0.67572
1392.66479,0.68328
1391.17501,0.58368
1389.68522,0.72530
1388.19543,0.61573
1386.70564,0.67368
1385.21585,0.73166
1383.72606,0.86002
1382.23628,0.71040
1380.74649,0.59430
1379.25670,0.73282
1377.76691,0.73404
1376.27712,0.68839
1374.78733,0.84712
1373.29755,0.86854
1371.80776,0.75601
1370.31797,1.09237
1368.82818,1.04691
1367.33839,1.00148
1365.84860,1.03313
1364.35881,1.20215
1362.86903,1.15347
1361.37924,1.30582
1359.88945,1.23712
1358.39966,1.34264
1356.90987,1.29746
1355.42008,1.22551
1353.93030,1.32444
1352.44051,1.28439
1350.95072,1.24438
1349.46093,1.03524
1347.97114,1.04722
1346.48135,0.95874
1344.99156,0.89039
1343.50178,0.87903
1342.01199,0.75716
1340.52220,0.63198
1339.03241,0.72121
1337.54262,0.69659
1336.05283,0.64019
1334.56305,0.58381
1333.07326,0.57940
1331.58347,0.54487
1330.09368,0.47353
1328.60389,0.47257
1327.11410,0.39461
1325.62432,0.32003
1324.13453,0.45986
1322.64474,0.32841
1321.15495,0.33767
1319.66516,0.26659
1318.17537,0.19553
1316.68558,0.32215
1315.19580,0.18752
1313.70601,0.26061
1312.21622,0.22990
1310.72643,0.15567
1309.23664,0.14512
1307.74685,0.34230
1306.25707,0.23468
1304.76728,0.24266
1303.27749,0.25068
1301.78770,0.25372
1300.29791,0.29028
1298.80812,0.29673
1297.31834,0.28312
1295.82855,0.37338
1294.33876,0.38664
1292.84897,0.25925
1291.35918,0.41327
1289.86939,0.40151
1288.37960,0.38978
1286.88982,0.52716
1285.40003,0.43344
1283.91024,0.43690
1282.42045,0.39350
1280.93066,0.33673
1279.44087,0.46089
1277.95109,0.46449
1276.46130,0.41453
1274.97151,0.48687
1273.48172,0.55924
1271.99193,0.55294
1270.50214,0.51652
1269.01235,0.43994
1267.52257,0.51078
1266.03278,0.54146
1264.54299,0.50519
1263.05320,0.43210
1261.56341,0.48299
1260.07362,0.53391
1258.58384,0.43413
1257.09405,0.41813
1255.60426,0.51941
1254.11447,0.42644
1252.62468,0.42394
1251.13489,0.37124
1249.64511,0.31857
1248.15532,0.38653
1246.66553,0.38752
1245.17574,0.38856
1243.68595,0.40972
1242.19616,0.34718
1240.70637,0.37512
1239.21659,0.26911
1237.72680,0.24352
1236.23701,0.25817
1234.74722,0.27285
1233.25743,0.33948
1231.76764,0.40616
1230.27786,0.26351
1228.78807,0.31183
1227.29828,0.20275
1225.80849,0.08030
1224.31870,0.18233
1222.82891,0.16045
1221.33912,0.32283
1219.84934,0.31777
1218.35955,0.31275
1216.86976,0.36470
1215.37997,0.15877
1213.89018,0.08350
1212.40039,0.21931
1210.91061,0.17426
1209.42082,0.15605
1207.93103,0.16802
1206.44124,0.18003
1204.95145,0.27582
1203.46166,0.09361
1201.97188,0.02868
1200.48209,0.06428
1198.99230,0.00277
1197.50251,0.14125
1196.01272,0.14577
1194.52293,0.18047
1193.03314,0.21521
1191.54336,0.02891
1190.05357,0.08047
1188.56378,0.14211
1187.07399,0.14685
1185.58420,0.04108
1184.09441,0.10283
1182.60463,0.13279
1181.11484,0.16279
1179.62505,0.08731
1178.13526,0.16260
1176.64547,0.20778
1175.15568,0.15921
1173.66589,0.11067
1172.17611,0.26650
1170.68632,0.20630
1169.19653,0.14614
1167.70674,0.24848
1166.21695,0.18337
1164.72716,0.47672
1163.23738,0.35473
1161.74759,0.39022
1160.25780,0.41904
1158.76801,0.48977
1157.27822,0.56054
1155.78843,0.74020
1154.29865,0.44090
1152.80886,0.70103
1151.31907,0.60613
1149.82928,0.65195
1148.33949,0.72460
1146.84970,0.76714
1145.35991,0.80972
1143.87013,0.77194
1142.38034,0.84139
1140.89055,0.69314
1139.40076,0.69566
1137.91097,0.97960
1136.42118,1.01234
1134.93140,1.04009
1133.44161,1.06788
1131.95182,0.96004
1130.46203,1.21401
1128.97224,1.21343
1127.48245,1.14589
1125.99266,1.24253
1124.50288,1.17507
1123.01309,1.19138
1121.52330,1.20773
1120.03351,1.10687
1118.54372,1.15679
1117.05393,1.10960
1115.56415,1.06915
1114.07436,0.95169
1112.58457,0.98668
1111.09478,1.02170
1109.60499,0.91774
1108.11520,0.90426
1106.62542,0.80708
1105.13563,0.98796
1103.64584,1.06168
1102.15605,1.15218
1100.66626,1.11041
1099.17647,1.06867
1097.68668,1.10569
1096.19690,1.04560
1094.70711,1.03244
1093.21732,1.08632
1091.72753,1.08998
1090.23774,1.18412
1088.74795,1.27829
1087.25817,1.42610
1085.76838,1.26912
1084.27859,1.42369
1082.78880,1.41417
1081.29901,1.37789
1079.80922,1.32489
1078.31943,1.27193
1076.82965,1.21900
1075.33986,1.45753
1073.85007,1.54536
1072.36028,1.31836
1070.87049,1.56370
1069.38070,1.54109
1067.89092,1.44651
1066.40113,1.35196
1064.91134,1.36966
1063.42155,1.52809
1061.93176,1.39847
1060.44197,1.23204
1058.95219,1.31353
1057.46240,1.30964
1055.97261,1.30578
1054.48282,1.10600
1052.99303,0.97325
1051.50324,1.13531
1050.01345,1.03613
1048.52367,0.91018
1047.03388,0.85127
1045.54409,0.79239
1044.05430,0.83738
1042.56451,0.74843
1041.07472,0.65281
1039.58494,0.51033
1038.09515,0.49852
1036.60536,0.43651
1035.11557,0.37453
1033.62578,0.51022
1032.13599,0.57895
1030.64620,0.72475
1029.15642,0.62942
1027.66663,0.60614
1026.17684,0.58289
1024.68705,0.56471
1023.19726,0.69730
1021.70747,0.80982
1020.21769,0.94248
1018.72790,1.09862
1017.23811,1.17440
1015.74832,1.25022
1014.25853,1.33948
1012.76874,1.52256
1011.27896,1.69228
1009.78917,1.71465
1008.29938,1.76720
1006.80959,1.73939
1005.31980,1.71162
1003.83001,1.69393
1002.34022,1.79017
1000.85044,1.82950
999.36065,1.73823
997.87086,1.75753
996.38107,1.77687
994.89128,1.58521
993.40149,1.69841
991.91171,1.76475
990.42192,1.84452
988.93213,1.76020
987.44234,1.77472
985.95255,1.78929
984.46276,1.88930
982.97297,1.71468
981.48319,1.57359
979.99340,1.53302
978.50361,1.43722
977.01382,1.34146
975.52403,1.23065
974.03424,1.21703
972.54446,1.17664
971.05467,1.07599
969.56488,0.94189
968.07509,0.89826
966.58530,0.85466
965.09551,0.86470
963.60573,0.90826
962.11594,0.62360
960.62615,0.78783
959.13636,0.67742
957.64657,0.56704
956.15678,0.65768
954.66699,0.66797
953.17721,0.67494
951.68742,0.54126
950.19763,0.57845
948.70784,0.61567
947.21805,0.48545
945.72826,0.43230
944.23848,0.54667
942.74869,0.66778
941.25890,0.61809
939.76911,0.64548
938.27932,0.67291
936.78953,0.75396
935.29974,0.98244
933.80996,0.96643
932.32017,1.02749
930.83038,0.93115
929.34059,0.83485
927.85080,1.16065
926.36101,1.19171
924.87123,1.22950
923.38144,1.34437
921.89165,1.30687
920.40186,1.26940
918.91207,1.29059
917.42228,1.22137
915.93250,1.18234
914.44271,1.15339
912.95292,1.13787
911.46313,1.12239
909.97334,1.01315
908.48355,0.94415
906.99376,0.92542
905.50398,0.73590
904.01419,0.75409
902.52440,0.77232
901.03461,0.67335
899.54482,0.78879
898.05503,0.82722
896.56525,0.78530
895.07546,0.81208
893.58567,0.83890
892.09588,0.84398
890.60609,1.04003
889.11630,1.00163
887.62651,1.03027
886.13673,1.04051
884.64694,1.05080
883.15715,1.12643
881.66736,1.05137
880.17757,1.28451
878.68778,1.26646
877.19800,1.24845
875.70821,1.35776
874.21842,1.37667
872.72863,1.51955
871.23884,1.75960
869.74905,1.64798
868.25927,1.53638
866.76948,1.75310
865.27969,2.00000
863.78990,1.77128
862.30011,1.78042
860.81032,1.72427
859.32053,1.66817
857.83075,1.63722
856.34096,1.74699
854.85117,1.64912
853.36138,1.72547
851.87159,1.65949
850.38180,1.59355
848.89202,1.53601
847.40223,1.33448
845.91244,1.29377
844.42265,1.17270
842.93286,1.05166
841.44307,0.85362
839.95329,0.76950
838.46350,0.72227
836.97371,0.60807
835.48392,0.52574
833.99413,0.44344
832.50434,0.49684
831.01455,0.40958
829.52477,0.44965
828.03498,0.40267
826.54519,0.45286
825.05540,0.50309
823.56561,0.45286
822.07582,0.34572
820.58604,0.18837
819.09625,0.20692
817.60646,0.22550
816.11667,0.22570
814.62688,0.26277
813.13709,0.16925
811.64730,0.23989
810.15752,0.12131
808.66773,0.00277
807.17794,0.08635
805.68815,0.13313
804.19836,0.23353
802.70857,0.17151
801.21879,0.10952
799.72900,0.13968
798.23921,0.13974
796.74942,0.03933
795.25963,0.02104
793.76984,0.00277
792.28006,0.13299
790.79027,0.12924
789.30048,0.07194
787.81069,0.05823
786.32090,0.05961
784.83111,0.06104
783.34132,0.29531
781.85154,0.19129
780.36175,0.08731
778.87196,0.05035
777.38217,0.01344
775.89238,0.00000
774.40259,0.09355
772.91281,0.12013
771.42302,0.09986
769.93323,0.07962
768.44344,0.07281
766.95365,0.02250
765.46386,0.05261
763.97407,0.02581
762.48429,0.09284
760.99450,0.15991
759.50471,0.06958
758.01492,0.05297
756.52513,0.22734
755.03534,0.19573
753.54556,0.16416
752.05577,0.03381
750.56598,0.09442
749.07619,0.03783
747.58640,0.04660
746.09661,0.05540
744.60683,0.06257
743.11704,0.00277
741.62725,0.17845
740.13746,0.18333
738.64767,0.18825
737.15788,0.13961
735.66809,0.16470
734.17831,0.25681
732.68852,0.16976
731.19873,0.08273
729.70894,0.15821
728.21915,0.14663
726.72936,0.20207
725.23958,0.28436
723.74979,0.28795
722.26000,0.29159
720.77021,0.33378
719.28042,0.22862
717.79063,0.29768
716.30084,0.27130
714.81106,0.24497
713.32127,0.33758
711.83148,0.33309
710.34169,0.24489
708.85190,0.22540
707.36211,0.20594
705.87233,0.32553
704.38254,0.16713
702.89275,0.18965
701.40296,0.20383
699.91317,0.21805
698.42338,0.32777
696.93360,0.15280
695.44381,0.24584
693.95402,0.22000
692.46423,0.19420
690.97444,0.16341
689.48465,0.28004
687.99486,0.32301
686.50508,0.37440
685.01529,0.42581
683.52550,0.34831
682.03571,0.25408
680.54592,0.32068
679.05613,0.31530
677.56635,0.30995
676.07656,0.21252
674.58677,0.27591
673.09698,0.17186
671.60719,0.17670
670.11740,0.18158
668.62761,0.24511
667.13783,0.25509
665.64804,0.15623
664.15825,0.05741
662.66846,0.10099
661.17867,0.05081
659.68888,0.13131
658.19910,0.11805
656.70931,0.10482
655.21952,0.02464
653.72973,0.08853
652.23994,0.02182
650.75015,0.06233
649.26037,0.10288
647.77058,0.21046
646.28079,0.08694
644.79100,0.16780
643.30121,0.12642
641.81142,0.08508
640.32163,0.18279
638.83185,0.00585
637.34206,0.11306
635.85227,0.08464
634.36248,0.05625
632.87269,0.00277
631.38290,0.07655
629.89312,0.00633
628.40333,0.07181
626.91354,0.13732
625.42375,0.06051
623.93396,0.19141
622.44417,0.17496
620.95438,0.15855
619.46460,0.20917
617.97481,0.23637
616.48502,0.00903
614.99523,0.07483
613.50544,0.14066
612.01565,0.20821
610.52587,0.11835
609.03608,0.19601
607.54629,0.24859
606.05650,0.30120
604.56671,0.26508
603.07692,0.29934
601.58714,0.24487
600.09735,0.19043
598.60756,0.19465
597.11777,0.14866
595.62798,0.14960
594.13819,0.11038
592.64840,0.07120
591.15862,0.16939
589.66883,0.11687
588.17904,0.30893
586.68925,0.35362
585.19946,0.39836
583.70967,0.52017
582.21989,0.43434
580.73010,0.36362
579.24031,0.29293
577.75052,0.36130
576.26073,0.54358
574.77094,0.56847
573.28115,0.51970
571.79137,0.47096
570.30158,0.61319
568.81179,0.57793
567.32200,0.63481
565.83221,0.69174
564.34242,0.70682
562.85264,0.89278
561.36285,0.95148
559.87306,1.09899
558.38327,1.24653
556.89348,1.16800
555.40369,1.25030
553.91391,1.27401
552.42412,1.29775
550.93433,1.44715
549.44454,1.39225
547.95475,1.68910
546.46496,1.69289
544.97517,1.69671
543.48539,1.69890
541.99560,1.60733
540.50581,1.56939
539.01602,1.53149
537.52623,1.50366
536.03644,1.57972
534.54666,1.45148
533.05687,1.43047
531.56708,1.40949
530.07729,1.57279
528.58750,1.55188
527.09771,1.41879
525.60792,1.28574
524.11814,1.15105
522.62835,0.96950
521.13856,0.95212
519.64877,0.96660
518.15898,0.98112
516.66919,0.92365
515.17941,0.99685
513.68962,1.05670
512.19983,1.11657
510.71004,0.98555
509.22025,1.05890
507.73046,1.00165
506.24068,0.92600
504.75089,0.85040
503.26110,1.17846
501.77131,1.04431
500.28152,0.97048
498.79173,0.89669
497.30194,0.70570
495.81216,0.85306
494.32237,0.80115
492.83258,0.74927
491.34279,0.69911
489.85300,0.62553
488.36321,0.69938
486.87343,0.59740
485.38364,0.49546
483.89385,0.54931
482.40406,0.25484
480.91427,0.32886
479.42448,0.40292
477.93469,0.37987
476.44491,0.14583
474.95512,0.07428
473.46533,0.00277
471.97554,0.06174
470.48575,0.10065
468.99596,0.29703
467.50618,0.18862
466.01639,0.08025
464.52660,0.29349
463.03681,0.28568
461.54702,0.30135
460.05723,0.31706
458.56745,0.43330
457.07766,0.49597
455.58787,0.60558
454.09808,0.71522
452.60829,0.97229
451.11850,0.74033
449.62871,0.86851
448.13893,0.99672
446.64914,1.22043
445.15935,1.20969
443.66956,1.17220
442.17977,1.20676
440.68998,1.24135
439.20020,1.22071
437.71041,1.16661
436.22062,1.10417
434.73083,1.04177
433.24104,1.19211
431.75125,1.08455
430.26146,1.14954
428.77168,1.21457
427.28189,1.30476
425.79210,1.38828
424.30231,1.40149
422.81252,1.41474
421.32273,1.47492
419.83295,1.54854
418.34316,1.63056
416.85337,1.71262
415.36358,1.53177
413.87379,1.63567
412.38400,1.56040
410.89422,1.48517
409.40443,1.37480
407.91464,1.26446
406.42485,1.16422
404.93506,1.08577
403.44527,1.00737
401.95548,0.81008
400.46570,0.79707
398.97591,0.79247
397.48612,0.78790
395.99633,0.76829
394.50654,0.86930
393.01675,0.75430
391.52697,0.63933
390.03718,0.73711
388.54739,0.71433
387.05760,0.68991
385.56781,0.66553
384.07802,0.58591
382.58824,0.49293
381.09845,0.45860
379.60866,0.42431
378.11887,0.51232
376.62908,0.34914
375.13929,0.38865
373.64950,0.42820
372.15972,0.39576
370.66993,0.37341
369.18014,0.35779
367.69035,0.34221
366.20056,0.35346
364.71077,0.32455
363.22099,0.20691
361.73120,0.08930
360.24141,0.25478
358.75162,0.38010
357.26183,0.25925
355.77204,0.13844
354.28225,0.10308
352.79247,0.16490
351.30268,0.13798
349.81289,0.11110
348.32310,0.12948
346.83331,0.01391
345.34352,0.03738
343.85374,0.06089
342.36395,0.11291
340.87416,0.28555
339.38437,0.23380
337.89458,0.18208
336.40479,0.17729
334.91501,0.13234
333.42522,0.07571
331.93543,0.01911
330.44564,0.14175
328.95585,0.17734
327.46606,0.10075
325.97627,0.02420
324.48649,0.01300
322.99670,0.11228
321.50691,0.05751
320.01712,0.00277
318.52733,0.14539
317.03754,0.02676
315.54776,0.05724
314.05797,0.08774
312.56818,0.00942
311.07839,0.13547
309.58860,0.06894
308.09881,0.00245
306.60902,0.23914
305.11924,0.16100
303.62945,0.08289
302.13966,0.00482
300.64987,0.08082
299.16008,0.00277
