1778.52000,0.01035
1777.03021,0.03018
1775.54042,0.01673
1774.05063,0.04289
1772.56085,0.05242
1771.07106,0.00161
1769.58127,0.02580
1768.09148,0.01670
1766.60169,0.00973
1765.11190,0.01321
1763.62212,0.07295
1762.13233,0.00154
1760.64254,0.02388
1759.15275,0.05458
1757.66296,0.07491
1756.17317,0.06404
1754.68339,0.05529
1753.19360,0.02992
1751.70381,0.04624
1750.21402,0.05218
1748.72423,0.05400
1747.23444,0.02045
1745.74465,0.01402
1744.25487,0.08883
1742.76508,0.09080
1741.27529,0.08031
1739.78550,0.09069
1738.29571,0.11151
1736.80592,0.10531
1735.31614,0.05749
1733.82635,0.06178
1732.33656,0.00154
1730.84677,0.04591
1729.35698,0.05283
1727.86719,0.08687
1726.37740,0.04597
1724.88762,0.10299
1723.39783,0.03510
1721.90804,0.06928
1720.41825,0.11184
1718.92846,0.06072
1717.43867,0.05129
1715.94889,0.07314
1714.45910,0.10959
1712.96931,0.07737
1711.47952,0.10766
1709.98973,0.09634
1708.49994,0.13920
1707.01016,0.10921
1705.52037,0.07927
1704.03058,0.06810
1702.54079,0.10903
1701.05100,0.14583
1699.56121,0.10146
1698.07142,0.12793
1696.58164,0.11071
1695.09185,0.13308
1693.60206,0.12010
1692.11227,0.10924
1690.62248,0.15672
1689.13269,0.11054
1687.64291,0.12686
1686.15312,0.09533
1684.66333,0.15129
1683.17354,0.12816
1681.68375,0.13423
1680.19396,0.10910
1678.70417,0.15064
1677.21439,0.11100
1675.72460,0.13180
1674.23481,0.14847
1672.74502,0.07771
1671.25523,0.10487
1669.76544,0.07792
1668.27566,0.11557
1666.78587,0.13659
1665.29608,0.11808
1663.80629,0.12877
1662.31650,0.11451
1660.82671,0.14401
1659.33693,0.17148
1657.84714,0.12818
1656.35735,0.03077
1654.86756,0.15414
1653.37777,0.04848
1651.88798,0.09488
1650.39819,0.11632
1648.90841,0.05034
1647.41862,0.07186
1645.92883,0.06219
1644.43904,0.05255
1642.94925,0.05961
1641.45946,0.00632
1639.96968,0.12381
1638.47989,0.12057
1636.99010,0.07781
1635.50031,0.12462
1634.01052,0.08194
1632.52073,0.08093
1631.03094,0.11328
1629.54116,0.11236
1628.05137,0.17394
1626.56158,0.07522
1625.07179,0.01402
1623.58200,0.08196
1622.09221,0.02709
1620.60243,0.00765
1619.11264,0.07362
1617.62285,0.06675
1616.13306,0.07866
1614.64327,0.10311
1613.15348,0.16299
1611.66370,0.09797
1610.17391,0.12669
1608.68412,0.03051
1607.19433,0.10096
1605.70454,0.13396
1604.21475,0.10245
1602.72496,0.07097
1601.23518,0.07494
1599.74539,0.06020
1598.25560,0.10588
1596.76581,0.04333
1595.27602,0.11408
1593.78623,0.06410
1592.29645,0.11826
1590.80666,0.05586
1589.31687,0.04555
1587.82708,0.04570
1586.33729,0.10627
1584.84750,0.09816
1583.35771,0.05469
1581.86793,0.06539
1580.37814,0.03449
1578.88835,0.01613
1577.39856,0.02070
1575.90877,0.10444
1574.41898,0.06745
1572.92920,0.01383
1571.43941,0.02481
1569.94962,0.03790
1568.45983,0.05104
1566.97004,0.09128
1565.48025,0.02745
1563.99047,0.08026
1562.50068,0.08938
1561.01089,0.03399
1559.52110,0.00154
1558.03131,0.03275
1556.54152,0.02027
1555.05173,0.07446
1553.56195,0.03915
1552.07216,0.04136
1550.58237,0.04152
1549.09258,0.11252
1547.60279,0.06695
1546.11300,0.14636
1544.62322,0.04881
1543.13343,0.05333
1541.64364,0.07246
1540.15385,0.05312
1538.66406,0.03380
1537.17427,0.04681
1535.68448,0.00154
1534.19470,0.06426
1532.70491,0.00000
1531.21512,0.10444
1529.72533,0.11730
1528.23554,0.03233
1526.74575,0.06193
1525.25597,0.05824
1523.76618,0.07542
1522.27639,0.04058
1520.78660,0.09531
1519.29681,0.03764
1517.80702,0.12785
1516.31724,0.00154
1514.82745,0.06065
1513.33766,0.06253
1511.84787,0.06445
1510.35808,0.06120
1508.86829,0.02675
1507.37850,0.03191
1505.88872,0.01836
1504.39893,0.08190
1502.90914,0.05593
1501.41935,0.03834
1499.92956,0.06451
1498.43977,0.04907
1496.94999,0.05658
1495.46020,0.05163
1493.97041,0.19039
1492.48062,0.17719
1490.99083,0.27231
1489.50104,0.40703
1488.01125,0.38353
1486.52147,0.36006
1485.03168,0.44284
1483.54189,0.59853
1482.05210,0.55228
1480.56231,0.66432
1479.07252,0.61398
1477.58274,0.71986
1476.09295,0.90697
1474.60316,0.98793
1473.11337,0.96482
1471.62358,1.09167
1470.13379,0.97284
1468.64401,0.92277
1467.15422,0.88106
1465.66443,0.82898
1464.17464,0.77694
1462.68485,0.75826
1461.19506,0.71462
1459.70527,0.71268
1458.21549,0.61290
1456.72570,0.60686
1455.23591,0.42386
1453.74612,0.34294
1452.25633,0.33493
1450.76654,0.21035
1449.27676,0.22325
1447.78697,0.20078
1446.29718,0.23457
1444.80739,0.22676
1443.31760,0.21898
1441.82781,0.19667
1440.33802,0.12025
1438.84824,0.08969
1437.35845,0.15703
1435.86866,0.13487
1434.37887,0.14814
1432.88908,0.11565
1431.39929,0.11650
1429.90951,0.15280
1428.41972,0.12666
1426.92993,0.22342
1425.44014,0.23485
1423.95035,0.23798
1422.46056,0.24115
1420.97078,0.12567
1419.48099,0.25177
1417.99120,0.16968
1416.50141,0.21257
1415.01162,0.16595
1413.52183,0.19851
1412.03204,0.20403
1410.54226,0.27414
1409.05247,0.32554
1407.56268,0.33118
1406.07289,0.35976
1404.58310,0.37692
1403.09331,0.39412
1401.60353,0.44572
1400.11374,0.46404
1398.62395,0.58860
1397.13416,0.55910
1395.64437,0.63792
1394.15458,0.62932
1392.66479,0.76445
1391.17501,0.74343
1389.68522,0.69955
1388.19543,0.70152
1386.70564,0.71393
1385.21585,0.72639
1383.72606,0.70765
1382.23628,0.77640
1380.74649,0.75982
1379.25670,0.72453
1377.76691,0.79757
1376.27712,0.70614
1374.78733,0.79174
1373.29755,0.81491
1371.80776,0.94640
1370.31797,0.96341
1368.82818,1.04292
1367.33839,1.12246
1365.84860,1.19372
1364.35881,1.35039
1362.86903,1.41964
1361.37924,1.43479
1359.88945,1.48538
1358.39966,1.28820
1356.90987,1.42008
1355.42008,1.26047
1353.93030,1.33619
1352.44051,1.37552
1350.95072,1.41488
1349.46093,1.14923
1347.97114,1.10641
1346.48135,1.04074
1344.99156,0.93762
1343.50178,0.83453
1342.01199,0.89182
1340.52220,0.80131
1339.03241,0.67335
1337.54262,0.77865
1336.05283,0.70387
1334.56305,0.62913
1333.07326,0.59711
1331.58347,0.52557
1330.09368,0.49779
1328.60389,0.44090
1327.11410,0.40071
1325.62432,0.42094
1324.13453,0.27879
1322.64474,0.35115
1321.15495,0.34859
1319.66516,0.32108
1318.17537,0.29361
1316.68558,0.17664
1315.19580,0.24087
1313.70601,0.16354
1312.21622,0.14455
1310.72643,0.14226
1309.23664,0.15458
1307.74685,0.15653
1306.25707,0.18142
1304.76728,0.18553
1303.27749,0.18968
1301.78770,0.14805
1300.29791,0.17101
1298.80812,0.32104
1297.31834,0.28577
1295.82855,0.32342
1294.33876,0.29656
1292.84897,0.25933
1291.35918,0.31792
1289.86939,0.29743
1288.37960,0.27697
1286.88982,0.36899
1285.40003,0.36527
1283.91024,0.40114
1282.42045,0.40166
1280.93066,0.32517
1279.44087,0.43196
1277.95109,0.39095
1276.46130,0.42910
1274.97151,0.43813
1273.48172,0.44721
1271.99193,0.55419
1270.50214,0.48630
1269.01235,0.45592
1267.52257,0.42767
1266.03278,0.49941
1264.54299,0.62948
1263.05320,0.54929
1261.56341,0.53264
1260.07362,0.51603
1258.58384,0.44844
1257.09405,0.50583
1255.60426,0.40917
1254.11447,0.31879
1252.62468,0.46791
1251.13489,0.44216
1249.64511,0.33316
1248.15532,0.40119
1246.66553,0.38076
1245.17574,0.36037
1243.68595,0.35355
1242.19616,0.35093
1240.70637,0.35460
1239.21659,0.25836
1237.72680,0.27043
1236.23701,0.22216
1234.74722,0.29053
1233.25743,0.28398
1231.76764,0.27747
1230.27786,0.28141
1228.78807,0.28538
1227.29828,0.26857
1225.80849,0.27262
1224.31870,0.15386
1222.82891,0.19130
1221.33912,0.25169
1219.84934,0.22987
1218.35955,0.20808
1216.86976,0.16030
1215.37997,0.20002
1213.89018,0.15857
1212.40039,0.17129
1210.91061,0.17156
1209.42082,0.14272
1207.93103,0.14098
1206.44124,0.13928
1204.95145,0.15428
1203.46166,0.13600
1201.97188,0.11776
1200.48209,0.04749
1198.99230,0.08139
1197.50251,0.07367
1196.01272,0.08473
1194.52293,0.07814
1193.03314,0.07158
1191.54336,0.00154
1190.05357,0.13070
1188.56378,0.07873
1187.07399,0.09760
1185.58420,0.08319
1184.09441,0.07299
1182.60463,0.11175
1181.11484,0.15056
1179.62505,0.08216
1178.13526,0.09502
1176.64547,0.14747
1175.15568,0.22079
1173.66589,0.24416
1172.17611,0.20511
1170.68632,0.24106
1169.19653,0.27705
1167.70674,0.20479
1166.21695,0.28042
1164.72716,0.37691
1163.23738,0.36099
1161.74759,0.55126
1160.25780,0.54792
1158.76801,0.59146
1157.27822,0.63504
1155.78843,0.61515
1154.29865,0.70566
1152.80886,0.61921
1151.31907,0.79933
1149.82928,0.87122
1148.33949,0.87234
1146.84970,0.83394
1145.35991,0.79558
1143.87013,0.89468
1142.38034,0.85639
1140.89055,0.96599
1139.40076,0.97775
1137.91097,1.05827
1136.42118,1.09093
1134.93140,1.17153
1133.44161,1.25216
1131.95182,1.26203
1130.46203,1.28028
1128.97224,1.36519
1127.48245,1.28147
1125.99266,1.38728
1124.50288,1.32030
1123.01309,1.31062
1121.52330,1.30098
1120.03351,1.33406
1118.54372,1.27140
1117.05393,1.23168
1115.56415,1.18575
1114.07436,1.16277
1112.58457,1.16064
1111.09478,1.15856
1109.60499,1.07322
1108.11520,1.23155
1106.62542,1.07965
1105.13563,1.09021
1103.64584,1.03209
1102.15605,1.21140
1100.66626,1.18980
1099.17647,1.16823
1097.68668,1.19356
1096.19690,1.13564
1094.70711,1.10482
1093.21732,1.28852
1091.72753,1.39937
1090.23774,1.43218
1088.74795,1.46503
1087.25817,1.47188
1085.76838,1.57664
1084.27859,1.56067
1082.78880,1.50309
1081.29901,1.41431
1079.80922,1.41303
1078.31943,1.40762
1076.82965,1.40225
1075.33986,1.51769
1073.85007,1.65815
1072.36028,1.68205
1070.87049,1.66642
1069.38070,1.65083
1067.89092,1.60300
1066.40113,1.55521
1064.91134,1.50433
1063.42155,1.53887
1061.93176,1.48390
1060.44197,1.36651
1058.95219,1.32828
1057.46240,1.30154
1055.97261,1.27484
1054.48282,1.19300
1052.99303,1.27778
1051.50324,1.10231
1050.01345,1.12053
1048.52367,1.09714
1047.03388,1.05193
1045.54409,1.00676
1044.05430,0.86688
1042.56451,0.76868
1041.07472,0.63513
1039.58494,0.59948
1038.09515,0.54304
1036.60536,0.57306
1035.11557,0.60312
1033.62578,0.65508
1032.13599,0.60712
1030.64620,0.56129
1029.15642,0.60087
1027.66663,0.62696
1026.17684,0.65308
1024.68705,0.70110
1023.19726,0.73459
1021.70747,0.87431
1020.21769,0.93911
1018.72790,1.08932
1017.23811,1.18647
1015.74832,1.28365
1014.25853,1.50686
1012.76874,1.69679
1011.27896,1.70351
1009.78917,1.79564
1008.29938,1.81286
1006.80959,1.78117
1005.31980,1.74952
1003.83001,1.75852
1002.34022,1.71341
1000.85044,1.78495
999.36065,1.90443
997.87086,1.85319
996.38107,1.80199
994.89128,1.73625
993.40149,1.53936
991.91171,1.55075
990.42192,1.77040
988.93213,1.82767
987.44234,1.81731
985.95255,1.80698
984.46276,1.71444
982.97297,1.76353
981.48319,1.63567
979.99340,1.51617
978.50361,1.43836
977.01382,1.36059
975.52403,1.15792
974.03424,1.15935
972.54446,1.12125
971.05467,1.04988
969.56488,0.90358
968.07509,0.88018
966.58530,0.85681
965.09551,0.87097
963.60573,0.84768
962.11594,0.74738
960.62615,0.75957
959.13636,0.74993
957.64657,0.74033
956.15678,0.65892
954.66699,0.65044
953.17721,0.59410
951.68742,0.59402
950.19763,0.58045
948.70784,0.56691
947.21805,0.58569
945.72826,0.48373
944.23848,0.54840
942.74869,0.58187
941.25890,0.72990
939.76911,0.78739
938.27932,0.84492
936.78953,0.85355
935.29974,0.96426
933.80996,1.01045
932.32017,1.13789
930.83038,1.10295
929.34059,1.06804
927.85080,1.37468
926.36101,1.46895
924.87123,1.49663
923.38144,1.42648
921.89165,1.47818
920.40186,1.52993
918.91207,1.63480
917.42228,1.47943
915.93250,1.47611
914.44271,1.37287
912.95292,1.31027
911.46313,1.24772
909.97334,1.22164
908.48355,1.15604
906.99376,1.07173
905.50398,1.03952
904.01419,0.96362
902.52440,0.88776
901.03461,0.88690
899.54482,0.88816
898.05503,0.88737
896.56525,0.93036
895.07546,0.94319
893.58567,0.95605
892.09588,0.93251
890.60609,1.15265
889.11630,1.12710
887.62651,1.19322
886.13673,1.20628
884.64694,1.21937
883.15715,1.19815
881.66736,1.30398
880.17757,1.35363
878.68778,1.42831
877.19800,1.50302
875.70821,1.64024
874.21842,1.75668
872.72863,1.77528
871.23884,1.77311
869.74905,1.88653
868.25927,2.00000
866.76948,1.93338
865.27969,1.97301
863.78990,1.84191
862.30011,1.95241
860.81032,1.87762
859.32053,1.80286
857.83075,1.91764
856.34096,1.83672
854.85117,1.92866
853.36138,1.79159
851.87159,1.74618
850.38180,1.70081
848.89202,1.67214
847.40223,1.44985
845.91244,1.44623
844.42265,1.31252
842.93286,1.17884
841.44307,1.13370
839.95329,0.93658
838.46350,0.80614
836.97371,0.56746
835.48392,0.55891
833.99413,0.55040
832.50434,0.53048
831.01455,0.41064
829.52477,0.50532
828.03498,0.46885
826.54519,0.46365
825.05540,0.45849
823.56561,0.38258
822.07582,0.36708
820.58604,0.26834
819.09625,0.27687
817.60646,0.28543
816.11667,0.19513
814.62688,0.26937
813.13709,0.10210
811.64730,0.19931
810.15752,0.17476
808.66773,0.15024
807.17794,0.15179
805.68815,0.13047
804.19836,0.10918
802.70857,0.11605
801.21879,0.12296
799.72900,0.17051
798.23921,0.12856
796.74942,0.10747
795.25963,0.14368
793.76984,0.17993
792.28006,0.07149
790.79027,0.09220
789.30048,0.12961
787.81069,0.17122
786.32090,0.13790
784.83111,0.10462
783.34132,0.12760
781.85154,0.02777
780.36175,0.08831
778.87196,0.05831
777.38217,0.02834
775.89238,0.00154
774.40259,0.10556
772.91281,0.13256
771.42302,0.12733
769.93323,0.12213
768.44344,0.08470
766.95365,0.09312
765.46386,0.04952
763.97407,0.05176
762.48429,0.10090
760.99450,0.15007
759.50471,0.04832
758.01492,0.05280
756.52513,0.08648
755.03534,0.11082
753.54556,0.13519
752.05577,0.07528
750.56598,0.10077
749.07619,0.12214
747.58640,0.08108
746.09661,0.04006
744.60683,0.10111
743.11704,0.09972
741.62725,0.22540
740.13746,0.18870
738.64767,0.15203
737.15788,0.17995
735.66809,0.12878
734.17831,0.15678
732.68852,0.11610
731.19873,0.07546
729.70894,0.00154
728.21915,0.02426
726.72936,0.17195
725.23958,0.08854
723.74979,0.15927
722.26000,0.23003
720.77021,0.25918
719.28042,0.24256
717.79063,0.28637
716.30084,0.31251
714.81106,0.33869
713.32127,0.31181
711.83148,0.32662
710.34169,0.27483
708.85190,0.28347
707.36211,0.29214
705.87233,0.26962
704.38254,0.21382
702.89275,0.24551
701.40296,0.23560
699.91317,0.22572
698.42338,0.26794
696.93360,0.31020
695.44381,0.24005
693.95402,0.24907
692.46423,0.25813
690.97444,0.25265
689.48465,0.32841
687.99486,0.30427
686.50508,0.35304
685.01529,0.40185
683.52550,0.36116
682.03571,0.25596
680.54592,0.30072
679.05613,0.30699
677.56635,0.31331
676.07656,0.33736
674.58677,0.21986
673.09698,0.16278
671.60719,0.21922
670.11740,0.27570
668.62761,0.20208
667.13783,0.09101
665.64804,0.06119
664.15825,0.03141
662.66846,0.05372
661.17867,0.07191
659.68888,0.16094
658.19910,0.14484
656.70931,0.12879
655.21952,0.00553
653.72973,0.06027
652.23994,0.17336
650.75015,0.16571
649.26037,0.15810
647.77058,0.17759
646.28079,0.16589
644.79100,0.23127
643.30121,0.14573
641.81142,0.06022
640.32163,0.15279
638.83185,0.09338
637.34206,0.10690
635.85227,0.11941
634.36248,0.13197
632.87269,0.00816
631.38290,0.03689
629.89312,0.10730
628.40333,0.06322
626.91354,0.01918
625.42375,0.15010
623.93396,0.27272
622.44417,0.21109
620.95438,0.14951
619.46460,0.00154
617.97481,0.05659
616.48502,0.12000
614.99523,0.10641
613.50544,0.09285
612.01565,0.15013
610.52587,0.24285
609.03608,0.30020
607.54629,0.29305
606.05650,0.28593
604.56671,0.42044
603.07692,0.38633
601.58714,0.35538
600.09735,0.32447
598.60756,0.15304
597.11777,0.23985
595.62798,0.24133
594.13819,0.20745
592.64840,0.17361
591.15862,0.29597
589.66883,0.14143
588.17904,0.29511
586.68925,0.36033
585.19946,0.42558
583.70967,0.43778
582.21989,0.39796
580.73010,0.40294
579.24031,0.40796
577.75052,0.37034
576.26073,0.44936
574.77094,0.58255
573.28115,0.59710
571.79137,0.61168
570.30158,0.51594
568.81179,0.67220
567.32200,0.72126
565.83221,0.77035
564.34242,0.92672
562.85264,1.03732
561.36285,1.22084
559.87306,1.29195
558.38327,1.36310
556.89348,1.41139
555.40369,1.51385
553.91391,1.57782
552.42412,1.64184
550.93433,1.59449
549.44454,1.82412
547.95475,1.87472
546.46496,1.88787
544.97517,1.90106
543.48539,1.84973
541.99560,1.97753
540.50581,1.92524
539.01602,1.87299
537.52623,1.92177
536.03644,1.72071
534.54666,1.76124
533.05687,1.65916
531.56708,1.55713
530.07729,1.76227
528.58750,1.79462
527.09771,1.63648
525.60792,1.47838
524.11814,1.35259
522.62835,1.37885
521.13856,1.18025
519.64877,1.18368
518.15898,1.18715
516.66919,1.12193
515.17941,1.09632
513.68962,1.09991
512.19983,1.10352
510.71004,1.24670
509.22025,1.12129
507.73046,1.11877
506.24068,1.03613
504.75089,0.95353
503.26110,1.04483
501.77131,0.99041
500.28152,0.92354
498.79173,0.85670
497.30194,0.71911
495.81216,0.76063
494.32237,0.76887
492.83258,0.77715
491.34279,0.71884
489.85300,0.54812
488.36321,0.56068
486.87343,0.56182
485.38364,0.56300
483.89385,0.50072
482.40406,0.29270
480.91427,0.28047
479.42448,0.26827
477.93469,0.16240
476.44491,0.07740
474.95512,0.11217
473.46533,0.14698
471.97554,0.08083
470.48575,0.04595
468.99596,0.02153
467.50618,0.04191
466.01639,0.06233
464.52660,0.12756
463.03681,0.28445
461.54702,0.35705
460.05723,0.42968
458.56745,0.46799
457.07766,0.57714
455.58787,0.65092
454.09808,0.72475
452.60829,0.99227
451.11850,1.15155
449.62871,1.25360
448.13893,1.35569
446.64914,1.32975
445.15935,1.37466
443.66956,1.37795
442.17977,1.36671
440.68998,1.35550
439.20020,1.23398
437.71041,1.36236
436.22062,1.31900
434.73083,1.27567
433.24104,1.35211
431.75125,1.16831
430.26146,1.22713
428.77168,1.28598
427.28189,1.50209
425.79210,1.47253
424.30231,1.48569
422.81252,1.49889
421.32273,1.69642
419.83295,1.68783
418.34316,1.76153
416.85337,1.83527
415.36358,1.85179
413.87379,1.75798
412.38400,1.75687
410.89422,1.75580
409.40443,1.61630
407.91464,1.47475
406.42485,1.18748
404.93506,1.13138
403.44527,1.07532
401.95548,0.92559
400.46570,0.82380
398.97591,0.88134
397.48612,0.93892
395.99633,0.84973
394.50654,0.79182
393.01675,0.80162
391.52697,0.81146
390.03718,0.92649
388.54739,0.79377
387.05760,0.75271
385.56781,0.71168
384.07802,0.59781
382.58824,0.69638
381.09845,0.61278
379.60866,0.52922
378.11887,0.46548
376.62908,0.48091
375.13929,0.53073
373.64950,0.58059
372.15972,0.45662
370.66993,0.50552
369.18014,0.48990
367.69035,0.47432
366.20056,0.59205
364.71077,0.43079
363.22099,0.36743
361.73120,0.30411
360.24141,0.20751
358.75162,0.34001
357.26183,0.41632
355.77204,0.49267
354.28225,0.30252
352.79247,0.28108
351.30268,0.29819
349.81289,0.31535
348.32310,0.18782
346.83331,0.33520
345.34352,0.25356
343.85374,0.17196
342.36395,0.21950
340.87416,0.25875
339.38437,0.24077
337.89458,0.22284
336.40479,0.19557
334.91501,0.17250
333.42522,0.08700
331.93543,0.00154
330.44564,0.06410
328.95585,0.11004
327.46606,0.13312
325.97627,0.15623
324.48649,0.06901
322.99670,0.10470
321.50691,0.10293
320.01712,0.10121
318.52733,0.15158
317.03754,0.08122
315.54776,0.11293
314.05797,0.14467
312.56818,0.00154
311.07839,0.07221
309.58860,0.11793
308.09881,0.16368
306.60902,0.14493
305.11924,0.04291
303.62945,0.02632
302.13966,0.00871
300.64987,0.00154
299.16008,0.00154
