1778.52000,0.07801
1777.03021,0.09193
1775.54042,0.09704
1774.05063,0.14058
1772.56085,0.12809
1771.07106,0.19240
1769.58127,0.13869
1768.09148,0.13521
1766.60169,0.16425
1765.11190,0.12250
1763.62212,0.00701
1762.13233,0.13363
1760.64254,0.12746
1759.15275,0.22761
1757.66296,0.14775
1756.17317,0.03843
1754.68339,0.00000
1753.19360,0.12103
1751.70381,0.08566
1750.21402,0.07395
1748.72423,0.10659
1747.23444,0.17764
1745.74465,0.19857
1744.25487,0.00701
1742.76508,0.12458
1741.27529,0.05032
1739.78550,0.02335
1738.29571,0.18535
1736.80592,0.15553
1735.31614,0.23794
1733.82635,0.19051
1732.33656,0.05163
1730.84677,0.00726
1729.35698,0.14006
1727.86719,0.09875
1726.37740,0.09882
1724.88762,0.11665
1723.39783,0.05484
1721.90804,0.08163
1720.41825,0.04649
1718.92846,0.04092
1717.43867,0.07673
1715.94889,0.14801
1714.45910,0.12488
1712.96931,0.07229
1711.47952,0.10241
1709.98973,0.09715
1708.49994,0.04472
1707.01016,0.09713
1705.52037,0.14960
1704.03058,0.22721
1702.54079,0.19860
1701.05100,0.25565
1699.56121,0.08250
1698.07142,0.15737
1696.58164,0.07879
1695.09185,0.20100
1693.60206,0.18156
1692.11227,0.20056
1690.62248,0.18713
1689.13269,0.24165
1687.64291,0.21947
1686.15312,0.20916
1684.66333,0.10443
1683.17354,0.20344
1681.68375,0.27004
1680.19396,0.27764
1678.70417,0.13771
1677.21439,0.24873
1675.72460,0.25650
1674.23481,0.21709
1672.74502,0.19544
1671.25523,0.20041
1669.76544,0.25266
1668.27566,0.18984
1666.78587,0.20088
1665.29608,0.04075
1663.80629,0.10797
1662.31650,0.14573
1660.82671,0.11565
1659.33693,0.23616
1657.84714,0.21504
1656.35735,0.19988
1654.86756,0.17886
1653.37777,0.11657
1651.88798,0.20783
1650.39819,0.13384
1648.90841,0.14550
1647.41862,0.08047
1645.92883,0.12619
1644.43904,0.17196
1642.94925,0.11299
1641.45946,0.14263
1639.96968,0.00701
1638.47989,0.10820
1636.99010,0.14744
1635.50031,0.10409
1634.01052,0.10211
1632.52073,0.10019
1631.03094,0.13965
1629.54116,0.21163
1628.05137,0.30138
1626.56158,0.14026
1625.07179,0.15041
1623.58200,0.10157
1622.09221,0.06460
1620.60243,0.00701
1619.11264,0.03765
1617.62285,0.12148
1616.13306,0.15223
1614.64327,0.11218
1613.15348,0.29358
1611.66370,0.10310
1610.17391,0.16062
1608.68412,0.16211
1607.19433,0.17547
1605.70454,0.13278
1604.21475,0.12263
1602.72496,0.11252
1601.23518,0.14379
1599.74539,0.13380
1598.25560,0.09728
1596.76581,0.17299
1595.27602,0.16020
1593.78623,0.06480
1592.29645,0.04621
1590.80666,0.00701
1589.31687,0.08776
1587.82708,0.17152
1586.33729,0.14610
1584.84750,0.14731
1583.35771,0.22827
1581.86793,0.21482
1580.37814,0.22800
1578.88835,0.23532
1577.39856,0.16004
1575.90877,0.17337
1574.41898,0.12476
1572.92920,0.08507
1571.43941,0.09560
1569.94962,0.08405
1568.45983,0.07256
1566.97004,0.06259
1565.48025,0.08219
1563.99047,0.14317
1562.50068,0.12746
1561.01089,0.14427
1559.52110,0.14047
1558.03131,0.10130
1556.54152,0.09760
1555.05173,0.18252
1553.56195,0.03428
1552.07216,0.13997
1550.58237,0.17781
1549.09258,0.07992
1547.60279,0.15329
1546.11300,0.12635
1544.62322,0.22639
1543.13343,0.25859
1541.64364,0.16686
1540.15385,0.13423
1538.66406,0.10165
1537.17427,0.20196
1535.68448,0.10749
1534.19470,0.16657
1532.70491,0.11649
1531.21512,0.13730
1529.72533,0.22311
1528.23554,0.13481
1526.74575,0.25320
1525.25597,0.20634
1523.76618,0.17428
1522.27639,0.13932
1520.78660,0.00701
1519.29681,0.20794
1517.80702,0.22001
1516.31724,0.12881
1514.82745,0.09374
1513.33766,0.11630
1511.84787,0.13890
1510.35808,0.12171
1508.86829,0.08686
1507.37850,0.06977
1505.88872,0.07045
1504.39893,0.15088
1502.90914,0.16052
1501.41935,0.19973
1499.92956,0.04121
1498.43977,0.09529
1496.94999,0.16122
1495.46020,0.22131
1493.97041,0.17813
1492.48062,0.27079
1490.99083,0.23952
1489.50104,0.36476
1488.01125,0.41478
1486.52147,0.46485
1485.03168,0.50168
1483.54189,0.61532
1482.05210,0.57847
1480.56231,0.73059
1479.07252,0.62300
1477.58274,0.83426
1476.09295,0.85666
1474.60316,0.77283
1473.11337,1.01082
1471.62358,0.94482
1470.13379,0.95267
1468.64401,0.90448
1467.15422,0.98032
1465.66443,0.96914
1464.17464,0.95801
1462.68485,0.70340
1461.19506,0.67023
1459.70527,0.71682
1458.21549,0.56568
1456.72570,0.53858
1455.23591,0.31080
1453.74612,0.36941
1452.25633,0.29523
1450.76654,0.26834
1449.27676,0.17656
1447.78697,0.34165
1446.29718,0.21455
1444.80739,0.23362
1443.31760,0.25275
1441.82781,0.07562
1440.33802,0.10223
1438.84824,0.14956
1437.35845,0.14971
1435.86866,0.14696
1434.37887,0.27415
1432.88908,0.10620
1431.39929,0.16855
1429.90951,0.04498
1428.41972,0.07497
1426.92993,0.21127
1425.44014,0.19118
1423.95035,0.14457
1422.46056,0.09802
1420.97078,0.14007
1419.48099,0.24122
1417.99120,0.16826
1416.50141,0.20457
1415.01162,0.03430
1413.52183,0.14451
1412.03204,0.21640
1410.54226,0.10532
1409.05247,0.13304
1407.56268,0.27299
1406.07289,0.35099
1404.58310,0.32131
1403.09331,0.29167
1401.60353,0.33441
1400.11374,0.32407
1398.62395,0.34330
1397.13416,0.50133
1395.64437,0.44982
1394.15458,0.54301
1392.66479,0.64805
1391.17501,0.54357
1389.68522,0.45980
1388.19543,0.51187
1386.70564,0.51528
1385.21585,0.51876
1383.72606,0.46472
1382.23628,0.51109
1380.74649,0.64608
1379.25670,0.59810
1377.76691,0.61512
1376.27712,0.57906
1374.78733,0.63455
1373.29755,0.74029
1371.80776,0.85198
1370.31797,0.84859
1368.82818,0.90430
1367.33839,0.96006
1365.84860,0.97455
1364.35881,1.13078
1362.86903,1.24574
1361.37924,1.18658
1359.88945,1.26032
1358.39966,1.28392
1356.90987,1.16294
1355.42008,1.23093
1353.93030,1.25174
1352.44051,1.15896
1350.95072,1.06623
1349.46093,0.95141
1347.97114,0.90158
1346.48135,0.84000
1344.99156,0.79029
1343.50178,0.73767
1342.01199,0.65559
1340.52220,0.68868
1339.03241,0.58013
1337.54262,0.53954
1336.05283,0.53589
1334.56305,0.53229
1333.07326,0.50956
1331.58347,0.30387
1330.09368,0.16317
1328.60389,0.33838
1327.11410,0.27453
1325.62432,0.20483
1324.13453,0.30345
1322.64474,0.09512
1321.15495,0.19089
1319.66516,0.15092
1318.17537,0.11101
1316.68558,0.13904
1315.19580,0.02248
1313.70601,0.08309
1312.21622,0.06996
1310.72643,0.05983
1309.23664,0.14421
1307.74685,0.07219
1306.25707,0.03565
1304.76728,0.02131
1303.27749,0.00701
1301.78770,0.13883
1300.29791,0.17033
1298.80812,0.26978
1297.31834,0.12132
1295.82855,0.16774
1294.33876,0.17288
1292.84897,0.18103
1291.35918,0.21285
1289.86939,0.25063
1288.37960,0.28845
1286.88982,0.22007
1285.40003,0.31704
1283.91024,0.21628
1282.42045,0.18643
1280.93066,0.24813
1279.44087,0.23609
1277.95109,0.31562
1276.46130,0.25645
1274.97151,0.31247
1273.48172,0.36853
1271.99193,0.42170
1270.50214,0.35979
1269.01235,0.38650
1267.52257,0.33946
1266.03278,0.46663
1264.54299,0.36952
1263.05320,0.51156
1261.56341,0.37912
1260.07362,0.24674
1258.58384,0.37123
1257.09405,0.49281
1255.60426,0.42258
1254.11447,0.31698
1252.62468,0.37083
1251.13489,0.30370
1249.64511,0.27796
1248.15532,0.28474
1246.66553,0.31519
1245.17574,0.34569
1243.68595,0.29654
1242.19616,0.32714
1240.70637,0.28400
1239.21659,0.25863
1237.72680,0.23330
1236.23701,0.10767
1234.74722,0.11197
1233.25743,0.19603
1231.76764,0.28013
1230.27786,0.37906
1228.78807,0.24778
1227.29828,0.13722
1225.80849,0.16840
1224.31870,0.19374
1222.82891,0.14533
1221.33912,0.15010
1219.84934,0.17412
1218.35955,0.19819
1216.86976,0.29758
1215.37997,0.31143
1213.89018,0.13935
1212.40039,0.07950
1210.91061,0.32966
1209.42082,0.12822
1207.93103,0.08181
1206.44124,0.03545
1204.95145,0.15003
1203.46166,0.17315
1201.97188,0.10186
1200.48209,0.00701
1198.99230,0.03057
1197.50251,0.05124
1196.01272,0.00701
1194.52293,0.06820
1193.03314,0.12945
1191.54336,0.02102
1190.05357,0.11337
1188.56378,0.15854
1187.07399,0.15653
1185.58420,0.07192
1184.09441,0.08773
1182.60463,0.09917
1181.11484,0.11065
1179.62505,0.11481
1178.13526,0.06294
1176.64547,0.03769
1175.15568,0.16894
1173.66589,0.10836
1172.17611,0.30466
1170.68632,0.26634
1169.19653,0.22806
1167.70674,0.28283
1166.21695,0.24613
1164.72716,0.29215
1163.23738,0.38545
1161.74759,0.30463
1160.25780,0.48659
1158.76801,0.43393
1157.27822,0.38132
1155.78843,0.48669
1154.29865,0.53012
1152.80886,0.57360
1151.31907,0.59942
1149.82928,0.67844
1148.33949,0.77226
1146.84970,0.78791
1145.35991,0.80362
1143.87013,0.67620
1142.38034,0.71710
1140.89055,0.69902
1139.40076,0.75183
1137.91097,0.82241
1136.42118,0.91666
1134.93140,0.92387
1133.44161,0.93114
1131.95182,1.00193
1130.46203,1.04325
1128.97224,1.12596
1127.48245,1.05816
1125.99266,1.16458
1124.50288,1.18841
1123.01309,1.24032
1121.52330,1.29229
1120.03351,1.23362
1118.54372,1.18976
1117.05393,1.16366
1115.56415,1.04906
1114.07436,0.99059
1112.58457,0.96318
1111.09478,0.93582
1109.60499,1.00739
1108.11520,0.92257
1106.62542,0.95293
1105.13563,0.99810
1103.64584,1.16140
1102.15605,1.02956
1100.66626,1.03356
1099.17647,1.03761
1097.68668,1.10962
1096.19690,1.03998
1094.70711,1.06780
1093.21732,0.90676
1091.72753,1.07343
1090.23774,1.17522
1088.74795,1.27705
1087.25817,1.21068
1085.76838,1.30672
1084.27859,1.38215
1082.78880,1.36907
1081.29901,1.33833
1079.80922,1.16595
1078.31943,1.17370
1076.82965,1.18149
1075.33986,1.35760
1073.85007,1.51605
1072.36028,1.61256
1070.87049,1.53497
1069.38070,1.29802
1067.89092,1.39764
1066.40113,1.49731
1064.91134,1.36679
1063.42155,1.54332
1061.93176,1.38634
1060.44197,1.33567
1058.95219,1.29687
1057.46240,1.23303
1055.97261,1.16924
1054.48282,1.13945
1052.99303,1.12743
1051.50324,1.00328
1050.01345,0.95299
1048.52367,0.94112
1047.03388,0.92341
1045.54409,0.90574
1044.05430,0.76120
1042.56451,0.64623
1041.07472,0.55197
1039.58494,0.35445
1038.09515,0.47579
1036.60536,0.42892
1035.11557,0.38210
1033.62578,0.41504
1032.13599,0.44213
1030.64620,0.28035
1029.15642,0.54075
1027.66663,0.50453
1026.17684,0.46836
1024.68705,0.71711
1023.19726,0.72090
1021.70747,0.70408
1020.21769,0.92346
1018.72790,1.06320
1017.23811,1.18970
1015.74832,1.31626
1014.25853,1.47977
1012.76874,1.53706
1011.27896,1.57079
1009.78917,1.70494
1008.29938,1.76829
1006.80959,1.79037
1005.31980,1.81251
1003.83001,1.71662
1002.34022,1.71819
1000.85044,1.74639
999.36065,1.74217
997.87086,1.70700
996.38107,1.67189
994.89128,1.79475
993.40149,1.60182
991.91171,1.67756
990.42192,1.90981
988.93213,1.77607
987.44234,1.81212
985.95255,1.84822
984.46276,1.67331
982.97297,1.85269
981.48319,1.65427
979.99340,1.36144
978.50361,1.26645
977.01382,1.17151
975.52403,1.20355
974.03424,1.06148
972.54446,1.11134
971.05467,1.02842
969.56488,0.95440
968.07509,0.93800
966.58530,0.92166
965.09551,0.85961
963.60573,0.83893
962.11594,0.97182
960.62615,0.84794
959.13636,0.84661
957.64657,0.84534
956.15678,0.71571
954.66699,0.57728
953.17721,0.73705
951.68742,0.55740
950.19763,0.54458
948.70784,0.53182
947.21805,0.45269
945.72826,0.50350
944.23848,0.43628
942.74869,0.48129
941.25890,0.67395
939.76911,0.84452
938.27932,1.01515
936.78953,0.85078
935.29974,0.81635
933.80996,0.95614
932.32017,1.04875
930.83038,1.12665
929.34059,1.20461
927.85080,1.18816
926.36101,1.30459
924.87123,1.42994
923.38144,1.46382
921.89165,1.42839
920.40186,1.39302
918.91207,1.44477
917.42228,1.33423
915.93250,1.14993
914.44271,1.15462
912.95292,1.12246
911.46313,1.09035
909.97334,1.01254
908.48355,1.22112
906.99376,1.09028
905.50398,1.00377
904.01419,0.88779
902.52440,0.77187
901.03461,0.67961
899.54482,0.72615
898.05503,0.81702
896.56525,0.94927
895.07546,1.01811
893.58567,1.08700
892.09588,0.91240
890.60609,0.93859
889.11630,0.94122
887.62651,1.18891
886.13673,1.13704
884.64694,1.08521
883.15715,1.11462
881.66736,1.31234
880.17757,1.50420
878.68778,1.41126
877.19800,1.31838
875.70821,1.47793
874.21842,1.77333
872.72863,1.68798
871.23884,1.81522
869.74905,1.76835
868.25927,1.72153
866.76948,1.84303
865.27969,2.00000
863.78990,1.92677
862.30011,1.72076
860.81032,1.81000
859.32053,1.89929
857.83075,1.92664
856.34096,1.83301
854.85117,1.94903
853.36138,1.95292
851.87159,1.76942
850.38180,1.58597
848.89202,1.54869
847.40223,1.40815
845.91244,1.38279
844.42265,1.21874
842.93286,1.05474
841.44307,1.08858
839.95329,0.92173
838.46350,0.78151
836.97371,0.65315
835.48392,0.59273
833.99413,0.53236
832.50434,0.44549
831.01455,0.47674
829.52477,0.59069
828.03498,0.50102
826.54519,0.48372
825.05540,0.46648
823.56561,0.50685
822.07582,0.34949
820.58604,0.42834
819.09625,0.36703
817.60646,0.30577
816.11667,0.20176
814.62688,0.18931
813.13709,0.24481
811.64730,0.28560
810.15752,0.26445
808.66773,0.24336
807.17794,0.08653
805.68815,0.28104
804.19836,0.17745
802.70857,0.16689
801.21879,0.15640
799.72900,0.13857
798.23921,0.24773
796.74942,0.28610
795.25963,0.20054
793.76984,0.11503
792.28006,0.13879
790.79027,0.22755
789.30048,0.10383
787.81069,0.05100
786.32090,0.09269
784.83111,0.13443
783.34132,0.07291
781.85154,0.17674
780.36175,0.18322
778.87196,0.14989
777.38217,0.11662
775.89238,0.19115
774.40259,0.12404
772.91281,0.13373
771.42302,0.14790
769.93323,0.16213
768.44344,0.27824
766.95365,0.10217
765.46386,0.16526
763.97407,0.00701
762.48429,0.07159
760.99450,0.13623
759.50471,0.23339
758.01492,0.26270
756.52513,0.21828
755.03534,0.11781
753.54556,0.01740
752.05577,0.17386
750.56598,0.09718
749.07619,0.05891
747.58640,0.11812
746.09661,0.17738
744.60683,0.15994
743.11704,0.20454
741.62725,0.22263
740.13746,0.18321
738.64767,0.14385
737.15788,0.17980
735.66809,0.17744
734.17831,0.15742
732.68852,0.12416
731.19873,0.09096
729.70894,0.06224
728.21915,0.00701
726.72936,0.07938
725.23958,0.27283
723.74979,0.27889
722.26000,0.28500
720.77021,0.24836
719.28042,0.19111
717.79063,0.37006
716.30084,0.29078
714.81106,0.21154
713.32127,0.28144
711.83148,0.34843
710.34169,0.21474
708.85190,0.25970
707.36211,0.30472
705.87233,0.20661
704.38254,0.12037
702.89275,0.14635
701.40296,0.19748
699.91317,0.24866
698.42338,0.14491
696.93360,0.25671
695.44381,0.28591
693.95402,0.30925
692.46423,0.33265
690.97444,0.17604
689.48465,0.32057
687.99486,0.44154
686.50508,0.46220
685.01529,0.48291
683.52550,0.25571
682.03571,0.32376
680.54592,0.18227
679.05613,0.24895
677.56635,0.31568
676.07656,0.39870
674.58677,0.20724
673.09698,0.31398
671.60719,0.29531
670.11740,0.27670
668.62761,0.25371
667.13783,0.13926
665.64804,0.10900
664.15825,0.07879
662.66846,0.03830
661.17867,0.05986
659.68888,0.15821
658.19910,0.20644
656.70931,0.25472
655.21952,0.17612
653.72973,0.10643
652.23994,0.14306
650.75015,0.16203
649.26037,0.18105
647.77058,0.25031
646.28079,0.29305
644.79100,0.25024
643.30121,0.24882
641.81142,0.24744
640.32163,0.00701
638.83185,0.14849
637.34206,0.16013
635.85227,0.13788
634.36248,0.11568
632.87269,0.08616
631.38290,0.08620
629.89312,0.16305
628.40333,0.16763
626.91354,0.17226
625.42375,0.34078
623.93396,0.32338
622.44417,0.34440
620.95438,0.36548
619.46460,0.12389
617.97481,0.06537
616.48502,0.01872
614.99523,0.07248
613.50544,0.12629
612.01565,0.10341
610.52587,0.24588
609.03608,0.26148
607.54629,0.22400
606.05650,0.18656
604.56671,0.30563
603.07692,0.35096
601.58714,0.34763
600.09735,0.34436
598.60756,0.32785
597.11777,0.30845
595.62798,0.07656
594.13819,0.16353
592.64840,0.25055
591.15862,0.00701
589.66883,0.08475
588.17904,0.16549
586.68925,0.20792
585.19946,0.25039
583.70967,0.38738
582.21989,0.45653
580.73010,0.40470
579.24031,0.35292
577.75052,0.32481
576.26073,0.41779
574.77094,0.36027
573.28115,0.47549
571.79137,0.59076
570.30158,0.51568
568.81179,0.62368
567.32200,0.67269
565.83221,0.72175
564.34242,0.76497
562.85264,0.96763
561.36285,0.91649
559.87306,1.04547
558.38327,1.17450
556.89348,1.38918
555.40369,1.36187
553.91391,1.41873
552.42412,1.47565
550.93433,1.63151
549.44454,1.47157
547.95475,1.73380
546.46496,1.69647
544.97517,1.65919
543.48539,1.57621
541.99560,1.66154
540.50581,1.72625
539.01602,1.79103
537.52623,1.60199
536.03644,1.55469
534.54666,1.44841
533.05687,1.56505
531.56708,1.68174
530.07729,1.54905
528.58750,1.41937
527.09771,1.42552
525.60792,1.43173
524.11814,1.16937
522.62835,1.04875
521.13856,1.02264
519.64877,1.04972
518.15898,1.07686
516.66919,0.90331
515.17941,0.82133
513.68962,0.88700
512.19983,0.95272
510.71004,0.85909
509.22025,0.88949
507.73046,0.86091
506.24068,0.95636
504.75089,1.05186
503.26110,1.17694
501.77131,1.02754
500.28152,0.98889
498.79173,0.95029
497.30194,0.90141
495.81216,0.74336
494.32237,0.80234
492.83258,0.86136
491.34279,0.63263
489.85300,0.71390
488.36321,0.77161
486.87343,0.69506
485.38364,0.61856
483.89385,0.54949
482.40406,0.33288
480.91427,0.26540
479.42448,0.19796
477.93469,0.17929
476.44491,0.20790
474.95512,0.12882
473.46533,0.04979
471.97554,0.04904
470.48575,0.00701
468.99596,0.08625
467.50618,0.14341
466.01639,0.20061
464.52660,0.14423
463.03681,0.44802
461.54702,0.43307
460.05723,0.41817
458.56745,0.30295
457.07766,0.71618
455.58787,0.71619
454.09808,0.71626
452.60829,1.02338
451.11850,0.85529
449.62871,0.89094
448.13893,0.92664
446.64914,1.12180
445.15935,1.19303
443.66956,1.30269
442.17977,1.22495
440.68998,1.14726
439.20020,1.01207
437.71041,1.29020
436.22062,1.25842
434.73083,1.22671
433.24104,1.12714
431.75125,1.13686
430.26146,1.24404
428.77168,1.35127
427.28189,1.26668
425.79210,1.46257
424.30231,1.49321
422.81252,1.52391
421.32273,1.65207
419.83295,1.85407
418.34316,1.85983
416.85337,1.86565
415.36358,1.70473
413.87379,1.64128
412.38400,1.57345
410.89422,1.50567
409.40443,1.39810
407.91464,1.23744
406.42485,1.25396
404.93506,1.10817
403.44527,0.96243
401.95548,0.89645
400.46570,0.62388
398.97591,0.73364
397.48612,0.84346
395.99633,0.72750
394.50654,0.73263
393.01675,0.86474
391.52697,0.99691
390.03718,0.89002
388.54739,0.81270
387.05760,0.71477
385.56781,0.61690
384.07802,0.62239
382.58824,0.49511
381.09845,0.46381
379.60866,0.43256
378.11887,0.37923
376.62908,0.60048
375.13929,0.45132
373.64950,0.30221
372.15972,0.44686
370.66993,0.40855
369.18014,0.34816
367.69035,0.28782
366.20056,0.50648
364.71077,0.47429
363.22099,0.48642
361.73120,0.49862
360.24141,0.33670
358.75162,0.29290
357.26183,0.27868
355.77204,0.26452
354.28225,0.24450
352.79247,0.31604
351.30268,0.31532
349.81289,0.31465
348.32310,0.19743
346.83331,0.28985
345.34352,0.32180
343.85374,0.35381
342.36395,0.22204
340.87416,0.16708
339.38437,0.23614
337.89458,0.30526
336.40479,0.05858
334.91501,0.03039
333.42522,0.09524
331.93543,0.16014
330.44564,0.07307
328.95585,0.12775
327.46606,0.06735
325.97627,0.00701
324.48649,0.21894
322.99670,0.33055
321.50691,0.23411
320.01712,0.13772
318.52733,0.14322
317.03754,0.06907
315.54776,0.13962
314.05797,0.21023
312.56818,0.26907
311.07839,0.32502
309.58860,0.27328
308.09881,0.22159
306.60902,0.13305
305.11924,0.34861
303.62945,0.24395
302.13966,0.13933
300.64987,0.05101
299.16008,0.00701
