1778.52000,0.10997
1777.03021,0.01331
1775.54042,0.15928
1774.05063,0.11077
1772.56085,0.08977
1771.07106,0.11229
1769.58127,0.12113
1768.09148,0.11400
1766.60169,0.06343
1765.11190,0.06325
1763.62212,0.05855
1762.13233,0.09737
1760.64254,0.16141
1759.15275,0.08132
1757.66296,0.08366
1756.17317,0.13868
1754.68339,0.09764
1753.19360,0.08639
1751.70381,0.09807
1750.21402,0.10521
1748.72423,0.14216
1747.23444,0.07388
1745.74465,0.06515
1744.25487,0.05417
1742.76508,0.06613
1741.27529,0.07813
1739.78550,0.09018
1738.29571,0.06794
1736.80592,0.18077
1735.31614,0.17236
1733.82635,0.07246
1732.33656,0.05499
1730.84677,0.06273
1729.35698,0.01331
1727.86719,0.04123
1726.37740,0.01884
1724.88762,0.07889
1723.39783,0.07719
1721.90804,0.12817
1720.41825,0.07393
1718.92846,0.05177
1717.43867,0.10747
1715.94889,0.10371
1714.45910,0.06796
1712.96931,0.07802
1711.47952,0.05610
1709.98973,0.04108
1708.49994,0.13367
1707.01016,0.11417
1705.52037,0.09471
1704.03058,0.10963
1702.54079,0.05136
1701.05100,0.15105
1699.56121,0.08601
1698.07142,0.12399
1696.58164,0.11397
1695.09185,0.09483
1693.60206,0.06659
1692.11227,0.08188
1690.62248,0.05144
1689.13269,0.13089
1687.64291,0.12572
1686.15312,0.21442
1684.66333,0.17730
1683.17354,0.11505
1681.68375,0.11235
1680.19396,0.10741
1678.70417,0.15286
1677.21439,0.07935
1675.72460,0.06539
1674.23481,0.12242
1672.74502,0.06736
1671.25523,0.04439
1669.76544,0.14732
1668.27566,0.11757
1666.78587,0.08101
1665.29608,0.13144
1663.80629,0.12014
1662.31650,0.09515
1660.82671,0.08165
1659.33693,0.08193
1657.84714,0.08454
1656.35735,0.07576
1654.86756,0.04642
1653.37777,0.04459
1651.88798,0.13664
1650.39819,0.03192
1648.90841,0.08973
1647.41862,0.02401
1645.92883,0.05330
1644.43904,0.08265
1642.94925,0.05597
1641.45946,0.01331
1639.96968,0.01612
1638.47989,0.15170
1636.99010,0.04933
1635.50031,0.04770
1634.01052,0.02094
1632.52073,0.07661
1631.03094,0.04537
1629.54116,0.09198
1628.05137,0.16152
1626.56158,0.17389
1625.07179,0.09249
1623.58200,0.06834
1622.09221,0.12204
1620.60243,0.01331
1619.11264,0.09406
1617.62285,0.03754
1616.13306,0.05888
1614.64327,0.10544
1613.15348,0.09254
1611.66370,0.24217
1610.17391,0.10579
1608.68412,0.09989
1607.19433,0.04828
1605.70454,0.13630
1604.21475,0.10080
1602.72496,0.06534
1601.23518,0.05967
1599.74539,0.05863
1598.25560,0.10111
1596.76581,0.15051
1595.27602,0.08553
1593.78623,0.00000
1592.29645,0.08534
1590.80666,0.07919
1589.31687,0.05935
1587.82708,0.06702
1586.33729,0.15712
1584.84750,0.07563
1583.35771,0.03310
1581.86793,0.06154
1580.37814,0.08318
1578.88835,0.01331
1577.39856,0.04097
1575.90877,0.01832
1574.41898,0.01632
1572.92920,0.06928
1571.43941,0.02389
1569.94962,0.04719
1568.45983,0.07054
1566.97004,0.14658
1565.48025,0.11967
1563.99047,0.12486
1562.50068,0.02939
1561.01089,0.05984
1559.52110,0.12008
1558.03131,0.01331
1556.54152,0.01803
1555.05173,0.06855
1553.56195,0.05734
1552.07216,0.12627
1550.58237,0.09684
1549.09258,0.01482
1547.60279,0.06329
1546.11300,0.01340
1544.62322,0.03908
1543.13343,0.08768
1541.64364,0.04022
1540.15385,0.04430
1538.66406,0.04842
1537.17427,0.04229
1535.68448,0.01331
1534.19470,0.09105
1532.70491,0.00407
1531.21512,0.03695
1529.72533,0.05615
1528.23554,0.09141
1526.74575,0.02374
1525.25597,0.03392
1523.76618,0.01897
1522.27639,0.02924
1520.78660,0.03728
1519.29681,0.01331
1517.80702,0.07161
1516.31724,0.07731
1514.82745,0.06247
1513.33766,0.04652
1511.84787,0.03063
1510.35808,0.02050
1508.86829,0.10653
1507.37850,0.04385
1505.88872,0.04988
1504.39893,0.02849
1502.90914,0.11471
1501.41935,0.01331
1499.92956,0.05901
1498.43977,0.11161
1496.94999,0.11620
1495.46020,0.11168
1493.97041,0.17358
1492.48062,0.15313
1490.99083,0.27233
1489.50104,0.29775
1488.01125,0.40331
1486.52147,0.50891
1485.03168,0.46124
1483.54189,0.54863
1482.05210,0.59029
1480.56231,0.62972
1479.07252,0.68292
1477.58274,0.76591
1476.09295,0.83522
1474.60316,1.01442
1473.11337,0.99915
1471.62358,1.10751
1470.13379,0.99393
1468.64401,0.94447
1467.15422,0.86988
1465.66443,0.90061
1464.17464,0.93139
1462.68485,0.86381
1461.19506,0.82831
1459.70527,0.66013
1458.21549,0.78949
1456.72570,0.55961
1455.23591,0.43276
1453.74612,0.39063
1452.25633,0.34396
1450.76654,0.16004
1449.27676,0.27366
1447.78697,0.22026
1446.29718,0.19667
1444.80739,0.23033
1443.31760,0.26404
1441.82781,0.22227
1440.33802,0.14393
1438.84824,0.11141
1437.35845,0.11784
1435.86866,0.11516
1434.37887,0.17890
1432.88908,0.14427
1431.39929,0.14402
1429.90951,0.05456
1428.41972,0.16882
1426.92993,0.24423
1425.44014,0.26933
1423.95035,0.23041
1422.46056,0.19153
1420.97078,0.23050
1419.48099,0.32902
1417.99120,0.32689
1416.50141,0.23556
1415.01162,0.18546
1413.52183,0.20407
1412.03204,0.27078
1410.54226,0.23227
1409.05247,0.39289
1407.56268,0.28124
1406.07289,0.32525
1404.58310,0.38189
1403.09331,0.43858
1401.60353,0.45298
1400.11374,0.41250
1398.62395,0.55514
1397.13416,0.69325
1395.64437,0.62545
1394.15458,0.66067
1392.66479,0.80807
1391.17501,0.74498
1389.68522,0.84442
1388.19543,0.73565
1386.70564,0.68186
1385.21585,0.62810
1383.72606,0.67509
1382.23628,0.73128
1380.74649,0.73259
1379.25670,0.89184
1377.76691,0.76509
1376.27712,0.80315
1374.78733,0.74286
1373.29755,0.85424
1371.80776,0.95194
1370.31797,0.95586
1368.82818,0.98500
1367.33839,1.01418
1365.84860,1.30658
1364.35881,1.33586
1362.86903,1.43841
1361.37924,1.43345
1359.88945,1.34158
1358.39966,1.34129
1356.90987,1.30901
1355.42008,1.27448
1353.93030,1.26517
1352.44051,1.24333
1350.95072,1.22153
1349.46093,1.05675
1347.97114,1.05678
1346.48135,1.12551
1344.99156,0.99977
1343.50178,0.86950
1342.01199,0.78504
1340.52220,0.71207
1339.03241,0.71009
1337.54262,0.67383
1336.05283,0.60214
1334.56305,0.53050
1333.07326,0.65685
1331.58347,0.60247
1330.09368,0.52067
1328.60389,0.41145
1327.11410,0.48764
1325.62432,0.43115
1324.13453,0.33810
1322.64474,0.33433
1321.15495,0.31917
1319.66516,0.25714
1318.17537,0.19516
1316.68558,0.26710
1315.19580,0.16974
1313.70601,0.22117
1312.21622,0.26807
1310.72643,0.21662
1309.23664,0.14233
1307.74685,0.16877
1306.25707,0.16780
1304.76728,0.14742
1303.27749,0.12709
1301.78770,0.20407
1300.29791,0.23303
1298.80812,0.21856
1297.31834,0.26821
1295.82855,0.29273
1294.33876,0.26009
1292.84897,0.26640
1291.35918,0.27733
1289.86939,0.32721
1288.37960,0.37713
1286.88982,0.44999
1285.40003,0.33524
1283.91024,0.35098
1282.42045,0.39880
1280.93066,0.45811
1279.44087,0.32066
1277.95109,0.47846
1276.46130,0.46926
1274.97151,0.47726
1273.48172,0.48531
1271.99193,0.42819
1270.50214,0.53816
1269.01235,0.59784
1267.52257,0.54543
1266.03278,0.40610
1264.54299,0.55288
1263.05320,0.50061
1261.56341,0.50101
1260.07362,0.50147
1258.58384,0.51341
1257.09405,0.47047
1255.60426,0.44818
1254.11447,0.38245
1252.62468,0.45636
1251.13489,0.47998
1249.64511,0.38464
1248.15532,0.33282
1246.66553,0.37145
1245.17574,0.41012
1243.68595,0.41337
1242.19616,0.30682
1240.70637,0.30787
1239.21659,0.30896
1237.72680,0.37189
1236.23701,0.33418
1234.74722,0.27820
1233.25743,0.27491
1231.76764,0.27165
1230.27786,0.29591
1228.78807,0.26300
1227.29828,0.34456
1225.80849,0.27055
1224.31870,0.19430
1222.82891,0.36296
1221.33912,0.27765
1219.84934,0.31138
1218.35955,0.34515
1216.86976,0.34923
1215.37997,0.33046
1213.89018,0.21563
1212.40039,0.20382
1210.91061,0.17604
1209.42082,0.14373
1207.93103,0.12977
1206.44124,0.11586
1204.95145,0.21870
1203.46166,0.12479
1201.97188,0.08813
1200.48209,0.16594
1198.99230,0.20489
1197.50251,0.26677
1196.01272,0.14334
1194.52293,0.07830
1193.03314,0.01331
1191.54336,0.05821
1190.05357,0.01391
1188.56378,0.13442
1187.07399,0.15429
1185.58420,0.06665
1184.09441,0.11864
1182.60463,0.08601
1181.11484,0.05343
1179.62505,0.18566
1178.13526,0.13486
1176.64547,0.14818
1175.15568,0.14782
1173.66589,0.28710
1172.17611,0.39209
1170.68632,0.33580
1169.19653,0.27956
1167.70674,0.27485
1166.21695,0.32053
1164.72716,0.35024
1163.23738,0.41432
1161.74759,0.59974
1160.25780,0.54033
1158.76801,0.56107
1157.27822,0.58186
1155.78843,0.68278
1154.29865,0.72197
1152.80886,0.66051
1151.31907,0.80505
1149.82928,0.86497
1148.33949,0.84942
1146.84970,0.88196
1145.35991,0.91456
1143.87013,0.85795
1142.38034,0.91123
1140.89055,0.81352
1139.40076,0.86232
1137.91097,1.09882
1136.42118,1.05388
1134.93140,1.11540
1133.44161,1.17697
1131.95182,1.30380
1130.46203,1.44899
1128.97224,1.34250
1127.48245,1.51981
1125.99266,1.26695
1124.50288,1.34138
1123.01309,1.33004
1121.52330,1.31874
1120.03351,1.32923
1118.54372,1.36952
1117.05393,1.30230
1115.56415,1.16189
1114.07436,1.14510
1112.58457,1.12379
1111.09478,1.10252
1109.60499,1.11104
1108.11520,1.17682
1106.62542,1.05728
1105.13563,1.11858
1103.64584,1.16619
1102.15605,1.11545
1100.66626,1.12081
1099.17647,1.12623
1097.68668,1.07562
1096.19690,1.14634
1094.70711,1.12329
1093.21732,1.15520
1091.72753,1.32676
1090.23774,1.39652
1088.74795,1.46633
1087.25817,1.46639
1085.76838,1.50083
1084.27859,1.46894
1082.78880,1.51262
1081.29901,1.45336
1079.80922,1.36669
1078.31943,1.35901
1076.82965,1.35139
1075.33986,1.48454
1073.85007,1.62690
1072.36028,1.74870
1070.87049,1.76758
1069.38070,1.59884
1067.89092,1.56060
1066.40113,1.52240
1064.91134,1.61468
1063.42155,1.54453
1061.93176,1.57284
1060.44197,1.57372
1058.95219,1.39158
1057.46240,1.32963
1055.97261,1.26772
1054.48282,1.24819
1052.99303,1.16464
1051.50324,1.01476
1050.01345,1.13954
1048.52367,1.03553
1047.03388,0.97161
1045.54409,0.90774
1044.05430,0.91371
1042.56451,0.71147
1041.07472,0.74499
1039.58494,0.66185
1038.09515,0.60850
1036.60536,0.57809
1035.11557,0.54772
1033.62578,0.65470
1032.13599,0.54432
1030.64620,0.57130
1029.15642,0.51365
1027.66663,0.54988
1026.17684,0.58615
1024.68705,0.71629
1023.19726,0.70001
1021.70747,0.75015
1020.21769,0.96739
1018.72790,1.14120
1017.23811,1.24983
1015.74832,1.35850
1014.25853,1.51872
1012.76874,1.61948
1011.27896,1.72486
1009.78917,1.75477
1008.29938,1.82820
1006.80959,1.81816
1005.31980,1.80816
1003.83001,1.84969
1002.34022,1.91416
1000.85044,1.77042
999.36065,1.69996
997.87086,1.72566
996.38107,1.75141
994.89128,1.57810
993.40149,1.48266
991.91171,1.65958
990.42192,1.67406
988.93213,1.77785
987.44234,1.70203
985.95255,1.62626
984.46276,1.67755
982.97297,1.68998
981.48319,1.59261
979.99340,1.42206
978.50361,1.32249
977.01382,1.22297
975.52403,1.13951
974.03424,1.07670
972.54446,1.04139
971.05467,0.84594
969.56488,0.81530
968.07509,0.78585
966.58530,0.75645
965.09551,0.86555
963.60573,0.68177
962.11594,0.79782
960.62615,0.73542
959.13636,0.73027
957.64657,0.72518
956.15678,0.63774
954.66699,0.65562
953.17721,0.65066
951.68742,0.53361
950.19763,0.56650
948.70784,0.59944
947.21805,0.52601
945.72826,0.47322
944.23848,0.46854
942.74869,0.63096
941.25890,0.68357
939.76911,0.70763
938.27932,0.73174
936.78953,0.97672
935.29974,1.05470
933.80996,1.01372
932.32017,1.07577
930.83038,1.11383
929.34059,1.15194
927.85080,1.27821
926.36101,1.34044
924.87123,1.40729
923.38144,1.57259
921.89165,1.61894
920.40186,1.66534
918.91207,1.65228
917.42228,1.54774
915.93250,1.49358
914.44271,1.39370
912.95292,1.35680
911.46313,1.31994
909.97334,1.28656
908.48355,1.17771
906.99376,1.09179
905.50398,0.90294
904.01419,0.90865
902.52440,0.91440
901.03461,0.87215
899.54482,0.93521
898.05503,0.84727
896.56525,0.86923
895.07546,0.94502
893.58567,1.02084
892.09588,0.89419
890.60609,0.96439
889.11630,1.11244
887.62651,1.09120
886.13673,1.14437
884.64694,1.19759
883.15715,1.12614
881.66736,1.24696
880.17757,1.34494
878.68778,1.36516
877.19800,1.38543
875.70821,1.58424
874.21842,1.58858
872.72863,1.89504
871.23884,1.98643
869.74905,1.94514
868.25927,1.90389
866.76948,2.00000
865.27969,1.93825
863.78990,1.91316
862.30011,1.83091
860.81032,1.86656
859.32053,1.90225
857.83075,1.97346
856.34096,1.90283
854.85117,1.99473
853.36138,1.97683
851.87159,1.88346
850.38180,1.79013
848.89202,1.55725
847.40223,1.44800
845.91244,1.36167
844.42265,1.33260
842.93286,1.30358
841.44307,1.20824
839.95329,0.94131
838.46350,0.76826
836.97371,0.63186
835.48392,0.57103
833.99413,0.51025
832.50434,0.53418
831.01455,0.60164
829.52477,0.61651
828.03498,0.59482
826.54519,0.54113
825.05540,0.48748
823.56561,0.41100
822.07582,0.47187
820.58604,0.26962
819.09625,0.28939
817.60646,0.30920
816.11667,0.28101
814.62688,0.32838
813.13709,0.34833
811.64730,0.15093
810.15752,0.12749
808.66773,0.10411
807.17794,0.06932
805.68815,0.21079
804.19836,0.21272
802.70857,0.22040
801.21879,0.22814
799.72900,0.13408
798.23921,0.03550
796.74942,0.07427
795.25963,0.06616
793.76984,0.05811
792.28006,0.09930
790.79027,0.13596
789.30048,0.16581
787.81069,0.17739
786.32090,0.14325
784.83111,0.10915
783.34132,0.01331
781.85154,0.06884
780.36175,0.14501
778.87196,0.14456
777.38217,0.14415
775.89238,0.18613
774.40259,0.10458
772.91281,0.11232
771.42302,0.11553
769.93323,0.11879
768.44344,0.10608
766.95365,0.01331
765.46386,0.10014
763.97407,0.12980
762.48429,0.13548
760.99450,0.14120
759.50471,0.07031
758.01492,0.11846
756.52513,0.14835
755.03534,0.13710
753.54556,0.12588
752.05577,0.09184
750.56598,0.19743
749.07619,0.09024
747.58640,0.05176
746.09661,0.01331
744.60683,0.21163
743.11704,0.13996
741.62725,0.12325
740.13746,0.15351
738.64767,0.18381
737.15788,0.17639
735.66809,0.11639
734.17831,0.15484
732.68852,0.15557
731.19873,0.15635
729.70894,0.19723
728.21915,0.03447
726.72936,0.10748
725.23958,0.28351
723.74979,0.25019
722.26000,0.21692
720.77021,0.13220
719.28042,0.29469
717.79063,0.23066
716.30084,0.26279
714.81106,0.29497
713.32127,0.40500
711.83148,0.30683
710.34169,0.24761
708.85190,0.23420
707.36211,0.22084
705.87233,0.20524
704.38254,0.22630
702.89275,0.30233
701.40296,0.27771
699.91317,0.25314
698.42338,0.33388
696.93360,0.22244
695.44381,0.17969
693.95402,0.21252
692.46423,0.24538
690.97444,0.25541
689.48465,0.33643
687.99486,0.33282
686.50508,0.37388
685.01529,0.41499
683.52550,0.38863
682.03571,0.27765
680.54592,0.27656
679.05613,0.31556
677.56635,0.35461
676.07656,0.27356
674.58677,0.19943
673.09698,0.19628
671.60719,0.22407
670.11740,0.25190
668.62761,0.24660
667.13783,0.21389
665.64804,0.15261
664.15825,0.09138
662.66846,0.01761
661.17867,0.17044
659.68888,0.14025
658.19910,0.15472
656.70931,0.16924
655.21952,0.01331
653.72973,0.09458
652.23994,0.10953
650.75015,0.15771
649.26037,0.20593
647.77058,0.11804
646.28079,0.13317
644.79100,0.11631
643.30121,0.10179
641.81142,0.08731
640.32163,0.16441
638.83185,0.09510
637.34206,0.06932
635.85227,0.04129
634.36248,0.01331
632.87269,0.04838
631.38290,0.10638
629.89312,0.04314
628.40333,0.09323
626.91354,0.14336
625.42375,0.20383
623.93396,0.17052
622.44417,0.10865
620.95438,0.04683
619.46460,0.02968
617.97481,0.13387
616.48502,0.16029
614.99523,0.13069
613.50544,0.10113
612.01565,0.21694
610.52587,0.23897
609.03608,0.34114
607.54629,0.32550
606.05650,0.30991
604.56671,0.27949
603.07692,0.37040
601.58714,0.33435
600.09735,0.29834
598.60756,0.21089
597.11777,0.19672
595.62798,0.30846
594.13819,0.30124
592.64840,0.29407
591.15862,0.09014
589.66883,0.26843
588.17904,0.25682
586.68925,0.30704
585.19946,0.35732
583.70967,0.35729
582.21989,0.47173
580.73010,0.36194
579.24031,0.25221
577.75052,0.33017
576.26073,0.45852
574.77094,0.52056
573.28115,0.59980
571.79137,0.67909
570.30158,0.70465
568.81179,0.64329
567.32200,0.69869
565.83221,0.75413
564.34242,0.81420
562.85264,0.96128
561.36285,1.13815
559.87306,1.24870
558.38327,1.35929
556.89348,1.37840
555.40369,1.36322
553.91391,1.45679
552.42412,1.55041
550.93433,1.70014
549.44454,1.76525
547.95475,1.92422
546.46496,1.87957
544.97517,1.83497
543.48539,1.84533
541.99560,1.89465
540.50581,1.90053
539.01602,1.90646
537.52623,1.92387
536.03644,1.79258
534.54666,1.81009
533.05687,1.79903
531.56708,1.78803
530.07729,1.85830
528.58750,1.64257
527.09771,1.61454
525.60792,1.58655
524.11814,1.43046
522.62835,1.37053
521.13856,1.07722
519.64877,1.13294
518.15898,1.18871
516.66919,1.23652
515.17941,1.10130
513.68962,1.07368
512.19983,1.04610
510.71004,1.19707
509.22025,1.22909
507.73046,1.11470
506.24068,1.07701
504.75089,1.03937
503.26110,1.19514
501.77131,0.98024
500.28152,1.01711
498.79173,1.05402
497.30194,0.78891
495.81216,0.90830
494.32237,0.89387
492.83258,0.87948
491.34279,0.70609
489.85300,0.69522
488.36321,0.60431
486.87343,0.57751
485.38364,0.55077
483.89385,0.52178
482.40406,0.47224
480.91427,0.35638
479.42448,0.24057
477.93469,0.20490
476.44491,0.13723
474.95512,0.07648
473.46533,0.01578
471.97554,0.01462
470.48575,0.01331
468.99596,0.10508
467.50618,0.12596
466.01639,0.14688
464.52660,0.22963
463.03681,0.28954
461.54702,0.35637
460.05723,0.42324
458.56745,0.49474
457.07766,0.56399
455.58787,0.71224
454.09808,0.86053
452.60829,0.88644
451.11850,1.04513
449.62871,1.13406
448.13893,1.22304
446.64914,1.43679
445.15935,1.60710
443.66956,1.46623
442.17977,1.35515
440.68998,1.24412
439.20020,1.30935
437.71041,1.23732
436.22062,1.27632
434.73083,1.31537
433.24104,1.13363
431.75125,1.13958
430.26146,1.23369
428.77168,1.32784
427.28189,1.47124
425.79210,1.51400
424.30231,1.44810
422.81252,1.38225
421.32273,1.45260
419.83295,1.75642
418.34316,1.80399
416.85337,1.85159
415.36358,1.86950
413.87379,1.66776
412.38400,1.63999
410.89422,1.61226
409.40443,1.57314
407.91464,1.38989
406.42485,1.21126
404.93506,1.06129
403.44527,0.91136
401.95548,0.75576
400.46570,0.81532
398.97591,0.80970
397.48612,0.80412
395.99633,0.83636
394.50654,0.84804
393.01675,0.74878
391.52697,0.64956
390.03718,0.75978
388.54739,0.74648
387.05760,0.69546
385.56781,0.64448
384.07802,0.72514
382.58824,0.55640
381.09845,0.41403
379.60866,0.27170
378.11887,0.30220
376.62908,0.44487
375.13929,0.48461
373.64950,0.52440
372.15972,0.39031
370.66993,0.45765
369.18014,0.40260
367.69035,0.34760
366.20056,0.41279
364.71077,0.17367
363.22099,0.19318
361.73120,0.21274
360.24141,0.38795
358.75162,0.29776
357.26183,0.24766
355.77204,0.19760
354.28225,0.10297
352.79247,0.10450
351.30268,0.15985
349.81289,0.21524
348.32310,0.10020
346.83331,0.03783
345.34352,0.02929
343.85374,0.02079
342.36395,0.23911
340.87416,0.15539
339.38437,0.11750
337.89458,0.07964
336.40479,0.11278
334.91501,0.11163
333.42522,0.08879
331.93543,0.06600
330.44564,0.10389
328.95585,0.01369
327.46606,0.04023
325.97627,0.06682
324.48649,0.04998
322.99670,0.07051
321.50691,0.04189
320.01712,0.01331
318.52733,0.17210
317.03754,0.08150
315.54776,0.08362
314.05797,0.08579
312.56818,0.04339
311.07839,0.01704
309.58860,0.13720
308.09881,0.25741
306.60902,0.16255
305.11924,0.01282
303.62945,0.02217
302.13966,0.02833
300.64987,0.04711
299.16008,0.01331
