1778.52000,0.12818
1777.03021,0.02776
1775.54042,0.04411
1774.05063,0.00011
1772.56085,0.07692
1771.07106,0.00885
1769.58127,0.15416
1768.09148,0.13045
1766.60169,0.22753
1765.11190,0.09924
1763.62212,0.07967
1762.13233,0.14869
1760.64254,0.14128
1759.15275,0.08962
1757.66296,0.17889
1756.17317,0.05888
1754.68339,0.01539
1753.19360,0.00011
1751.70381,0.07410
1750.21402,0.13202
1748.72423,0.16985
1747.23444,0.06684
1745.74465,0.26979
1744.25487,0.21113
1742.76508,0.03980
1741.27529,0.07783
1739.78550,0.10382
1738.29571,0.20230
1736.80592,0.23642
1735.31614,0.27058
1733.82635,0.13169
1732.33656,0.06126
1730.84677,0.21227
1729.35698,0.13387
1727.86719,0.01929
1726.37740,0.04160
1724.88762,0.18069
1723.39783,0.17087
1721.90804,0.14098
1720.41825,0.03866
1718.92846,0.12557
1717.43867,0.24473
1715.94889,0.06202
1714.45910,0.00011
1712.96931,0.09811
1711.47952,0.11563
1709.98973,0.04062
1708.49994,0.10251
1707.01016,0.14430
1705.52037,0.18614
1704.03058,0.15556
1702.54079,0.11696
1701.05100,0.19514
1699.56121,0.08819
1698.07142,0.13828
1696.58164,0.09179
1695.09185,0.21842
1693.60206,0.00295
1692.11227,0.19810
1690.62248,0.30070
1689.13269,0.20610
1687.64291,0.21620
1686.15312,0.27464
1684.66333,0.22443
1683.17354,0.29503
1681.68375,0.22075
1680.19396,0.10625
1678.70417,0.27357
1677.21439,0.16720
1675.72460,0.04880
1674.23481,0.28064
1672.74502,0.00131
1671.25523,0.16882
1669.76544,0.13107
1668.27566,0.17790
1666.78587,0.17647
1665.29608,0.08249
1663.80629,0.25019
1662.31650,0.25692
1660.82671,0.23149
1659.33693,0.21414
1657.84714,0.25722
1656.35735,0.10309
1654.86756,0.10599
1653.37777,0.14918
1651.88798,0.08775
1650.39819,0.02636
1648.90841,0.21861
1647.41862,0.10094
1645.92883,0.10005
1644.43904,0.09919
1642.94925,0.13460
1641.45946,0.08150
1639.96968,0.12906
1638.47989,0.23704
1636.99010,0.03512
1635.50031,0.03852
1634.01052,0.19090
1632.52073,0.16217
1631.03094,0.23815
1629.54116,0.14912
1628.05137,0.05611
1626.56158,0.16843
1625.07179,0.16003
1623.58200,0.01883
1622.09221,0.06686
1620.60243,0.04650
1619.11264,0.03422
1617.62285,0.16288
1616.13306,0.25131
1614.64327,0.29551
1613.15348,0.24717
1611.66370,0.11835
1610.17391,0.04996
1608.68412,0.11041
1607.19433,0.04209
1605.70454,0.17910
1604.21475,0.21552
1602.72496,0.25198
1601.23518,0.32873
1599.74539,0.12777
1598.25560,0.09189
1596.76581,0.11642
1595.27602,0.00011
1593.78623,0.20952
1592.29645,0.14526
1590.80666,0.23399
1589.31687,0.11747
1587.82708,0.26666
1586.33729,0.18242
1584.84750,0.15457
1583.35771,0.13884
1581.86793,0.32441
1580.37814,0.16385
1578.88835,0.28106
1577.39856,0.24133
1575.90877,0.22982
1574.41898,0.16602
1572.92920,0.16666
1571.43941,0.03048
1569.94962,0.11371
1568.45983,0.19699
1566.97004,0.16960
1565.48025,0.17446
1563.99047,0.30012
1562.50068,0.18430
1561.01089,0.04839
1559.52110,0.00912
1558.03131,0.00612
1556.54152,0.11990
1555.05173,0.12100
1553.56195,0.19863
1552.07216,0.17163
1550.58237,0.26946
1549.09258,0.05335
1547.60279,0.11906
1546.11300,0.06807
1544.62322,0.26266
1543.13343,0.13928
1541.64364,0.07633
1540.15385,0.06978
1538.66406,0.06325
1537.17427,0.06080
1535.68448,0.07448
1534.19470,0.21702
1532.70491,0.03354
1531.21512,0.07551
1529.72533,0.03300
1528.23554,0.11531
1526.74575,0.07287
1525.25597,0.18746
1523.76618,0.04446
1522.27639,0.05044
1520.78660,0.00011
1519.29681,0.04554
1517.80702,0.07088
1516.31724,0.05197
1514.82745,0.08142
1513.33766,0.09479
1511.84787,0.10821
1510.35808,0.03714
1508.86829,0.04258
1507.37850,0.22518
1505.88872,0.20252
1504.39893,0.09537
1502.90914,0.22173
1501.41935,0.08648
1499.92956,0.10826
1498.43977,0.06970
1496.94999,0.04728
1495.46020,0.27849
1493.97041,0.17563
1492.48062,0.29421
1490.99083,0.36855
1489.50104,0.20544
1488.01125,0.30803
1486.52147,0.41066
1485.03168,0.46503
1483.54189,0.39465
1482.05210,0.38872
1480.56231,0.55591
1479.07252,0.56615
1477.58274,0.56034
1476.09295,0.70752
1474.60316,0.73800
1473.11337,0.88124
1471.62358,0.87557
1470.13379,0.80957
1468.64401,0.80801
1467.15422,0.56094
1465.66443,0.54336
1464.17464,0.52581
1462.68485,0.64919
1461.19506,0.57939
1459.70527,0.52976
1458.21549,0.52042
1456.72570,0.54332
1455.23591,0.35695
1453.74612,0.33565
1452.25633,0.23388
1450.76654,0.38574
1449.27676,0.27198
1447.78697,0.18643
1446.29718,0.28205
1444.80739,0.22275
1443.31760,0.16348
1441.82781,0.26727
1440.33802,0.21412
1438.84824,0.10867
1437.35845,0.02742
1435.86866,0.06696
1434.37887,0.17095
1432.88908,0.16227
1431.39929,0.07312
1429.90951,0.00011
1428.41972,0.23660
1426.92993,0.24369
1425.44014,0.35145
1423.95035,0.31031
1422.46056,0.26921
1420.97078,0.33280
1419.48099,0.14284
1417.99120,0.00123
1416.50141,0.14947
1415.01162,0.16492
1413.52183,0.26896
1412.03204,0.28046
1410.54226,0.49729
1409.05247,0.25125
1407.56268,0.19846
1406.07289,0.27049
1404.58310,0.24193
1403.09331,0.21341
1401.60353,0.23726
1400.11374,0.37385
1398.62395,0.33337
1397.13416,0.34928
1395.64437,0.59467
1394.15458,0.55833
1392.66479,0.53411
1391.17501,0.57030
1389.68522,0.46565
1388.19543,0.41739
1386.70564,0.44565
1385.21585,0.47395
1383.72606,0.40165
1382.23628,0.59506
1380.74649,0.37391
1379.25670,0.46677
1377.76691,0.58784
1376.27712,0.34265
1374.78733,0.59261
1373.29755,0.64537
1371.80776,0.69817
1370.31797,0.79528
1368.82818,0.84212
1367.33839,0.88900
1365.84860,1.00233
1364.35881,1.09557
1362.86903,0.87489
1361.37924,0.96016
1359.88945,1.24271
1358.39966,1.20327
1356.90987,0.89418
1355.42008,1.09634
1353.93030,0.96847
1352.44051,0.97749
1350.95072,0.98655
1349.46093,0.85074
1347.97114,0.89208
1346.48135,0.80868
1344.99156,0.61663
1343.50178,0.65808
1342.01199,0.70763
1340.52220,0.61634
1339.03241,0.37614
1337.54262,0.38957
1336.05283,0.47349
1334.56305,0.55745
1333.07326,0.45426
1331.58347,0.50006
1330.09368,0.37683
1328.60389,0.34622
1327.11410,0.12646
1325.62432,0.23681
1324.13453,0.33915
1322.64474,0.50996
1321.15495,0.30243
1319.66516,0.29621
1318.17537,0.29002
1316.68558,0.18726
1315.19580,0.30191
1313.70601,0.36024
1312.21622,0.26565
1310.72643,0.16708
1309.23664,0.00011
1307.74685,0.14901
1306.25707,0.14498
1304.76728,0.08464
1303.27749,0.02434
1301.78770,0.06471
1300.29791,0.37079
1298.80812,0.28645
1297.31834,0.37121
1295.82855,0.28695
1294.33876,0.44425
1292.84897,0.21918
1291.35918,0.32020
1289.86939,0.29044
1288.37960,0.26071
1286.88982,0.29744
1285.40003,0.32616
1283.91024,0.42335
1282.42045,0.31931
1280.93066,0.29582
1279.44087,0.31664
1277.95109,0.30128
1276.46130,0.50331
1274.97151,0.48601
1273.48172,0.46875
1271.99193,0.42939
1270.50214,0.26528
1269.01235,0.35481
1267.52257,0.39204
1266.03278,0.55007
1264.54299,0.34586
1263.05320,0.38322
1261.56341,0.37029
1260.07362,0.35740
1258.58384,0.33449
1257.09405,0.29149
1255.60426,0.27670
1254.11447,0.38674
1252.62468,0.54915
1251.13489,0.43385
1249.64511,0.41117
1248.15532,0.30399
1246.66553,0.40014
1245.17574,0.49632
1243.68595,0.34901
1242.19616,0.13733
1240.70637,0.29602
1239.21659,0.24946
1237.72680,0.38408
1236.23701,0.28124
1234.74722,0.38373
1233.25743,0.30311
1231.76764,0.22253
1230.27786,0.29696
1228.78807,0.33520
1227.29828,0.39361
1225.80849,0.35142
1224.31870,0.23279
1222.82891,0.23898
1221.33912,0.12446
1219.84934,0.20117
1218.35955,0.27792
1216.86976,0.24402
1215.37997,0.12965
1213.89018,0.08777
1212.40039,0.08216
1210.91061,0.06451
1209.42082,0.13948
1207.93103,0.09172
1206.44124,0.04400
1204.95145,0.20362
1203.46166,0.07346
1201.97188,0.11642
1200.48209,0.13930
1198.99230,0.22259
1197.50251,0.00000
1196.01272,0.22944
1194.52293,0.11476
1193.03314,0.00011
1191.54336,0.01749
1190.05357,0.12750
1188.56378,0.13690
1187.07399,0.21075
1185.58420,0.11558
1184.09441,0.00837
1182.60463,0.08234
1181.11484,0.15635
1179.62505,0.21429
1178.13526,0.13139
1176.64547,0.02840
1175.15568,0.13879
1173.66589,0.33777
1172.17611,0.40798
1170.68632,0.34943
1169.19653,0.29091
1167.70674,0.35319
1166.21695,0.33500
1164.72716,0.19206
1163.23738,0.49598
1161.74759,0.39337
1160.25780,0.37937
1158.76801,0.43182
1157.27822,0.48430
1155.78843,0.43016
1154.29865,0.54109
1152.80886,0.62388
1151.31907,0.63426
1149.82928,0.60844
1148.33949,0.65915
1146.84970,0.63342
1145.35991,0.60772
1143.87013,0.60219
1142.38034,0.64500
1140.89055,0.37388
1139.40076,0.66231
1137.91097,0.87027
1136.42118,0.80053
1134.93140,0.85561
1133.44161,0.91073
1131.95182,1.20741
1130.46203,1.06536
1128.97224,1.10450
1127.48245,1.19197
1125.99266,1.21911
1124.50288,1.07320
1123.01309,1.09236
1121.52330,1.11156
1120.03351,1.02212
1118.54372,0.96894
1117.05393,1.10499
1115.56415,0.95528
1114.07436,0.98675
1112.58457,0.92367
1111.09478,0.86062
1109.60499,1.04920
1108.11520,1.06875
1106.62542,1.15274
1105.13563,1.00733
1103.64584,0.87001
1102.15605,1.17551
1100.66626,1.07450
1099.17647,0.97352
1097.68668,1.15033
1096.19690,1.15006
1094.70711,1.04517
1093.21732,1.08121
1091.72753,1.34271
1090.23774,1.26813
1088.74795,1.19359
1087.25817,1.08889
1085.76838,1.20563
1084.27859,1.32643
1082.78880,1.34262
1081.29901,1.30248
1079.80922,1.40730
1078.31943,1.37127
1076.82965,1.33528
1075.33986,1.52072
1073.85007,1.51701
1072.36028,1.57774
1070.87049,1.40504
1069.38070,1.53026
1067.89092,1.33147
1066.40113,1.13273
1064.91134,1.49555
1063.42155,1.25462
1061.93176,1.29952
1060.44197,1.11502
1058.95219,1.18415
1057.46240,1.11042
1055.97261,1.03673
1054.48282,0.99327
1052.99303,1.09476
1051.50324,1.01113
1050.01345,1.02011
1048.52367,1.20625
1047.03388,1.15493
1045.54409,1.10365
1044.05430,0.95580
1042.56451,0.84020
1041.07472,0.86149
1039.58494,0.55275
1038.09515,0.62644
1036.60536,0.62571
1035.11557,0.62502
1033.62578,0.88803
1032.13599,0.74049
1030.64620,0.86671
1029.15642,0.72328
1027.66663,0.61007
1026.17684,0.49690
1024.68705,0.74404
1023.19726,0.76982
1021.70747,0.97275
1020.21769,0.97849
1018.72790,1.49547
1017.23811,1.31813
1015.74832,1.14083
1014.25853,1.42446
1012.76874,1.72826
1011.27896,1.74228
1009.78917,1.79256
1008.29938,1.83483
1006.80959,1.91740
1005.31980,2.00000
1003.83001,1.60765
1002.34022,1.70643
1000.85044,1.51945
999.36065,1.90008
997.87086,1.88829
996.38107,1.87652
994.89128,1.58102
993.40149,1.45864
991.91171,1.65430
990.42192,1.56822
988.93213,1.49426
987.44234,1.60551
985.95255,1.71679
984.46276,1.82409
982.97297,1.57317
981.48319,1.55173
979.99340,1.52631
978.50361,1.41438
977.01382,1.30249
975.52403,1.25705
974.03424,1.15933
972.54446,1.10592
971.05467,1.06866
969.56488,1.07973
968.07509,1.14720
966.58530,1.21471
965.09551,1.06489
963.60573,1.12845
962.11594,1.04713
960.62615,0.67604
959.13636,0.81016
957.64657,0.94431
956.15678,0.77862
954.66699,1.06381
953.17721,0.87404
951.68742,0.69237
950.19763,0.67778
948.70784,0.66324
947.21805,0.91641
945.72826,0.76709
944.23848,0.97607
942.74869,0.82683
941.25890,0.78229
939.76911,0.89276
938.27932,1.00327
936.78953,0.88638
935.29974,1.03923
933.80996,1.20420
932.32017,1.12769
930.83038,1.10153
929.34059,1.07541
927.85080,1.31299
926.36101,1.29298
924.87123,1.22471
923.38144,1.22894
921.89165,1.29560
920.40186,1.36229
918.91207,1.31028
917.42228,0.91615
915.93250,1.08964
914.44271,1.18265
912.95292,1.30791
911.46313,1.43320
909.97334,1.46193
908.48355,1.31358
906.99376,1.18137
905.50398,0.82781
904.01419,0.85669
902.52440,0.88561
901.03461,0.82601
899.54482,0.70204
898.05503,1.11751
896.56525,1.12646
895.07546,1.11330
893.58567,1.10019
892.09588,0.84761
890.60609,0.90502
889.11630,1.08724
887.62651,1.13668
886.13673,1.11369
884.64694,1.09075
883.15715,1.14432
881.66736,0.91617
880.17757,1.41663
878.68778,1.43006
877.19800,1.44354
875.70821,1.33227
874.21842,1.49074
872.72863,1.45602
871.23884,1.56224
869.74905,1.61415
868.25927,1.66610
866.76948,1.76840
865.27969,1.75804
863.78990,1.84432
862.30011,1.54823
860.81032,1.56817
859.32053,1.58815
857.83075,1.77522
856.34096,1.72886
854.85117,1.95223
853.36138,1.74896
851.87159,1.61215
850.38180,1.47537
848.89202,1.38896
847.40223,1.32270
845.91244,1.15988
844.42265,1.09168
842.93286,1.02353
841.44307,0.90510
839.95329,0.87527
838.46350,0.75289
836.97371,0.79559
835.48392,0.66524
833.99413,0.53493
832.50434,0.56165
831.01455,0.65280
829.52477,0.64739
828.03498,0.64604
826.54519,0.62260
825.05540,0.59919
823.56561,0.63419
822.07582,0.48003
820.58604,0.53121
819.09625,0.48380
817.60646,0.43644
816.11667,0.45955
814.62688,0.55516
813.13709,0.42942
811.64730,0.20710
810.15752,0.16798
808.66773,0.12890
807.17794,0.17237
805.68815,0.23601
804.19836,0.36007
802.70857,0.20038
801.21879,0.04073
799.72900,0.17698
798.23921,0.39378
796.74942,0.22015
795.25963,0.21966
793.76984,0.21920
792.28006,0.31137
790.79027,0.28281
789.30048,0.18989
787.81069,0.27010
786.32090,0.20543
784.83111,0.14080
783.34132,0.03998
781.85154,0.25720
780.36175,0.09608
778.87196,0.19463
777.38217,0.29322
775.89238,0.22883
774.40259,0.20875
772.91281,0.45840
771.42302,0.36796
769.93323,0.27755
768.44344,0.24153
766.95365,0.19749
765.46386,0.18972
763.97407,0.00487
762.48429,0.13605
760.99450,0.26727
759.50471,0.14292
758.01492,0.13132
756.52513,0.02315
755.03534,0.05188
753.54556,0.08064
752.05577,0.02089
750.56598,0.34761
749.07619,0.27183
747.58640,0.23434
746.09661,0.19688
744.60683,0.10915
743.11704,0.10196
741.62725,0.19141
740.13746,0.09574
738.64767,0.00011
737.15788,0.02697
735.66809,0.07802
734.17831,0.12508
732.68852,0.12388
731.19873,0.12271
729.70894,0.18196
728.21915,0.11647
726.72936,0.25631
725.23958,0.21907
723.74979,0.31269
722.26000,0.40636
720.77021,0.36119
719.28042,0.34826
717.79063,0.29108
716.30084,0.28226
714.81106,0.27347
713.32127,0.36132
711.83148,0.15940
710.34169,0.16683
708.85190,0.23266
707.36211,0.29853
705.87233,0.33023
704.38254,0.28548
702.89275,0.35751
701.40296,0.32894
699.91317,0.30041
698.42338,0.17129
696.93360,0.25152
695.44381,0.24726
693.95402,0.32958
692.46423,0.41194
690.97444,0.13810
689.48465,0.21048
687.99486,0.13798
686.50508,0.09773
685.01529,0.05751
683.52550,0.34741
682.03571,0.33947
680.54592,0.30742
679.05613,0.24119
677.56635,0.17500
676.07656,0.21150
674.58677,0.17155
673.09698,0.34096
671.60719,0.28499
670.11740,0.22906
668.62761,0.41469
667.13783,0.15757
665.64804,0.16012
664.15825,0.16271
662.66846,0.10697
661.17867,0.17606
659.68888,0.19285
658.19910,0.17547
656.70931,0.15813
655.21952,0.07843
653.72973,0.23224
652.23994,0.18483
650.75015,0.18173
649.26037,0.17867
647.77058,0.15955
646.28079,0.16864
644.79100,0.10129
643.30121,0.05612
641.81142,0.01099
640.32163,0.19333
638.83185,0.08185
637.34206,0.20389
635.85227,0.21325
634.36248,0.22265
632.87269,0.07913
631.38290,0.05641
629.89312,0.16656
628.40333,0.20631
626.91354,0.24610
625.42375,0.20341
623.93396,0.08427
622.44417,0.15839
620.95438,0.23254
619.46460,0.38322
617.97481,0.27632
616.48502,0.33851
614.99523,0.16929
613.50544,0.00011
612.01565,0.15504
610.52587,0.16510
609.03608,0.18324
607.54629,0.16520
606.05650,0.14720
604.56671,0.41905
603.07692,0.36490
601.58714,0.27254
600.09735,0.18023
598.60756,0.13827
597.11777,0.35396
595.62798,0.41271
594.13819,0.37690
592.64840,0.34113
591.15862,0.07394
589.66883,0.37437
588.17904,0.29242
586.68925,0.29907
585.19946,0.30576
583.70967,0.39702
582.21989,0.39574
580.73010,0.32808
579.24031,0.26046
577.75052,0.38810
576.26073,0.43125
574.77094,0.35770
573.28115,0.31036
571.79137,0.26306
570.30158,0.53581
568.81179,0.58317
567.32200,0.54404
565.83221,0.50494
564.34242,0.70539
562.85264,0.81731
561.36285,0.68374
559.87306,0.86015
558.38327,1.03660
556.89348,1.08025
555.40369,1.14407
553.91391,1.19384
552.42412,1.24365
550.93433,1.16268
549.44454,1.32325
547.95475,1.35506
546.46496,1.31848
544.97517,1.28194
543.48539,1.29777
541.99560,1.49879
540.50581,1.48451
539.01602,1.47026
537.52623,1.38963
536.03644,1.48213
534.54666,1.17214
533.05687,1.25868
531.56708,1.34525
530.07729,1.19236
528.58750,1.12002
527.09771,1.07991
525.60792,1.03985
524.11814,0.85894
522.62835,0.94374
521.13856,0.83536
519.64877,0.86790
518.15898,0.90049
516.66919,0.83650
515.17941,0.98187
513.68962,0.85558
512.19983,0.72932
510.71004,0.91506
509.22025,0.69025
507.73046,0.83179
506.24068,0.85865
504.75089,0.88554
503.26110,1.00707
501.77131,0.83882
500.28152,0.77727
498.79173,0.71576
497.30194,0.76097
495.81216,0.68545
494.32237,0.57978
492.83258,0.47415
491.34279,0.75700
489.85300,0.62126
488.36321,0.70292
486.87343,0.67996
485.38364,0.65705
483.89385,0.41680
482.40406,0.24502
480.91427,0.33292
479.42448,0.42085
477.93469,0.36190
476.44491,0.18223
474.95512,0.09115
473.46533,0.00011
471.97554,0.15066
470.48575,0.18049
468.99596,0.15400
467.50618,0.16378
466.01639,0.17360
464.52660,0.30019
463.03681,0.44292
461.54702,0.42669
460.05723,0.41050
458.56745,0.49700
457.07766,0.42654
455.58787,0.50305
454.09808,0.57960
452.60829,0.81518
451.11850,0.62009
449.62871,0.78732
448.13893,0.95459
446.64914,1.14606
445.15935,1.14837
443.66956,1.11449
442.17977,1.10279
440.68998,1.09113
439.20020,0.81584
437.71041,0.93508
436.22062,0.98391
434.73083,1.03279
433.24104,0.83414
431.75125,0.91731
430.26146,0.98642
428.77168,1.05557
427.28189,1.26364
425.79210,1.33086
424.30231,1.16263
422.81252,0.99445
421.32273,1.05373
419.83295,1.25797
418.34316,1.34148
416.85337,1.42503
415.36358,1.31541
413.87379,1.60031
412.38400,1.43239
410.89422,1.26452
409.40443,1.28788
407.91464,1.16235
406.42485,0.97245
404.93506,0.82285
403.44527,0.67328
401.95548,0.62841
400.46570,0.52320
398.97591,0.52872
397.48612,0.53428
395.99633,0.79147
394.50654,0.72666
393.01675,0.63573
391.52697,0.54484
390.03718,0.87464
388.54739,0.63288
387.05760,0.61053
385.56781,0.58823
384.07802,0.62433
382.58824,0.46725
381.09845,0.43701
379.60866,0.40681
378.11887,0.31828
376.62908,0.12513
375.13929,0.19367
373.64950,0.26224
372.15972,0.31073
370.66993,0.32705
369.18014,0.32731
367.69035,0.32761
366.20056,0.27964
364.71077,0.13108
363.22099,0.20597
361.73120,0.28089
360.24141,0.27735
358.75162,0.23361
357.26183,0.19392
355.77204,0.15428
354.28225,0.21933
352.79247,0.34480
351.30268,0.17244
349.81289,0.00011
348.32310,0.08376
346.83331,0.04669
345.34352,0.11029
343.85374,0.17393
342.36395,0.00011
340.87416,0.19154
339.38437,0.13947
337.89458,0.08744
336.40479,0.20652
334.91501,0.10828
333.42522,0.11272
331.93543,0.11720
330.44564,0.11970
328.95585,0.11017
327.46606,0.17514
325.97627,0.24015
324.48649,0.23074
322.99670,0.10865
321.50691,0.14561
320.01712,0.18260
318.52733,0.22567
317.03754,0.14802
315.54776,0.08650
314.05797,0.02503
312.56818,0.03202
311.07839,0.23227
309.58860,0.27557
308.09881,0.31891
306.60902,0.04429
305.11924,0.19236
303.62945,0.15732
302.13966,0.12232
300.64987,0.14170
299.16008,0.00011
