1778.52000,0.07476
1777.03021,0.14612
1775.54042,0.06626
1774.05063,0.17929
1772.56085,0.16002
1771.07106,0.14836
1769.58127,0.14052
1768.09148,0.20078
1766.60169,0.14387
1765.11190,0.14750
1763.62212,0.00748
1762.13233,0.04523
1760.64254,0.14351
1759.15275,0.23049
1757.66296,0.22677
1756.17317,-0.00000
1754.68339,0.08412
1753.19360,0.09643
1751.70381,0.08232
1750.21402,0.17412
1748.72423,0.14876
1747.23444,0.19905
1745.74465,0.09058
1744.25487,0.15230
1742.76508,0.01745
1741.27529,0.13597
1739.78550,0.14867
1738.29571,0.01016
1736.80592,0.04941
1735.31614,0.09626
1733.82635,0.18853
1732.33656,0.05397
1730.84677,0.01020
1729.35698,0.11772
1727.86719,0.09294
1726.37740,0.01905
1724.88762,0.01704
1723.39783,0.04154
1721.90804,0.07743
1720.41825,0.00748
1718.92846,0.13764
1717.43867,0.17710
1715.94889,0.25062
1714.45910,0.07842
1712.96931,0.17850
1711.47952,0.12359
1709.98973,0.20107
1708.49994,0.01768
1707.01016,0.06500
1705.52037,0.11235
1704.03058,0.19378
1702.54079,0.20340
1701.05100,0.16013
1699.56121,0.12825
1698.07142,0.14557
1696.58164,0.11755
1695.09185,0.10092
1693.60206,0.18264
1692.11227,0.13584
1690.62248,0.10421
1689.13269,0.22387
1687.64291,0.09024
1686.15312,0.15704
1684.66333,0.24280
1683.17354,0.16600
1681.68375,0.22916
1680.19396,0.24319
1678.70417,0.17031
1677.21439,0.30543
1675.72460,0.19860
1674.23481,0.05778
1672.74502,0.16278
1671.25523,0.16195
1669.76544,0.17250
1668.27566,0.19066
1666.78587,0.21642
1665.29608,0.24979
1663.80629,0.12439
1662.31650,0.15406
1660.82671,0.11193
1659.33693,0.26268
1657.84714,0.22819
1656.35735,0.17863
1654.86756,0.15935
1653.37777,0.13256
1651.88798,0.07178
1650.39819,0.17741
1648.90841,0.16208
1647.41862,0.12033
1645.92883,0.13345
1644.43904,0.14661
1642.94925,0.20330
1641.45946,0.10500
1639.96968,0.02943
1638.47989,0.22992
1636.99010,0.23762
1635.50031,0.09034
1634.01052,0.07165
1632.52073,0.19291
1631.03094,0.16675
1629.54116,0.21625
1628.05137,0.22043
1626.56158,0.20195
1625.07179,0.20243
1623.58200,0.15757
1622.09221,0.09007
1620.60243,0.00748
1619.11264,0.02101
1617.62285,0.20852
1616.13306,0.21457
1614.64327,0.22444
1613.15348,0.21545
1611.66370,0.22541
1610.17391,0.24298
1608.68412,0.13958
1607.19433,0.14589
1605.70454,0.25055
1604.21475,0.25126
1602.72496,0.25202
1601.23518,0.16397
1599.74539,0.21207
1598.25560,0.21485
1596.76581,0.14204
1595.27602,0.14112
1593.78623,0.07975
1592.29645,0.11672
1590.80666,0.05165
1589.31687,0.15677
1587.82708,0.05018
1586.33729,0.09867
1584.84750,0.15098
1583.35771,0.17687
1581.86793,0.18011
1580.37814,0.27414
1578.88835,0.25099
1577.39856,0.14470
1575.90877,0.11030
1574.41898,0.02300
1572.92920,0.11724
1571.43941,0.26824
1569.94962,0.20187
1568.45983,0.13554
1566.97004,0.16188
1565.48025,0.22608
1563.99047,0.21849
1562.50068,0.12019
1561.01089,0.24501
1559.52110,0.14301
1558.03131,0.11668
1556.54152,0.06013
1555.05173,0.24941
1553.56195,0.15136
1552.07216,0.19703
1550.58237,0.31081
1549.09258,0.30363
1547.60279,0.21332
1546.11300,0.16841
1544.62322,0.17270
1543.13343,0.21863
1541.64364,0.00748
1540.15385,0.12347
1538.66406,0.23950
1537.17427,0.22890
1535.68448,0.07844
1534.19470,0.13598
1532.70491,0.16711
1531.21512,0.05458
1529.72533,0.15007
1528.23554,0.16241
1526.74575,0.14833
1525.25597,0.14184
1523.76618,0.09003
1522.27639,0.17438
1520.78660,0.11509
1519.29681,0.11256
1517.80702,0.01177
1516.31724,0.07360
1514.82745,0.23756
1513.33766,0.15013
1511.84787,0.06273
1510.35808,0.10583
1508.86829,0.16031
1507.37850,0.05224
1505.88872,0.04253
1504.39893,0.06311
1502.90914,0.03079
1501.41935,0.05523
1499.92956,0.09484
1498.43977,0.14206
1496.94999,0.15906
1495.46020,0.19502
1493.97041,0.15918
1492.48062,0.18387
1490.99083,0.30692
1489.50104,0.39598
1488.01125,0.43215
1486.52147,0.46835
1485.03168,0.47436
1483.54189,0.58249
1482.05210,0.51673
1480.56231,0.57202
1479.07252,0.66893
1477.58274,0.76967
1476.09295,0.80996
1474.60316,0.89566
1473.11337,1.01921
1471.62358,0.94241
1470.13379,0.98664
1468.64401,0.83052
1467.15422,0.83324
1465.66443,0.85492
1464.17464,0.87663
1462.68485,0.70177
1461.19506,0.71601
1459.70527,0.66223
1458.21549,0.51018
1456.72570,0.56991
1455.23591,0.36123
1453.74612,0.42862
1452.25633,0.29943
1450.76654,0.15893
1449.27676,0.18107
1447.78697,0.12006
1446.29718,0.28219
1444.80739,0.25530
1443.31760,0.22845
1441.82781,0.28483
1440.33802,0.29209
1438.84824,0.00825
1437.35845,0.07232
1435.86866,0.20449
1434.37887,0.20058
1432.88908,0.12865
1431.39929,0.08701
1429.90951,0.01139
1428.41972,0.25720
1426.92993,0.15519
1425.44014,0.13263
1423.95035,0.20086
1422.46056,0.26913
1420.97078,0.15973
1419.48099,0.27345
1417.99120,0.24354
1416.50141,0.19098
1415.01162,0.08175
1413.52183,0.17674
1412.03204,0.13187
1410.54226,0.35550
1409.05247,0.30694
1407.56268,0.48906
1406.07289,0.32715
1404.58310,0.37513
1403.09331,0.42315
1401.60353,0.32564
1400.11374,0.50041
1398.62395,0.45214
1397.13416,0.53247
1395.64437,0.58259
1394.15458,0.69325
1392.66479,0.71321
1391.17501,0.72565
1389.68522,0.65494
1388.19543,0.60697
1386.70564,0.64789
1385.21585,0.68885
1383.72606,0.64100
1382.23628,0.60832
1380.74649,0.70802
1379.25670,0.56577
1377.76691,0.73361
1376.27712,0.65194
1374.78733,0.70265
1373.29755,0.77988
1371.80776,0.90252
1370.31797,0.91554
1368.82818,0.93050
1367.33839,0.94550
1365.84860,1.06831
1364.35881,1.24788
1362.86903,1.28759
1361.37924,1.15718
1359.88945,1.40116
1358.39966,1.21034
1356.90987,1.21996
1355.42008,1.29391
1353.93030,1.29228
1352.44051,1.29447
1350.95072,1.29670
1349.46093,1.00027
1347.97114,1.15383
1346.48135,1.01250
1344.99156,0.93928
1343.50178,0.72620
1342.01199,0.67575
1340.52220,0.60265
1339.03241,0.66950
1337.54262,0.63808
1336.05283,0.61427
1334.56305,0.59049
1333.07326,0.58945
1331.58347,0.37671
1330.09368,0.53833
1328.60389,0.45045
1327.11410,0.35505
1325.62432,0.41471
1324.13453,0.31940
1322.64474,0.29218
1321.15495,0.26500
1319.66516,0.27568
1318.17537,0.28641
1316.68558,0.21398
1315.19580,0.13026
1313.70601,0.22051
1312.21622,0.17847
1310.72643,0.09865
1309.23664,0.10206
1307.74685,0.18492
1306.25707,0.26783
1304.76728,0.26191
1303.27749,0.25604
1301.78770,0.14245
1300.29791,0.19148
1298.80812,0.29728
1297.31834,0.12332
1295.82855,0.21030
1294.33876,0.28219
1292.84897,0.27472
1291.35918,0.41476
1289.86939,0.46410
1288.37960,0.51347
1286.88982,0.26796
1285.40003,0.32876
1283.91024,0.40473
1282.42045,0.45050
1280.93066,0.38665
1279.44087,0.41359
1277.95109,0.40655
1276.46130,0.47139
1274.97151,0.45119
1273.48172,0.43103
1271.99193,0.42794
1270.50214,0.44757
1269.01235,0.41809
1267.52257,0.54746
1266.03278,0.52941
1264.54299,0.40553
1263.05320,0.53881
1261.56341,0.52466
1260.07362,0.51056
1258.58384,0.47759
1257.09405,0.42576
1255.60426,0.50632
1254.11447,0.44323
1252.62468,0.54277
1251.13489,0.46464
1249.64511,0.39033
1248.15532,0.39169
1246.66553,0.38175
1245.17574,0.37185
1243.68595,0.41493
1242.19616,0.46183
1240.70637,0.55793
1239.21659,0.40451
1237.72680,0.29651
1236.23701,0.32846
1234.74722,0.25458
1233.25743,0.27904
1231.76764,0.30355
1230.27786,0.43398
1228.78807,0.35648
1227.29828,0.40380
1225.80849,0.21295
1224.31870,0.19230
1222.82891,0.30781
1221.33912,0.16625
1219.84934,0.23080
1218.35955,0.29539
1216.86976,0.35813
1215.37997,0.19783
1213.89018,0.20394
1212.40039,0.19496
1210.91061,0.25409
1209.42082,0.25655
1207.93103,0.19855
1206.44124,0.14059
1204.95145,0.22257
1203.46166,0.14958
1201.97188,0.10687
1200.48209,0.00748
1198.99230,0.15800
1197.50251,0.12327
1196.01272,0.10749
1194.52293,0.09365
1193.03314,0.07985
1191.54336,0.00748
1190.05357,0.13952
1188.56378,0.18842
1187.07399,0.19954
1185.58420,0.16534
1184.09441,0.15008
1182.60463,0.22183
1181.11484,0.29362
1179.62505,0.08944
1178.13526,0.25584
1176.64547,0.19920
1175.15568,0.24847
1173.66589,0.22973
1172.17611,0.34337
1170.68632,0.33416
1169.19653,0.32500
1167.70674,0.31398
1166.21695,0.26142
1164.72716,0.40552
1163.23738,0.47404
1161.74759,0.52747
1160.25780,0.52045
1158.76801,0.49835
1157.27822,0.47628
1155.78843,0.55258
1154.29865,0.63269
1152.80886,0.64100
1151.31907,0.51324
1149.82928,0.70313
1148.33949,0.91197
1146.84970,0.83916
1145.35991,0.76639
1143.87013,0.91108
1142.38034,0.96884
1140.89055,0.78466
1139.40076,0.82738
1137.91097,0.93820
1136.42118,1.05285
1134.93140,1.02008
1133.44161,0.98735
1131.95182,1.06810
1130.46203,1.07704
1128.97224,1.30156
1127.48245,1.34462
1125.99266,1.24026
1124.50288,1.13216
1123.01309,1.21126
1121.52330,1.29041
1120.03351,1.23160
1118.54372,1.15013
1117.05393,1.10274
1115.56415,1.19151
1114.07436,0.91356
1112.58457,1.01942
1111.09478,1.12534
1109.60499,1.01010
1108.11520,0.98565
1106.62542,1.15786
1105.13563,1.08811
1103.64584,0.99573
1102.15605,0.83910
1100.66626,1.03228
1099.17647,1.22550
1097.68668,1.16353
1096.19690,1.12807
1094.70711,1.01325
1093.21732,1.16693
1091.72753,1.18832
1090.23774,1.29860
1088.74795,1.40893
1087.25817,1.43422
1085.76838,1.27050
1084.27859,1.36772
1082.78880,1.33264
1081.29901,1.37323
1079.80922,1.38739
1078.31943,1.34676
1076.82965,1.30618
1075.33986,1.15410
1073.85007,1.52764
1072.36028,1.60629
1070.87049,1.45055
1069.38070,1.64650
1067.89092,1.59105
1066.40113,1.53564
1064.91134,1.38385
1063.42155,1.48922
1061.93176,1.54548
1060.44197,1.49213
1058.95219,1.42369
1057.46240,1.39878
1055.97261,1.37391
1054.48282,1.33207
1052.99303,1.16550
1051.50324,1.09727
1050.01345,0.97616
1048.52367,0.91936
1047.03388,0.90042
1045.54409,0.88152
1044.05430,0.74166
1042.56451,0.63588
1041.07472,0.83641
1039.58494,0.57191
1038.09515,0.57590
1036.60536,0.51944
1035.11557,0.46303
1033.62578,0.55790
1032.13599,0.64903
1030.64620,0.63055
1029.15642,0.60455
1027.66663,0.63531
1026.17684,0.66611
1024.68705,0.56840
1023.19726,0.70516
1021.70747,0.78902
1020.21769,0.82377
1018.72790,1.02494
1017.23811,1.11649
1015.74832,1.20809
1014.25853,1.37913
1012.76874,1.69390
1011.27896,1.80453
1009.78917,1.80933
1008.29938,1.67804
1006.80959,1.73019
1005.31980,1.78238
1003.83001,1.55670
1002.34022,1.59195
1000.85044,1.72178
999.36065,1.81384
997.87086,1.81709
996.38107,1.82037
994.89128,1.80669
993.40149,1.69095
991.91171,1.53367
990.42192,1.69404
988.93213,1.58977
987.44234,1.76536
985.95255,1.94098
984.46276,1.59485
982.97297,1.73274
981.48319,1.59466
979.99340,1.42259
978.50361,1.44339
977.01382,1.46424
975.52403,1.19777
974.03424,1.04855
972.54446,1.39471
971.05467,1.17751
969.56488,0.95658
968.07509,0.94932
966.58530,0.94211
965.09551,0.91414
963.60573,0.92403
962.11594,0.85077
960.62615,0.83805
959.13636,0.79324
957.64657,0.74847
956.15678,0.81528
954.66699,0.57208
953.17721,0.64654
951.68742,0.55089
950.19763,0.63111
948.70784,0.71137
947.21805,0.67634
945.72826,0.65648
944.23848,0.61398
942.74869,0.58287
941.25890,0.56313
939.76911,0.61907
938.27932,0.67504
936.78953,0.93146
935.29974,0.93459
933.80996,1.00203
932.32017,1.03171
930.83038,1.08790
929.34059,1.14413
927.85080,1.16637
926.36101,1.21512
924.87123,1.23366
923.38144,1.39215
921.89165,1.43346
920.40186,1.47482
918.91207,1.52378
917.42228,1.24383
915.93250,1.13407
914.44271,1.03569
912.95292,1.09049
911.46313,1.14533
909.97334,1.17942
908.48355,1.10769
906.99376,0.84315
905.50398,0.86980
904.01419,0.85680
902.52440,0.84383
901.03461,0.91220
899.54482,0.78778
898.05503,0.76927
896.56525,1.06464
895.07546,1.05945
893.58567,1.05430
892.09588,0.92631
890.60609,0.88154
889.11630,1.01075
887.62651,1.18538
886.13673,1.23149
884.64694,1.27763
883.15715,0.99865
881.66736,1.12807
880.17757,1.15544
878.68778,1.25091
877.19800,1.34643
875.70821,1.51761
874.21842,1.71530
872.72863,1.64457
871.23884,1.81210
869.74905,1.64503
868.25927,1.47801
866.76948,1.86119
865.27969,1.80202
863.78990,2.00000
862.30011,1.78588
860.81032,1.73440
859.32053,1.68295
857.83075,1.87733
856.34096,1.84109
854.85117,1.94859
853.36138,1.86328
851.87159,1.72886
850.38180,1.59449
848.89202,1.60384
847.40223,1.39014
845.91244,1.41092
844.42265,1.31074
842.93286,1.21061
841.44307,1.07270
839.95329,0.73822
838.46350,0.86130
836.97371,0.67059
835.48392,0.64061
833.99413,0.61068
832.50434,0.47303
831.01455,0.69463
829.52477,0.47010
828.03498,0.50651
826.54519,0.51838
825.05540,0.53029
823.56561,0.34752
822.07582,0.56937
820.58604,0.29972
819.09625,0.27399
817.60646,0.24831
816.11667,0.34177
814.62688,0.31050
813.13709,0.35867
811.64730,0.45604
810.15752,0.37196
808.66773,0.28792
807.17794,0.12452
805.68815,0.16533
804.19836,0.23267
802.70857,0.24522
801.21879,0.25780
799.72900,0.23830
798.23921,0.16589
796.74942,0.11244
795.25963,0.14599
793.76984,0.17959
792.28006,0.22835
790.79027,0.33009
789.30048,0.04998
787.81069,0.29171
786.32090,0.23855
784.83111,0.18543
783.34132,0.19664
781.85154,0.00748
780.36175,0.20499
778.87196,0.10572
777.38217,0.00649
775.89238,0.13344
774.40259,0.09406
772.91281,0.29671
771.42302,0.21771
769.93323,0.13875
768.44344,0.16382
766.95365,0.20027
765.46386,0.16870
763.97407,0.20145
762.48429,0.20211
760.99450,0.20281
759.50471,0.20922
758.01492,0.22702
756.52513,0.16924
755.03534,0.15120
753.54556,0.13320
752.05577,0.00748
750.56598,0.13354
749.07619,0.07058
747.58640,0.10975
746.09661,0.14897
744.60683,0.13907
743.11704,0.10274
741.62725,0.06646
740.13746,0.13799
738.64767,0.20955
737.15788,0.11668
735.66809,0.13728
734.17831,0.16928
732.68852,0.19564
731.19873,0.22204
729.70894,0.14450
728.21915,0.13885
726.72936,0.09921
725.23958,0.21842
723.74979,0.19209
722.26000,0.16581
720.77021,0.23221
719.28042,0.29109
717.79063,0.44832
716.30084,0.34659
714.81106,0.24490
713.32127,0.30016
711.83148,0.41597
710.34169,0.42595
708.85190,0.33955
707.36211,0.25319
705.87233,0.25951
704.38254,0.18647
702.89275,0.36303
701.40296,0.32600
699.91317,0.28901
698.42338,0.35982
696.93360,0.35127
695.44381,0.42217
693.95402,0.40614
692.46423,0.39015
690.97444,0.24565
689.48465,0.31672
687.99486,0.51639
686.50508,0.57430
685.01529,0.63226
683.52550,0.38210
682.03571,0.53278
680.54592,0.49066
679.05613,0.49775
677.56635,0.50487
676.07656,0.30029
674.58677,0.51546
673.09698,0.28828
671.60719,0.32393
670.11740,0.35962
668.62761,0.40103
667.13783,0.40088
665.64804,0.20416
664.15825,0.00748
662.66846,0.15770
661.17867,0.17183
659.68888,0.20492
658.19910,0.27207
656.70931,0.33927
655.21952,0.30820
653.72973,0.31498
652.23994,0.34828
650.75015,0.35704
649.26037,0.36584
647.77058,0.27448
646.28079,0.24366
644.79100,0.25070
643.30121,0.26156
641.81142,0.27246
640.32163,0.16241
638.83185,0.17339
637.34206,0.16173
635.85227,0.16524
634.36248,0.16879
632.87269,0.25179
631.38290,0.16090
629.89312,0.17592
628.40333,0.20232
626.91354,0.22877
625.42375,0.10401
623.93396,0.30448
622.44417,0.28001
620.95438,0.25558
619.46460,0.11965
617.97481,0.30138
616.48502,0.21468
614.99523,0.16963
613.50544,0.12461
612.01565,0.21954
610.52587,0.15571
609.03608,0.23560
607.54629,0.26448
606.05650,0.29341
604.56671,0.38477
603.07692,0.47618
601.58714,0.36722
600.09735,0.25830
598.60756,0.15321
597.11777,0.12757
595.62798,0.01500
594.13819,0.07451
592.64840,0.13407
591.15862,0.41487
589.66883,0.20037
588.17904,0.35648
586.68925,0.37839
585.19946,0.40035
583.70967,0.62086
582.21989,0.56538
580.73010,0.40975
579.24031,0.25416
577.75052,0.34250
576.26073,0.47626
574.77094,0.54955
573.28115,0.48677
571.79137,0.42403
570.30158,0.59198
568.81179,0.55579
567.32200,0.70114
565.83221,0.84653
564.34242,0.85207
562.85264,0.89545
561.36285,1.08634
559.87306,1.15439
558.38327,1.22248
556.89348,1.17150
555.40369,1.26425
553.91391,1.32491
552.42412,1.38560
550.93433,1.34614
549.44454,1.56384
547.95475,1.63789
546.46496,1.61935
544.97517,1.60085
543.48539,1.72419
541.99560,1.63961
540.50581,1.63636
539.01602,1.63315
537.52623,1.63188
536.03644,1.54369
534.54666,1.83364
533.05687,1.66802
531.56708,1.50244
530.07729,1.65262
528.58750,1.48145
527.09771,1.46724
525.60792,1.45307
524.11814,1.20262
522.62835,1.07699
521.13856,0.80772
519.64877,0.98467
518.15898,1.16166
516.66919,1.10048
515.17941,0.95994
513.68962,1.04820
512.19983,1.13650
510.71004,1.12842
509.22025,1.05611
507.73046,0.95358
506.24068,0.92484
504.75089,0.89614
503.26110,1.04330
501.77131,0.96363
500.28152,0.86321
498.79173,0.76284
497.30194,0.94798
495.81216,0.86470
494.32237,0.84764
492.83258,0.83061
491.34279,0.70965
489.85300,0.55092
488.36321,0.67204
486.87343,0.60603
485.38364,0.54006
483.89385,0.41174
482.40406,0.32885
480.91427,0.34619
479.42448,0.36358
477.93469,0.30349
476.44491,0.33798
474.95512,0.27042
473.46533,0.20289
471.97554,0.03332
470.48575,0.00748
468.99596,0.01017
467.50618,0.03558
466.01639,0.06103
464.52660,0.20374
463.03681,0.26331
461.54702,0.31914
460.05723,0.37502
458.56745,0.62755
457.07766,0.43773
455.58787,0.54856
454.09808,0.65942
452.60829,0.74954
451.11850,1.03631
449.62871,1.00551
448.13893,0.97476
446.64914,0.95160
445.15935,1.33307
443.66956,1.31757
442.17977,1.28509
440.68998,1.25265
439.20020,1.16165
437.71041,1.10094
436.22062,1.13858
434.73083,1.17626
433.24104,1.10812
431.75125,1.04379
430.26146,1.15533
428.77168,1.26692
427.28189,1.35019
425.79210,1.34275
424.30231,1.45257
422.81252,1.56243
421.32273,1.46437
419.83295,1.78606
418.34316,1.74102
416.85337,1.69603
415.36358,1.76451
413.87379,1.56457
412.38400,1.56696
410.89422,1.56940
409.40443,1.63426
407.91464,1.32484
406.42485,1.23477
404.93506,1.12961
403.44527,1.02449
401.95548,0.97235
400.46570,0.67448
398.97591,0.70184
397.48612,0.72923
395.99633,0.83985
394.50654,0.83330
393.01675,0.77007
391.52697,0.70688
390.03718,0.84036
388.54739,0.76970
387.05760,0.72554
385.56781,0.68143
384.07802,0.81508
382.58824,0.64627
381.09845,0.54557
379.60866,0.44491
378.11887,0.45016
376.62908,0.47815
375.13929,0.41731
373.64950,0.35652
372.15972,0.34304
370.66993,0.60184
369.18014,0.52606
367.69035,0.45031
366.20056,0.64874
364.71077,0.69218
363.22099,0.55607
361.73120,0.41999
360.24141,0.46734
358.75162,0.29543
357.26183,0.33531
355.77204,0.37522
354.28225,0.32822
352.79247,0.31150
351.30268,0.33264
349.81289,0.35382
348.32310,0.21623
346.83331,0.24884
345.34352,0.21910
343.85374,0.18940
342.36395,0.21458
340.87416,0.23979
339.38437,0.19131
337.89458,0.14288
336.40479,0.28543
334.91501,0.28813
333.42522,0.26251
331.93543,0.23693
330.44564,0.36075
328.95585,0.30311
327.46606,0.23229
325.97627,0.16150
324.48649,0.41405
322.99670,0.08812
321.50691,0.17749
320.01712,0.26689
318.52733,0.30340
317.03754,0.22274
315.54776,0.16292
314.05797,0.10314
312.56818,0.00748
311.07839,0.15719
309.58860,0.16704
308.09881,0.17694
306.60902,0.15662
305.11924,0.36322
303.62945,0.22955
302.13966,0.09593
300.64987,0.01907
299.16008,0.00748
