1778.52000,0.00527
1777.03021,0.02736
1775.54042,0.05424
1774.05063,0.03373
1772.56085,0.05595
1771.07106,0.07584
1769.58127,0.07205
1768.09148,0.11811
1766.60169,0.04327
1765.11190,0.11076
1763.62212,0.08343
1762.13233,0.13202
1760.64254,0.03601
1759.15275,0.13686
1757.66296,0.10022
1756.17317,0.10393
1754.68339,0.06500
1753.19360,0.06642
1751.70381,0.02046
1750.21402,0.11682
1748.72423,0.09940
1747.23444,0.11047
1745.74465,0.05282
1744.25487,0.10193
1742.76508,0.09890
1741.27529,0.10777
1739.78550,0.01235
1738.29571,0.12328
1736.80592,0.01608
1735.31614,0.08786
1733.82635,0.10277
1732.33656,0.06318
1730.84677,0.11611
1729.35698,0.09321
1727.86719,0.05849
1726.37740,0.16846
1724.88762,0.11011
1723.39783,0.08263
1721.90804,0.14293
1720.41825,0.21987
1718.92846,0.06921
1717.43867,0.16521
1715.94889,0.09051
1714.45910,0.12494
1712.96931,0.00527
1711.47952,0.04158
1709.98973,0.21546
1708.49994,0.11431
1707.01016,0.12466
1705.52037,0.13505
1704.03058,0.18342
1702.54079,0.13224
1701.05100,0.19018
1699.56121,0.19125
1698.07142,0.13071
1696.58164,0.11289
1695.09185,0.15203
1693.60206,0.19596
1692.11227,0.14744
1690.62248,0.09423
1689.13269,0.23076
1687.64291,0.15865
1686.15312,0.18382
1684.66333,0.23274
1683.17354,0.22953
1681.68375,0.17182
1680.19396,0.23984
1678.70417,0.24861
1677.21439,0.19103
1675.72460,0.22361
1674.23481,0.24199
1672.74502,0.11103
1671.25523,0.10816
1669.76544,0.12430
1668.27566,0.20925
1666.78587,0.22073
1665.29608,0.04729
1663.80629,0.15372
1662.31650,0.14873
1660.82671,0.21255
1659.33693,0.18867
1657.84714,0.12927
1656.35735,0.10785
1654.86756,0.13152
1653.37777,0.07699
1651.88798,0.17189
1650.39819,0.07713
1648.90841,0.08200
1647.41862,0.07269
1645.92883,0.09662
1644.43904,0.12059
1642.94925,0.13986
1641.45946,0.03349
1639.96968,0.05048
1638.47989,0.16236
1636.99010,0.08931
1635.50031,0.06611
1634.01052,0.08089
1632.52073,0.13603
1631.03094,0.18409
1629.54116,0.15157
1628.05137,0.15941
1626.56158,0.11512
1625.07179,0.17046
1623.58200,0.07646
1622.09221,0.06075
1620.60243,0.04271
1619.11264,0.13853
1617.62285,0.19172
1616.13306,0.16669
1614.64327,0.12274
1613.15348,0.22585
1611.66370,0.20569
1610.17391,0.08361
1608.68412,0.12993
1607.19433,0.24270
1605.70454,0.10888
1604.21475,0.14703
1602.72496,0.18523
1601.23518,0.12031
1599.74539,0.09100
1598.25560,0.23248
1596.76581,0.12500
1595.27602,0.11716
1593.78623,0.05720
1592.29645,0.12295
1590.80666,0.06545
1589.31687,0.05066
1587.82708,0.12840
1586.33729,0.08288
1584.84750,0.15596
1583.35771,0.15083
1581.86793,0.15523
1580.37814,0.03399
1578.88835,0.08590
1577.39856,0.08568
1575.90877,0.10684
1574.41898,-0.00000
1572.92920,0.13688
1571.43941,0.11967
1569.94962,0.07642
1568.45983,0.03321
1566.97004,0.13944
1565.48025,0.16033
1563.99047,0.00817
1562.50068,0.07144
1561.01089,0.10392
1559.52110,0.05819
1558.03131,0.07179
1556.54152,0.13523
1555.05173,0.19160
1553.56195,0.08201
1552.07216,0.13609
1550.58237,0.20207
1549.09258,0.12343
1547.60279,0.04722
1546.11300,0.08012
1544.62322,0.07276
1543.13343,0.13183
1541.64364,0.15301
1540.15385,0.13747
1538.66406,0.12197
1537.17427,0.07688
1535.68448,0.05553
1534.19470,0.16466
1532.70491,0.02009
1531.21512,0.03208
1529.72533,0.09864
1528.23554,0.09886
1526.74575,0.20108
1525.25597,0.24169
1523.76618,0.06417
1522.27639,0.00527
1520.78660,0.10022
1519.29681,0.10273
1517.80702,0.10765
1516.31724,0.15530
1514.82745,0.13896
1513.33766,0.09659
1511.84787,0.05425
1510.35808,0.04515
1508.86829,0.17127
1507.37850,0.14803
1505.88872,0.05843
1504.39893,0.09930
1502.90914,0.08805
1501.41935,0.08395
1499.92956,0.04906
1498.43977,0.16836
1496.94999,0.13830
1495.46020,0.06797
1493.97041,0.19925
1492.48062,0.33057
1490.99083,0.23665
1489.50104,0.35382
1488.01125,0.38330
1486.52147,0.41282
1485.03168,0.47321
1483.54189,0.55973
1482.05210,0.63680
1480.56231,0.59061
1479.07252,0.81004
1477.58274,0.86827
1476.09295,0.98108
1474.60316,1.04651
1473.11337,0.97207
1471.62358,0.95933
1470.13379,0.93714
1468.64401,0.97665
1467.15422,0.87630
1465.66443,0.92893
1464.17464,0.98161
1462.68485,0.86004
1461.19506,0.87130
1459.70527,0.77353
1458.21549,0.65920
1456.72570,0.48799
1455.23591,0.48757
1453.74612,0.46585
1452.25633,0.33271
1450.76654,0.26839
1449.27676,0.29659
1447.78697,0.21101
1446.29718,0.24404
1444.80739,0.29134
1443.31760,0.33868
1441.82781,0.27698
1440.33802,0.20821
1438.84824,0.15608
1437.35845,0.21544
1435.86866,0.17526
1434.37887,0.18491
1432.88908,0.21120
1431.39929,0.18062
1429.90951,0.17855
1428.41972,0.21208
1426.92993,0.20534
1425.44014,0.35753
1423.95035,0.35917
1422.46056,0.36086
1420.97078,0.26655
1419.48099,0.24817
1417.99120,0.23931
1416.50141,0.36092
1415.01162,0.32132
1413.52183,0.30074
1412.03204,0.23751
1410.54226,0.33083
1409.05247,0.36017
1407.56268,0.33264
1406.07289,0.42372
1404.58310,0.40338
1403.09331,0.38309
1401.60353,0.51223
1400.11374,0.51811
1398.62395,0.56909
1397.13416,0.58216
1395.64437,0.58817
1394.15458,0.69381
1392.66479,0.76629
1391.17501,0.87202
1389.68522,0.76911
1388.19543,0.88203
1386.70564,0.82189
1385.21585,0.76180
1383.72606,0.77762
1382.23628,0.76029
1380.74649,0.84260
1379.25670,0.82061
1377.76691,0.73701
1376.27712,0.77913
1374.78733,0.81418
1373.29755,0.96546
1371.80776,0.94131
1370.31797,1.06423
1368.82818,1.04491
1367.33839,1.02563
1365.84860,1.24115
1364.35881,1.43537
1362.86903,1.47550
1361.37924,1.35917
1359.88945,1.32824
1358.39966,1.38746
1356.90987,1.31868
1355.42008,1.34953
1353.93030,1.31877
1352.44051,1.36631
1350.95072,1.41389
1349.46093,1.16035
1347.97114,1.16533
1346.48135,1.01859
1344.99156,1.02365
1343.50178,0.80111
1342.01199,0.71141
1340.52220,0.74268
1339.03241,0.71946
1337.54262,0.72710
1336.05283,0.74783
1334.56305,0.76861
1333.07326,0.64121
1331.58347,0.59923
1330.09368,0.59049
1328.60389,0.35651
1327.11410,0.33599
1325.62432,0.46254
1324.13453,0.39943
1322.64474,0.37192
1321.15495,0.34683
1319.66516,0.31942
1318.17537,0.29204
1316.68558,0.19356
1315.19580,0.21607
1313.70601,0.23387
1312.21622,0.24223
1310.72643,0.21033
1309.23664,0.23537
1307.74685,0.15612
1306.25707,0.11722
1304.76728,0.13291
1303.27749,0.14864
1301.78770,0.17627
1300.29791,0.22291
1298.80812,0.26959
1297.31834,0.22146
1295.82855,0.29668
1294.33876,0.29132
1292.84897,0.25992
1291.35918,0.33527
1289.86939,0.34189
1288.37960,0.34855
1286.88982,0.48094
1285.40003,0.54697
1283.91024,0.38777
1282.42045,0.35192
1280.93066,0.25920
1279.44087,0.39891
1277.95109,0.46041
1276.46130,0.54329
1274.97151,0.49461
1273.48172,0.44597
1271.99193,0.46969
1270.50214,0.44604
1269.01235,0.52913
1267.52257,0.49844
1266.03278,0.47965
1264.54299,0.51782
1263.05320,0.58922
1261.56341,0.53381
1260.07362,0.47843
1258.58384,0.47645
1257.09405,0.39626
1255.60426,0.41334
1254.11447,0.37591
1252.62468,0.50216
1251.13489,0.39130
1249.64511,0.37061
1248.15532,0.23139
1246.66553,0.28191
1245.17574,0.33248
1243.68595,0.41629
1242.19616,0.37684
1240.70637,0.33505
1239.21659,0.26959
1237.72680,0.27769
1236.23701,0.15303
1234.74722,0.31535
1233.25743,0.27614
1231.76764,0.23698
1230.27786,0.25240
1228.78807,0.29395
1227.29828,0.15294
1225.80849,0.16612
1224.31870,0.22439
1222.82891,0.20445
1221.33912,0.21064
1219.84934,0.18249
1218.35955,0.15437
1216.86976,0.16543
1215.37997,0.30695
1213.89018,0.24221
1212.40039,0.15617
1210.91061,0.13182
1209.42082,0.16206
1207.93103,0.14254
1206.44124,0.12307
1204.95145,0.11312
1203.46166,0.08187
1201.97188,0.05066
1200.48209,0.00527
1198.99230,0.05421
1197.50251,0.09845
1196.01272,0.07871
1194.52293,0.06257
1193.03314,0.04646
1191.54336,0.09324
1190.05357,0.02387
1188.56378,0.00434
1187.07399,0.01451
1185.58420,0.05792
1184.09441,0.18437
1182.60463,0.16502
1181.11484,0.14572
1179.62505,0.14424
1178.13526,0.00527
1176.64547,0.02548
1175.15568,0.07893
1173.66589,0.13005
1172.17611,0.26183
1170.68632,0.27272
1169.19653,0.28366
1167.70674,0.29226
1166.21695,0.26296
1164.72716,0.33093
1163.23738,0.39895
1161.74759,0.48360
1160.25780,0.57778
1158.76801,0.58071
1157.27822,0.58368
1155.78843,0.59025
1154.29865,0.66800
1152.80886,0.81693
1151.31907,0.75249
1149.82928,0.88491
1148.33949,0.83952
1146.84970,0.83804
1145.35991,0.83660
1143.87013,0.89330
1142.38034,0.87654
1140.89055,1.06375
1139.40076,0.99490
1137.91097,0.98063
1136.42118,1.19405
1134.93140,1.21188
1133.44161,1.22975
1131.95182,1.32474
1130.46203,1.33439
1128.97224,1.32512
1127.48245,1.35383
1125.99266,1.34701
1124.50288,1.36869
1123.01309,1.37382
1121.52330,1.37898
1120.03351,1.33676
1118.54372,1.22819
1117.05393,1.16946
1115.56415,1.09654
1114.07436,1.11140
1112.58457,1.11800
1111.09478,1.12465
1109.60499,1.07087
1108.11520,1.23766
1106.62542,0.98477
1105.13563,1.10186
1103.64584,1.20950
1102.15605,1.14881
1100.66626,1.15338
1099.17647,1.15799
1097.68668,1.21837
1096.19690,1.07486
1094.70711,1.05233
1093.21732,1.13418
1091.72753,1.24215
1090.23774,1.33120
1088.74795,1.42029
1087.25817,1.36714
1085.76838,1.56065
1084.27859,1.50284
1082.78880,1.48065
1081.29901,1.32333
1079.80922,1.46247
1078.31943,1.43210
1076.82965,1.40177
1075.33986,1.56475
1073.85007,1.57364
1072.36028,1.67030
1070.87049,1.50142
1069.38070,1.52940
1067.89092,1.50526
1066.40113,1.48115
1064.91134,1.64206
1063.42155,1.52318
1061.93176,1.50395
1060.44197,1.40650
1058.95219,1.21187
1057.46240,1.15957
1055.97261,1.10730
1054.48282,1.10725
1052.99303,1.19735
1051.50324,1.11438
1050.01345,0.98403
1048.52367,1.00075
1047.03388,0.94755
1045.54409,0.89439
1044.05430,0.92783
1042.56451,0.73129
1041.07472,0.76482
1039.58494,0.59445
1038.09515,0.46444
1036.60536,0.47437
1035.11557,0.48435
1033.62578,0.73625
1032.13599,0.57795
1030.64620,0.65683
1029.15642,0.49149
1027.66663,0.54318
1026.17684,0.59491
1024.68705,0.67158
1023.19726,0.76253
1021.70747,0.75629
1020.21769,0.87577
1018.72790,1.01189
1017.23811,1.12790
1015.74832,1.24395
1014.25853,1.38494
1012.76874,1.70146
1011.27896,1.70737
1009.78917,1.61847
1008.29938,1.61972
1006.80959,1.69334
1005.31980,1.76700
1003.83001,1.71147
1002.34022,1.58484
1000.85044,1.71198
999.36065,1.75854
997.87086,1.71503
996.38107,1.67157
994.89128,1.58546
993.40149,1.40928
991.91171,1.50822
990.42192,1.61906
988.93213,1.62560
987.44234,1.69621
985.95255,1.76687
984.46276,1.85653
982.97297,1.77076
981.48319,1.57595
979.99340,1.45706
978.50361,1.31687
977.01382,1.17673
975.52403,1.11014
974.03424,0.99616
972.54446,1.10039
971.05467,0.97228
969.56488,0.96988
968.07509,0.94144
966.58530,0.91304
965.09551,0.83489
963.60573,0.97020
962.11594,0.79254
960.62615,0.78328
959.13636,0.73494
957.64657,0.68664
956.15678,0.63719
954.66699,0.66131
953.17721,0.54555
951.68742,0.60768
950.19763,0.62006
948.70784,0.63249
947.21805,0.67815
945.72826,0.50332
944.23848,0.55144
942.74869,0.63280
941.25890,0.68811
939.76911,0.77548
938.27932,0.86290
936.78953,0.82823
935.29974,0.84814
933.80996,1.03647
932.32017,1.12286
930.83038,1.10259
929.34059,1.08236
927.85080,1.36808
926.36101,1.39536
924.87123,1.41794
923.38144,1.54490
921.89165,1.58772
920.40186,1.63059
918.91207,1.63911
917.42228,1.60024
915.93250,1.54482
914.44271,1.34005
912.95292,1.27167
911.46313,1.20333
909.97334,1.24294
908.48355,1.20907
906.99376,1.04482
905.50398,0.99206
904.01419,0.96188
902.52440,0.93173
901.03461,0.95025
899.54482,0.67950
898.05503,0.82377
896.56525,0.90644
895.07546,0.94172
893.58567,0.97704
892.09588,0.97921
890.60609,1.05730
889.11630,0.99078
887.62651,1.10926
886.13673,1.16614
884.64694,1.22305
883.15715,1.28476
881.66736,1.34650
880.17757,1.39643
878.68778,1.41913
877.19800,1.44187
875.70821,1.38996
874.21842,1.67956
872.72863,1.74630
871.23884,1.82968
869.74905,1.82418
868.25927,1.81872
866.76948,1.92594
865.27969,2.00000
863.78990,1.95791
862.30011,1.82101
860.81032,1.82524
859.32053,1.82952
857.83075,1.90142
856.34096,1.82397
854.85117,1.84616
853.36138,1.88499
851.87159,1.79581
850.38180,1.70667
848.89202,1.48004
847.40223,1.39336
845.91244,1.44426
844.42265,1.32090
842.93286,1.19759
841.44307,1.15139
839.95329,1.05306
838.46350,0.82435
836.97371,0.61228
835.48392,0.60775
833.99413,0.60325
832.50434,0.59999
831.01455,0.43789
829.52477,0.45605
828.03498,0.68767
826.54519,0.54941
825.05540,0.41119
823.56561,0.37735
822.07582,0.36015
820.58604,0.32403
819.09625,0.30098
817.60646,0.27798
816.11667,0.23487
814.62688,0.30562
813.13709,0.27919
811.64730,0.27652
810.15752,0.27626
808.66773,0.27604
807.17794,0.29483
805.68815,0.22118
804.19836,0.21872
802.70857,0.23052
801.21879,0.24237
799.72900,0.00527
798.23921,0.11248
796.74942,0.15808
795.25963,0.16696
793.76984,0.17589
792.28006,0.19790
790.79027,0.19861
789.30048,0.17091
787.81069,0.11716
786.32090,0.08480
784.83111,0.05248
783.34132,0.13166
781.85154,0.12076
780.36175,0.21662
778.87196,0.16194
777.38217,0.10731
775.89238,0.06101
774.40259,0.00527
772.91281,0.11535
771.42302,0.11402
769.93323,0.11273
768.44344,0.08776
766.95365,0.08893
765.46386,0.05219
763.97407,0.17675
762.48429,0.11995
760.99450,0.06318
759.50471,0.00527
758.01492,0.15845
756.52513,0.06980
755.03534,0.07486
753.54556,0.07996
752.05577,0.16928
750.56598,0.15193
749.07619,0.02081
747.58640,0.08180
746.09661,0.14284
744.60683,0.18257
743.11704,0.08481
741.62725,0.14597
740.13746,0.16094
738.64767,0.17594
737.15788,0.12578
735.66809,0.06617
734.17831,0.00898
732.68852,0.02059
731.19873,0.03225
729.70894,0.13406
728.21915,0.04621
726.72936,0.09119
725.23958,0.14096
723.74979,0.17654
722.26000,0.21217
720.77021,0.22887
719.28042,0.30014
717.79063,0.36672
716.30084,0.33731
714.81106,0.30793
713.32127,0.37701
711.83148,0.34653
710.34169,0.29475
708.85190,0.26080
707.36211,0.22689
705.87233,0.31752
704.38254,0.24694
702.89275,0.17166
701.40296,0.21736
699.91317,0.26310
698.42338,0.29940
696.93360,0.27646
695.44381,0.22036
693.95402,0.20461
692.46423,0.18891
690.97444,0.27047
689.48465,0.39239
687.99486,0.36259
686.50508,0.40990
685.01529,0.45724
683.52550,0.46314
682.03571,0.37184
680.54592,0.40153
679.05613,0.32693
677.56635,0.25236
676.07656,0.25609
674.58677,0.30255
673.09698,0.26606
671.60719,0.32682
670.11740,0.38764
668.62761,0.29910
667.13783,0.13472
665.64804,0.06997
664.15825,0.00527
662.66846,0.14466
661.17867,0.14182
659.68888,0.20066
658.19910,0.20264
656.70931,0.20467
655.21952,0.07630
653.72973,0.04758
652.23994,0.07818
650.75015,0.14440
649.26037,0.21066
647.77058,0.23427
646.28079,0.17257
644.79100,0.21286
643.30121,0.13820
641.81142,0.06357
640.32163,0.12297
638.83185,0.09229
637.34206,0.10198
635.85227,0.05360
634.36248,0.00527
632.87269,0.01661
631.38290,0.12047
629.89312,0.10344
628.40333,0.15166
626.91354,0.19992
625.42375,0.18065
623.93396,0.16141
622.44417,0.20150
620.95438,0.24163
619.46460,0.13715
617.97481,0.12520
616.48502,0.14174
614.99523,0.15121
613.50544,0.16073
612.01565,0.13234
610.52587,0.15854
609.03608,0.22747
607.54629,0.30711
606.05650,0.38678
604.56671,0.36335
603.07692,0.42059
601.58714,0.36879
600.09735,0.31702
598.60756,0.22736
597.11777,0.37488
595.62798,0.28293
594.13819,0.37599
592.64840,0.46909
591.15862,0.28479
589.66883,0.10764
588.17904,0.30521
586.68925,0.40203
585.19946,0.49890
583.70967,0.37883
582.21989,0.43666
580.73010,0.44236
579.24031,0.44810
577.75052,0.49656
576.26073,0.55219
574.77094,0.58651
573.28115,0.65882
571.79137,0.73117
570.30158,0.72767
568.81179,0.78351
567.32200,0.76943
565.83221,0.75539
564.34242,0.93466
562.85264,1.10449
561.36285,1.19373
559.87306,1.28657
558.38327,1.37945
556.89348,1.38583
555.40369,1.52741
553.91391,1.55046
552.42412,1.57356
550.93433,1.72475
549.44454,1.79536
547.95475,1.97984
546.46496,1.95686
544.97517,1.93393
543.48539,1.99285
541.99560,1.87396
540.50581,1.79306
539.01602,1.71219
537.52623,1.85428
536.03644,1.81856
534.54666,1.67617
533.05687,1.74131
531.56708,1.80649
530.07729,1.75197
528.58750,1.93462
527.09771,1.83513
525.60792,1.73567
524.11814,1.51058
522.62835,1.23573
521.13856,1.22414
519.64877,1.18651
518.15898,1.14892
516.66919,1.15169
515.17941,1.19718
513.68962,1.23679
512.19983,1.27643
510.71004,1.27700
509.22025,1.23492
507.73046,0.97946
506.24068,1.01809
504.75089,1.05677
503.26110,1.01011
501.77131,1.00144
500.28152,0.97385
498.79173,0.94629
497.30194,0.78835
495.81216,0.69923
494.32237,0.79629
492.83258,0.89340
491.34279,0.77357
489.85300,0.54945
488.36321,0.68344
486.87343,0.69890
485.38364,0.71441
483.89385,0.50468
482.40406,0.28551
480.91427,0.22763
479.42448,0.16980
477.93469,0.24006
476.44491,0.05899
474.95512,0.03211
473.46533,0.00527
471.97554,0.17476
470.48575,0.13087
468.99596,0.20322
467.50618,0.18787
466.01639,0.17256
464.52660,0.36597
463.03681,0.37683
461.54702,0.35335
460.05723,0.32991
458.56745,0.55906
457.07766,0.62937
455.58787,0.76850
454.09808,0.90766
452.60829,1.08718
451.11850,1.09838
449.62871,1.25190
448.13893,1.40546
446.64914,1.44050
445.15935,1.48032
443.66956,1.51545
442.17977,1.45694
440.68998,1.39848
439.20020,1.38156
437.71041,1.23900
436.22062,1.26959
434.73083,1.30022
433.24104,1.20047
431.75125,1.20510
430.26146,1.30937
428.77168,1.41368
427.28189,1.43978
425.79210,1.55366
424.30231,1.54783
422.81252,1.54204
421.32273,1.49954
419.83295,1.71319
418.34316,1.75851
416.85337,1.80388
415.36358,1.74732
413.87379,1.86391
412.38400,1.87620
410.89422,1.88853
409.40443,1.51675
407.91464,1.61454
406.42485,1.26893
404.93506,1.09884
403.44527,0.92879
401.95548,0.85127
400.46570,0.96824
398.97591,0.98921
397.48612,1.01022
395.99633,0.91864
394.50654,0.80338
393.01675,0.76168
391.52697,0.72002
390.03718,0.70686
388.54739,0.93325
387.05760,0.81702
385.56781,0.70083
384.07802,0.67835
382.58824,0.59900
381.09845,0.59795
379.60866,0.59695
378.11887,0.66237
376.62908,0.43854
375.13929,0.39379
373.64950,0.34908
372.15972,0.41231
370.66993,0.66766
369.18014,0.61477
367.69035,0.56193
366.20056,0.53996
364.71077,0.52751
363.22099,0.45108
361.73120,0.37470
360.24141,0.22247
358.75162,0.29082
357.26183,0.36395
355.77204,0.43713
354.28225,0.41549
352.79247,0.39627
351.30268,0.35575
349.81289,0.31527
348.32310,0.22978
346.83331,0.22258
345.34352,0.23558
343.85374,0.24863
342.36395,0.31981
340.87416,0.14916
339.38437,0.15403
337.89458,0.15894
336.40479,0.17101
334.91501,0.00527
333.42522,0.06242
331.93543,0.11961
330.44564,0.09503
328.95585,0.18431
327.46606,0.20132
325.97627,0.21836
324.48649,0.21766
322.99670,0.15298
321.50691,0.13932
320.01712,0.12571
318.52733,0.21529
317.03754,0.12469
315.54776,0.06496
314.05797,0.00527
312.56818,0.24285
311.07839,0.21014
309.58860,0.26640
308.09881,0.32270
306.60902,0.31382
305.11924,0.19591
303.62945,0.10057
302.13966,0.00527
300.64987,0.07046
299.16008,0.00527
