1778.52000,0.01030
1777.03021,0.01340
1775.54042,0.04602
1774.05063,0.07498
1772.56085,0.04501
1771.07106,0.09370
1769.58127,0.09942
1768.09148,0.07446
1766.60169,0.06674
1765.11190,0.07010
1763.62212,0.06613
1762.13233,0.05114
1760.64254,0.03494
1759.15275,0.09004
1757.66296,0.07391
1756.17317,0.04431
1754.68339,0.03316
1753.19360,0.06751
1751.70381,0.02449
1750.21402,0.07855
1748.72423,0.07245
1747.23444,0.07376
1745.74465,0.06281
1744.25487,0.08630
1742.76508,0.01399
1741.27529,0.03419
1739.78550,0.06793
1738.29571,0.04888
1736.80592,0.06427
1735.31614,0.08459
1733.82635,0.11233
1732.33656,0.09464
1730.84677,0.04382
1729.35698,0.04831
1727.86719,0.03440
1726.37740,0.04756
1724.88762,0.05338
1723.39783,0.02360
1721.90804,0.01475
1720.41825,0.02435
1718.92846,0.03153
1717.43867,0.06946
1715.94889,0.06196
1714.45910,0.02993
1712.96931,0.03970
1711.47952,0.08636
1709.98973,0.04091
1708.49994,0.03727
1707.01016,0.04225
1705.52037,0.04727
1704.03058,0.09532
1702.54079,0.05987
1701.05100,0.09202
1699.56121,0.06278
1698.07142,0.08270
1696.58164,0.09529
1695.09185,0.06124
1693.60206,0.10583
1692.11227,0.13204
1690.62248,0.07351
1689.13269,0.07644
1687.64291,0.07940
1686.15312,0.05905
1684.66333,0.10016
1683.17354,0.14131
1681.68375,0.12229
1680.19396,0.08979
1678.70417,0.12121
1677.21439,0.11826
1675.72460,0.09569
1674.23481,0.09035
1672.74502,0.10838
1671.25523,0.13382
1669.76544,0.13595
1668.27566,0.09512
1666.78587,0.11329
1665.29608,0.09217
1663.80629,0.06987
1662.31650,0.08691
1660.82671,0.11258
1659.33693,0.08791
1657.84714,0.10874
1656.35735,0.05220
1654.86756,0.06080
1653.37777,0.05715
1651.88798,0.11496
1650.39819,0.13350
1648.90841,0.07958
1647.41862,0.06378
1645.92883,0.07750
1644.43904,0.09125
1642.94925,0.04852
1641.45946,0.06725
1639.96968,0.06267
1638.47989,0.03233
1636.99010,0.05362
1635.50031,0.05651
1634.01052,0.01030
1632.52073,0.08557
1631.03094,0.09823
1629.54116,0.11214
1628.05137,0.12732
1626.56158,0.09707
1625.07179,0.08160
1623.58200,0.08705
1622.09221,0.01882
1620.60243,0.02311
1619.11264,0.06060
1617.62285,0.07601
1616.13306,0.09391
1614.64327,0.06638
1613.15348,0.10155
1611.66370,0.07164
1610.17391,0.05773
1608.68412,0.07456
1607.19433,0.12214
1605.70454,0.11693
1604.21475,0.10439
1602.72496,0.09187
1601.23518,0.08799
1599.74539,0.09642
1598.25560,0.01030
1596.76581,0.07989
1595.27602,0.06722
1593.78623,0.03000
1592.29645,0.04687
1590.80666,0.02692
1589.31687,0.06351
1587.82708,0.06820
1586.33729,0.05941
1584.84750,0.06907
1583.35771,0.06526
1581.86793,0.03568
1580.37814,0.08353
1578.88835,0.02330
1577.39856,0.07613
1575.90877,0.00000
1574.41898,0.02770
1572.92920,0.00876
1571.43941,0.04390
1569.94962,0.04897
1568.45983,0.05408
1566.97004,0.02789
1565.48025,0.02140
1563.99047,0.04442
1562.50068,0.04290
1561.01089,0.02299
1559.52110,0.03260
1558.03131,0.01030
1556.54152,0.03860
1555.05173,0.08658
1553.56195,0.06704
1552.07216,0.09421
1550.58237,0.04893
1549.09258,0.04668
1547.60279,0.07149
1546.11300,0.05211
1544.62322,0.04382
1543.13343,0.05030
1541.64364,0.07770
1540.15385,0.07197
1538.66406,0.06627
1537.17427,0.05691
1535.68448,0.02179
1534.19470,0.02602
1532.70491,0.00694
1531.21512,0.02474
1529.72533,0.06715
1528.23554,0.05185
1526.74575,0.03659
1525.25597,0.01030
1523.76618,0.07157
1522.27639,0.08988
1520.78660,0.06277
1519.29681,0.02955
1517.80702,0.04796
1516.31724,0.06763
1514.82745,0.01608
1513.33766,0.03766
1511.84787,0.05927
1510.35808,0.10118
1508.86829,0.04485
1507.37850,0.04261
1505.88872,0.03794
1504.39893,0.06033
1502.90914,0.03976
1501.41935,0.03274
1499.92956,0.07980
1498.43977,0.09004
1496.94999,0.10154
1495.46020,0.10939
1493.97041,0.17992
1492.48062,0.16327
1490.99083,0.19333
1489.50104,0.23693
1488.01125,0.29655
1486.52147,0.35619
1485.03168,0.45886
1483.54189,0.51980
1482.05210,0.52795
1480.56231,0.65283
1479.07252,0.63279
1477.58274,0.77249
1476.09295,0.81393
1474.60316,0.89104
1473.11337,0.90553
1471.62358,0.90777
1470.13379,0.92846
1468.64401,0.86074
1467.15422,0.82745
1465.66443,0.80648
1464.17464,0.78554
1462.68485,0.71427
1461.19506,0.70445
1459.70527,0.63939
1458.21549,0.52645
1456.72570,0.47128
1455.23591,0.35472
1453.74612,0.31190
1452.25633,0.27034
1450.76654,0.19073
1449.27676,0.17504
1447.78697,0.19623
1446.29718,0.19657
1444.80739,0.20739
1443.31760,0.21824
1441.82781,0.19043
1440.33802,0.13194
1438.84824,0.12630
1437.35845,0.15879
1435.86866,0.08811
1434.37887,0.11452
1432.88908,0.12253
1431.39929,0.10232
1429.90951,0.16691
1428.41972,0.12465
1426.92993,0.16473
1425.44014,0.13729
1423.95035,0.17621
1422.46056,0.21516
1420.97078,0.18536
1419.48099,0.16787
1417.99120,0.18850
1416.50141,0.18582
1415.01162,0.17580
1413.52183,0.19161
1412.03204,0.20132
1410.54226,0.22457
1409.05247,0.27119
1407.56268,0.30188
1406.07289,0.29820
1404.58310,0.33203
1403.09331,0.36589
1401.60353,0.41145
1400.11374,0.45336
1398.62395,0.43511
1397.13416,0.48077
1395.64437,0.55595
1394.15458,0.62501
1392.66479,0.65358
1391.17501,0.64286
1389.68522,0.65306
1388.19543,0.64241
1386.70564,0.63302
1385.21585,0.62367
1383.72606,0.65734
1382.23628,0.61488
1380.74649,0.67074
1379.25670,0.64923
1377.76691,0.62039
1376.27712,0.72793
1374.78733,0.74092
1373.29755,0.77852
1371.80776,0.88739
1370.31797,0.94471
1368.82818,0.97871
1367.33839,1.01275
1365.84860,1.13159
1364.35881,1.19395
1362.86903,1.30671
1361.37924,1.33474
1359.88945,1.35174
1358.39966,1.34421
1356.90987,1.28389
1355.42008,1.29608
1353.93030,1.25180
1352.44051,1.20018
1350.95072,1.14859
1349.46093,0.95084
1347.97114,0.96320
1346.48135,0.88591
1344.99156,0.84059
1343.50178,0.78303
1342.01199,0.76358
1340.52220,0.66308
1339.03241,0.63264
1337.54262,0.57889
1336.05283,0.58291
1334.56305,0.58697
1333.07326,0.53946
1331.58347,0.50305
1330.09368,0.41875
1328.60389,0.43277
1327.11410,0.36451
1325.62432,0.38351
1324.13453,0.28706
1322.64474,0.28524
1321.15495,0.27485
1319.66516,0.24238
1318.17537,0.20995
1316.68558,0.19597
1315.19580,0.15378
1313.70601,0.18410
1312.21622,0.16408
1310.72643,0.16375
1309.23664,0.14749
1307.74685,0.18899
1306.25707,0.14945
1304.76728,0.14864
1303.27749,0.14787
1301.78770,0.19565
1300.29791,0.13290
1298.80812,0.24586
1297.31834,0.25320
1295.82855,0.27409
1294.33876,0.29132
1292.84897,0.22137
1291.35918,0.29518
1289.86939,0.31743
1288.37960,0.33971
1286.88982,0.39028
1285.40003,0.36226
1283.91024,0.33059
1282.42045,0.32721
1280.93066,0.28823
1279.44087,0.38073
1277.95109,0.38236
1276.46130,0.34348
1274.97151,0.36975
1273.48172,0.39605
1271.99193,0.42238
1270.50214,0.47209
1269.01235,0.47023
1267.52257,0.47086
1266.03278,0.48873
1264.54299,0.45748
1263.05320,0.50121
1261.56341,0.47802
1260.07362,0.45487
1258.58384,0.42499
1257.09405,0.43568
1255.60426,0.37761
1254.11447,0.30729
1252.62468,0.37951
1251.13489,0.37313
1249.64511,0.35819
1248.15532,0.34083
1246.66553,0.36465
1245.17574,0.38851
1243.68595,0.38353
1242.19616,0.33804
1240.70637,0.26679
1239.21659,0.22137
1237.72680,0.27181
1236.23701,0.24365
1234.74722,0.33838
1233.25743,0.29923
1231.76764,0.26012
1230.27786,0.23947
1228.78807,0.25202
1227.29828,0.24126
1225.80849,0.19369
1224.31870,0.20511
1222.82891,0.20182
1221.33912,0.21576
1219.84934,0.22790
1218.35955,0.24007
1216.86976,0.17057
1215.37997,0.16377
1213.89018,0.14471
1212.40039,0.14288
1210.91061,0.18163
1209.42082,0.18970
1207.93103,0.19534
1206.44124,0.20102
1204.95145,0.06668
1203.46166,0.10068
1201.97188,0.08680
1200.48209,0.01030
1198.99230,0.06857
1197.50251,0.10230
1196.01272,0.11150
1194.52293,0.09739
1193.03314,0.08331
1191.54336,0.01030
1190.05357,0.04016
1188.56378,0.03812
1187.07399,0.06559
1185.58420,0.08696
1184.09441,0.09976
1182.60463,0.09907
1181.11484,0.09843
1179.62505,0.06710
1178.13526,0.09477
1176.64547,0.04140
1175.15568,0.07651
1173.66589,0.13008
1172.17611,0.15665
1170.68632,0.18511
1169.19653,0.21359
1167.70674,0.17761
1166.21695,0.24486
1164.72716,0.29495
1163.23738,0.26153
1161.74759,0.30062
1160.25780,0.38274
1158.76801,0.40900
1157.27822,0.43530
1155.78843,0.48926
1154.29865,0.51378
1152.80886,0.52850
1151.31907,0.59977
1149.82928,0.57770
1148.33949,0.72151
1146.84970,0.68293
1145.35991,0.64438
1143.87013,0.58928
1142.38034,0.71971
1140.89055,0.67819
1139.40076,0.79271
1137.91097,0.78934
1136.42118,0.89411
1134.93140,0.94669
1133.44161,0.99932
1131.95182,1.05873
1130.46203,1.09483
1128.97224,1.08797
1127.48245,1.14257
1125.99266,1.15297
1124.50288,1.17201
1123.01309,1.17757
1121.52330,1.18316
1120.03351,1.11999
1118.54372,1.06913
1117.05393,1.04288
1115.56415,0.96998
1114.07436,0.99294
1112.58457,1.01654
1111.09478,1.04017
1109.60499,1.03620
1108.11520,0.98804
1106.62542,0.91779
1105.13563,0.93849
1103.64584,0.97642
1102.15605,0.97138
1100.66626,1.00201
1099.17647,1.03266
1097.68668,1.05352
1096.19690,0.98843
1094.70711,0.99830
1093.21732,1.08314
1091.72753,1.07711
1090.23774,1.14543
1088.74795,1.21379
1087.25817,1.21891
1085.76838,1.25724
1084.27859,1.32754
1082.78880,1.35119
1081.29901,1.36996
1079.80922,1.31997
1078.31943,1.30932
1076.82965,1.29870
1075.33986,1.40237
1073.85007,1.40165
1072.36028,1.52135
1070.87049,1.44208
1069.38070,1.49920
1067.89092,1.46912
1066.40113,1.43909
1064.91134,1.48647
1063.42155,1.36437
1061.93176,1.31477
1060.44197,1.27013
1058.95219,1.24148
1057.46240,1.20857
1055.97261,1.17569
1054.48282,1.11766
1052.99303,1.06213
1051.50324,0.95748
1050.01345,0.98186
1048.52367,0.94239
1047.03388,0.86242
1045.54409,0.78248
1044.05430,0.83156
1042.56451,0.71483
1041.07472,0.68167
1039.58494,0.49375
1038.09515,0.50243
1036.60536,0.47489
1035.11557,0.44739
1033.62578,0.52128
1032.13599,0.48954
1030.64620,0.52295
1029.15642,0.52077
1027.66663,0.55117
1026.17684,0.58161
1024.68705,0.62007
1023.19726,0.71384
1021.70747,0.82975
1020.21769,0.90270
1018.72790,1.00026
1017.23811,1.12119
1015.74832,1.24215
1014.25853,1.48108
1012.76874,1.55051
1011.27896,1.73300
1009.78917,1.73984
1008.29938,1.80938
1006.80959,1.83410
1005.31980,1.85886
1003.83001,1.81424
1002.34022,1.69104
1000.85044,1.72265
999.36065,1.79607
997.87086,1.76387
996.38107,1.73170
994.89128,1.64429
993.40149,1.71783
991.91171,1.65751
990.42192,1.71024
988.93213,1.78881
987.44234,1.73534
985.95255,1.68191
984.46276,1.70283
982.97297,1.65990
981.48319,1.62315
979.99340,1.42551
978.50361,1.36978
977.01382,1.31409
975.52403,1.17551
974.03424,1.09962
972.54446,1.11835
971.05467,0.97741
969.56488,0.84265
968.07509,0.83630
966.58530,0.82997
965.09551,0.82062
963.60573,0.84200
962.11594,0.81797
960.62615,0.64164
959.13636,0.67234
957.64657,0.70307
956.15678,0.66197
954.66699,0.57054
953.17721,0.50862
951.68742,0.53887
950.19763,0.53721
948.70784,0.53559
947.21805,0.48363
945.72826,0.48085
944.23848,0.47564
942.74869,0.62279
941.25890,0.71839
939.76911,0.74583
938.27932,0.77331
936.78953,0.85426
935.29974,0.94998
933.80996,0.92658
932.32017,0.97446
930.83038,0.98675
929.34059,0.99907
927.85080,1.12813
926.36101,1.14174
924.87123,1.28684
923.38144,1.31158
921.89165,1.35600
920.40186,1.40046
918.91207,1.32457
917.42228,1.32241
915.93250,1.06599
914.44271,1.17815
912.95292,1.11836
911.46313,1.05860
909.97334,1.06398
908.48355,1.00551
906.99376,0.90162
905.50398,0.78548
904.01419,0.78055
902.52440,0.77566
901.03461,0.72841
899.54482,0.72420
898.05503,0.83549
896.56525,0.81906
895.07546,0.80757
893.58567,0.79612
892.09588,0.90140
890.60609,0.93301
889.11630,1.02976
887.62651,1.08601
886.13673,1.11649
884.64694,1.14700
883.15715,1.15052
881.66736,1.22041
880.17757,1.25226
878.68778,1.25649
877.19800,1.26076
875.70821,1.41800
874.21842,1.52491
872.72863,1.68100
871.23884,1.65775
869.74905,1.74142
868.25927,1.82512
866.76948,1.81427
865.27969,2.00000
863.78990,1.82582
862.30011,1.68853
860.81032,1.67412
859.32053,1.65974
857.83075,1.62452
856.34096,1.64214
854.85117,1.66104
853.36138,1.65048
851.87159,1.57791
850.38180,1.50538
848.89202,1.44578
847.40223,1.26951
845.91244,1.21489
844.42265,1.11793
842.93286,1.02099
841.44307,0.92593
839.95329,0.82108
838.46350,0.62167
836.97371,0.63113
835.48392,0.54296
833.99413,0.45482
832.50434,0.47667
831.01455,0.39167
829.52477,0.45657
828.03498,0.39744
826.54519,0.42310
825.05540,0.44880
823.56561,0.41925
822.07582,0.32708
820.58604,0.23125
819.09625,0.24541
817.60646,0.25960
816.11667,0.16879
814.62688,0.20455
813.13709,0.11995
811.64730,0.12014
810.15752,0.11177
808.66773,0.10343
807.17794,0.08162
805.68815,0.03526
804.19836,0.05160
802.70857,0.07288
801.21879,0.09419
799.72900,0.01234
798.23921,0.06443
796.74942,0.12761
795.25963,0.09623
793.76984,0.06489
792.28006,0.05691
790.79027,0.05635
789.30048,0.13198
787.81069,0.07128
786.32090,0.06037
784.83111,0.04949
783.34132,0.05769
781.85154,0.06346
780.36175,0.01030
778.87196,0.04107
777.38217,0.07187
775.89238,0.05111
774.40259,0.04881
772.91281,0.04900
771.42302,0.06274
769.93323,0.07651
768.44344,0.11488
766.95365,0.03904
765.46386,0.04676
763.97407,0.01030
762.48429,0.04780
760.99450,0.08534
759.50471,0.10940
758.01492,0.00941
756.52513,0.11202
755.03534,0.08322
753.54556,0.05445
752.05577,0.01958
750.56598,0.04493
749.07619,0.08751
747.58640,0.06379
746.09661,0.04010
744.60683,0.01030
743.11704,0.04766
741.62725,0.07031
740.13746,0.05122
738.64767,0.03217
737.15788,0.13600
735.66809,0.08999
734.17831,0.09683
732.68852,0.11293
731.19873,0.12905
729.70894,0.01192
728.21915,0.01030
726.72936,0.01658
725.23958,0.08801
723.74979,0.12999
722.26000,0.17200
720.77021,0.15508
719.28042,0.11607
717.79063,0.17907
716.30084,0.16593
714.81106,0.15282
713.32127,0.22943
711.83148,0.21270
710.34169,0.15793
708.85190,0.19164
707.36211,0.22538
705.87233,0.16948
704.38254,0.08535
702.89275,0.13025
701.40296,0.13956
699.91317,0.14890
698.42338,0.22952
696.93360,0.26227
695.44381,0.22134
693.95402,0.23879
692.46423,0.25628
690.97444,0.22528
689.48465,0.18939
687.99486,0.27885
686.50508,0.28541
685.01529,0.29201
683.52550,0.32137
682.03571,0.30654
680.54592,0.22786
679.05613,0.26100
677.56635,0.29418
676.07656,0.24631
674.58677,0.19724
673.09698,0.20963
671.60719,0.17599
670.11740,0.14238
668.62761,0.17576
667.13783,0.12317
665.64804,0.07185
664.15825,0.02056
662.66846,0.02950
661.17867,0.10480
659.68888,0.03519
658.19910,0.02273
656.70931,0.01030
655.21952,0.05729
653.72973,0.02693
652.23994,0.06416
650.75015,0.07502
649.26037,0.08590
647.77058,0.03602
646.28079,0.04758
644.79100,0.05918
643.30121,0.05485
641.81142,0.05055
640.32163,0.12981
638.83185,0.16120
637.34206,0.03415
635.85227,0.04042
634.36248,0.04673
632.87269,0.04508
631.38290,0.01030
629.89312,0.01760
628.40333,0.03969
626.91354,0.06180
625.42375,0.09378
623.93396,0.06927
622.44417,0.10132
620.95438,0.13339
619.46460,0.07459
617.97481,0.02934
616.48502,0.13399
614.99523,0.09556
613.50544,0.05716
612.01565,0.03293
610.52587,0.12789
609.03608,0.17374
607.54629,0.16926
606.05650,0.16481
604.56671,0.27833
603.07692,0.25306
601.58714,0.23950
600.09735,0.22597
598.60756,0.24871
597.11777,0.18181
595.62798,0.17637
594.13819,0.18017
592.64840,0.18400
591.15862,0.13566
589.66883,0.09104
588.17904,0.21229
586.68925,0.24635
585.19946,0.28045
583.70967,0.34407
582.21989,0.36595
580.73010,0.33442
579.24031,0.30293
577.75052,0.32245
576.26073,0.29901
574.77094,0.35914
573.28115,0.42360
571.79137,0.48809
570.30158,0.51024
568.81179,0.58155
567.32200,0.59455
565.83221,0.60758
564.34242,0.71585
562.85264,0.85487
561.36285,0.91038
559.87306,0.95487
558.38327,0.99939
556.89348,1.15451
555.40369,1.22612
553.91391,1.30760
552.42412,1.38911
550.93433,1.33675
549.44454,1.38515
547.95475,1.54539
546.46496,1.55086
544.97517,1.55637
543.48539,1.44029
541.99560,1.59820
540.50581,1.55958
539.01602,1.52100
537.52623,1.54510
536.03644,1.53484
534.54666,1.37105
533.05687,1.42351
531.56708,1.47600
530.07729,1.42287
528.58750,1.35749
527.09771,1.33207
525.60792,1.30669
524.11814,1.08048
522.62835,0.99803
521.13856,1.00899
519.64877,0.97575
518.15898,0.94254
516.66919,0.87497
515.17941,0.91063
513.68962,0.92175
512.19983,0.93290
510.71004,0.91091
509.22025,0.98233
507.73046,0.95918
506.24068,0.94344
504.75089,0.92773
503.26110,0.87029
501.77131,0.86324
500.28152,0.85071
498.79173,0.83820
497.30194,0.74895
495.81216,0.69413
494.32237,0.71243
492.83258,0.73077
491.34279,0.68219
489.85300,0.61768
488.36321,0.55196
486.87343,0.55324
485.38364,0.55454
483.89385,0.52087
482.40406,0.36193
480.91427,0.29270
479.42448,0.22350
477.93469,0.18996
476.44491,0.05694
474.95512,0.04620
473.46533,0.03548
471.97554,0.01682
470.48575,0.02644
468.99596,0.01030
467.50618,0.03344
466.01639,0.05662
464.52660,0.09150
463.03681,0.20380
461.54702,0.25349
460.05723,0.30321
458.56745,0.37876
457.07766,0.52928
455.58787,0.53549
454.09808,0.54173
452.60829,0.69850
451.11850,0.86880
449.62871,0.93350
448.13893,0.99823
446.64914,1.11090
445.15935,1.16586
443.66956,1.14838
442.17977,1.10022
440.68998,1.05209
439.20020,1.05314
437.71041,1.08493
436.22062,1.05164
434.73083,1.01839
433.24104,1.12276
431.75125,0.97778
430.26146,1.03000
428.77168,1.08226
427.28189,1.23713
425.79210,1.27042
424.30231,1.33260
422.81252,1.39482
421.32273,1.34344
419.83295,1.34983
418.34316,1.44040
416.85337,1.53101
415.36358,1.46870
413.87379,1.46294
412.38400,1.46827
410.89422,1.47363
409.40443,1.47533
407.91464,1.21787
406.42485,0.95552
404.93506,0.88484
403.44527,0.81420
401.95548,0.77308
400.46570,0.71233
398.97591,0.71980
397.48612,0.72730
395.99633,0.79565
394.50654,0.69204
393.01675,0.68735
391.52697,0.68270
390.03718,0.65904
388.54739,0.62313
387.05760,0.59769
385.56781,0.57229
384.07802,0.56473
382.58824,0.48350
381.09845,0.45512
379.60866,0.42678
378.11887,0.41813
376.62908,0.36774
375.13929,0.35670
373.64950,0.34569
372.15972,0.39736
370.66993,0.39256
369.18014,0.34234
367.69035,0.29215
366.20056,0.38695
364.71077,0.29875
363.22099,0.27445
361.73120,0.25019
360.24141,0.21491
358.75162,0.27180
357.26183,0.26300
355.77204,0.25423
354.28225,0.21293
352.79247,0.25030
351.30268,0.19924
349.81289,0.14822
348.32310,0.11935
346.83331,0.10156
345.34352,0.13295
343.85374,0.16437
342.36395,0.18845
340.87416,0.10446
339.38437,0.06903
337.89458,0.03363
336.40479,0.07996
334.91501,0.08578
333.42522,0.04802
331.93543,0.01030
330.44564,0.02759
328.95585,0.04247
327.46606,0.06536
325.97627,0.08828
324.48649,0.08728
322.99670,0.09737
321.50691,0.10258
320.01712,0.10782
318.52733,0.10327
317.03754,0.01030
315.54776,0.05118
314.05797,0.09208
312.56818,0.13610
311.07839,0.16663
309.58860,0.13332
308.09881,0.10004
306.60902,0.19947
305.11924,0.19205
303.62945,0.13000
302.13966,0.06798
300.64987,0.01030
299.16008,0.01030
