1778.52000,0.05822
1777.03021,0.05839
1775.54042,0.02809
1774.05063,0.02453
1772.56085,0.07819
1771.07106,0.08233
1769.58127,0.12845
1768.09148,0.14411
1766.60169,0.10643
1765.11190,0.00399
1763.62212,0.06171
1762.13233,0.05466
1760.64254,0.10102
1759.15275,0.10930
1757.66296,0.09094
1756.17317,0.00399
1754.68339,0.01778
1753.19360,0.04305
1751.70381,0.07979
1750.21402,0.13183
1748.72423,0.05429
1747.23444,0.02254
1745.74465,0.05182
1744.25487,0.05828
1742.76508,0.04189
1741.27529,0.06749
1739.78550,0.03975
1738.29571,0.13406
1736.80592,0.12928
1735.31614,0.05210
1733.82635,0.07791
1732.33656,0.04275
1730.84677,0.04576
1729.35698,0.00687
1727.86719,0.09003
1726.37740,0.12747
1724.88762,0.12683
1723.39783,0.04617
1721.90804,0.02655
1720.41825,0.01841
1718.92846,0.13231
1717.43867,0.08994
1715.94889,0.00949
1714.45910,0.19213
1712.96931,0.03933
1711.47952,0.18774
1709.98973,0.04264
1708.49994,0.14539
1707.01016,0.12618
1705.52037,0.10701
1704.03058,0.17557
1702.54079,0.00399
1701.05100,0.14674
1699.56121,0.08748
1698.07142,0.13501
1696.58164,0.17115
1695.09185,0.14632
1693.60206,0.08341
1692.11227,0.18448
1690.62248,0.05303
1689.13269,0.17324
1687.64291,0.15243
1686.15312,0.02110
1684.66333,0.16050
1683.17354,0.09787
1681.68375,0.26404
1680.19396,0.21675
1678.70417,0.19238
1677.21439,0.22904
1675.72460,0.07513
1674.23481,0.20718
1672.74502,0.18297
1671.25523,0.13593
1669.76544,0.18042
1668.27566,0.10296
1666.78587,0.17804
1665.29608,0.20741
1663.80629,0.11101
1662.31650,0.13283
1660.82671,0.15470
1659.33693,0.20329
1657.84714,0.11850
1656.35735,0.09855
1654.86756,0.14727
1653.37777,0.05497
1651.88798,0.24483
1650.39819,0.14498
1648.90841,0.05661
1647.41862,0.01023
1645.92883,0.06872
1644.43904,0.12726
1642.94925,0.09624
1641.45946,0.14533
1639.96968,0.19064
1638.47989,0.26650
1636.99010,0.12509
1635.50031,0.15147
1634.01052,0.05207
1632.52073,0.13953
1631.03094,0.13934
1629.54116,0.20020
1628.05137,0.10097
1626.56158,0.16571
1625.07179,0.17713
1623.58200,0.16571
1622.09221,0.14289
1620.60243,0.17730
1619.11264,0.12788
1617.62285,0.05563
1616.13306,0.02535
1614.64327,0.18574
1613.15348,0.15173
1611.66370,0.18257
1610.17391,0.17152
1608.68412,0.16814
1607.19433,0.21435
1605.70454,0.18818
1604.21475,0.19254
1602.72496,0.19695
1601.23518,0.11370
1599.74539,0.13725
1598.25560,0.22947
1596.76581,0.19210
1595.27602,0.13952
1593.78623,0.11748
1592.29645,0.00399
1590.80666,0.13542
1589.31687,0.04195
1587.82708,0.05528
1586.33729,0.09915
1584.84750,0.17737
1583.35771,0.18319
1581.86793,0.06706
1580.37814,0.16828
1578.88835,0.11322
1577.39856,0.19165
1575.90877,0.15955
1574.41898,0.09319
1572.92920,0.00399
1571.43941,0.05143
1569.94962,0.05316
1568.45983,0.05493
1566.97004,0.19399
1565.48025,0.18822
1563.99047,0.11005
1562.50068,0.10818
1561.01089,0.16734
1559.52110,0.01686
1558.03131,0.12567
1556.54152,0.10490
1555.05173,0.08416
1553.56195,0.08253
1552.07216,0.15338
1550.58237,0.13658
1549.09258,0.16939
1547.60279,0.00399
1546.11300,0.16254
1544.62322,0.15719
1543.13343,0.09851
1541.64364,0.06657
1540.15385,0.11091
1538.66406,0.15529
1537.17427,0.17684
1535.68448,0.06880
1534.19470,0.26962
1532.70491,0.10829
1531.21512,0.07281
1529.72533,0.20132
1528.23554,0.04774
1526.74575,0.20301
1525.25597,0.17151
1523.76618,0.07905
1522.27639,0.14295
1520.78660,0.02007
1519.29681,0.00399
1517.80702,0.19228
1516.31724,0.23956
1514.82745,0.27543
1513.33766,0.18745
1511.84787,0.09950
1510.35808,0.13550
1508.86829,0.12579
1507.37850,0.09707
1505.88872,0.10650
1504.39893,0.15792
1502.90914,0.10644
1501.41935,0.04356
1499.92956,0.14847
1498.43977,0.13524
1496.94999,0.19829
1495.46020,0.12795
1493.97041,0.11484
1492.48062,0.21615
1490.99083,0.24506
1489.50104,0.25113
1488.01125,0.34493
1486.52147,0.43878
1485.03168,0.44498
1483.54189,0.56559
1482.05210,0.48799
1480.56231,0.68113
1479.07252,0.74849
1477.58274,0.75489
1476.09295,0.87571
1474.60316,0.83263
1473.11337,0.83916
1471.62358,0.99822
1470.13379,0.95527
1468.64401,0.97717
1467.15422,0.94955
1465.66443,0.87240
1464.17464,0.79530
1462.68485,1.04230
1461.19506,0.83184
1459.70527,0.71674
1458.21549,0.69318
1456.72570,0.53241
1455.23591,0.53561
1453.74612,0.30249
1452.25633,0.29053
1450.76654,0.40060
1449.27676,0.27435
1447.78697,0.25870
1446.29718,0.35746
1444.80739,0.30758
1443.31760,0.25774
1441.82781,0.18507
1440.33802,0.21156
1438.84824,0.07034
1437.35845,0.21129
1435.86866,0.24171
1434.37887,0.15781
1432.88908,0.15782
1431.39929,0.19980
1429.90951,0.18464
1428.41972,0.13902
1426.92993,0.23451
1425.44014,0.24235
1423.95035,0.24832
1422.46056,0.25433
1420.97078,0.30042
1419.48099,0.18643
1417.99120,0.23641
1416.50141,0.34361
1415.01162,0.22211
1413.52183,0.21885
1412.03204,0.23468
1410.54226,0.37255
1409.05247,0.32365
1407.56268,0.28623
1406.07289,0.37467
1404.58310,0.41739
1403.09331,0.46016
1401.60353,0.42290
1400.11374,0.56488
1398.62395,0.50483
1397.13416,0.54776
1395.64437,0.61742
1394.15458,0.70999
1392.66479,0.74923
1391.17501,0.74658
1389.68522,0.65627
1388.19543,0.78332
1386.70564,0.76935
1385.21585,0.75543
1383.72606,0.77204
1382.23628,0.67050
1380.74649,0.85113
1379.25670,0.89837
1377.76691,0.72071
1376.27712,0.90146
1374.78733,0.91832
1373.29755,0.82847
1371.80776,0.94072
1370.31797,0.91576
1368.82818,1.07766
1367.33839,1.23960
1365.84860,1.18807
1364.35881,1.25097
1362.86903,1.05847
1361.37924,1.13670
1359.88945,1.34840
1358.39966,1.27040
1356.90987,1.23818
1355.42008,1.14883
1353.93030,1.34545
1352.44051,1.34386
1350.95072,1.34231
1349.46093,1.08155
1347.97114,1.04959
1346.48135,0.95285
1344.99156,0.96672
1343.50178,0.91200
1342.01199,0.89545
1340.52220,0.76838
1339.03241,0.66803
1337.54262,0.78885
1336.05283,0.74196
1334.56305,0.69512
1333.07326,0.77031
1331.58347,0.72354
1330.09368,0.58913
1328.60389,0.57295
1327.11410,0.50725
1325.62432,0.53690
1324.13453,0.39122
1322.64474,0.29514
1321.15495,0.29441
1319.66516,0.30134
1318.17537,0.30832
1316.68558,0.33059
1315.19580,0.19659
1313.70601,0.25326
1312.21622,0.27184
1310.72643,0.11127
1309.23664,0.31294
1307.74685,0.30495
1306.25707,0.27032
1304.76728,0.19761
1303.27749,0.12494
1301.78770,0.16668
1300.29791,0.20846
1298.80812,0.18547
1297.31834,0.29978
1295.82855,0.21587
1294.33876,0.34169
1292.84897,0.22356
1291.35918,0.34565
1289.86939,0.38009
1288.37960,0.41458
1286.88982,0.41480
1285.40003,0.51418
1283.91024,0.30098
1282.42045,0.30513
1280.93066,0.25976
1279.44087,0.38217
1277.95109,0.36739
1276.46130,0.45558
1274.97151,0.48662
1273.48172,0.51770
1271.99193,0.38108
1270.50214,0.60668
1269.01235,0.53114
1267.52257,0.40608
1266.03278,0.52124
1264.54299,0.65551
1263.05320,0.39332
1261.56341,0.47620
1260.07362,0.55912
1258.58384,0.28181
1257.09405,0.41628
1255.60426,0.46692
1254.11447,0.51378
1252.62468,0.57213
1251.13489,0.48564
1249.64511,0.33820
1248.15532,0.40048
1246.66553,0.43802
1245.17574,0.47560
1243.68595,0.41601
1242.19616,0.44414
1240.70637,0.38844
1239.21659,0.31753
1237.72680,0.39535
1236.23701,0.43508
1234.74722,0.34523
1233.25743,0.33168
1231.76764,0.31816
1230.27786,0.32375
1228.78807,0.29887
1227.29828,0.27023
1225.80849,0.32550
1224.31870,0.23975
1222.82891,0.27604
1221.33912,0.27044
1219.84934,0.29156
1218.35955,0.31272
1216.86976,0.17762
1215.37997,0.22937
1213.89018,0.23922
1212.40039,0.21098
1210.91061,0.27429
1209.42082,0.13558
1207.93103,0.19706
1206.44124,0.25858
1204.95145,0.12762
1203.46166,0.20257
1201.97188,0.21656
1200.48209,0.05903
1198.99230,0.19510
1197.50251,0.11390
1196.01272,0.18905
1194.52293,0.09650
1193.03314,0.00399
1191.54336,0.05419
1190.05357,0.18451
1188.56378,0.11661
1187.07399,0.04494
1185.58420,0.12581
1184.09441,0.03898
1182.60463,0.07990
1181.11484,0.12086
1179.62505,0.02653
1178.13526,0.05804
1176.64547,0.20778
1175.15568,0.18982
1173.66589,0.19858
1172.17611,0.35988
1170.68632,0.26198
1169.19653,0.16412
1167.70674,0.25692
1166.21695,0.23157
1164.72716,0.27108
1163.23738,0.45550
1161.74759,0.67428
1160.25780,0.51566
1158.76801,0.57821
1157.27822,0.64080
1155.78843,0.65005
1154.29865,0.67460
1152.80886,0.61531
1151.31907,0.73144
1149.82928,0.83236
1148.33949,0.96382
1146.84970,0.87801
1145.35991,0.79224
1143.87013,0.90476
1142.38034,0.96013
1140.89055,0.69149
1139.40076,0.85369
1137.91097,0.87106
1136.42118,0.86560
1134.93140,0.94977
1133.44161,1.03399
1131.95182,1.16589
1130.46203,1.36647
1128.97224,1.33834
1127.48245,1.18062
1125.99266,1.23645
1124.50288,1.26563
1123.01309,1.31963
1121.52330,1.37367
1120.03351,1.32291
1118.54372,1.24169
1117.05393,1.25201
1115.56415,1.27762
1114.07436,1.12790
1112.58457,1.15932
1111.09478,1.19077
1109.60499,1.22798
1108.11520,1.00980
1106.62542,1.12335
1105.13563,1.08062
1103.64584,1.13325
1102.15605,1.10967
1100.66626,1.03848
1099.17647,0.96732
1097.68668,1.12305
1096.19690,1.25213
1094.70711,1.17538
1093.21732,1.26261
1091.72753,1.39181
1090.23774,1.36093
1088.74795,1.33010
1087.25817,1.37937
1085.76838,1.35623
1084.27859,1.37890
1082.78880,1.49691
1081.29901,1.31759
1079.80922,1.37850
1078.31943,1.37654
1076.82965,1.37463
1075.33986,1.49666
1073.85007,1.57680
1072.36028,1.63791
1070.87049,1.48938
1069.38070,1.40951
1067.89092,1.40785
1066.40113,1.40622
1064.91134,1.50566
1063.42155,1.51365
1061.93176,1.50261
1060.44197,1.26668
1058.95219,1.16042
1057.46240,1.09041
1055.97261,1.02044
1054.48282,1.16211
1052.99303,1.15513
1051.50324,1.12151
1050.01345,1.01930
1048.52367,0.92095
1047.03388,0.87792
1045.54409,0.83493
1044.05430,0.62233
1042.56451,0.82913
1041.07472,0.70430
1039.58494,0.67863
1038.09515,0.57675
1036.60536,0.56069
1035.11557,0.54467
1033.62578,0.61067
1032.13599,0.65383
1030.64620,0.61696
1029.15642,0.58395
1027.66663,0.63105
1026.17684,0.67818
1024.68705,0.71011
1023.19726,0.62770
1021.70747,0.88084
1020.21769,0.82139
1018.72790,0.91447
1017.23811,1.11245
1015.74832,1.31046
1014.25853,1.46849
1012.76874,1.67230
1011.27896,1.68554
1009.78917,1.60350
1008.29938,1.48719
1006.80959,1.54629
1005.31980,1.60544
1003.83001,1.58838
1002.34022,1.55611
1000.85044,1.67638
999.36065,1.60988
997.87086,1.52626
996.38107,1.44269
994.89128,1.67368
993.40149,1.40148
991.91171,1.57918
990.42192,1.53580
988.93213,1.55346
987.44234,1.53685
985.95255,1.52028
984.46276,1.53044
982.97297,1.44533
981.48319,1.44413
979.99340,1.15704
978.50361,1.10827
977.01382,1.05954
975.52403,1.09663
974.03424,1.04989
972.54446,1.07182
971.05467,1.06328
969.56488,0.75742
968.07509,0.74515
966.58530,0.73293
965.09551,0.63687
963.60573,0.80392
962.11594,0.51351
960.62615,0.55864
959.13636,0.52755
957.64657,0.49652
956.15678,0.53414
954.66699,0.56418
953.17721,0.35789
951.68742,0.46045
950.19763,0.50396
948.70784,0.54751
947.21805,0.36807
945.72826,0.46317
944.23848,0.33719
942.74869,0.68399
941.25890,0.63815
939.76911,0.61523
938.27932,0.59235
936.78953,0.72582
935.29974,0.89364
933.80996,0.87088
932.32017,0.90535
930.83038,0.95892
929.34059,1.01254
927.85080,1.10432
926.36101,1.30289
924.87123,1.49768
923.38144,1.58959
921.89165,1.50806
920.40186,1.42658
918.91207,1.61773
917.42228,1.47723
915.93250,1.45116
914.44271,1.23831
912.95292,1.18181
911.46313,1.12536
909.97334,1.19475
908.48355,0.92869
906.99376,0.92955
905.50398,0.67120
904.01419,0.65879
902.52440,0.64642
901.03461,0.64744
899.54482,0.62181
898.05503,0.83260
896.56525,0.83374
895.07546,0.87305
893.58567,0.91240
892.09588,1.10047
890.60609,0.97978
889.11630,1.20987
887.62651,1.15026
886.13673,1.10403
884.64694,1.05784
883.15715,1.25379
881.66736,1.10666
880.17757,1.40181
878.68778,1.39200
877.19800,1.38224
875.70821,1.41446
874.21842,1.48484
872.72863,1.76876
871.23884,1.49991
869.74905,1.60282
868.25927,1.70577
866.76948,1.73061
865.27969,1.77455
863.78990,1.74609
862.30011,1.54612
860.81032,1.68549
859.32053,1.82490
857.83075,1.67461
856.34096,1.77599
854.85117,1.94221
853.36138,1.83779
851.87159,1.79251
850.38180,1.74727
848.89202,1.58197
847.40223,1.44340
845.91244,1.43450
844.42265,1.35511
842.93286,1.27576
841.44307,1.15642
839.95329,0.90369
838.46350,0.75774
836.97371,0.61184
835.48392,0.59560
833.99413,0.57940
832.50434,0.49462
831.01455,0.46707
829.52477,0.53487
828.03498,0.49215
826.54519,0.47234
825.05540,0.45257
823.56561,0.28417
822.07582,0.17680
820.58604,0.23722
819.09625,0.26718
817.60646,0.29718
816.11667,0.33866
814.62688,0.22387
813.13709,0.28068
811.64730,0.24985
810.15752,0.19047
808.66773,0.13112
807.17794,0.27960
805.68815,0.22987
804.19836,0.33267
802.70857,0.27159
801.21879,0.21054
799.72900,0.14954
798.23921,0.05426
796.74942,0.03146
795.25963,0.09258
793.76984,0.15374
792.28006,0.17681
790.79027,0.18468
789.30048,0.22308
787.81069,0.18147
786.32090,0.18755
784.83111,0.19368
783.34132,0.12931
781.85154,0.00399
780.36175,0.03059
778.87196,0.05915
777.38217,0.08774
775.89238,0.15641
774.40259,0.01543
772.91281,0.00412
771.42302,0.04622
769.93323,0.08837
768.44344,0.12293
766.95365,0.06984
765.46386,0.08542
763.97407,0.13154
762.48429,0.13958
760.99450,0.14766
759.50471,0.09478
758.01492,0.00000
756.52513,0.11495
755.03534,0.17847
753.54556,0.24203
752.05577,0.02161
750.56598,0.13673
749.07619,0.10701
747.58640,0.09830
746.09661,0.08963
744.60683,0.02953
743.11704,0.12198
741.62725,0.09247
740.13746,0.08968
738.64767,0.08693
737.15788,0.10329
735.66809,0.13113
734.17831,0.09038
732.68852,0.12212
731.19873,0.15389
729.70894,0.08277
728.21915,0.01169
726.72936,0.08171
725.23958,0.17464
723.74979,0.14944
722.26000,0.12427
720.77021,0.24020
719.28042,0.26086
717.79063,0.30444
716.30084,0.26038
714.81106,0.21635
713.32127,0.38205
711.83148,0.41817
710.34169,0.29039
708.85190,0.25225
707.36211,0.21415
705.87233,0.28093
704.38254,0.28294
702.89275,0.21256
701.40296,0.26803
699.91317,0.32354
698.42338,0.29902
696.93360,0.33937
695.44381,0.38737
693.95402,0.36298
692.46423,0.33864
690.97444,0.13896
689.48465,0.22525
687.99486,0.40690
686.50508,0.44753
685.01529,0.48820
683.52550,0.23154
682.03571,0.32566
680.54592,0.38552
679.05613,0.35963
677.56635,0.33379
676.07656,0.38995
674.58677,0.32416
673.09698,0.39566
671.60719,0.33948
670.11740,0.28334
668.62761,0.19102
667.13783,0.37706
665.64804,0.27339
664.15825,0.16976
662.66846,0.28729
661.17867,0.24093
659.68888,0.00399
658.19910,0.11175
656.70931,0.21956
655.21952,0.16157
653.72973,0.23324
652.23994,0.13340
650.75015,0.12318
649.26037,0.11301
647.77058,0.26109
646.28079,0.21860
644.79100,0.09608
643.30121,0.09179
641.81142,0.08754
640.32163,0.23202
638.83185,0.15160
637.34206,0.17798
635.85227,0.14339
634.36248,0.10885
632.87269,0.04385
631.38290,0.08182
629.89312,0.09697
628.40333,0.12930
626.91354,0.16168
625.42375,0.24557
623.93396,0.09313
622.44417,0.14660
620.95438,0.20011
619.46460,0.10879
617.97481,0.20814
616.48502,0.15502
614.99523,0.11911
613.50544,0.08323
612.01565,0.21324
610.52587,0.28610
609.03608,0.30182
607.54629,0.35570
606.05650,0.40962
604.56671,0.32252
603.07692,0.38796
601.58714,0.31048
600.09735,0.23304
598.60756,0.19185
597.11777,0.17358
595.62798,0.29642
594.13819,0.33351
592.64840,0.37065
591.15862,0.28392
589.66883,0.25442
588.17904,0.32789
586.68925,0.38616
585.19946,0.44447
583.70967,0.55619
582.21989,0.37059
580.73010,0.42330
579.24031,0.47606
577.75052,0.42020
576.26073,0.50544
574.77094,0.66316
573.28115,0.59027
571.79137,0.51741
570.30158,0.69813
568.81179,0.69208
567.32200,0.72991
565.83221,0.76779
564.34242,0.99060
562.85264,0.98471
561.36285,1.10087
559.87306,1.20181
558.38327,1.30280
556.89348,1.41526
555.40369,1.50489
553.91391,1.52974
552.42412,1.55464
550.93433,1.64821
549.44454,1.97818
547.95475,1.98414
546.46496,1.99205
544.97517,2.00000
543.48539,1.86121
541.99560,1.78727
540.50581,1.83347
539.01602,1.87970
537.52623,1.86308
536.03644,1.78168
534.54666,1.59357
533.05687,1.61329
531.56708,1.63304
530.07729,1.92161
528.58750,1.69555
527.09771,1.71733
525.60792,1.73916
524.11814,1.51321
522.62835,1.34069
521.13856,1.25588
519.64877,1.24165
518.15898,1.22747
516.66919,1.15804
515.17941,1.06578
513.68962,1.14130
512.19983,1.21687
510.71004,1.09424
509.22025,1.08601
507.73046,1.19601
506.24068,1.15928
504.75089,1.12258
503.26110,1.28609
501.77131,1.17132
500.28152,1.11950
498.79173,1.06772
497.30194,0.83489
495.81216,0.85753
494.32237,0.86306
492.83258,0.86863
491.34279,0.71603
489.85300,0.95234
488.36321,0.75406
486.87343,0.70833
485.38364,0.66264
483.89385,0.57505
482.40406,0.38457
480.91427,0.32375
479.42448,0.26297
477.93469,0.00399
476.44491,0.14618
474.95512,0.14927
473.46533,0.15239
471.97554,0.08884
470.48575,0.15876
468.99596,0.18297
467.50618,0.11764
466.01639,0.05234
464.52660,0.21011
463.03681,0.19256
461.54702,0.24176
460.05723,0.29100
458.56745,0.49088
457.07766,0.66791
455.58787,0.79353
454.09808,0.91918
452.60829,1.15354
451.11850,1.19349
449.62871,1.30974
448.13893,1.42603
446.64914,1.44704
445.15935,1.51004
443.66956,1.51589
442.17977,1.43219
440.68998,1.34853
439.20020,1.47650
437.71041,1.33002
436.22062,1.31129
434.73083,1.29260
433.24104,1.37880
431.75125,1.17148
430.26146,1.29208
428.77168,1.41271
427.28189,1.27413
425.79210,1.45966
424.30231,1.48892
422.81252,1.51822
421.32273,1.56662
419.83295,1.64556
418.34316,1.68642
416.85337,1.72732
415.36358,1.52427
413.87379,1.74443
412.38400,1.72255
410.89422,1.70071
409.40443,1.84094
407.91464,1.55040
406.42485,1.38190
404.93506,1.21917
403.44527,1.05647
401.95548,0.78516
400.46570,0.82270
398.97591,0.80500
397.48612,0.78734
395.99633,1.03469
394.50654,0.79026
393.01675,0.74604
391.52697,0.70186
390.03718,0.84262
388.54739,0.67462
387.05760,0.66868
385.56781,0.66279
384.07802,0.70078
382.58824,0.57106
381.09845,0.54813
379.60866,0.52524
378.11887,0.52146
376.62908,0.59397
375.13929,0.50258
373.64950,0.41124
372.15972,0.44574
370.66993,0.51079
369.18014,0.55300
367.69035,0.59526
366.20056,0.57655
364.71077,0.55026
363.22099,0.44776
361.73120,0.34531
360.24141,0.25814
358.75162,0.53320
357.26183,0.42134
355.77204,0.30952
354.28225,0.23014
352.79247,0.42912
351.30268,0.31742
349.81289,0.20576
348.32310,0.22186
346.83331,0.26469
345.34352,0.25990
343.85374,0.25515
342.36395,0.30191
340.87416,0.10091
339.38437,0.18207
337.89458,0.26326
336.40479,0.27969
334.91501,0.04835
333.42522,0.11013
331.93543,0.17195
330.44564,0.07560
328.95585,0.11272
327.46606,0.14989
325.97627,0.18709
324.48649,0.31584
322.99670,0.25019
321.50691,0.16171
320.01712,0.07327
318.52733,0.20586
317.03754,0.20505
315.54776,0.15854
314.05797,0.11206
312.56818,0.13044
311.07839,0.00399
309.58860,0.02434
308.09881,0.04473
306.60902,0.13760
305.11924,0.15427
303.62945,0.10235
302.13966,0.05047
300.64987,0.00399
299.16008,0.00399
