1778.52000,0.09920
1777.03021,0.00542
1775.54042,0.10066
1774.05063,0.09985
1772.56085,0.04143
1771.07106,0.16242
1769.58127,0.16813
1768.09148,0.11943
1766.60169,0.10600
1765.11190,0.07660
1763.62212,0.03762
1762.13233,0.11721
1760.64254,0.19683
1759.15275,0.24446
1757.66296,0.06470
1756.17317,0.09319
1754.68339,0.00000
1753.19360,0.05419
1751.70381,0.11163
1750.21402,0.10184
1748.72423,0.13372
1747.23444,0.08557
1745.74465,0.07590
1744.25487,0.07267
1742.76508,0.00542
1741.27529,0.07687
1739.78550,0.06508
1738.29571,0.09496
1736.80592,0.12489
1735.31614,0.19329
1733.82635,0.01829
1732.33656,0.05154
1730.84677,0.10405
1729.35698,0.04128
1727.86719,0.02660
1726.37740,0.09524
1724.88762,0.21516
1723.39783,0.12693
1721.90804,0.11560
1720.41825,0.02424
1718.92846,0.05784
1717.43867,0.10109
1715.94889,0.14118
1714.45910,0.15568
1712.96931,0.00685
1711.47952,0.12714
1709.98973,0.12253
1708.49994,0.21086
1707.01016,0.15669
1705.52037,0.10256
1704.03058,0.09170
1702.54079,0.07128
1701.05100,0.08293
1699.56121,0.10103
1698.07142,0.12236
1696.58164,0.13093
1695.09185,0.08828
1693.60206,0.19302
1692.11227,0.28818
1690.62248,0.19120
1689.13269,0.16152
1687.64291,0.09985
1686.15312,0.18877
1684.66333,0.15921
1683.17354,0.18094
1681.68375,0.12583
1680.19396,0.17327
1678.70417,0.26879
1677.21439,0.19778
1675.72460,0.17166
1674.23481,0.23527
1672.74502,0.18680
1671.25523,0.19283
1669.76544,0.23734
1668.27566,0.15695
1666.78587,0.28482
1665.29608,0.13085
1663.80629,0.13387
1662.31650,0.20740
1660.82671,0.20729
1659.33693,0.24887
1657.84714,0.19760
1656.35735,0.00542
1654.86756,0.11341
1653.37777,0.05488
1651.88798,0.10529
1650.39819,0.09809
1648.90841,0.10374
1647.41862,0.11263
1645.92883,0.10234
1644.43904,0.09209
1642.94925,0.07227
1641.45946,0.11655
1639.96968,0.01032
1638.47989,0.06750
1636.99010,0.15994
1635.50031,0.12430
1634.01052,0.00542
1632.52073,0.11960
1631.03094,0.21139
1629.54116,0.23916
1628.05137,0.22853
1626.56158,0.15067
1625.07179,0.14332
1623.58200,0.14883
1622.09221,0.03265
1620.60243,0.03824
1619.11264,0.00542
1617.62285,0.14464
1616.13306,0.12694
1614.64327,0.16693
1613.15348,0.21978
1611.66370,0.21181
1610.17391,0.17505
1608.68412,0.15435
1607.19433,0.28743
1605.70454,0.14828
1604.21475,0.13891
1602.72496,0.12957
1601.23518,0.05140
1599.74539,0.13023
1598.25560,0.10660
1596.76581,0.06699
1595.27602,0.17476
1593.78623,0.12241
1592.29645,0.04448
1590.80666,0.08191
1589.31687,0.02968
1587.82708,0.16327
1586.33729,0.07589
1584.84750,0.11027
1583.35771,0.08062
1581.86793,0.14070
1580.37814,0.13996
1578.88835,0.11683
1577.39856,0.15461
1575.90877,0.12836
1574.41898,0.12137
1572.92920,0.07277
1571.43941,0.13954
1569.94962,0.10864
1568.45983,0.07778
1566.97004,0.11263
1565.48025,0.08665
1563.99047,0.07994
1562.50068,0.21420
1561.01089,0.16912
1559.52110,0.10807
1558.03131,0.00542
1556.54152,0.09612
1555.05173,0.20288
1553.56195,0.06624
1552.07216,0.16346
1550.58237,0.19667
1549.09258,0.14983
1547.60279,0.12545
1546.11300,0.07228
1544.62322,0.19854
1543.13343,0.14225
1541.64364,0.04756
1540.15385,0.06502
1538.66406,0.08252
1537.17427,0.04561
1535.68448,0.17209
1534.19470,0.08080
1532.70491,0.24260
1531.21512,0.00084
1529.72533,0.14854
1528.23554,0.25143
1526.74575,0.08530
1525.25597,0.10178
1523.76618,0.06385
1522.27639,0.10284
1520.78660,0.03936
1519.29681,0.01116
1517.80702,0.00542
1516.31724,0.05087
1514.82745,0.05793
1513.33766,0.05221
1511.84787,0.04653
1510.35808,0.08574
1508.86829,0.03850
1507.37850,0.07137
1505.88872,0.09148
1504.39893,0.12764
1502.90914,0.02610
1501.41935,0.07835
1499.92956,0.01533
1498.43977,0.08048
1496.94999,0.17769
1495.46020,0.04111
1493.97041,0.21528
1492.48062,0.21012
1490.99083,0.18897
1489.50104,0.30560
1488.01125,0.34219
1486.52147,0.37882
1485.03168,0.49237
1483.54189,0.52908
1482.05210,0.53059
1480.56231,0.64745
1479.07252,0.68108
1477.58274,0.61544
1476.09295,0.77727
1474.60316,0.92953
1473.11337,1.04339
1471.62358,1.02275
1470.13379,0.93169
1468.64401,0.88871
1467.15422,0.86179
1465.66443,0.86693
1464.17464,0.87212
1462.68485,0.83250
1461.19506,0.60073
1459.70527,0.64447
1458.21549,0.67544
1456.72570,0.35090
1455.23591,0.48125
1453.74612,0.35858
1452.25633,0.36408
1450.76654,0.28634
1449.27676,0.15418
1447.78697,0.21105
1446.29718,0.22952
1444.80739,0.25764
1443.31760,0.28580
1441.82781,0.18908
1440.33802,0.21411
1438.84824,0.11106
1437.35845,0.08812
1435.86866,0.25101
1434.37887,0.16409
1432.88908,0.15408
1431.39929,0.09607
1429.90951,0.14060
1428.41972,0.13391
1426.92993,0.17532
1425.44014,0.21676
1423.95035,0.24222
1422.46056,0.26773
1420.97078,0.19718
1419.48099,0.18432
1417.99120,0.25479
1416.50141,0.23561
1415.01162,0.25170
1413.52183,0.21658
1412.03204,0.22314
1410.54226,0.24896
1409.05247,0.27482
1407.56268,0.42884
1406.07289,0.40353
1404.58310,0.39266
1403.09331,0.38184
1401.60353,0.38868
1400.11374,0.44040
1398.62395,0.49216
1397.13416,0.50872
1395.64437,0.45485
1394.15458,0.70212
1392.66479,0.67396
1391.17501,0.68427
1389.68522,0.62415
1388.19543,0.57048
1386.70564,0.60814
1385.21585,0.64583
1383.72606,0.72041
1382.23628,0.71174
1380.74649,0.74154
1379.25670,0.73295
1377.76691,0.78205
1376.27712,0.85682
1374.78733,0.82272
1373.29755,0.78546
1371.80776,0.90839
1370.31797,0.92566
1368.82818,0.93016
1367.33839,0.93469
1365.84860,1.16990
1364.35881,1.24818
1362.86903,1.22401
1361.37924,1.23510
1359.88945,1.43843
1358.39966,1.32148
1356.90987,1.15332
1355.42008,1.30231
1353.93030,1.33603
1352.44051,1.28810
1350.95072,1.24022
1349.46093,1.09147
1347.97114,1.04847
1346.48135,1.01511
1344.99156,0.84406
1343.50178,0.70508
1342.01199,0.76153
1340.52220,0.73795
1339.03241,0.68877
1337.54262,0.58839
1336.05283,0.61617
1334.56305,0.64399
1333.07326,0.55333
1331.58347,0.49475
1330.09368,0.46182
1328.60389,0.46417
1327.11410,0.37047
1325.62432,0.43376
1324.13453,0.39139
1322.64474,0.36186
1321.15495,0.25550
1319.66516,0.22286
1318.17537,0.19025
1316.68558,0.20252
1315.19580,0.29492
1313.70601,0.13750
1312.21622,0.18513
1310.72643,0.18796
1309.23664,0.13316
1307.74685,0.15848
1306.25707,0.08135
1304.76728,0.09073
1303.27749,0.10016
1301.78770,0.12243
1300.29791,0.26967
1298.80812,0.29523
1297.31834,0.26317
1295.82855,0.21514
1294.33876,0.31449
1292.84897,0.24731
1291.35918,0.27307
1289.86939,0.29246
1288.37960,0.31188
1286.88982,0.42745
1285.40003,0.23554
1283.91024,0.43446
1282.42045,0.43483
1280.93066,0.37437
1279.44087,0.38443
1277.95109,0.51624
1276.46130,0.47832
1274.97151,0.44525
1273.48172,0.41222
1271.99193,0.55380
1270.50214,0.52245
1269.01235,0.54239
1267.52257,0.57838
1266.03278,0.45105
1264.54299,0.52876
1263.05320,0.35667
1261.56341,0.37039
1260.07362,0.38416
1258.58384,0.37554
1257.09405,0.38618
1255.60426,0.30397
1254.11447,0.24743
1252.62468,0.36710
1251.13489,0.23696
1249.64511,0.31506
1248.15532,0.25867
1246.66553,0.32244
1245.17574,0.38625
1243.68595,0.33959
1242.19616,0.35382
1240.70637,0.47381
1239.21659,0.22226
1237.72680,0.32310
1236.23701,0.39195
1234.74722,0.37435
1233.25743,0.32476
1231.76764,0.27521
1230.27786,0.33461
1228.78807,0.26591
1227.29828,0.30297
1225.80849,0.16068
1224.31870,0.25867
1222.82891,0.17412
1221.33912,0.24977
1219.84934,0.26780
1218.35955,0.28587
1216.86976,0.27194
1215.37997,0.33814
1213.89018,0.17374
1212.40039,0.19197
1210.91061,0.14297
1209.42082,0.14846
1207.93103,0.13157
1206.44124,0.11472
1204.95145,0.10111
1203.46166,0.13238
1201.97188,0.05158
1200.48209,0.06692
1198.99230,0.00542
1197.50251,0.06222
1196.01272,0.10944
1194.52293,0.05741
1193.03314,0.00542
1191.54336,0.06597
1190.05357,0.11376
1188.56378,0.03666
1187.07399,0.12616
1185.58420,0.10039
1184.09441,0.08747
1182.60463,0.06498
1181.11484,0.04253
1179.62505,0.22512
1178.13526,0.10985
1176.64547,0.23807
1175.15568,0.18694
1173.66589,0.22555
1172.17611,0.30904
1170.68632,0.30448
1169.19653,0.29996
1167.70674,0.31950
1166.21695,0.34549
1164.72716,0.46761
1163.23738,0.42001
1161.74759,0.44291
1160.25780,0.51710
1158.76801,0.52407
1157.27822,0.53107
1155.78843,0.66624
1154.29865,0.53559
1152.80886,0.52349
1151.31907,0.68761
1149.82928,0.64036
1148.33949,0.86541
1146.84970,0.80863
1145.35991,0.75189
1143.87013,0.73682
1142.38034,0.87235
1140.89055,0.91822
1139.40076,0.85203
1137.91097,0.88196
1136.42118,0.99842
1134.93140,1.06207
1133.44161,1.12576
1131.95182,1.10781
1130.46203,1.26927
1128.97224,1.13288
1127.48245,1.32646
1125.99266,1.19655
1124.50288,1.23965
1123.01309,1.28600
1121.52330,1.33238
1120.03351,1.08732
1118.54372,1.03128
1117.05393,1.21552
1115.56415,1.13393
1114.07436,1.13887
1112.58457,1.12303
1111.09478,1.10723
1109.60499,1.09627
1108.11520,1.08215
1106.62542,1.10651
1105.13563,1.10528
1103.64584,1.11369
1102.15605,1.09652
1100.66626,1.10342
1099.17647,1.11035
1097.68668,1.11893
1096.19690,0.92574
1094.70711,0.95682
1093.21732,1.18653
1091.72753,1.31378
1090.23774,1.37220
1088.74795,1.43066
1087.25817,1.38505
1085.76838,1.34910
1084.27859,1.43810
1082.78880,1.47590
1081.29901,1.38241
1079.80922,1.43309
1078.31943,1.38933
1076.82965,1.34560
1075.33986,1.32273
1073.85007,1.54334
1072.36028,1.63266
1070.87049,1.68038
1069.38070,1.48790
1067.89092,1.49726
1066.40113,1.50666
1064.91134,1.45524
1063.42155,1.47753
1061.93176,1.35251
1060.44197,1.40371
1058.95219,1.27557
1057.46240,1.26598
1055.97261,1.25644
1054.48282,1.18928
1052.99303,1.25348
1051.50324,1.10312
1050.01345,1.07131
1048.52367,0.90500
1047.03388,0.87967
1045.54409,0.85439
1044.05430,0.83235
1042.56451,0.64057
1041.07472,0.65705
1039.58494,0.59348
1038.09515,0.45307
1036.60536,0.42162
1035.11557,0.39020
1033.62578,0.63429
1032.13599,0.57733
1030.64620,0.49798
1029.15642,0.59805
1027.66663,0.60046
1026.17684,0.60291
1024.68705,0.64224
1023.19726,0.66238
1021.70747,0.76585
1020.21769,0.95585
1018.72790,1.16510
1017.23811,1.13255
1015.74832,1.10004
1014.25853,1.31261
1012.76874,1.53163
1011.27896,1.56810
1009.78917,1.62064
1008.29938,1.80454
1006.80959,1.76746
1005.31980,1.73042
1003.83001,1.82795
1002.34022,1.87427
1000.85044,1.72204
999.36065,1.72680
997.87086,1.69956
996.38107,1.67237
994.89128,1.63560
993.40149,1.58927
991.91171,1.66790
990.42192,1.73375
988.93213,1.77082
987.44234,1.74546
985.95255,1.72014
984.46276,1.58756
982.97297,1.58954
981.48319,1.62360
979.99340,1.33418
978.50361,1.33788
977.01382,1.34163
975.52403,1.19006
974.03424,1.04494
972.54446,1.01197
971.05467,1.01427
969.56488,0.76996
968.07509,0.84602
966.58530,0.92211
965.09551,0.90855
963.60573,0.76050
962.11594,0.87194
960.62615,0.53819
959.13636,0.59526
957.64657,0.65236
956.15678,0.62943
954.66699,0.55209
953.17721,0.49720
951.68742,0.48720
950.19763,0.51888
948.70784,0.55060
947.21805,0.66884
945.72826,0.39954
944.23848,0.52427
942.74869,0.48247
941.25890,0.60407
939.76911,0.67767
938.27932,0.75130
936.78953,0.90506
935.29974,1.04604
933.80996,0.80267
932.32017,1.05905
930.83038,1.08643
929.34059,1.11386
927.85080,1.31910
926.36101,1.41867
924.87123,1.47023
923.38144,1.54426
921.89165,1.51743
920.40186,1.49063
918.91207,1.46868
917.42228,1.47880
915.93250,1.33841
914.44271,1.21087
912.95292,1.24834
911.46313,1.28585
909.97334,1.27694
908.48355,1.20402
906.99376,0.97097
905.50398,1.10313
904.01419,0.97106
902.52440,0.83903
901.03461,0.95529
899.54482,0.87619
898.05503,0.80994
896.56525,0.88147
895.07546,0.90339
893.58567,0.92535
892.09588,1.12513
890.60609,0.98220
889.11630,1.03791
887.62651,1.18656
886.13673,1.19269
884.64694,1.19887
883.15715,1.25794
881.66736,1.24018
880.17757,1.29292
878.68778,1.35211
877.19800,1.41134
875.70821,1.51545
874.21842,1.57155
872.72863,1.70457
871.23884,1.72231
869.74905,1.80096
868.25927,1.87964
866.76948,2.00000
865.27969,1.81290
863.78990,1.76998
862.30011,1.81358
860.81032,1.78675
859.32053,1.75997
857.83075,1.73642
856.34096,1.89550
854.85117,1.77914
853.36138,1.79736
851.87159,1.70190
850.38180,1.60648
848.89202,1.57356
847.40223,1.37732
845.91244,1.38612
844.42265,1.38054
842.93286,1.37501
841.44307,1.06681
839.95329,0.89639
838.46350,0.74203
836.97371,0.68060
835.48392,0.62241
833.99413,0.56426
832.50434,0.60865
831.01455,0.42885
829.52477,0.45090
828.03498,0.53384
826.54519,0.51913
825.05540,0.50445
823.56561,0.43697
822.07582,0.37913
820.58604,0.19321
819.09625,0.22674
817.60646,0.26031
816.11667,0.32435
814.62688,0.39483
813.13709,0.27317
811.64730,0.34053
810.15752,0.27340
808.66773,0.20630
807.17794,0.28659
805.68815,0.16833
804.19836,0.14299
802.70857,0.16574
801.21879,0.18854
799.72900,0.02558
798.23921,0.04525
796.74942,0.16425
795.25963,0.13114
793.76984,0.09808
792.28006,0.10509
790.79027,0.15698
789.30048,0.17688
787.81069,0.17440
786.32090,0.14794
784.83111,0.12151
783.34132,0.15759
781.85154,0.12643
780.36175,0.06329
778.87196,0.08827
777.38217,0.11329
775.89238,0.00542
774.40259,0.18338
772.91281,0.17880
771.42302,0.16785
769.93323,0.15695
768.44344,0.16850
766.95365,0.06478
765.46386,0.14048
763.97407,0.08809
762.48429,0.11902
760.99450,0.14999
759.50471,0.22904
758.01492,0.09993
756.52513,0.12141
755.03534,0.11891
753.54556,0.11644
752.05577,0.02913
750.56598,0.14045
749.07619,0.01798
747.58640,0.05571
746.09661,0.09348
744.60683,0.21457
743.11704,0.08905
741.62725,0.05967
740.13746,0.10401
738.64767,0.14838
737.15788,0.18318
735.66809,0.11551
734.17831,0.07031
732.68852,0.05718
731.19873,0.04410
729.70894,0.00542
728.21915,0.07153
726.72936,0.11206
725.23958,0.11419
723.74979,0.12757
722.26000,0.14098
720.77021,0.21050
719.28042,0.20317
717.79063,0.37206
716.30084,0.30075
714.81106,0.22948
713.32127,0.29599
711.83148,0.31128
710.34169,0.33622
708.85190,0.26671
707.36211,0.19724
705.87233,0.18066
704.38254,0.16732
702.89275,0.19246
701.40296,0.17599
699.91317,0.15957
698.42338,0.14639
696.93360,0.25176
695.44381,0.21304
693.95402,0.24482
692.46423,0.27664
690.97444,0.32771
689.48465,0.29235
687.99486,0.29225
686.50508,0.32423
685.01529,0.35625
683.52550,0.34346
682.03571,0.27625
680.54592,0.19627
679.05613,0.24446
677.56635,0.29269
676.07656,0.21283
674.58677,0.19067
673.09698,0.20378
671.60719,0.27138
670.11740,0.33903
668.62761,0.21132
667.13783,0.22779
665.64804,0.16582
664.15825,0.10389
662.66846,0.07564
661.17867,0.13071
659.68888,0.11534
658.19910,0.09361
656.70931,0.07192
655.21952,0.00542
653.72973,0.12473
652.23994,0.18322
650.75015,0.20491
649.26037,0.22664
647.77058,0.07384
646.28079,0.16131
644.79100,0.14953
643.30121,0.15220
641.81142,0.15491
640.32163,0.19449
638.83185,0.09638
637.34206,0.13925
635.85227,0.10367
634.36248,0.06814
632.87269,0.00542
631.38290,0.07631
629.89312,0.10881
628.40333,0.13975
626.91354,0.17072
625.42375,0.07841
623.93396,0.16552
622.44417,0.18059
620.95438,0.19571
619.46460,0.21887
617.97481,0.20684
616.48502,0.19164
614.99523,0.10601
613.50544,0.02043
612.01565,0.09503
610.52587,0.33304
609.03608,0.43015
607.54629,0.39597
606.05650,0.36183
604.56671,0.28609
603.07692,0.47304
601.58714,0.38937
600.09735,0.30573
598.60756,0.21093
597.11777,0.19304
595.62798,0.00542
594.13819,0.11202
592.64840,0.21865
591.15862,0.17318
589.66883,0.24626
588.17904,0.29696
586.68925,0.27883
585.19946,0.26073
583.70967,0.43327
582.21989,0.27912
580.73010,0.37166
579.24031,0.46423
577.75052,0.46075
576.26073,0.59505
574.77094,0.53079
573.28115,0.61391
571.79137,0.69707
570.30158,0.61691
568.81179,0.76741
567.32200,0.71296
565.83221,0.65854
564.34242,0.74831
562.85264,0.86053
561.36285,1.11053
559.87306,1.17959
558.38327,1.24869
556.89348,1.06959
555.40369,1.59202
553.91391,1.52350
552.42412,1.45502
550.93433,1.66686
549.44454,1.61287
547.95475,1.76072
546.46496,1.79811
544.97517,1.83553
543.48539,1.85537
541.99560,1.77596
540.50581,1.80389
539.01602,1.83186
537.52623,1.83584
536.03644,1.63166
534.54666,1.76065
533.05687,1.74393
531.56708,1.72725
530.07729,1.72503
528.58750,1.55948
527.09771,1.50929
525.60792,1.45913
524.11814,1.18159
522.62835,1.29488
521.13856,1.18718
519.64877,1.16601
518.15898,1.14488
516.66919,1.04692
515.17941,1.04188
513.68962,1.08173
512.19983,1.12162
510.71004,1.08787
509.22025,1.04455
507.73046,1.00448
506.24068,0.98847
504.75089,0.97250
503.26110,1.01262
501.77131,0.98231
500.28152,0.97607
498.79173,0.96986
497.30194,0.65459
495.81216,0.66608
494.32237,0.69202
492.83258,0.71801
491.34279,0.63352
489.85300,0.58751
488.36321,0.47747
486.87343,0.49721
485.38364,0.51698
483.89385,0.45511
482.40406,0.30039
480.91427,0.27544
479.42448,0.25052
477.93469,0.15358
476.44491,0.00542
474.95512,0.00898
473.46533,0.01258
471.97554,0.04665
470.48575,0.13201
468.99596,0.10530
467.50618,0.12828
466.01639,0.15129
464.52660,0.11829
463.03681,0.24549
461.54702,0.28784
460.05723,0.33023
458.56745,0.43192
457.07766,0.61053
455.58787,0.66585
454.09808,0.72121
452.60829,0.85509
451.11850,1.08510
449.62871,1.20465
448.13893,1.32423
446.64914,1.37818
445.15935,1.48343
443.66956,1.27801
442.17977,1.20075
440.68998,1.12354
439.20020,1.28019
437.71041,1.21586
436.22062,1.18681
434.73083,1.15780
433.24104,1.25375
431.75125,1.18638
430.26146,1.08061
428.77168,0.97488
427.28189,1.31443
425.79210,1.29847
424.30231,1.38664
422.81252,1.47486
421.32273,1.68323
419.83295,1.57774
418.34316,1.63725
416.85337,1.69679
415.36358,1.72595
413.87379,1.65905
412.38400,1.68187
410.89422,1.70474
409.40443,1.52264
407.91464,1.40145
406.42485,1.18419
404.93506,1.17839
403.44527,1.17262
401.95548,0.98752
400.46570,0.84409
398.97591,0.86567
397.48612,0.88729
395.99633,1.00664
394.50654,0.89221
393.01675,0.79863
391.52697,0.70509
390.03718,0.69647
388.54739,0.80001
387.05760,0.75303
385.56781,0.70610
384.07802,0.74248
382.58824,0.51625
381.09845,0.49826
379.60866,0.48031
378.11887,0.49122
376.62908,0.57906
375.13929,0.49075
373.64950,0.40249
372.15972,0.51927
370.66993,0.45991
369.18014,0.41181
367.69035,0.36374
366.20056,0.40380
364.71077,0.42788
363.22099,0.32548
361.73120,0.22312
360.24141,0.34021
358.75162,0.46695
357.26183,0.39353
355.77204,0.32015
354.28225,0.35092
352.79247,0.34008
351.30268,0.31967
349.81289,0.29931
348.32310,0.11241
346.83331,0.30673
345.34352,0.24164
343.85374,0.17658
342.36395,0.21727
340.87416,0.22917
339.38437,0.17864
337.89458,0.12816
336.40479,0.23306
334.91501,0.17786
333.42522,0.10346
331.93543,0.02911
330.44564,0.09190
328.95585,0.17075
327.46606,0.18877
325.97627,0.20683
324.48649,0.29861
322.99670,0.04768
321.50691,0.13286
320.01712,0.21807
318.52733,0.00542
317.03754,0.03835
315.54776,0.12258
314.05797,0.20684
312.56818,0.07973
311.07839,0.22814
309.58860,0.21802
308.09881,0.20795
306.60902,0.15467
305.11924,0.22636
303.62945,0.16515
302.13966,0.10398
300.64987,0.00922
299.16008,0.00542
