1778.52000,0.09578
1777.03021,0.11060
1775.54042,0.03460
1774.05063,0.39201
1772.56085,0.11338
1771.07106,0.10740
1769.58127,0.30416
1768.09148,0.03265
1766.60169,0.12465
1765.11190,0.00000
1763.62212,0.08510
1762.13233,0.10733
1760.64254,0.06668
1759.15275,0.10996
1757.66296,0.12532
1756.17317,0.07782
1754.68339,0.17015
1753.19360,0.13671
1751.70381,0.15223
1750.21402,0.20275
1748.72423,0.19040
1747.23444,0.08023
1745.74465,0.07496
1744.25487,0.09069
1742.76508,0.03657
1741.27529,0.29704
1739.78550,0.26397
1738.29571,0.09114
1736.80592,0.06514
1735.31614,0.14404
1733.82635,0.40471
1732.33656,0.16913
1730.84677,0.12933
1729.35698,0.27828
1727.86719,0.25953
1726.37740,0.21984
1724.88762,0.48775
1723.39783,0.09166
1721.90804,0.19889
1720.41825,0.08946
1718.92846,0.16182
1717.43867,0.26918
1715.94889,0.32065
1714.45910,0.13450
1712.96931,0.24198
1711.47952,0.00000
1709.98973,0.32449
1708.49994,0.15273
1707.01016,0.23965
1705.52037,0.32660
1704.03058,0.24584
1702.54079,0.25599
1701.05100,0.26617
1699.56121,0.47212
1698.07142,0.21678
1696.58164,0.15719
1695.09185,0.39822
1693.60206,0.18493
1692.11227,0.22334
1690.62248,0.38760
1689.13269,0.27230
1687.64291,0.20597
1686.15312,0.15366
1684.66333,0.24120
1683.17354,0.20296
1681.68375,0.22767
1680.19396,0.31532
1678.70417,0.24226
1677.21439,0.25311
1675.72460,0.41079
1674.23481,0.42872
1672.74502,0.34883
1671.25523,0.03831
1669.76544,0.25907
1668.27566,0.32610
1666.78587,0.51898
1665.29608,0.11775
1663.80629,0.25480
1662.31650,0.37092
1660.82671,0.20748
1659.33693,0.10699
1657.84714,0.15333
1656.35735,0.22069
1654.86756,0.19721
1653.37777,0.15281
1651.88798,0.08049
1650.39819,0.22490
1648.90841,0.01985
1647.41862,0.18532
1645.92883,0.17957
1644.43904,0.17386
1642.94925,0.17168
1641.45946,0.05771
1639.96968,0.16048
1638.47989,0.15843
1636.99010,0.04458
1635.50031,0.06359
1634.01052,0.13157
1632.52073,0.00386
1631.03094,0.12784
1629.54116,0.45457
1628.05137,0.11730
1626.56158,0.19946
1625.07179,0.13488
1623.58200,0.07733
1622.09221,0.10369
1620.60243,0.31184
1619.11264,0.17054
1617.62285,0.22499
1616.13306,0.24454
1614.64327,0.12432
1613.15348,0.29074
1611.66370,0.23352
1610.17391,0.24624
1608.68412,0.16114
1607.19433,0.10404
1605.70454,0.18679
1604.21475,0.29404
1602.72496,0.40134
1601.23518,0.13471
1599.74539,0.21762
1598.25560,0.09786
1596.76581,0.06202
1595.27602,0.03322
1593.78623,0.30503
1592.29645,0.17845
1590.80666,0.17074
1589.31687,0.12812
1587.82708,0.19738
1586.33729,0.12689
1584.84750,0.12633
1583.35771,0.00000
1581.86793,0.13116
1580.37814,0.04567
1578.88835,0.12099
1577.39856,0.28023
1575.90877,0.20884
1574.41898,0.11653
1572.92920,0.15008
1571.43941,0.11376
1569.94962,0.14390
1568.45983,0.17407
1566.97004,0.10293
1565.48025,0.01087
1563.99047,0.15651
1562.50068,0.09947
1561.01089,0.09840
1559.52110,0.08339
1558.03131,0.07541
1556.54152,0.24922
1555.05173,0.17841
1553.56195,0.03076
1552.07216,0.14177
1550.58237,0.19691
1549.09258,0.04938
1547.60279,0.00675
1546.11300,0.03405
1544.62322,0.11732
1543.13343,0.17266
1541.64364,0.29795
1540.15385,0.17863
1538.66406,0.05935
1537.17427,0.20573
1535.68448,0.17041
1534.19470,0.16310
1532.70491,0.05797
1531.21512,0.16957
1529.72533,0.16238
1528.23554,0.22513
1526.74575,0.05026
1525.25597,0.12707
1523.76618,0.09209
1522.27639,0.18996
1520.78660,0.10612
1519.29681,0.00137
1517.80702,0.26712
1516.31724,0.19739
1514.82745,0.21858
1513.33766,0.14195
1511.84787,0.06535
1510.35808,0.10763
1508.86829,0.03811
1507.37850,0.12940
1505.88872,0.27666
1504.39893,0.06047
1502.90914,0.18684
1501.41935,0.04064
1499.92956,0.18806
1498.43977,0.00000
1496.94999,0.22518
1495.46020,0.16381
1493.97041,0.28422
1492.48062,0.48855
1490.99083,0.50420
1489.50104,0.71560
1488.01125,0.59852
1486.52147,0.48148
1485.03168,0.67903
1483.54189,0.68789
1482.05210,0.57097
1480.56231,0.43313
1479.07252,0.72171
1477.58274,0.71676
1476.09295,1.00543
1474.60316,1.11240
1473.11337,1.01670
1471.62358,0.85114
1470.13379,1.18891
1468.64401,0.95354
1467.15422,0.95586
1465.66443,0.89882
1464.17464,0.84181
1462.68485,0.82330
1461.19506,0.73492
1459.70527,0.82134
1458.21549,0.89381
1456.72570,0.58188
1455.23591,0.61250
1453.74612,0.42647
1452.25633,0.48514
1450.76654,0.32016
1449.27676,0.37890
1447.78697,0.45866
1446.29718,0.53846
1444.80739,0.44355
1443.31760,0.34868
1441.82781,0.42162
1440.33802,0.37576
1438.84824,0.22510
1437.35845,0.20728
1435.86866,0.28039
1434.37887,0.26266
1432.88908,0.25895
1431.39929,0.32518
1429.90951,0.27263
1428.41972,0.45778
1426.92993,0.36336
1425.44014,0.45073
1423.95035,0.37737
1422.46056,0.30406
1420.97078,0.49640
1419.48099,0.50006
1417.99120,0.49676
1416.50141,0.26284
1415.01162,0.38545
1413.52183,0.37529
1412.03204,0.42110
1410.54226,0.40404
1409.05247,0.47788
1407.56268,0.43294
1406.07289,0.59074
1404.58310,0.57035
1403.09331,0.55000
1401.60353,0.50522
1400.11374,0.56534
1398.62395,0.66045
1397.13416,0.69269
1395.64437,0.82282
1394.15458,0.88311
1392.66479,0.78266
1391.17501,0.64031
1389.68522,0.84751
1388.19543,0.90097
1386.70564,0.88456
1385.21585,0.86821
1383.72606,0.92878
1382.23628,0.79367
1380.74649,0.96617
1379.25670,0.82415
1377.76691,1.05265
1376.27712,0.80587
1374.78733,0.85271
1373.29755,0.99745
1371.80776,1.10728
1370.31797,1.34997
1368.82818,1.30261
1367.33839,1.25529
1365.84860,1.10667
1364.35881,1.41242
1362.86903,1.36873
1361.37924,1.38798
1359.88945,1.56106
1358.39966,1.49652
1356.90987,1.23630
1355.42008,1.31164
1353.93030,1.62468
1352.44051,1.52884
1350.95072,1.43305
1349.46093,1.20100
1347.97114,1.26257
1346.48135,1.08652
1344.99156,0.81964
1343.50178,1.08404
1342.01199,1.04092
1340.52220,0.78116
1339.03241,0.69619
1337.54262,0.99571
1336.05283,0.89334
1334.56305,0.79102
1333.07326,0.66426
1331.58347,0.64241
1330.09368,0.92815
1328.60389,0.60581
1327.11410,0.66097
1325.62432,0.54142
1324.13453,0.84132
1322.64474,0.36536
1321.15495,0.23195
1319.66516,0.33625
1318.17537,0.44058
1316.68558,0.31430
1315.19580,0.55153
1313.70601,0.29251
1312.21622,0.32711
1310.72643,0.36875
1309.23664,0.38945
1307.74685,0.20749
1306.25707,0.41002
1304.76728,0.32950
1303.27749,0.24901
1301.78770,0.40274
1300.29791,0.40971
1298.80812,0.39576
1297.31834,0.29098
1295.82855,0.35400
1294.33876,0.40308
1292.84897,0.53609
1291.35918,0.57127
1289.86939,0.55407
1288.37960,0.53691
1286.88982,0.41844
1285.40003,0.50273
1283.91024,0.67791
1282.42045,0.60850
1280.93066,0.33641
1279.44087,0.48377
1277.95109,0.49137
1276.46130,0.38717
1274.97151,0.35291
1273.48172,0.31869
1271.99193,0.60606
1270.50214,0.66279
1269.01235,0.56579
1267.52257,0.67852
1266.03278,0.53967
1264.54299,0.54065
1263.05320,0.60458
1261.56341,0.63361
1260.07362,0.66267
1258.58384,0.48907
1257.09405,0.48327
1255.60426,0.54741
1254.11447,0.54868
1252.62468,0.38922
1251.13489,0.74008
1249.64511,0.37100
1248.15532,0.46332
1246.66553,0.47877
1245.17574,0.49427
1243.68595,0.44691
1242.19616,0.60229
1240.70637,0.54103
1239.21659,0.25612
1237.72680,0.32076
1236.23701,0.43437
1234.74722,0.41521
1233.25743,0.31221
1231.76764,0.20926
1230.27786,0.51177
1228.78807,0.32501
1227.29828,0.45984
1225.80849,0.21026
1224.31870,0.14945
1222.82891,0.24946
1221.33912,0.21669
1219.84934,0.30629
1218.35955,0.39594
1216.86976,0.37029
1215.37997,0.33769
1213.89018,0.26319
1212.40039,0.18174
1210.91061,0.27509
1209.42082,0.19373
1207.93103,0.17881
1206.44124,0.16393
1204.95145,0.22250
1203.46166,0.27411
1201.97188,0.04616
1200.48209,0.00000
1198.99230,0.23059
1197.50251,0.26550
1196.01272,0.06977
1194.52293,0.10826
1193.03314,0.14679
1191.54336,0.01410
1190.05357,0.07019
1188.56378,0.00748
1187.07399,0.16850
1185.58420,0.14782
1184.09441,0.08524
1182.60463,0.08911
1181.11484,0.09302
1179.62505,0.16338
1178.13526,0.10096
1176.64547,0.01063
1175.15568,0.29081
1173.66589,0.03980
1172.17611,0.25016
1170.68632,0.32775
1169.19653,0.40539
1167.70674,0.42016
1166.21695,0.48390
1164.72716,0.41487
1163.23738,0.29695
1161.74759,0.38877
1160.25780,0.46666
1158.76801,0.47119
1157.27822,0.47577
1155.78843,0.62368
1154.29865,0.69474
1152.80886,0.76584
1151.31907,0.96980
1149.82928,0.74041
1148.33949,0.74174
1146.84970,0.78155
1145.35991,0.82141
1143.87013,0.85781
1142.38034,0.89426
1140.89055,0.74900
1139.40076,0.95328
1137.91097,1.22751
1136.42118,1.08238
1134.93140,1.12253
1133.44161,1.16272
1131.95182,1.23440
1130.46203,1.10341
1128.97224,1.14722
1127.48245,1.18408
1125.99266,1.25593
1124.50288,1.04822
1123.01309,1.21452
1121.52330,1.38086
1120.03351,1.22920
1118.54372,1.07058
1117.05393,1.14967
1115.56415,1.01910
1114.07436,0.86061
1112.58457,0.93982
1111.09478,1.01908
1109.60499,0.95858
1108.11520,0.95403
1106.62542,1.16622
1105.13563,1.01498
1103.64584,0.84280
1102.15605,0.97123
1100.66626,0.98787
1099.17647,1.00454
1097.68668,1.34979
1096.19690,0.86327
1094.70711,1.21559
1093.21732,1.26039
1091.72753,1.31922
1090.23774,1.24877
1088.74795,1.17836
1087.25817,1.29323
1085.76838,1.49901
1084.27859,1.40427
1082.78880,1.46334
1081.29901,1.43857
1079.80922,1.30201
1078.31943,1.30529
1076.82965,1.30861
1075.33986,1.37488
1073.85007,1.62992
1072.36028,1.45862
1070.87049,1.36424
1069.38070,1.24194
1067.89092,1.28046
1066.40113,1.31902
1064.91134,1.22481
1063.42155,1.45918
1061.93176,1.23224
1060.44197,1.09621
1058.95219,1.23983
1057.46240,1.21923
1055.97261,1.19866
1054.48282,1.29347
1052.99303,1.24853
1051.50324,0.80519
1050.01345,0.82324
1048.52367,0.83434
1047.03388,0.85247
1045.54409,0.87063
1044.05430,0.86089
1042.56451,0.83021
1041.07472,0.48503
1039.58494,0.44045
1038.09515,0.65455
1036.60536,0.55764
1035.11557,0.46076
1033.62578,0.60508
1032.13599,0.55373
1030.64620,0.74706
1029.15642,0.54201
1027.66663,0.65155
1026.17684,0.76113
1024.68705,0.60514
1023.19726,0.48413
1021.70747,0.52393
1020.21769,0.86435
1018.72790,0.98112
1017.23811,1.03853
1015.74832,1.09597
1014.25853,1.26181
1012.76874,1.26691
1011.27896,1.55166
1009.78917,1.67568
1008.29938,1.65993
1006.80959,1.57433
1005.31980,1.48877
1003.83001,1.36132
1002.34022,1.52049
1000.85044,1.79155
999.36065,1.58732
997.87086,1.56837
996.38107,1.54947
994.89128,1.71584
993.40149,1.67256
991.91171,1.44757
990.42192,1.38340
988.93213,1.63381
987.44234,1.58370
985.95255,1.53363
984.46276,1.64438
982.97297,1.79011
981.48319,1.36969
979.99340,1.27785
978.50361,1.17556
977.01382,1.07332
975.52403,1.13538
974.03424,0.72216
972.54446,1.02896
971.05467,1.06318
969.56488,0.88076
968.07509,0.93254
966.58530,0.98437
965.09551,0.86498
963.60573,0.64777
962.11594,0.77312
960.62615,0.66783
959.13636,0.64647
957.64657,0.62515
956.15678,0.58290
954.66699,0.42186
953.17721,0.39368
951.68742,0.51232
950.19763,0.47373
948.70784,0.43518
947.21805,0.34425
945.72826,0.51199
944.23848,0.65182
942.74869,0.66586
941.25890,0.50519
939.76911,0.62068
938.27932,0.73620
936.78953,0.70847
935.29974,0.71574
933.80996,1.05157
932.32017,1.17774
930.83038,1.25852
929.34059,1.33935
927.85080,1.15808
926.36101,1.06074
924.87123,1.25004
923.38144,1.46034
921.89165,1.50642
920.40186,1.55254
918.91207,1.36454
917.42228,1.35133
915.93250,1.28224
914.44271,1.10135
912.95292,1.09176
911.46313,1.08221
909.97334,1.22998
908.48355,1.14013
906.99376,0.83363
905.50398,0.84172
904.01419,0.93723
902.52440,1.03278
901.03461,0.78236
899.54482,0.73470
898.05503,0.59621
896.56525,0.98900
895.07546,1.02534
893.58567,1.06172
892.09588,0.75564
890.60609,0.95986
889.11630,0.97540
887.62651,0.92108
886.13673,1.13592
884.64694,1.35080
883.15715,1.22670
881.66736,0.88596
880.17757,1.30716
878.68778,1.38939
877.19800,1.47167
875.70821,1.57845
874.21842,1.41266
872.72863,1.72224
871.23884,1.78721
869.74905,1.86270
868.25927,1.93823
866.76948,1.87051
865.27969,1.75390
863.78990,1.63035
862.30011,1.57673
860.81032,1.51267
859.32053,1.44866
857.83075,1.85651
856.34096,1.83102
854.85117,1.76363
853.36138,1.53551
851.87159,1.58005
850.38180,1.62462
848.89202,1.66225
847.40223,1.48323
845.91244,1.65375
844.42265,1.49928
842.93286,1.34485
841.44307,1.31279
839.95329,1.12000
838.46350,0.91326
836.97371,0.60172
835.48392,0.54186
833.99413,0.48205
832.50434,0.56207
831.01455,0.60020
829.52477,0.47760
828.03498,0.48086
826.54519,0.39678
825.05540,0.31275
823.56561,0.49088
822.07582,0.22869
820.58604,0.33701
819.09625,0.37546
817.60646,0.41396
816.11667,0.46648
814.62688,0.40022
813.13709,0.36195
811.64730,0.49848
810.15752,0.41486
808.66773,0.33128
807.17794,0.33512
805.68815,0.30405
804.19836,0.15420
802.70857,0.19661
801.21879,0.23906
799.72900,0.34096
798.23921,0.31011
796.74942,0.24434
795.25963,0.34987
793.76984,0.45543
792.28006,0.25698
790.79027,0.40108
789.30048,0.27260
787.81069,0.24902
786.32090,0.19054
784.83111,0.13209
783.34132,0.47910
781.85154,0.32287
780.36175,0.24358
778.87196,0.27967
777.38217,0.31579
775.89238,0.16672
774.40259,0.22740
772.91281,0.26015
771.42302,0.35236
769.93323,0.44462
768.44344,0.36566
766.95365,0.41955
765.46386,0.22184
763.97407,0.30377
762.48429,0.33332
760.99450,0.36292
759.50471,0.29818
758.01492,0.35232
756.52513,0.53931
755.03534,0.55858
753.54556,0.57790
752.05577,0.28270
750.56598,0.53277
749.07619,0.00000
747.58640,0.26265
746.09661,0.52535
744.60683,0.55043
743.11704,0.51264
741.62725,0.49586
740.13746,0.45466
738.64767,0.41350
737.15788,0.49471
735.66809,0.31033
734.17831,0.39861
732.68852,0.32966
731.19873,0.26074
729.70894,0.11847
728.21915,0.38866
726.72936,0.33735
725.23958,0.22316
723.74979,0.37465
722.26000,0.52617
720.77021,0.65676
719.28042,0.47983
717.79063,0.49867
716.30084,0.58744
714.81106,0.67626
713.32127,0.18495
711.83148,0.65131
710.34169,0.55153
708.85190,0.45527
707.36211,0.35907
705.87233,0.48308
704.38254,0.53724
702.89275,0.40970
701.40296,0.31715
699.91317,0.22465
698.42338,0.43974
696.93360,0.58498
695.44381,0.33183
693.95402,0.37230
692.46423,0.41281
690.97444,0.32055
689.48465,0.64773
687.99486,0.61148
686.50508,0.51585
685.01529,0.42026
683.52550,0.57286
682.03571,0.45988
680.54592,0.47277
679.05613,0.56957
677.56635,0.66641
676.07656,0.42778
674.58677,0.27307
673.09698,0.33509
671.60719,0.30978
670.11740,0.28450
668.62761,0.40257
667.13783,0.36690
665.64804,0.33825
664.15825,0.30965
662.66846,0.45584
661.17867,0.13375
659.68888,0.21012
658.19910,0.21314
656.70931,0.21620
655.21952,0.26474
653.72973,0.38322
652.23994,0.38990
650.75015,0.34420
649.26037,0.29854
647.77058,0.45213
646.28079,0.38209
644.79100,0.31209
643.30121,0.25611
641.81142,0.20017
640.32163,0.27010
638.83185,0.47287
637.34206,0.29822
635.85227,0.24595
634.36248,0.19371
632.87269,0.36170
631.38290,0.06839
629.89312,0.22948
628.40333,0.38012
626.91354,0.53080
625.42375,0.00000
623.93396,0.41944
622.44417,0.40904
620.95438,0.39867
619.46460,0.35689
617.97481,0.30118
616.48502,0.29443
614.99523,0.21084
613.50544,0.12729
612.01565,0.37930
610.52587,0.17002
609.03608,0.65278
607.54629,0.55891
606.05650,0.46508
604.56671,0.33984
603.07692,0.51521
601.58714,0.56131
600.09735,0.60744
598.60756,0.36354
597.11777,0.42724
595.62798,0.47699
594.13819,0.38350
592.64840,0.29004
591.15862,0.15119
589.66883,0.38985
588.17904,0.60058
586.68925,0.48982
585.19946,0.37910
583.70967,0.73675
582.21989,0.56320
580.73010,0.46658
579.24031,0.37000
577.75052,0.56705
576.26073,0.63132
574.77094,0.74458
573.28115,0.81942
571.79137,0.89431
570.30158,0.66517
568.81179,0.87644
567.32200,0.84311
565.83221,0.80982
564.34242,1.09111
562.85264,1.06490
561.36285,1.43715
559.87306,1.27820
558.38327,1.11930
556.89348,1.88311
555.40369,1.61245
553.91391,1.61793
552.42412,1.62346
550.93433,1.79329
549.44454,1.83735
547.95475,1.75562
546.46496,1.85568
544.97517,1.95578
543.48539,2.00000
541.99560,1.96038
540.50581,1.93478
539.01602,1.90923
537.52623,1.92565
536.03644,1.66252
534.54666,1.81184
533.05687,1.84587
531.56708,1.87993
530.07729,1.80569
528.58750,1.94819
527.09771,1.80064
525.60792,1.65313
524.11814,1.32043
522.62835,1.40018
521.13856,1.38911
519.64877,1.24875
518.15898,1.10844
516.66919,1.30020
515.17941,1.37317
513.68962,1.40075
512.19983,1.42836
510.71004,1.23583
509.22025,1.34392
507.73046,1.16545
506.24068,1.18624
504.75089,1.20708
503.26110,1.29436
501.77131,1.19295
500.28152,1.13352
498.79173,1.07414
497.30194,0.88898
495.81216,1.09529
494.32237,1.03254
492.83258,0.96982
491.34279,1.00151
489.85300,0.99830
488.36321,0.78543
486.87343,0.91161
485.38364,1.03783
483.89385,0.51752
482.40406,0.64732
480.91427,0.59193
479.42448,0.53658
477.93469,0.50573
476.44491,0.47493
474.95512,0.33932
473.46533,0.20375
471.97554,0.31986
470.48575,0.12147
468.99596,0.00000
467.50618,0.29042
466.01639,0.58089
464.52660,0.43802
463.03681,0.45596
461.54702,0.36210
460.05723,0.26828
458.56745,0.51002
457.07766,1.12228
455.58787,1.08800
454.09808,1.05376
452.60829,1.02306
451.11850,1.20210
449.62871,1.38468
448.13893,1.56730
446.64914,1.06843
445.15935,1.34551
443.66956,1.00050
442.17977,1.11339
440.68998,1.22631
439.20020,1.51054
437.71041,1.10978
436.22062,1.20885
434.73083,1.30796
433.24104,1.37566
431.75125,1.25467
430.26146,1.24906
428.77168,1.24349
427.28189,1.35329
425.79210,1.33732
424.30231,1.39828
422.81252,1.45928
421.32273,1.45741
419.83295,1.44160
418.34316,1.54816
416.85337,1.65476
415.36358,1.41540
413.87379,1.65839
412.38400,1.65327
410.89422,1.64820
409.40443,1.49288
407.91464,1.35858
406.42485,1.02859
404.93506,1.04815
403.44527,1.06775
401.95548,0.73789
400.46570,0.68767
398.97591,0.70040
397.48612,0.71318
395.99633,0.80288
394.50654,0.90661
393.01675,0.79719
391.52697,0.68780
390.03718,0.72175
388.54739,0.79769
387.05760,0.74085
385.56781,0.68406
384.07802,0.62032
382.58824,0.59856
381.09845,0.46151
379.60866,0.32449
378.11887,0.75022
376.62908,0.56785
375.13929,0.49387
373.64950,0.41994
372.15972,0.55225
370.66993,0.55179
369.18014,0.42206
367.69035,0.29237
366.20056,0.38291
364.71077,0.22184
363.22099,0.34392
361.73120,0.46603
360.24141,0.19325
358.75162,0.23507
357.26183,0.26294
355.77204,0.29086
354.28225,0.33979
352.79247,0.28391
351.30268,0.34341
349.81289,0.40295
348.32310,0.10953
346.83331,0.06080
345.34352,0.15192
343.85374,0.24308
342.36395,0.14555
340.87416,0.11097
339.38437,0.05546
337.89458,0.00000
336.40479,0.16264
334.91501,0.15058
333.42522,0.16652
331.93543,0.18249
330.44564,0.24045
328.95585,0.14467
327.46606,0.15378
325.97627,0.16294
324.48649,0.16514
322.99670,0.36311
321.50691,0.32695
320.01712,0.29083
318.52733,0.18836
317.03754,0.47736
315.54776,0.23866
314.05797,0.00000
312.56818,0.30351
311.07839,0.22960
309.58860,0.25359
308.09881,0.27763
306.60902,0.23181
305.11924,0.21399
303.62945,0.20319
302.13966,0.19245
300.64987,0.00000
299.16008,0.00000
