1778.52000,0.02347
1777.03021,0.00799
1775.54042,0.15190
1774.05063,0.12571
1772.56085,0.10225
1771.07106,0.11664
1769.58127,0.09866
1768.09148,0.11044
1766.60169,0.16276
1765.11190,0.18002
1763.62212,0.07037
1762.13233,0.12012
1760.64254,0.10508
1759.15275,0.13870
1757.66296,0.16966
1756.17317,0.20066
1754.68339,0.10476
1753.19360,0.08452
1751.70381,0.07513
1750.21402,0.13600
1748.72423,0.03486
1747.23444,0.11201
1745.74465,0.17840
1744.25487,0.16380
1742.76508,0.05742
1741.27529,0.05101
1739.78550,0.13646
1738.29571,0.22466
1736.80592,0.30209
1735.31614,0.18240
1733.82635,0.15459
1732.33656,0.03228
1730.84677,0.06396
1729.35698,0.11458
1727.86719,0.08963
1726.37740,0.00799
1724.88762,0.08992
1723.39783,0.20429
1721.90804,0.14855
1720.41825,0.19548
1718.92846,0.12902
1717.43867,0.14363
1715.94889,0.11506
1714.45910,0.11354
1712.96931,0.07155
1711.47952,0.19974
1709.98973,0.19834
1708.49994,0.12676
1707.01016,0.16190
1705.52037,0.19708
1704.03058,0.15533
1702.54079,0.19464
1701.05100,0.17997
1699.56121,0.12214
1698.07142,0.09945
1696.58164,0.09301
1695.09185,0.08390
1693.60206,0.11805
1692.11227,0.23327
1690.62248,0.32421
1689.13269,0.32607
1687.64291,0.22804
1686.15312,0.26239
1684.66333,0.25087
1683.17354,0.22318
1681.68375,0.23334
1680.19396,0.25705
1678.70417,0.31321
1677.21439,0.16954
1675.72460,0.21768
1674.23481,0.20373
1672.74502,0.16012
1671.25523,0.04093
1669.76544,0.14594
1668.27566,0.15646
1666.78587,0.27776
1665.29608,0.18843
1663.80629,0.22608
1662.31650,0.19355
1660.82671,0.19617
1659.33693,0.22314
1657.84714,0.21774
1656.35735,0.03683
1654.86756,0.16114
1653.37777,0.23958
1651.88798,0.18303
1650.39819,0.11571
1648.90841,0.18617
1647.41862,0.21886
1645.92883,0.20838
1644.43904,0.19793
1642.94925,0.16322
1641.45946,0.10965
1639.96968,0.05611
1638.47989,0.17277
1636.99010,0.16252
1635.50031,0.16042
1634.01052,0.11785
1632.52073,0.15904
1631.03094,0.13546
1629.54116,0.34688
1628.05137,0.30177
1626.56158,0.22968
1625.07179,0.24677
1623.58200,0.15857
1622.09221,0.12171
1620.60243,0.14702
1619.11264,0.12105
1617.62285,0.20586
1616.13306,0.15296
1614.64327,0.24055
1613.15348,0.22555
1611.66370,0.21869
1610.17391,0.16865
1608.68412,0.16997
1607.19433,0.17133
1605.70454,0.20244
1604.21475,0.18633
1602.72496,0.17026
1601.23518,0.18528
1599.74539,0.10312
1598.25560,0.16684
1596.76581,0.19548
1595.27602,0.26469
1593.78623,0.20969
1592.29645,0.07911
1590.80666,0.00799
1589.31687,0.11738
1587.82708,0.18900
1586.33729,0.11751
1584.84750,0.11358
1583.35771,0.09079
1581.86793,0.21658
1580.37814,0.20468
1578.88835,0.24142
1577.39856,0.19988
1575.90877,0.22861
1574.41898,0.12233
1572.92920,0.00799
1571.43941,0.08134
1569.94962,0.09261
1568.45983,0.10393
1566.97004,0.21520
1565.48025,0.18068
1563.99047,0.21642
1562.50068,0.30081
1561.01089,0.13137
1559.52110,0.08621
1558.03131,0.16262
1556.54152,0.12023
1555.05173,0.11300
1553.56195,0.09500
1552.07216,0.14997
1550.58237,0.15636
1549.09258,0.16279
1547.60279,0.16926
1546.11300,0.19197
1544.62322,0.14181
1543.13343,0.18351
1541.64364,0.16043
1540.15385,0.16305
1538.66406,0.16571
1537.17427,0.19136
1535.68448,0.03881
1534.19470,0.12666
1532.70491,0.07141
1531.21512,0.00000
1529.72533,0.24560
1528.23554,0.09692
1526.74575,0.13464
1525.25597,0.06707
1523.76618,0.15078
1522.27639,0.03738
1520.78660,0.08876
1519.29681,0.10237
1517.80702,0.00799
1516.31724,0.22469
1514.82745,0.07411
1513.33766,0.06672
1511.84787,0.05937
1510.35808,0.08446
1508.86829,0.12851
1507.37850,0.10777
1505.88872,0.06547
1504.39893,0.12314
1502.90914,0.00799
1501.41935,0.08411
1499.92956,0.10355
1498.43977,0.11492
1496.94999,0.05342
1495.46020,0.13780
1493.97041,0.24652
1492.48062,0.25806
1490.99083,0.32366
1489.50104,0.27315
1488.01125,0.28211
1486.52147,0.29111
1485.03168,0.41628
1483.54189,0.53069
1482.05210,0.46418
1480.56231,0.55706
1479.07252,0.54195
1477.58274,0.82667
1476.09295,0.66039
1474.60316,0.89117
1473.11337,0.94644
1471.62358,0.89913
1470.13379,1.07061
1468.64401,0.90994
1467.15422,0.92486
1465.66443,0.86284
1464.17464,0.80087
1462.68485,0.79970
1461.19506,0.66894
1459.70527,0.47880
1458.21549,0.66141
1456.72570,0.41193
1455.23591,0.47578
1453.74612,0.42894
1452.25633,0.30652
1450.76654,0.26786
1449.27676,0.24005
1447.78697,0.13935
1446.29718,0.23856
1444.80739,0.23652
1443.31760,0.23453
1441.82781,0.20151
1440.33802,0.11722
1438.84824,0.07348
1437.35845,0.09460
1435.86866,0.09146
1434.37887,0.13156
1432.88908,0.12039
1431.39929,0.11467
1429.90951,0.01445
1428.41972,0.09793
1426.92993,0.17335
1425.44014,0.23530
1423.95035,0.19466
1422.46056,0.15407
1420.97078,0.19723
1419.48099,0.27555
1417.99120,0.10004
1416.50141,0.19464
1415.01162,0.20556
1413.52183,0.15440
1412.03204,0.07357
1410.54226,0.19534
1409.05247,0.24423
1407.56268,0.17432
1406.07289,0.31782
1404.58310,0.28175
1403.09331,0.24573
1401.60353,0.44336
1400.11374,0.38986
1398.62395,0.47954
1397.13416,0.47203
1395.64437,0.56450
1394.15458,0.52466
1392.66479,0.56859
1391.17501,0.66387
1389.68522,0.65386
1388.19543,0.53316
1386.70564,0.52999
1385.21585,0.52685
1383.72606,0.64394
1382.23628,0.50449
1380.74649,0.76480
1379.25670,0.71997
1377.76691,0.61845
1376.27712,0.67903
1374.78733,0.81796
1373.29755,0.68686
1371.80776,0.73405
1370.31797,0.85690
1368.82818,0.92712
1367.33839,0.99739
1365.84860,1.14196
1364.35881,1.20826
1362.86903,1.27189
1361.37924,1.28695
1359.88945,1.31016
1358.39966,1.35500
1356.90987,1.10281
1355.42008,1.20445
1353.93030,1.26833
1352.44051,1.17559
1350.95072,1.08290
1349.46093,1.07668
1347.97114,0.93545
1346.48135,0.95361
1344.99156,0.82867
1343.50178,0.83071
1342.01199,0.64913
1340.52220,0.69716
1339.03241,0.64530
1337.54262,0.64750
1336.05283,0.59437
1334.56305,0.54128
1333.07326,0.58140
1331.58347,0.43792
1330.09368,0.43491
1328.60389,0.35633
1327.11410,0.35610
1325.62432,0.32081
1324.13453,0.26665
1322.64474,0.22333
1321.15495,0.18816
1319.66516,0.19623
1318.17537,0.20435
1316.68558,0.18820
1315.19580,0.16669
1313.70601,0.20464
1312.21622,0.19131
1310.72643,0.20773
1309.23664,0.19448
1307.74685,0.08945
1306.25707,0.14920
1304.76728,0.18334
1303.27749,0.21751
1301.78770,0.14505
1300.29791,0.22117
1298.80812,0.19470
1297.31834,0.18717
1295.82855,0.19589
1294.33876,0.29377
1292.84897,0.22965
1291.35918,0.21418
1289.86939,0.21496
1288.37960,0.21577
1286.88982,0.37058
1285.40003,0.45250
1283.91024,0.47504
1282.42045,0.22484
1280.93066,0.21235
1279.44087,0.28903
1277.95109,0.29283
1276.46130,0.38039
1274.97151,0.40047
1273.48172,0.42060
1271.99193,0.49747
1270.50214,0.35563
1269.01235,0.41098
1267.52257,0.39345
1266.03278,0.47319
1264.54299,0.53947
1263.05320,0.49235
1261.56341,0.46823
1260.07362,0.44415
1258.58384,0.43766
1257.09405,0.36370
1255.60426,0.26007
1254.11447,0.32122
1252.62468,0.44183
1251.13489,0.30051
1249.64511,0.25645
1248.15532,0.20973
1246.66553,0.29134
1245.17574,0.37299
1243.68595,0.32910
1242.19616,0.31495
1240.70637,0.31435
1239.21659,0.28948
1237.72680,0.33217
1236.23701,0.30467
1234.74722,0.28533
1233.25743,0.24441
1231.76764,0.20353
1230.27786,0.28153
1228.78807,0.34337
1227.29828,0.23239
1225.80849,0.16197
1224.31870,0.22933
1222.82891,0.23190
1221.33912,0.39117
1219.84934,0.30875
1218.35955,0.22637
1216.86976,0.12648
1215.37997,0.22919
1213.89018,0.16989
1212.40039,0.30238
1210.91061,0.25126
1209.42082,0.17318
1207.93103,0.12484
1206.44124,0.07654
1204.95145,0.13902
1203.46166,0.20424
1201.97188,0.03722
1200.48209,0.00799
1198.99230,0.13344
1197.50251,0.11308
1196.01272,0.21970
1194.52293,0.15892
1193.03314,0.09817
1191.54336,0.12119
1190.05357,0.09023
1188.56378,0.00799
1187.07399,0.05147
1185.58420,0.08419
1184.09441,0.09264
1182.60463,0.12543
1181.11484,0.15827
1179.62505,0.07772
1178.13526,0.08632
1176.64547,0.12468
1175.15568,0.12257
1173.66589,0.23933
1172.17611,0.18328
1170.68632,0.28797
1169.19653,0.39270
1167.70674,0.25034
1166.21695,0.29168
1164.72716,0.22773
1163.23738,0.37718
1161.74759,0.36462
1160.25780,0.49255
1158.76801,0.52734
1157.27822,0.56216
1155.78843,0.56597
1154.29865,0.57792
1152.80886,0.62502
1151.31907,0.65596
1149.82928,0.77606
1148.33949,0.86109
1146.84970,0.81923
1145.35991,0.77740
1143.87013,0.75182
1142.38034,0.70198
1140.89055,0.91685
1139.40076,0.75365
1137.91097,0.89568
1136.42118,0.90000
1134.93140,0.96514
1133.44161,1.03032
1131.95182,1.05907
1130.46203,1.12298
1128.97224,1.10590
1127.48245,1.23201
1125.99266,1.15829
1124.50288,1.11163
1123.01309,1.13657
1121.52330,1.16155
1120.03351,1.16362
1118.54372,1.09011
1117.05393,1.15708
1115.56415,1.04853
1114.07436,0.98594
1112.58457,0.97066
1111.09478,0.95541
1109.60499,0.89294
1108.11520,0.95474
1106.62542,1.01389
1105.13563,1.17030
1103.64584,0.96215
1102.15605,1.04842
1100.66626,1.02805
1099.17647,1.00773
1097.68668,0.91587
1096.19690,1.18865
1094.70711,1.01585
1093.21732,1.14018
1091.72753,1.06738
1090.23774,1.10671
1088.74795,1.14608
1087.25817,1.21655
1085.76838,1.31407
1084.27859,1.23877
1082.78880,1.22294
1081.29901,1.35028
1079.80922,1.21299
1078.31943,1.23778
1076.82965,1.26262
1075.33986,1.26049
1073.85007,1.40424
1072.36028,1.61555
1070.87049,1.36506
1069.38070,1.31988
1067.89092,1.31254
1066.40113,1.30525
1064.91134,1.22507
1063.42155,1.32859
1061.93176,1.37003
1060.44197,1.28457
1058.95219,1.19106
1057.46240,1.17995
1055.97261,1.16889
1054.48282,1.16191
1052.99303,1.00103
1051.50324,0.95363
1050.01345,0.88466
1048.52367,0.84003
1047.03388,0.78600
1045.54409,0.73200
1044.05430,0.77932
1042.56451,0.71325
1041.07472,0.47437
1039.58494,0.33816
1038.09515,0.43966
1036.60536,0.43181
1035.11557,0.42401
1033.62578,0.57694
1032.13599,0.42472
1030.64620,0.39138
1029.15642,0.45801
1027.66663,0.47877
1026.17684,0.49956
1024.68705,0.58521
1023.19726,0.56558
1021.70747,0.66482
1020.21769,0.80730
1018.72790,0.96334
1017.23811,1.10996
1015.74832,1.25662
1014.25853,1.32095
1012.76874,1.43663
1011.27896,1.37950
1009.78917,1.50877
1008.29938,1.53545
1006.80959,1.59862
1005.31980,1.66184
1003.83001,1.42126
1002.34022,1.51021
1000.85044,1.54249
999.36065,1.65583
997.87086,1.55315
996.38107,1.45051
994.89128,1.42083
993.40149,1.37499
991.91171,1.53714
990.42192,1.69394
988.93213,1.55099
987.44234,1.49180
985.95255,1.43265
984.46276,1.62471
982.97297,1.49272
981.48319,1.49041
979.99340,1.29639
978.50361,1.19828
977.01382,1.10021
975.52403,0.84418
974.03424,0.86098
972.54446,0.81299
971.05467,0.80556
969.56488,0.87379
968.07509,0.83673
966.58530,0.79970
965.09551,0.76002
963.60573,0.73658
962.11594,0.74020
960.62615,0.63581
959.13636,0.53282
957.64657,0.42987
956.15678,0.48496
954.66699,0.61030
953.17721,0.35758
951.68742,0.44519
950.19763,0.45047
948.70784,0.45580
947.21805,0.42200
945.72826,0.38283
944.23848,0.35452
942.74869,0.54770
941.25890,0.66530
939.76911,0.65871
938.27932,0.65216
936.78953,0.81850
935.29974,0.81473
933.80996,0.80829
932.32017,0.93154
930.83038,0.94949
929.34059,0.96749
927.85080,1.10976
926.36101,1.24397
924.87123,1.37552
923.38144,1.20191
921.89165,1.27683
920.40186,1.35178
918.91207,1.30253
917.42228,1.38297
915.93250,1.23117
914.44271,1.29548
912.95292,1.22344
911.46313,1.15144
909.97334,1.18886
908.48355,0.99135
906.99376,0.96133
905.50398,0.80172
904.01419,0.84335
902.52440,0.88502
901.03461,0.76874
899.54482,0.77403
898.05503,0.85228
896.56525,0.89276
895.07546,0.86036
893.58567,0.82800
892.09588,0.87401
890.60609,0.88494
889.11630,0.95803
887.62651,0.99335
886.13673,1.06787
884.64694,1.14243
883.15715,1.13196
881.66736,1.00539
880.17757,1.21647
878.68778,1.30199
877.19800,1.38756
875.70821,1.39079
874.21842,1.44267
872.72863,1.44328
871.23884,1.73022
869.74905,1.70795
868.25927,1.68572
866.76948,1.66219
865.27969,1.60358
863.78990,1.79619
862.30011,1.61882
860.81032,1.62786
859.32053,1.63693
857.83075,1.74327
856.34096,1.65249
854.85117,1.77242
853.36138,1.74384
851.87159,1.67749
850.38180,1.61118
848.89202,1.41798
847.40223,1.35985
845.91244,1.22884
844.42265,1.24237
842.93286,1.25593
841.44307,1.12235
839.95329,0.89427
838.46350,0.86339
836.97371,0.59759
835.48392,0.56544
833.99413,0.53333
832.50434,0.59173
831.01455,0.36390
829.52477,0.41428
828.03498,0.47011
826.54519,0.43550
825.05540,0.40093
823.56561,0.50819
822.07582,0.41834
820.58604,0.26911
819.09625,0.30492
817.60646,0.34077
816.11667,0.24027
814.62688,0.27755
813.13709,0.26626
811.64730,0.24961
810.15752,0.14656
808.66773,0.04357
807.17794,0.10266
805.68815,0.20500
804.19836,0.20745
802.70857,0.21264
801.21879,0.21787
799.72900,0.20154
798.23921,0.10152
796.74942,0.21220
795.25963,0.14197
793.76984,0.07178
792.28006,0.15558
790.79027,0.16379
789.30048,0.10993
787.81069,0.22355
786.32090,0.11575
784.83111,0.00799
783.34132,0.01227
781.85154,0.02739
780.36175,0.16409
778.87196,0.16038
777.38217,0.15672
775.89238,0.13689
774.40259,0.06849
772.91281,0.08115
771.42302,0.11815
769.93323,0.15520
768.44344,0.15988
766.95365,0.05387
765.46386,0.13695
763.97407,0.05532
762.48429,0.10742
760.99450,0.15957
759.50471,0.14828
758.01492,0.17484
756.52513,0.10152
755.03534,0.07820
753.54556,0.05492
752.05577,0.02763
750.56598,0.06520
749.07619,0.12711
747.58640,0.06753
746.09661,0.00799
744.60683,0.12952
743.11704,0.11335
741.62725,0.15664
740.13746,0.14595
738.64767,0.13530
737.15788,0.24083
735.66809,0.05741
734.17831,0.01717
732.68852,0.13092
731.19873,0.24471
729.70894,0.01284
728.21915,0.16992
726.72936,0.11367
725.23958,0.03857
723.74979,0.11069
722.26000,0.18286
720.77021,0.30233
719.28042,0.31111
717.79063,0.50628
716.30084,0.40710
714.81106,0.30797
713.32127,0.33311
711.83148,0.35559
710.34169,0.27818
708.85190,0.29535
707.36211,0.31255
705.87233,0.22986
704.38254,0.14451
702.89275,0.28066
701.40296,0.22915
699.91317,0.17768
698.42338,0.28695
696.93360,0.19100
695.44381,0.36246
693.95402,0.23688
692.46423,0.11134
690.97444,0.30453
689.48465,0.28980
687.99486,0.21029
686.50508,0.28342
685.01529,0.35658
683.52550,0.36092
682.03571,0.45712
680.54592,0.41563
679.05613,0.27289
677.56635,0.13020
676.07656,0.28328
674.58677,0.28245
673.09698,0.16823
671.60719,0.27012
670.11740,0.37204
668.62761,0.34437
667.13783,0.31134
665.64804,0.31345
664.15825,0.31561
662.66846,0.05853
661.17867,0.02295
659.68888,0.26020
658.19910,0.21120
656.70931,0.16224
655.21952,0.00799
653.72973,0.21708
652.23994,0.23446
650.75015,0.27618
649.26037,0.31794
647.77058,0.15718
646.28079,0.17742
644.79100,0.18149
643.30121,0.16265
641.81142,0.14384
640.32163,0.12102
638.83185,0.28190
637.34206,0.00799
635.85227,0.04981
634.36248,0.09168
632.87269,0.00529
631.38290,0.14006
629.89312,0.12363
628.40333,0.17611
626.91354,0.22863
625.42375,0.26633
623.93396,0.19335
622.44417,0.24059
620.95438,0.28786
619.46460,0.16368
617.97481,0.15297
616.48502,0.10989
614.99523,0.12627
613.50544,0.14269
612.01565,0.14294
610.52587,0.34310
609.03608,0.20299
607.54629,0.30194
606.05650,0.40093
604.56671,0.62285
603.07692,0.33436
601.58714,0.30114
600.09735,0.26795
598.60756,0.26587
597.11777,0.25842
595.62798,0.35364
594.13819,0.35843
592.64840,0.36325
591.15862,0.21012
589.66883,0.23798
588.17904,0.34151
586.68925,0.47883
585.19946,0.61620
583.70967,0.41465
582.21989,0.37519
580.73010,0.44651
579.24031,0.51786
577.75052,0.52444
576.26073,0.61208
574.77094,0.75918
573.28115,0.72536
571.79137,0.69159
570.30158,0.64705
568.81179,0.87263
567.32200,0.80386
565.83221,0.73514
564.34242,0.81769
562.85264,1.04884
561.36285,1.08286
559.87306,1.15608
558.38327,1.22935
556.89348,1.39853
555.40369,1.54615
553.91391,1.58848
552.42412,1.63085
550.93433,1.52741
549.44454,1.93176
547.95475,1.78789
546.46496,1.80341
544.97517,1.81897
543.48539,1.84808
541.99560,1.76919
540.50581,1.79837
539.01602,1.82759
537.52623,2.00000
536.03644,1.81594
534.54666,1.87229
533.05687,1.86657
531.56708,1.86088
530.07729,1.88764
528.58750,1.57144
527.09771,1.53617
525.60792,1.50093
524.11814,1.51435
522.62835,1.35226
521.13856,1.27933
519.64877,1.17944
518.15898,1.07958
516.66919,1.17423
515.17941,1.04204
513.68962,0.99092
512.19983,0.93984
510.71004,1.14538
509.22025,1.29424
507.73046,1.11904
506.24068,1.08568
504.75089,1.05235
503.26110,1.10684
501.77131,1.15867
500.28152,1.09036
498.79173,1.02208
497.30194,0.88768
495.81216,0.83974
494.32237,0.82695
492.83258,0.81420
491.34279,0.91223
489.85300,0.67269
488.36321,0.85722
486.87343,0.77711
485.38364,0.69704
483.89385,0.42796
482.40406,0.35878
480.91427,0.37471
479.42448,0.39068
477.93469,0.18927
476.44491,0.22018
474.95512,0.20791
473.46533,0.19568
471.97554,0.18079
470.48575,0.26857
468.99596,0.00799
467.50618,0.14935
466.01639,0.29075
464.52660,0.43220
463.03681,0.47645
461.54702,0.43567
460.05723,0.39492
458.56745,0.65266
457.07766,0.88612
455.58787,0.85225
454.09808,0.81842
452.60829,0.83595
451.11850,1.15870
449.62871,1.24518
448.13893,1.33169
446.64914,1.27105
445.15935,1.53995
443.66956,1.57122
442.17977,1.49855
440.68998,1.42592
439.20020,1.35738
437.71041,1.22136
436.22062,1.24202
434.73083,1.26273
433.24104,1.01610
431.75125,1.23674
430.26146,1.24271
428.77168,1.24873
427.28189,1.45058
425.79210,1.63628
424.30231,1.54653
422.81252,1.45683
421.32273,1.53461
419.83295,1.75017
418.34316,1.81453
416.85337,1.87893
415.36358,1.70570
413.87379,1.86471
412.38400,1.78608
410.89422,1.70750
409.40443,1.49662
407.91464,1.36140
406.42485,1.14250
404.93506,1.12754
403.44527,1.11263
401.95548,0.80472
400.46570,0.76423
398.97591,0.74133
397.48612,0.71847
395.99633,0.87526
394.50654,0.87274
393.01675,0.79194
391.52697,0.71117
390.03718,0.88702
388.54739,0.91437
387.05760,0.87964
385.56781,0.84495
384.07802,0.66716
382.58824,0.61905
381.09845,0.55882
379.60866,0.49863
378.11887,0.61269
376.62908,0.52692
375.13929,0.58569
373.64950,0.64450
372.15972,0.43732
370.66993,0.67581
369.18014,0.60645
367.69035,0.53713
366.20056,0.52727
364.71077,0.44452
363.22099,0.44960
361.73120,0.45471
360.24141,0.60705
358.75162,0.51097
357.26183,0.48649
355.77204,0.46205
354.28225,0.36338
352.79247,0.35118
351.30268,0.39303
349.81289,0.43493
348.32310,0.29591
346.83331,0.19474
345.34352,0.26937
343.85374,0.34405
342.36395,0.45657
340.87416,0.33687
339.38437,0.31444
337.89458,0.29205
336.40479,0.36692
334.91501,0.27979
333.42522,0.21295
331.93543,0.14616
330.44564,0.21309
328.95585,0.29627
327.46606,0.27280
325.97627,0.24938
324.48649,0.25304
322.99670,0.21892
321.50691,0.24426
320.01712,0.26964
318.52733,0.25185
317.03754,0.13417
315.54776,0.14887
314.05797,0.16361
312.56818,0.01634
311.07839,0.10444
309.58860,0.05620
308.09881,0.00799
306.60902,0.05020
305.11924,0.29232
303.62945,0.18876
302.13966,0.08525
300.64987,0.03310
299.16008,0.00799
