1778.52000,0.06952
1777.03021,0.00449
1775.54042,0.04248
1774.05063,0.15708
1772.56085,0.11065
1771.07106,0.04577
1769.58127,0.09447
1768.09148,0.16170
1766.60169,0.11277
1765.11190,0.08237
1763.62212,0.04673
1762.13233,0.05602
1760.64254,0.03365
1759.15275,0.11167
1757.66296,0.07354
1756.17317,0.09618
1754.68339,0.00004
1753.19360,0.06764
1751.70381,0.07456
1750.21402,0.05246
1748.72423,0.01456
1747.23444,0.13514
1745.74465,0.08675
1744.25487,0.11234
1742.76508,0.10100
1741.27529,0.09761
1739.78550,0.00449
1738.29571,0.01959
1736.80592,0.08226
1735.31614,0.14233
1733.82635,0.05985
1732.33656,0.05926
1730.84677,0.14849
1729.35698,0.15062
1727.86719,0.08941
1726.37740,0.09953
1724.88762,0.09121
1723.39783,0.01692
1721.90804,0.05621
1720.41825,0.09289
1718.92846,0.02927
1717.43867,0.10300
1715.94889,0.08171
1714.45910,0.13704
1712.96931,0.02340
1711.47952,0.12633
1709.98973,0.08142
1708.49994,0.09465
1707.01016,0.11848
1705.52037,0.14234
1704.03058,0.15569
1702.54079,0.03439
1701.05100,0.09798
1699.56121,0.11936
1698.07142,0.13814
1696.58164,0.03020
1695.09185,0.17052
1693.60206,0.17093
1692.11227,0.16081
1690.62248,0.09528
1689.13269,0.18558
1687.64291,0.06731
1686.15312,0.11808
1684.66333,0.10551
1683.17354,0.17220
1681.68375,0.09898
1680.19396,0.11293
1678.70417,0.17710
1677.21439,0.09342
1675.72460,0.11013
1674.23481,0.16121
1672.74502,0.08293
1671.25523,0.13144
1669.76544,0.06909
1668.27566,0.23122
1666.78587,0.14518
1665.29608,0.07237
1663.80629,0.14748
1662.31650,0.13021
1660.82671,0.16578
1659.33693,0.07993
1657.84714,0.17896
1656.35735,0.13015
1654.86756,0.06289
1653.37777,0.04585
1651.88798,0.08166
1650.39819,0.10166
1648.90841,0.08737
1647.41862,0.09688
1645.92883,0.07211
1644.43904,0.04737
1642.94925,0.05700
1641.45946,0.14060
1639.96968,0.10542
1638.47989,0.10988
1636.99010,0.07478
1635.50031,0.14797
1634.01052,0.07861
1632.52073,0.05418
1631.03094,0.14334
1629.54116,0.17971
1628.05137,0.18973
1626.56158,0.13112
1625.07179,0.08047
1623.58200,0.04043
1622.09221,0.07172
1620.60243,0.01327
1619.11264,0.04992
1617.62285,0.07340
1616.13306,0.06259
1614.64327,0.04126
1613.15348,0.09127
1611.66370,0.12018
1610.17391,0.11745
1608.68412,0.09099
1607.19433,0.08042
1605.70454,0.05139
1604.21475,0.04485
1602.72496,0.03835
1601.23518,0.11243
1599.74539,0.13637
1598.25560,0.10490
1596.76581,0.03121
1595.27602,0.05791
1593.78623,0.07673
1592.29645,0.06917
1590.80666,0.10391
1589.31687,0.05946
1587.82708,0.07843
1586.33729,0.11592
1584.84750,0.07159
1583.35771,0.12236
1581.86793,0.10187
1580.37814,0.05237
1578.88835,0.03460
1577.39856,0.14626
1575.90877,0.02558
1574.41898,0.00000
1572.92920,0.01886
1571.43941,0.09058
1569.94962,0.05539
1568.45983,0.02023
1566.97004,0.00492
1565.48025,0.02866
1563.99047,0.07356
1562.50068,0.06569
1561.01089,0.14764
1559.52110,0.07647
1558.03131,0.05287
1556.54152,0.02403
1555.05173,0.14310
1553.56195,0.00342
1552.07216,0.10937
1550.58237,0.08068
1549.09258,0.11012
1547.60279,0.04718
1546.11300,0.00012
1544.62322,0.12738
1543.13343,0.10680
1541.64364,0.09682
1540.15385,0.11197
1538.66406,0.12716
1537.17427,0.13578
1535.68448,0.00449
1534.19470,0.15035
1532.70491,0.00314
1531.21512,0.06373
1529.72533,0.11114
1528.23554,0.10579
1526.74575,0.09519
1525.25597,0.06614
1523.76618,0.02393
1522.27639,0.09530
1520.78660,0.03204
1519.29681,0.07180
1517.80702,0.07728
1516.31724,0.06166
1514.82745,0.09890
1513.33766,0.05168
1511.84787,0.00449
1510.35808,0.01771
1508.86829,0.02305
1507.37850,0.05483
1505.88872,0.08138
1504.39893,0.14492
1502.90914,0.06063
1501.41935,0.11633
1499.92956,0.07437
1498.43977,0.11431
1496.94999,0.08562
1495.46020,0.12563
1493.97041,0.09967
1492.48062,0.18729
1490.99083,0.19837
1489.50104,0.30983
1488.01125,0.33155
1486.52147,0.35330
1485.03168,0.43319
1483.54189,0.46823
1482.05210,0.45577
1480.56231,0.54106
1479.07252,0.65807
1477.58274,0.71702
1476.09295,0.76545
1474.60316,0.80600
1473.11337,0.95221
1471.62358,1.00868
1470.13379,0.94372
1468.64401,0.92104
1467.15422,0.85615
1465.66443,0.80583
1464.17464,0.75554
1462.68485,0.76999
1461.19506,0.62340
1459.70527,0.65112
1458.21549,0.49669
1456.72570,0.51657
1455.23591,0.42822
1453.74612,0.37160
1452.25633,0.31238
1450.76654,0.14757
1449.27676,0.19669
1447.78697,0.26433
1446.29718,0.22902
1444.80739,0.20432
1443.31760,0.17966
1441.82781,0.15239
1440.33802,0.10404
1438.84824,0.06892
1437.35845,0.13419
1435.86866,0.11764
1434.37887,0.17507
1432.88908,0.07145
1431.39929,0.11311
1429.90951,0.18385
1428.41972,0.17277
1426.92993,0.16965
1425.44014,0.17449
1423.95035,0.19654
1422.46056,0.21862
1420.97078,0.17076
1419.48099,0.20216
1417.99120,0.26001
1416.50141,0.15153
1415.01162,0.16985
1413.52183,0.16443
1412.03204,0.26468
1410.54226,0.17484
1409.05247,0.29101
1407.56268,0.22501
1406.07289,0.33070
1404.58310,0.39945
1403.09331,0.46824
1401.60353,0.52387
1400.11374,0.47390
1398.62395,0.57186
1397.13416,0.62760
1395.64437,0.57247
1394.15458,0.65205
1392.66479,0.66830
1391.17501,0.73211
1389.68522,0.71411
1388.19543,0.62220
1386.70564,0.65973
1385.21585,0.69729
1383.72606,0.64247
1382.23628,0.70651
1380.74649,0.79172
1379.25670,0.69741
1377.76691,0.78005
1376.27712,0.77823
1374.78733,0.81870
1373.29755,0.84601
1371.80776,0.94993
1370.31797,1.05653
1368.82818,1.04567
1367.33839,1.03484
1365.84860,1.23133
1364.35881,1.26151
1362.86903,1.28908
1361.37924,1.39328
1359.88945,1.36019
1358.39966,1.32451
1356.90987,1.28357
1355.42008,1.17139
1353.93030,1.25729
1352.44051,1.20459
1350.95072,1.15193
1349.46093,1.15080
1347.97114,1.11010
1346.48135,1.01927
1344.99156,0.93639
1343.50178,0.80075
1342.01199,0.70211
1340.52220,0.69856
1339.03241,0.65810
1337.54262,0.63087
1336.05283,0.67629
1334.56305,0.72176
1333.07326,0.52300
1331.58347,0.56194
1330.09368,0.46097
1328.60389,0.47622
1327.11410,0.28290
1325.62432,0.35632
1324.13453,0.33736
1322.64474,0.24978
1321.15495,0.37613
1319.66516,0.28070
1318.17537,0.18531
1316.68558,0.23784
1315.19580,0.16629
1313.70601,0.16344
1312.21622,0.13951
1310.72643,0.19483
1309.23664,0.15776
1307.74685,0.10489
1306.25707,0.17617
1304.76728,0.14978
1303.27749,0.12344
1301.78770,0.14730
1300.29791,0.17648
1298.80812,0.28492
1297.31834,0.23760
1295.82855,0.28802
1294.33876,0.29359
1292.84897,0.30184
1291.35918,0.32069
1289.86939,0.34221
1288.37960,0.36378
1286.88982,0.36690
1285.40003,0.42815
1283.91024,0.30195
1282.42045,0.31311
1280.93066,0.36920
1279.44087,0.35930
1277.95109,0.45508
1276.46130,0.40301
1274.97151,0.42492
1273.48172,0.44687
1271.99193,0.42396
1270.50214,0.42487
1269.01235,0.39412
1267.52257,0.45319
1266.03278,0.39347
1264.54299,0.43149
1263.05320,0.50388
1261.56341,0.51689
1260.07362,0.52994
1258.58384,0.40175
1257.09405,0.43205
1255.60426,0.28809
1254.11447,0.37656
1252.62468,0.32510
1251.13489,0.34499
1249.64511,0.35434
1248.15532,0.41919
1246.66553,0.34941
1245.17574,0.27966
1243.68595,0.39744
1242.19616,0.24063
1240.70637,0.34792
1239.21659,0.37867
1237.72680,0.29327
1236.23701,0.23167
1234.74722,0.15956
1233.25743,0.19838
1231.76764,0.23724
1230.27786,0.22862
1228.78807,0.22531
1227.29828,0.24052
1225.80849,0.18975
1224.31870,0.21297
1222.82891,0.15172
1221.33912,0.24102
1219.84934,0.26699
1218.35955,0.29299
1216.86976,0.22397
1215.37997,0.20252
1213.89018,0.12038
1212.40039,0.18879
1210.91061,0.18594
1209.42082,0.09070
1207.93103,0.10113
1206.44124,0.11160
1204.95145,0.16700
1203.46166,0.14585
1201.97188,0.03761
1200.48209,0.06143
1198.99230,0.10378
1197.50251,0.05110
1196.01272,0.12521
1194.52293,0.07393
1193.03314,0.02269
1191.54336,0.00449
1190.05357,0.06957
1188.56378,0.07396
1187.07399,0.12856
1185.58420,0.02740
1184.09441,0.10848
1182.60463,0.08661
1181.11484,0.06478
1179.62505,0.10637
1178.13526,0.10839
1176.64547,0.20286
1175.15568,0.20231
1173.66589,0.18596
1172.17611,0.24358
1170.68632,0.22730
1169.19653,0.21106
1167.70674,0.23975
1166.21695,0.22887
1164.72716,0.37910
1163.23738,0.32605
1161.74759,0.47636
1160.25780,0.57125
1158.76801,0.60149
1157.27822,0.63177
1155.78843,0.52081
1154.29865,0.56569
1152.80886,0.69246
1151.31907,0.74006
1149.82928,0.86163
1148.33949,0.84592
1146.84970,0.84082
1145.35991,0.83576
1143.87013,0.87826
1142.38034,0.88384
1140.89055,0.85512
1139.40076,0.89246
1137.91097,0.97737
1136.42118,1.17850
1134.93140,1.13937
1133.44161,1.10029
1131.95182,1.20647
1130.46203,1.28629
1128.97224,1.32918
1127.48245,1.32985
1125.99266,1.29096
1124.50288,1.32604
1123.01309,1.37040
1121.52330,1.41480
1120.03351,1.35493
1118.54372,1.30302
1117.05393,1.22739
1115.56415,1.21252
1114.07436,1.24523
1112.58457,1.14199
1111.09478,1.03878
1109.60499,1.20099
1108.11520,1.05429
1106.62542,1.03966
1105.13563,1.08315
1103.64584,1.03163
1102.15605,1.19139
1100.66626,1.15447
1099.17647,1.11758
1097.68668,1.10318
1096.19690,1.06769
1094.70711,1.15107
1093.21732,1.20016
1091.72753,1.35227
1090.23774,1.35126
1088.74795,1.35029
1087.25817,1.36256
1085.76838,1.31149
1084.27859,1.45059
1082.78880,1.55276
1081.29901,1.47540
1079.80922,1.40600
1078.31943,1.49112
1076.82965,1.57628
1075.33986,1.45683
1073.85007,1.57507
1072.36028,1.67750
1070.87049,1.74829
1069.38070,1.65539
1067.89092,1.60875
1066.40113,1.56214
1064.91134,1.46408
1063.42155,1.49281
1061.93176,1.35522
1060.44197,1.31272
1058.95219,1.34156
1057.46240,1.35064
1055.97261,1.35975
1054.48282,1.12465
1052.99303,1.10611
1051.50324,0.98991
1050.01345,0.98730
1048.52367,1.05338
1047.03388,1.03235
1045.54409,1.01137
1044.05430,0.80822
1042.56451,0.73449
1041.07472,0.77964
1039.58494,0.59509
1038.09515,0.55581
1036.60536,0.53770
1035.11557,0.51962
1033.62578,0.63625
1032.13599,0.59713
1030.64620,0.57389
1029.15642,0.50843
1027.66663,0.54336
1026.17684,0.57832
1024.68705,0.73480
1023.19726,0.76192
1021.70747,0.87886
1020.21769,0.96679
1018.72790,1.18679
1017.23811,1.18238
1015.74832,1.17800
1014.25853,1.43773
1012.76874,1.59450
1011.27896,1.72228
1009.78917,1.70221
1008.29938,1.76404
1006.80959,1.79290
1005.31980,1.82180
1003.83001,1.75436
1002.34022,1.73448
1000.85044,1.85196
999.36065,1.70805
997.87086,1.73714
996.38107,1.76627
994.89128,1.78355
993.40149,1.61603
991.91171,1.72054
990.42192,1.68248
988.93213,1.76066
987.44234,1.74116
985.95255,1.72171
984.46276,1.75775
982.97297,1.63538
981.48319,1.65037
979.99340,1.43566
978.50361,1.39131
977.01382,1.34700
975.52403,1.14826
974.03424,1.04461
972.54446,1.04926
971.05467,1.13318
969.56488,0.98475
968.07509,0.91558
966.58530,0.84646
965.09551,1.02823
963.60573,0.84827
962.11594,0.69211
960.62615,0.73932
959.13636,0.73376
957.64657,0.72824
956.15678,0.66994
954.66699,0.57999
953.17721,0.62212
951.68742,0.56921
950.19763,0.56652
948.70784,0.56387
947.21805,0.58238
945.72826,0.42400
944.23848,0.62479
942.74869,0.63022
941.25890,0.75186
939.76911,0.78377
938.27932,0.81571
936.78953,0.82921
935.29974,1.00382
933.80996,1.06492
932.32017,1.14455
930.83038,1.19913
929.34059,1.25375
927.85080,1.30708
926.36101,1.41327
924.87123,1.49309
923.38144,1.67065
921.89165,1.60927
920.40186,1.54793
918.91207,1.58829
917.42228,1.52571
915.93250,1.32321
914.44271,1.21317
912.95292,1.23388
911.46313,1.25463
909.97334,1.25033
908.48355,1.05330
906.99376,1.06756
905.50398,1.03169
904.01419,0.96417
902.52440,0.89669
901.03461,0.82396
899.54482,0.95196
898.05503,0.80273
896.56525,0.95194
895.07546,0.98367
893.58567,1.01544
892.09588,0.90333
890.60609,1.01836
889.11630,1.04364
887.62651,1.08217
886.13673,1.13261
884.64694,1.18310
883.15715,1.16629
881.66736,1.19176
880.17757,1.28065
878.68778,1.37222
877.19800,1.46382
875.70821,1.64261
874.21842,1.71317
872.72863,1.77056
871.23884,1.86496
869.74905,1.86433
868.25927,1.86375
866.76948,1.91601
865.27969,2.00000
863.78990,1.92295
862.30011,1.82745
860.81032,1.83762
859.32053,1.84783
857.83075,1.72868
856.34096,1.91588
854.85117,1.94997
853.36138,1.83094
851.87159,1.80436
850.38180,1.77783
848.89202,1.69324
847.40223,1.61661
845.91244,1.41855
844.42265,1.37765
842.93286,1.33678
841.44307,1.13619
839.95329,0.87755
838.46350,0.75362
836.97371,0.69046
835.48392,0.55869
833.99413,0.42695
832.50434,0.57252
831.01455,0.39332
829.52477,0.40165
828.03498,0.52885
826.54519,0.49765
825.05540,0.46648
823.56561,0.36670
822.07582,0.32505
820.58604,0.29664
819.09625,0.24715
817.60646,0.19769
816.11667,0.23277
814.62688,0.29958
813.13709,0.16573
811.64730,0.23526
810.15752,0.23484
808.66773,0.23447
807.17794,0.23545
805.68815,0.09388
804.19836,0.11606
802.70857,0.12244
801.21879,0.12886
799.72900,0.06665
798.23921,0.00449
796.74942,0.06742
795.25963,0.05909
793.76984,0.05080
792.28006,0.08216
790.79027,0.08979
789.30048,0.17404
787.81069,0.10253
786.32090,0.06143
784.83111,0.02036
783.34132,0.11268
781.85154,0.00699
780.36175,0.12580
778.87196,0.08620
777.38217,0.04665
775.89238,0.00449
774.40259,0.06281
772.91281,0.11854
771.42302,0.09772
769.93323,0.07694
768.44344,0.09580
766.95365,0.01701
765.46386,0.14686
763.97407,0.13943
762.48429,0.12412
760.99450,0.10885
759.50471,0.08306
758.01492,0.00449
756.52513,0.06446
755.03534,0.08354
753.54556,0.10265
752.05577,0.09672
750.56598,0.05650
749.07619,0.06385
747.58640,0.07651
746.09661,0.08922
744.60683,0.10196
743.11704,0.12795
741.62725,0.17774
740.13746,0.15495
738.64767,0.13220
737.15788,0.06855
735.66809,0.07096
734.17831,0.10246
732.68852,0.05346
731.19873,0.00449
729.70894,0.04266
728.21915,0.06502
726.72936,0.01612
725.23958,0.12189
723.74979,0.17357
722.26000,0.22528
720.77021,0.22818
719.28042,0.14662
717.79063,0.31068
716.30084,0.30181
714.81106,0.29298
713.32127,0.25910
711.83148,0.23847
710.34169,0.27332
708.85190,0.24748
707.36211,0.22168
705.87233,0.22760
704.38254,0.15963
702.89275,0.17619
701.40296,0.14922
699.91317,0.12229
698.42338,0.19706
696.93360,0.16096
695.44381,0.24637
693.95402,0.21563
692.46423,0.18493
690.97444,0.13842
689.48465,0.27152
687.99486,0.28318
686.50508,0.29753
685.01529,0.31191
683.52550,0.24975
682.03571,0.30382
680.54592,0.29983
679.05613,0.26947
677.56635,0.23915
676.07656,0.20623
674.58677,0.16279
673.09698,0.24877
671.60719,0.20804
670.11740,0.16736
668.62761,0.16895
667.13783,0.06761
665.64804,0.03759
664.15825,0.00762
662.66846,0.01690
661.17867,0.04206
659.68888,0.01709
658.19910,0.02648
656.70931,0.03592
655.21952,0.02690
653.72973,0.07866
652.23994,0.18591
650.75015,0.17966
649.26037,0.17344
647.77058,0.03522
646.28079,0.01059
644.79100,0.00449
643.30121,0.03252
641.81142,0.06060
640.32163,0.14153
638.83185,0.04029
637.34206,0.11601
635.85227,0.09010
634.36248,0.06424
632.87269,0.00804
631.38290,0.07071
629.89312,0.01987
628.40333,0.07998
626.91354,0.14012
625.42375,0.22935
623.93396,0.12057
622.44417,0.12142
620.95438,0.12230
619.46460,0.13247
617.97481,0.11362
616.48502,0.09482
614.99523,0.09189
613.50544,0.08901
612.01565,0.09144
610.52587,0.20218
609.03608,0.20469
607.54629,0.22837
606.05650,0.25208
604.56671,0.35769
603.07692,0.29697
601.58714,0.27987
600.09735,0.26281
598.60756,0.25238
597.11777,0.23143
595.62798,0.24221
594.13819,0.23454
592.64840,0.22691
591.15862,0.24836
589.66883,0.15103
588.17904,0.39437
586.68925,0.34596
585.19946,0.29759
583.70967,0.34829
582.21989,0.38845
580.73010,0.34812
579.24031,0.30783
577.75052,0.33227
576.26073,0.35410
574.77094,0.56610
573.28115,0.55633
571.79137,0.54659
570.30158,0.62404
568.81179,0.69888
567.32200,0.66945
565.83221,0.64006
564.34242,0.75727
562.85264,0.90884
561.36285,1.17400
559.87306,1.23323
558.38327,1.29249
556.89348,1.44422
555.40369,1.47451
553.91391,1.52597
552.42412,1.57747
550.93433,1.78480
549.44454,1.95256
547.95475,1.91439
546.46496,1.92907
544.97517,1.94379
543.48539,1.94006
541.99560,1.97334
540.50581,1.94592
539.01602,1.91855
537.52623,1.86744
536.03644,1.91936
534.54666,1.77326
533.05687,1.81338
531.56708,1.85352
530.07729,1.89767
528.58750,1.75702
527.09771,1.69297
525.60792,1.62897
524.11814,1.45410
522.62835,1.35849
521.13856,1.24179
519.64877,1.18058
518.15898,1.11941
516.66919,1.22728
515.17941,1.26917
513.68962,1.28337
512.19983,1.29761
510.71004,1.09139
509.22025,1.18097
507.73046,1.23361
506.24068,1.18991
504.75089,1.14625
503.26110,1.06434
501.77131,1.23332
500.28152,1.12904
498.79173,1.02480
497.30194,0.89023
495.81216,0.80058
494.32237,0.84433
492.83258,0.88811
491.34279,0.86460
489.85300,0.69325
488.36321,0.58795
486.87343,0.62001
485.38364,0.65210
483.89385,0.49675
482.40406,0.43122
480.91427,0.40269
479.42448,0.37420
477.93469,0.25597
476.44491,0.12986
474.95512,0.06715
473.46533,0.00449
471.97554,0.10971
470.48575,0.16215
468.99596,0.19350
467.50618,0.24074
466.01639,0.28802
464.52660,0.38550
463.03681,0.41437
461.54702,0.38914
460.05723,0.36395
458.56745,0.57514
457.07766,0.78636
455.58787,0.78770
454.09808,0.78907
452.60829,1.11395
451.11850,1.18802
449.62871,1.36378
448.13893,1.53959
446.64914,1.45005
445.15935,1.51635
443.66956,1.36351
442.17977,1.41272
440.68998,1.46196
439.20020,1.22210
437.71041,1.44702
436.22062,1.31022
434.73083,1.17345
433.24104,1.20837
431.75125,1.30934
430.26146,1.31396
428.77168,1.31862
427.28189,1.33520
425.79210,1.34654
424.30231,1.43054
422.81252,1.51457
421.32273,1.55508
419.83295,1.64051
418.34316,1.62695
416.85337,1.61344
415.36358,1.91551
413.87379,1.84794
412.38400,1.79361
410.89422,1.73932
409.40443,1.61640
407.91464,1.49353
406.42485,1.27563
404.93506,1.17792
403.44527,1.08025
401.95548,0.87831
400.46570,0.90087
398.97591,0.85744
397.48612,0.81405
395.99633,0.91330
394.50654,0.87527
393.01675,0.78843
391.52697,0.70163
390.03718,0.77726
388.54739,0.84765
387.05760,0.83886
385.56781,0.83011
384.07802,0.54677
382.58824,0.54074
381.09845,0.53474
379.60866,0.52878
378.11887,0.54927
376.62908,0.56715
375.13929,0.52698
373.64950,0.48685
372.15972,0.40978
370.66993,0.45423
369.18014,0.46306
367.69035,0.47193
366.20056,0.45576
364.71077,0.39737
363.22099,0.38259
361.73120,0.36785
360.24141,0.29901
358.75162,0.32264
357.26183,0.29349
355.77204,0.26438
354.28225,0.29076
352.79247,0.13761
351.30268,0.13766
349.81289,0.13775
348.32310,0.16957
346.83331,0.03770
345.34352,0.08544
343.85374,0.13321
342.36395,0.23119
340.87416,0.07307
339.38437,0.04174
337.89458,0.01045
336.40479,0.09538
334.91501,0.09321
333.42522,0.04883
331.93543,0.00449
330.44564,0.01795
328.95585,0.08954
327.46606,0.10175
325.97627,0.11400
324.48649,0.00878
322.99670,0.02263
321.50691,0.03123
320.01712,0.03988
318.52733,0.08289
317.03754,0.06256
315.54776,0.03171
314.05797,0.00089
312.56818,0.04996
311.07839,0.04890
309.58860,0.03731
308.09881,0.02576
306.60902,0.11459
305.11924,0.10048
303.62945,0.05339
302.13966,0.00634
300.64987,0.09650
299.16008,0.00449
