1778.52000,0.02486
1777.03021,0.01076
1775.54042,0.00000
1774.05063,0.10485
1772.56085,0.08756
1771.07106,0.08352
1769.58127,0.20829
1768.09148,0.16800
1766.60169,0.11123
1765.11190,0.01158
1763.62212,0.05065
1762.13233,0.11286
1760.64254,0.05295
1759.15275,0.10864
1757.66296,0.08181
1756.17317,0.10455
1754.68339,0.05799
1753.19360,0.09732
1751.70381,0.05743
1750.21402,0.07372
1748.72423,0.09995
1747.23444,0.11632
1745.74465,0.14592
1744.25487,0.11613
1742.76508,0.04345
1741.27529,0.05005
1739.78550,0.07320
1738.29571,0.08649
1736.80592,0.06679
1735.31614,0.09335
1733.82635,0.09023
1732.33656,0.05744
1730.84677,0.12704
1729.35698,0.18347
1727.86719,0.13427
1726.37740,0.11153
1724.88762,0.07562
1723.39783,0.06946
1721.90804,0.04352
1720.41825,0.04734
1718.92846,0.01158
1717.43867,0.13248
1715.94889,0.02557
1714.45910,0.08711
1712.96931,0.11897
1711.47952,0.14426
1709.98973,0.02429
1708.49994,0.16193
1707.01016,0.16091
1705.52037,0.15993
1704.03058,0.15899
1702.54079,0.07883
1701.05100,0.16382
1699.56121,0.11346
1698.07142,0.12918
1696.58164,0.09870
1695.09185,0.18053
1693.60206,0.10721
1692.11227,0.17921
1690.62248,0.14228
1689.13269,0.18793
1687.64291,0.12466
1686.15312,0.25294
1684.66333,0.16003
1683.17354,0.13649
1681.68375,0.15261
1680.19396,0.16547
1678.70417,0.11893
1677.21439,0.17149
1675.72460,0.19767
1674.23481,0.14464
1672.74502,0.12797
1671.25523,0.09812
1669.76544,0.17728
1668.27566,0.20365
1666.78587,0.21684
1665.29608,0.20696
1663.80629,0.21692
1662.31650,0.20051
1660.82671,0.19074
1659.33693,0.14468
1657.84714,0.14158
1656.35735,0.21778
1654.86756,0.12230
1653.37777,0.09950
1651.88798,0.26826
1650.39819,0.13988
1648.90841,0.15022
1647.41862,0.17380
1645.92883,0.17595
1644.43904,0.17815
1642.94925,0.12259
1641.45946,0.09018
1639.96968,0.14697
1638.47989,0.16747
1636.99010,0.05263
1635.50031,0.21850
1634.01052,0.21930
1632.52073,0.21353
1631.03094,0.16818
1629.54116,0.30117
1628.05137,0.13702
1626.56158,0.13801
1625.07179,0.11592
1623.58200,0.16321
1622.09221,0.04543
1620.60243,0.11591
1619.11264,0.21284
1617.62285,0.22395
1616.13306,0.14926
1614.64327,0.20337
1613.15348,0.27073
1611.66370,0.19284
1610.17391,0.15461
1608.68412,0.17255
1607.19433,0.22355
1605.70454,0.21515
1604.21475,0.18533
1602.72496,0.15554
1601.23518,0.14725
1599.74539,0.14890
1598.25560,0.21333
1596.76581,0.22166
1595.27602,0.20362
1593.78623,0.20872
1592.29645,0.24028
1590.80666,0.16621
1589.31687,0.12850
1587.82708,0.01158
1586.33729,0.25933
1584.84750,0.17692
1583.35771,0.29597
1581.86793,0.28958
1580.37814,0.15445
1578.88835,0.23068
1577.39856,0.10223
1575.90877,0.23797
1574.41898,0.17894
1572.92920,0.13314
1571.43941,0.08078
1569.94962,0.08129
1568.45983,0.08184
1566.97004,0.24092
1565.48025,0.15569
1563.99047,0.23230
1562.50068,0.19007
1561.01089,0.18420
1559.52110,0.17836
1558.03131,0.20228
1556.54152,0.02812
1555.05173,0.12806
1553.56195,0.12568
1552.07216,0.15305
1550.58237,0.13093
1549.09258,0.16168
1547.60279,0.10661
1546.11300,0.11431
1544.62322,0.11546
1543.13343,0.15626
1541.64364,0.18719
1540.15385,0.16203
1538.66406,0.13690
1537.17427,0.10190
1535.68448,0.05374
1534.19470,0.16410
1532.70491,0.10610
1531.21512,0.12739
1529.72533,0.16853
1528.23554,0.01158
1526.74575,0.14208
1525.25597,0.12403
1523.76618,0.11261
1522.27639,0.12105
1520.78660,0.08990
1519.29681,0.12483
1517.80702,0.13668
1516.31724,0.04620
1514.82745,0.13407
1513.33766,0.08495
1511.84787,0.03586
1510.35808,0.06110
1508.86829,0.02694
1507.37850,0.10179
1505.88872,0.01158
1504.39893,0.05265
1502.90914,0.10037
1501.41935,0.10850
1499.92956,0.14638
1498.43977,0.16119
1496.94999,0.17273
1495.46020,0.17110
1493.97041,0.20253
1492.48062,0.17456
1490.99083,0.26220
1489.50104,0.33336
1488.01125,0.35669
1486.52147,0.38004
1485.03168,0.43151
1483.54189,0.52263
1482.05210,0.55106
1480.56231,0.56301
1479.07252,0.65424
1477.58274,0.78844
1476.09295,0.87645
1474.60316,0.94799
1473.11337,0.93701
1471.62358,0.93597
1470.13379,0.88214
1468.64401,0.92411
1467.15422,0.96281
1465.66443,0.82654
1464.17464,0.69031
1462.68485,0.83478
1461.19506,0.71843
1459.70527,0.74081
1458.21549,0.52548
1456.72570,0.47528
1455.23591,0.48126
1453.74612,0.46086
1452.25633,0.43389
1450.76654,0.17581
1449.27676,0.22156
1447.78697,0.30367
1446.29718,0.20421
1444.80739,0.22530
1443.31760,0.24643
1441.82781,0.12066
1440.33802,0.25909
1438.84824,0.10368
1437.35845,0.12991
1435.86866,0.24534
1434.37887,0.04711
1432.88908,0.18902
1431.39929,0.25833
1429.90951,0.13286
1428.41972,0.19233
1426.92993,0.26175
1425.44014,0.17601
1423.95035,0.19763
1422.46056,0.21928
1420.97078,0.29215
1419.48099,0.30563
1417.99120,0.21677
1416.50141,0.17418
1415.01162,0.13163
1413.52183,0.12874
1412.03204,0.27117
1410.54226,0.24854
1409.05247,0.30520
1407.56268,0.31897
1406.07289,0.33607
1404.58310,0.33671
1403.09331,0.33738
1401.60353,0.42724
1400.11374,0.52044
1398.62395,0.62689
1397.13416,0.46591
1395.64437,0.61536
1394.15458,0.55021
1392.66479,0.56105
1391.17501,0.66438
1389.68522,0.65217
1388.19543,0.75227
1386.70564,0.65925
1385.21585,0.56625
1383.72606,0.71930
1382.23628,0.66435
1380.74649,0.65237
1379.25670,0.76921
1377.76691,0.76060
1376.27712,0.68930
1374.78733,0.76002
1373.29755,0.80766
1371.80776,0.85864
1370.31797,1.00872
1368.82818,1.09114
1367.33839,1.17360
1365.84860,1.15208
1364.35881,1.34854
1362.86903,1.23794
1361.37924,1.41136
1359.88945,1.26781
1358.39966,1.14082
1356.90987,1.13603
1355.42008,1.18412
1353.93030,1.35111
1352.44051,1.21601
1350.95072,1.08095
1349.46093,1.00040
1347.97114,1.03216
1346.48135,0.90546
1344.99156,0.84814
1343.50178,0.84039
1342.01199,0.86240
1340.52220,0.75896
1339.03241,0.70509
1337.54262,0.73711
1336.05283,0.68497
1334.56305,0.63286
1333.07326,0.57253
1331.58347,0.50234
1330.09368,0.47841
1328.60389,0.44461
1327.11410,0.37123
1325.62432,0.39694
1324.13453,0.31373
1322.64474,0.23715
1321.15495,0.17052
1319.66516,0.23105
1318.17537,0.29162
1316.68558,0.27463
1315.19580,0.15531
1313.70601,0.10868
1312.21622,0.19747
1310.72643,0.20704
1309.23664,0.14731
1307.74685,0.10412
1306.25707,0.19966
1304.76728,0.17802
1303.27749,0.15641
1301.78770,0.27517
1300.29791,0.21896
1298.80812,0.25525
1297.31834,0.21563
1295.82855,0.23218
1294.33876,0.34782
1292.84897,0.24887
1291.35918,0.15987
1289.86939,0.24756
1288.37960,0.33529
1286.88982,0.32895
1285.40003,0.43491
1283.91024,0.42534
1282.42045,0.53138
1280.93066,0.31385
1279.44087,0.45629
1277.95109,0.28176
1276.46130,0.34832
1274.97151,0.39016
1273.48172,0.43203
1271.99193,0.40955
1270.50214,0.46305
1269.01235,0.49347
1267.52257,0.51073
1266.03278,0.57094
1264.54299,0.41987
1263.05320,0.47025
1261.56341,0.42492
1260.07362,0.37962
1258.58384,0.42681
1257.09405,0.34526
1255.60426,0.38263
1254.11447,0.31106
1252.62468,0.39472
1251.13489,0.31332
1249.64511,0.28810
1248.15532,0.26291
1246.66553,0.33186
1245.17574,0.40085
1243.68595,0.35596
1242.19616,0.35734
1240.70637,0.29270
1239.21659,0.33047
1237.72680,0.19658
1236.23701,0.20801
1234.74722,0.29542
1233.25743,0.23593
1231.76764,0.17647
1230.27786,0.18145
1228.78807,0.30533
1227.29828,0.22452
1225.80849,0.22630
1224.31870,0.19510
1222.82891,0.11110
1221.33912,0.15262
1219.84934,0.18097
1218.35955,0.20935
1216.86976,0.25759
1215.37997,0.12094
1213.89018,0.17255
1212.40039,0.23741
1210.91061,0.17682
1209.42082,0.13278
1207.93103,0.07557
1206.44124,0.01840
1204.95145,0.15938
1203.46166,0.07587
1201.97188,0.12778
1200.48209,0.09717
1198.99230,0.16566
1197.50251,0.13182
1196.01272,0.00887
1194.52293,0.05966
1193.03314,0.11049
1191.54336,0.05899
1190.05357,0.13631
1188.56378,0.10140
1187.07399,0.13917
1185.58420,0.13405
1184.09441,0.01670
1182.60463,0.06283
1181.11484,0.10901
1179.62505,0.01158
1178.13526,0.15427
1176.64547,0.13189
1175.15568,0.20201
1173.66589,0.18302
1172.17611,0.26312
1170.68632,0.24749
1169.19653,0.23191
1167.70674,0.32863
1166.21695,0.19425
1164.72716,0.31415
1163.23738,0.43740
1161.74759,0.36257
1160.25780,0.49250
1158.76801,0.44250
1157.27822,0.39254
1155.78843,0.66457
1154.29865,0.62624
1152.80886,0.65068
1151.31907,0.74782
1149.82928,0.73601
1148.33949,0.71765
1146.84970,0.79342
1145.35991,0.86924
1143.87013,0.79154
1142.38034,0.77993
1140.89055,0.74524
1139.40076,1.01107
1137.91097,0.96324
1136.42118,1.02442
1134.93140,1.02950
1133.44161,1.03462
1131.95182,1.14874
1130.46203,1.24308
1128.97224,1.24171
1127.48245,1.29981
1125.99266,1.31832
1124.50288,1.27413
1123.01309,1.23988
1121.52330,1.20567
1120.03351,1.32009
1118.54372,1.17368
1117.05393,1.25185
1115.56415,0.98335
1114.07436,1.10122
1112.58457,1.04742
1111.09478,0.99365
1109.60499,1.05550
1108.11520,1.09096
1106.62542,1.00760
1105.13563,0.96719
1103.64584,0.92682
1102.15605,1.04168
1100.66626,1.03771
1099.17647,1.03378
1097.68668,1.06290
1096.19690,0.99630
1094.70711,1.00238
1093.21732,1.19011
1091.72753,1.35146
1090.23774,1.38737
1088.74795,1.42332
1087.25817,1.44940
1085.76838,1.35995
1084.27859,1.52808
1082.78880,1.37927
1081.29901,1.33285
1079.80922,1.32940
1078.31943,1.29296
1076.82965,1.25656
1075.33986,1.43483
1073.85007,1.49426
1072.36028,1.48769
1070.87049,1.62645
1069.38070,1.62656
1067.89092,1.57222
1066.40113,1.51792
1064.91134,1.36624
1063.42155,1.34008
1061.93176,1.25122
1060.44197,1.34401
1058.95219,1.41372
1057.46240,1.35964
1055.97261,1.30560
1054.48282,1.08154
1052.99303,1.05564
1051.50324,1.01657
1050.01345,0.98744
1048.52367,0.89561
1047.03388,0.89958
1045.54409,0.90358
1044.05430,0.74582
1042.56451,0.83575
1041.07472,0.57571
1039.58494,0.55674
1038.09515,0.64678
1036.60536,0.59653
1035.11557,0.54631
1033.62578,0.54730
1032.13599,0.58136
1030.64620,0.48667
1029.15642,0.62647
1027.66663,0.58139
1026.17684,0.53634
1024.68705,0.63662
1023.19726,0.68081
1021.70747,0.79437
1020.21769,1.12591
1018.72790,1.11737
1017.23811,1.17491
1015.74832,1.23249
1014.25853,1.30331
1012.76874,1.41380
1011.27896,1.46158
1009.78917,1.71082
1008.29938,1.66622
1006.80959,1.74053
1005.31980,1.81488
1003.83001,1.74067
1002.34022,1.71603
1000.85044,1.76738
999.36065,1.68338
997.87086,1.72489
996.38107,1.76644
994.89128,1.51415
993.40149,1.67134
991.91171,1.70970
990.42192,1.70187
988.93213,1.73039
987.44234,1.71603
985.95255,1.70170
984.46276,1.49260
982.97297,1.70288
981.48319,1.44102
979.99340,1.56883
978.50361,1.42261
977.01382,1.27642
975.52403,1.15999
974.03424,1.08983
972.54446,1.00320
971.05467,0.88688
969.56488,0.86305
968.07509,0.93503
966.58530,1.00704
965.09551,0.89747
963.60573,0.81106
962.11594,0.77751
960.62615,0.67797
959.13636,0.65275
957.64657,0.62757
956.15678,0.63710
954.66699,0.67969
953.17721,0.65298
951.68742,0.49091
950.19763,0.55177
948.70784,0.61267
947.21805,0.49034
945.72826,0.61570
944.23848,0.53307
942.74869,0.50331
941.25890,0.61558
939.76911,0.71797
938.27932,0.82041
936.78953,0.85353
935.29974,0.82726
933.80996,0.99254
932.32017,1.04229
930.83038,1.09538
929.34059,1.14850
927.85080,1.14883
926.36101,1.37374
924.87123,1.41046
923.38144,1.49345
921.89165,1.47742
920.40186,1.46143
918.91207,1.45868
917.42228,1.41964
915.93250,1.28158
914.44271,1.17328
912.95292,1.18388
911.46313,1.19452
909.97334,1.10284
908.48355,1.15649
906.99376,0.94601
905.50398,0.76528
904.01419,0.83719
902.52440,0.90915
901.03461,0.90354
899.54482,0.81872
898.05503,0.82310
896.56525,1.02893
895.07546,0.93431
893.58567,0.83974
892.09588,0.96644
890.60609,1.03373
889.11630,0.97559
887.62651,1.09579
886.13673,1.14834
884.64694,1.20093
883.15715,1.10991
881.66736,1.11469
880.17757,1.27471
878.68778,1.41494
877.19800,1.55522
875.70821,1.49081
874.21842,1.59483
872.72863,1.69890
871.23884,1.79309
869.74905,1.75525
868.25927,1.71743
866.76948,1.91080
865.27969,1.88297
863.78990,1.86508
862.30011,1.88025
860.81032,1.82777
859.32053,1.77532
857.83075,1.75097
856.34096,1.81252
854.85117,1.71230
853.36138,1.83996
851.87159,1.84218
850.38180,1.84444
848.89202,1.71135
847.40223,1.37688
845.91244,1.30660
844.42265,1.28094
842.93286,1.25532
841.44307,1.02665
839.95329,0.80463
838.46350,0.75105
836.97371,0.56543
835.48392,0.57136
833.99413,0.57733
832.50434,0.48097
831.01455,0.44408
829.52477,0.50299
828.03498,0.38033
826.54519,0.39474
825.05540,0.40918
823.56561,0.20408
822.07582,0.38865
820.58604,0.30250
819.09625,0.27747
817.60646,0.25247
816.11667,0.18294
814.62688,0.30826
813.13709,0.27182
811.64730,0.22221
810.15752,0.23538
808.66773,0.24858
807.17794,0.11983
805.68815,0.18594
804.19836,0.16623
802.70857,0.09373
801.21879,0.02127
799.72900,0.01158
798.23921,0.03320
796.74942,0.09779
795.25963,0.13766
793.76984,0.17755
792.28006,0.06725
790.79027,0.13199
789.30048,0.13402
787.81069,0.11959
786.32090,0.06556
784.83111,0.01158
783.34132,0.10205
781.85154,0.02745
780.36175,0.11139
778.87196,0.09631
777.38217,0.08126
775.89238,0.04974
774.40259,0.09421
772.91281,0.02974
771.42302,0.03465
769.93323,0.03960
768.44344,0.06770
766.95365,0.02320
765.46386,0.08439
763.97407,0.15223
762.48429,0.14746
760.99450,0.14273
759.50471,0.06869
758.01492,0.09705
756.52513,0.13536
755.03534,0.10436
753.54556,0.07339
752.05577,0.11841
750.56598,0.01158
749.07619,0.08560
747.58640,0.06884
746.09661,0.05213
744.60683,0.13286
743.11704,0.03862
741.62725,0.07981
740.13746,0.09626
738.64767,0.11275
737.15788,0.07810
735.66809,0.08971
734.17831,0.08485
732.68852,0.09324
731.19873,0.10166
729.70894,0.00776
728.21915,0.07899
726.72936,0.01158
725.23958,0.02668
723.74979,0.07815
722.26000,0.12965
720.77021,0.16468
719.28042,0.31863
717.79063,0.32401
716.30084,0.25184
714.81106,0.17970
713.32127,0.31068
711.83148,0.30300
710.34169,0.21942
708.85190,0.20191
707.36211,0.18445
705.87233,0.17032
704.38254,0.17604
702.89275,0.18510
701.40296,0.18759
699.91317,0.19012
698.42338,0.25212
696.93360,0.22171
695.44381,0.29369
693.95402,0.27986
692.46423,0.26606
690.97444,0.35137
689.48465,0.27160
687.99486,0.34377
686.50508,0.31196
685.01529,0.28019
683.52550,0.36238
682.03571,0.21676
680.54592,0.27591
679.05613,0.25915
677.56635,0.24242
676.07656,0.26866
674.58677,0.18266
673.09698,0.09340
671.60719,0.21221
670.11740,0.33105
668.62761,0.13624
667.13783,0.11647
665.64804,0.09509
664.15825,0.07374
662.66846,0.07059
661.17867,0.03446
659.68888,0.01158
658.19910,0.10995
656.70931,0.20837
655.21952,0.10705
653.72973,0.10153
652.23994,0.02670
650.75015,0.03446
649.26037,0.04225
647.77058,0.12933
646.28079,0.05135
644.79100,0.07577
643.30121,0.08041
641.81142,0.08509
640.32163,0.18887
638.83185,0.17050
637.34206,0.04321
635.85227,0.07611
634.36248,0.10904
632.87269,0.01158
631.38290,0.14354
629.89312,0.08073
628.40333,0.11371
626.91354,0.14673
625.42375,0.24582
623.93396,0.09400
622.44417,0.07430
620.95438,0.05463
619.46460,0.10765
617.97481,0.13428
616.48502,0.12463
614.99523,0.11007
613.50544,0.09554
612.01565,0.13883
610.52587,0.14915
609.03608,0.24535
607.54629,0.28875
606.05650,0.33220
604.56671,0.26011
603.07692,0.31683
601.58714,0.31416
600.09735,0.31152
598.60756,0.24288
597.11777,0.08182
595.62798,0.25760
594.13819,0.30960
592.64840,0.36163
591.15862,0.12807
589.66883,0.20824
588.17904,0.20921
586.68925,0.22671
585.19946,0.24426
583.70967,0.31137
582.21989,0.38843
580.73010,0.36811
579.24031,0.34783
577.75052,0.36887
576.26073,0.46589
574.77094,0.65540
573.28115,0.59564
571.79137,0.53592
570.30158,0.72555
568.81179,0.59161
567.32200,0.73672
565.83221,0.88188
564.34242,0.75796
562.85264,0.97749
561.36285,1.01874
559.87306,1.12112
558.38327,1.22353
556.89348,1.33094
555.40369,1.53084
553.91391,1.61355
552.42412,1.69631
550.93433,1.65857
549.44454,1.81899
547.95475,1.96954
546.46496,1.98475
544.97517,2.00000
543.48539,1.96245
541.99560,1.82918
540.50581,1.82142
539.01602,1.81370
537.52623,1.88526
536.03644,1.82148
534.54666,1.65868
533.05687,1.67752
531.56708,1.69640
530.07729,1.89693
528.58750,1.64512
527.09771,1.65586
525.60792,1.66663
524.11814,1.30266
522.62835,1.37460
521.13856,1.22864
519.64877,1.21479
518.15898,1.20099
516.66919,1.23345
515.17941,1.05462
513.68962,1.09540
512.19983,1.13623
510.71004,1.10280
509.22025,1.17507
507.73046,1.22096
506.24068,1.21406
504.75089,1.20719
503.26110,1.09139
501.77131,1.09780
500.28152,1.03656
498.79173,0.97536
497.30194,0.82339
495.81216,0.83325
494.32237,0.83655
492.83258,0.83989
491.34279,0.76071
489.85300,0.74761
488.36321,0.77747
486.87343,0.69510
485.38364,0.61277
483.89385,0.48424
482.40406,0.41519
480.91427,0.34288
479.42448,0.27060
477.93469,0.20496
476.44491,0.11295
474.95512,0.06225
473.46533,0.01158
471.97554,0.05652
470.48575,0.19727
468.99596,0.08709
467.50618,0.22626
466.01639,0.36546
464.52660,0.29172
463.03681,0.31707
461.54702,0.31110
460.05723,0.30516
458.56745,0.54856
457.07766,0.73587
455.58787,0.85387
454.09808,0.97190
452.60829,1.10318
451.11850,1.14534
449.62871,1.14792
448.13893,1.15053
446.64914,1.39423
445.15935,1.57523
443.66956,1.42606
442.17977,1.38260
440.68998,1.33916
439.20020,1.24624
437.71041,1.19298
436.22062,1.14636
434.73083,1.09977
433.24104,1.10276
431.75125,1.09257
430.26146,1.20460
428.77168,1.31666
427.28189,1.54103
425.79210,1.33617
424.30231,1.42193
422.81252,1.50772
421.32273,1.40864
419.83295,1.67942
418.34316,1.69268
416.85337,1.70598
415.36358,1.78536
413.87379,1.77562
412.38400,1.79233
410.89422,1.80907
409.40443,1.59472
407.91464,1.38040
406.42485,1.22555
404.93506,1.09221
403.44527,0.95890
401.95548,0.79095
400.46570,0.81127
398.97591,0.81510
397.48612,0.81898
395.99633,0.88893
394.50654,0.94241
393.01675,0.84403
391.52697,0.74569
390.03718,0.85541
388.54739,0.88593
387.05760,0.87025
385.56781,0.85460
384.07802,0.58474
382.58824,0.70786
381.09845,0.62134
379.60866,0.53485
378.11887,0.59204
376.62908,0.52379
375.13929,0.49025
373.64950,0.45674
372.15972,0.46124
370.66993,0.53513
369.18014,0.53971
367.69035,0.54432
366.20056,0.48294
364.71077,0.50744
363.22099,0.37348
361.73120,0.23956
360.24141,0.25427
358.75162,0.31854
357.26183,0.34323
355.77204,0.36795
354.28225,0.30356
352.79247,0.24581
351.30268,0.21121
349.81289,0.17664
348.32310,0.21146
346.83331,0.19018
345.34352,0.16893
343.85374,0.14773
342.36395,0.28175
340.87416,0.12524
339.38437,0.18174
337.89458,0.23828
336.40479,0.08187
334.91501,0.10711
333.42522,0.16542
331.93543,0.22375
330.44564,0.21939
328.95585,0.03675
327.46606,0.15629
325.97627,0.27587
324.48649,0.17259
322.99670,0.15521
321.50691,0.08337
320.01712,0.01158
318.52733,0.22762
317.03754,0.12010
315.54776,0.07205
314.05797,0.02404
312.56818,0.00909
311.07839,0.09324
309.58860,0.11468
308.09881,0.13617
306.60902,0.05862
305.11924,0.11320
303.62945,0.06380
302.13966,0.01444
300.64987,0.13516
299.16008,0.01158
