1778.52000,0.03521
1777.03021,0.04604
1775.54042,0.07603
1774.05063,0.01684
1772.56085,0.20305
1771.07106,0.14713
1769.58127,0.12631
1768.09148,0.14376
1766.60169,0.14532
1765.11190,0.01947
1763.62212,0.00199
1762.13233,0.10565
1760.64254,0.13606
1759.15275,0.19200
1757.66296,0.13964
1756.17317,0.08095
1754.68339,0.00000
1753.19360,0.11996
1751.70381,0.10295
1750.21402,0.14652
1748.72423,0.18694
1747.23444,0.08402
1745.74465,0.10223
1744.25487,0.00894
1742.76508,0.11128
1741.27529,0.02884
1739.78550,0.09940
1738.29571,0.09990
1736.80592,0.20559
1735.31614,0.11376
1733.82635,0.09845
1732.33656,0.06087
1730.84677,0.02334
1729.35698,0.10056
1727.86719,0.08541
1726.37740,0.19140
1724.88762,0.07437
1723.39783,0.00199
1721.90804,0.08864
1720.41825,0.04468
1718.92846,0.01351
1717.43867,0.09391
1715.94889,0.14249
1714.45910,0.09551
1712.96931,0.10912
1711.47952,0.05586
1709.98973,0.15240
1708.49994,0.03867
1707.01016,0.03651
1705.52037,0.03440
1704.03058,0.11517
1702.54079,0.18006
1701.05100,0.19400
1699.56121,0.18887
1698.07142,0.14554
1696.58164,0.09906
1695.09185,0.21195
1693.60206,0.17512
1692.11227,0.18294
1690.62248,0.21311
1689.13269,0.24013
1687.64291,0.19391
1686.15312,0.22420
1684.66333,0.15257
1683.17354,0.21799
1681.68375,0.17512
1680.19396,0.18328
1678.70417,0.32530
1677.21439,0.30168
1675.72460,0.19206
1674.23481,0.15896
1672.74502,0.25335
1671.25523,0.18210
1669.76544,0.23834
1668.27566,0.19266
1666.78587,0.15658
1665.29608,0.12691
1663.80629,0.10366
1662.31650,0.14418
1660.82671,0.21342
1659.33693,0.21260
1657.84714,0.20864
1656.35735,0.10593
1654.86756,0.09886
1653.37777,0.07590
1651.88798,0.15496
1650.39819,0.18306
1648.90841,0.16660
1647.41862,0.13107
1645.92883,0.11309
1644.43904,0.09517
1642.94925,0.14260
1641.45946,0.10723
1639.96968,0.12607
1638.47989,0.20231
1636.99010,0.13520
1635.50031,0.10000
1634.01052,0.13813
1632.52073,0.03928
1631.03094,0.16990
1629.54116,0.24320
1628.05137,0.25282
1626.56158,0.17325
1625.07179,0.13515
1623.58200,0.01425
1622.09221,0.03041
1620.60243,0.00199
1619.11264,0.04326
1617.62285,0.01127
1616.13306,0.18644
1614.64327,0.22146
1613.15348,0.16092
1611.66370,0.05581
1610.17391,0.13556
1608.68412,0.20898
1607.19433,0.27288
1605.70454,0.06597
1604.21475,0.12996
1602.72496,0.19398
1601.23518,0.15290
1599.74539,0.05449
1598.25560,0.06448
1596.76581,0.14141
1595.27602,0.13555
1593.78623,0.02775
1592.29645,0.19404
1590.80666,0.02579
1589.31687,0.16029
1587.82708,0.05585
1586.33729,0.08528
1584.84750,0.20079
1583.35771,0.16658
1581.86793,0.10692
1580.37814,0.12378
1578.88835,0.13430
1577.39856,0.10981
1575.90877,0.01208
1574.41898,0.01317
1572.92920,0.10990
1571.43941,0.11426
1569.94962,0.12184
1568.45983,0.12947
1566.97004,0.10528
1565.48025,0.02059
1563.99047,0.14305
1562.50068,0.19546
1561.01089,0.14913
1559.52110,0.12196
1558.03131,0.01835
1556.54152,0.09324
1555.05173,0.10761
1553.56195,0.17302
1552.07216,0.14605
1550.58237,0.17968
1549.09258,0.02215
1547.60279,0.15464
1546.11300,0.10873
1544.62322,0.10428
1543.13343,0.16997
1541.64364,0.13375
1540.15385,0.17085
1538.66406,0.20799
1537.17427,0.19419
1535.68448,0.00199
1534.19470,0.09538
1532.70491,0.04860
1531.21512,0.08153
1529.72533,0.13680
1528.23554,0.09333
1526.74575,0.21561
1525.25597,0.05433
1523.76618,0.14163
1522.27639,0.09515
1520.78660,0.13474
1519.29681,0.03735
1517.80702,0.08659
1516.31724,0.07851
1514.82745,0.05454
1513.33766,0.03220
1511.84787,0.00991
1510.35808,0.00199
1508.86829,0.11110
1507.37850,0.13102
1505.88872,0.13187
1504.39893,0.11683
1502.90914,0.05084
1501.41935,0.02951
1499.92956,0.07195
1498.43977,0.08894
1496.94999,0.14739
1495.46020,0.09436
1493.97041,0.26443
1492.48062,0.34531
1490.99083,0.34658
1489.50104,0.32239
1488.01125,0.37154
1486.52147,0.42073
1485.03168,0.43490
1483.54189,0.57977
1482.05210,0.59403
1480.56231,0.77403
1479.07252,0.68641
1477.58274,0.84419
1476.09295,0.91279
1474.60316,0.94637
1473.11337,1.04692
1471.62358,1.09971
1470.13379,1.08563
1468.64401,0.88359
1467.15422,0.88234
1465.66443,0.92414
1464.17464,0.96599
1462.68485,0.90750
1461.19506,0.75347
1459.70527,0.73012
1458.21549,0.59847
1456.72570,0.58476
1455.23591,0.62845
1453.74612,0.50012
1452.25633,0.41325
1450.76654,0.25950
1449.27676,0.40533
1447.78697,0.40143
1446.29718,0.31154
1444.80739,0.28543
1443.31760,0.25935
1441.82781,0.30023
1440.33802,0.12766
1438.84824,0.12083
1437.35845,0.23193
1435.86866,0.26342
1434.37887,0.19936
1432.88908,0.24368
1431.39929,0.18607
1429.90951,0.17311
1428.41972,0.20163
1426.92993,0.29391
1425.44014,0.31294
1423.95035,0.33202
1422.46056,0.35114
1420.97078,0.22372
1419.48099,0.37675
1417.99120,0.25579
1416.50141,0.24003
1415.01162,0.29441
1413.52183,0.27235
1412.03204,0.27264
1410.54226,0.42274
1409.05247,0.28929
1407.56268,0.34387
1406.07289,0.31884
1404.58310,0.39900
1403.09331,0.47921
1401.60353,0.60725
1400.11374,0.61425
1398.62395,0.56075
1397.13416,0.63793
1395.64437,0.72153
1394.15458,0.82429
1392.66479,0.81238
1391.17501,0.80051
1389.68522,0.80143
1388.19543,0.80239
1386.70564,0.78108
1385.21585,0.75982
1383.72606,0.82464
1382.23628,0.95322
1380.74649,0.82693
1379.25670,0.89506
1377.76691,0.89631
1376.27712,0.99001
1374.78733,0.86708
1373.29755,0.98317
1371.80776,1.04832
1370.31797,1.05615
1368.82818,1.08155
1367.33839,1.10700
1365.84860,1.36350
1364.35881,1.45754
1362.86903,1.47514
1361.37924,1.35895
1359.88945,1.53596
1358.39966,1.50908
1356.90987,1.34203
1355.42008,1.46500
1353.93030,1.61987
1352.44051,1.53261
1350.95072,1.44539
1349.46093,1.26262
1347.97114,1.05440
1346.48135,1.15850
1344.99156,1.09375
1343.50178,1.06410
1342.01199,1.02493
1340.52220,0.77550
1339.03241,0.85431
1337.54262,0.77065
1336.05283,0.79060
1334.56305,0.81059
1333.07326,0.68245
1331.58347,0.59259
1330.09368,0.63023
1328.60389,0.55001
1327.11410,0.44753
1325.62432,0.50442
1324.13453,0.43388
1322.64474,0.32515
1321.15495,0.42677
1319.66516,0.35318
1318.17537,0.27963
1316.68558,0.19656
1315.19580,0.27922
1313.70601,0.26634
1312.21622,0.21526
1310.72643,0.28849
1309.23664,0.22156
1307.74685,0.33312
1306.25707,0.25034
1304.76728,0.22018
1303.27749,0.19006
1301.78770,0.30816
1300.29791,0.31796
1298.80812,0.32142
1297.31834,0.27076
1295.82855,0.41133
1294.33876,0.46908
1292.84897,0.45679
1291.35918,0.37761
1289.86939,0.40682
1288.37960,0.43607
1286.88982,0.51953
1285.40003,0.53293
1283.91024,0.48583
1282.42045,0.35592
1280.93066,0.37264
1279.44087,0.47224
1277.95109,0.63243
1276.46130,0.57916
1274.97151,0.54824
1273.48172,0.51737
1271.99193,0.66816
1270.50214,0.64056
1269.01235,0.67991
1267.52257,0.59185
1266.03278,0.53887
1264.54299,0.55286
1263.05320,0.59875
1261.56341,0.62397
1260.07362,0.64923
1258.58384,0.63471
1257.09405,0.65209
1255.60426,0.60260
1254.11447,0.49579
1252.62468,0.55153
1251.13489,0.46393
1249.64511,0.49426
1248.15532,0.40037
1246.66553,0.46265
1245.17574,0.52497
1243.68595,0.48219
1242.19616,0.51592
1240.70637,0.39355
1239.21659,0.49110
1237.72680,0.40705
1236.23701,0.47600
1234.74722,0.41435
1233.25743,0.33680
1231.76764,0.25930
1230.27786,0.43038
1228.78807,0.41988
1227.29828,0.31701
1225.80849,0.40537
1224.31870,0.25797
1222.82891,0.37191
1221.33912,0.36480
1219.84934,0.36570
1218.35955,0.36664
1216.86976,0.33416
1215.37997,0.25393
1213.89018,0.22472
1212.40039,0.18919
1210.91061,0.24929
1209.42082,0.30943
1207.93103,0.25490
1206.44124,0.20041
1204.95145,0.27024
1203.46166,0.18078
1201.97188,0.10411
1200.48209,0.00199
1198.99230,0.14415
1197.50251,0.35645
1196.01272,0.22465
1194.52293,0.14547
1193.03314,0.06634
1191.54336,0.21826
1190.05357,0.06114
1188.56378,0.05701
1187.07399,0.16445
1185.58420,0.16678
1184.09441,0.10542
1182.60463,0.18590
1181.11484,0.26642
1179.62505,0.14146
1178.13526,0.14399
1176.64547,0.17525
1175.15568,0.15556
1173.66589,0.30799
1172.17611,0.36167
1170.68632,0.32777
1169.19653,0.29392
1167.70674,0.39234
1166.21695,0.36334
1164.72716,0.49690
1163.23738,0.39470
1161.74759,0.33078
1160.25780,0.48040
1158.76801,0.55039
1157.27822,0.62043
1155.78843,0.67776
1154.29865,0.75107
1152.80886,0.83716
1151.31907,0.76716
1149.82928,0.93619
1148.33949,0.95549
1146.84970,0.95094
1145.35991,0.94643
1143.87013,0.85433
1142.38034,0.98214
1140.89055,0.94430
1139.40076,0.97978
1137.91097,1.06630
1136.42118,1.21020
1134.93140,1.25697
1133.44161,1.30377
1131.95182,1.18015
1130.46203,1.35609
1128.97224,1.40780
1127.48245,1.36077
1125.99266,1.35521
1124.50288,1.46759
1123.01309,1.47008
1121.52330,1.47261
1120.03351,1.47040
1118.54372,1.37264
1117.05393,1.19844
1115.56415,1.23460
1114.07436,1.26761
1112.58457,1.23215
1111.09478,1.19674
1109.60499,1.27130
1108.11520,1.18976
1106.62542,1.10508
1105.13563,1.09054
1103.64584,1.10473
1102.15605,1.15719
1100.66626,1.11569
1099.17647,1.07424
1097.68668,1.17781
1096.19690,1.17308
1094.70711,1.19389
1093.21732,1.10321
1091.72753,1.40133
1090.23774,1.43182
1088.74795,1.46235
1087.25817,1.37821
1085.76838,1.44388
1084.27859,1.40125
1082.78880,1.38734
1081.29901,1.51686
1079.80922,1.40744
1078.31943,1.38569
1076.82965,1.36398
1075.33986,1.46499
1073.85007,1.54056
1072.36028,1.71813
1070.87049,1.57709
1069.38070,1.53807
1067.89092,1.50386
1066.40113,1.46970
1064.91134,1.51046
1063.42155,1.63411
1061.93176,1.48695
1060.44197,1.35577
1058.95219,1.39351
1057.46240,1.34685
1055.97261,1.30024
1054.48282,1.29668
1052.99303,1.29635
1051.50324,1.06664
1050.01345,1.07914
1048.52367,1.00564
1047.03388,0.92263
1045.54409,0.83967
1044.05430,0.88101
1042.56451,0.60694
1041.07472,0.73121
1039.58494,0.62929
1038.09515,0.49555
1036.60536,0.51161
1035.11557,0.52772
1033.62578,0.59803
1032.13599,0.39117
1030.64620,0.51574
1029.15642,0.60211
1027.66663,0.63117
1026.17684,0.66027
1024.68705,0.73084
1023.19726,0.80145
1021.70747,0.71596
1020.21769,0.96509
1018.72790,1.00078
1017.23811,1.07315
1015.74832,1.14556
1014.25853,1.35025
1012.76874,1.52312
1011.27896,1.72470
1009.78917,1.59175
1008.29938,1.71695
1006.80959,1.70358
1005.31980,1.69024
1003.83001,1.62438
1002.34022,1.79435
1000.85044,1.77955
999.36065,1.78710
997.87086,1.76282
996.38107,1.73859
994.89128,1.67616
993.40149,1.56916
991.91171,1.75217
990.42192,1.90017
988.93213,1.81879
987.44234,1.78047
985.95255,1.74219
984.46276,1.69917
982.97297,1.65301
981.48319,1.43163
979.99340,1.38873
978.50361,1.35066
977.01382,1.31263
975.52403,1.18064
974.03424,1.09330
972.54446,1.12391
971.05467,0.95699
969.56488,0.94944
968.07509,0.92441
966.58530,0.89942
965.09551,0.81233
963.60573,0.80813
962.11594,0.88683
960.62615,0.74251
959.13636,0.73047
957.64657,0.71848
956.15678,0.72405
954.66699,0.59583
953.17721,0.51864
951.68742,0.52433
950.19763,0.55397
948.70784,0.58365
947.21805,0.52893
945.72826,0.55710
944.23848,0.56619
942.74869,0.59763
941.25890,0.66098
939.76911,0.68613
938.27932,0.71132
936.78953,0.82577
935.29974,0.88610
933.80996,0.94965
932.32017,0.97182
930.83038,1.10397
929.34059,1.23616
927.85080,1.15968
926.36101,1.37639
924.87123,1.44020
923.38144,1.43075
921.89165,1.45959
920.40186,1.48847
918.91207,1.60343
917.42228,1.47307
915.93250,1.38736
914.44271,1.12643
912.95292,1.15234
911.46313,1.17828
909.97334,1.08636
908.48355,1.10920
906.99376,0.98870
905.50398,0.87779
904.01419,0.87367
902.52440,0.86959
901.03461,0.90857
899.54482,0.83607
898.05503,0.92293
896.56525,0.91743
895.07546,0.91196
893.58567,0.90654
892.09588,1.08917
890.60609,1.05515
889.11630,0.89691
887.62651,1.18162
886.13673,1.18438
884.64694,1.18717
883.15715,1.17249
881.66736,1.18970
880.17757,1.39178
878.68778,1.37244
877.19800,1.35314
875.70821,1.45019
874.21842,1.65880
872.72863,1.85153
871.23884,1.74158
869.74905,1.72568
868.25927,1.70981
866.76948,1.92182
865.27969,1.89170
863.78990,1.83295
862.30011,1.76149
860.81032,1.79204
859.32053,1.82263
857.83075,1.83414
856.34096,1.88075
854.85117,1.80313
853.36138,1.76060
851.87159,1.81530
850.38180,1.87004
848.89202,1.61732
847.40223,1.46343
845.91244,1.41155
844.42265,1.35334
842.93286,1.29517
841.44307,1.16375
839.95329,0.98777
838.46350,0.80226
836.97371,0.71877
835.48392,0.56043
833.99413,0.40214
832.50434,0.46853
831.01455,0.42344
829.52477,0.45487
828.03498,0.38437
826.54519,0.39676
825.05540,0.40919
823.56561,0.38343
822.07582,0.31947
820.58604,0.30016
819.09625,0.20761
817.60646,0.11510
816.11667,0.29666
814.62688,0.32532
813.13709,0.31578
811.64730,0.30947
810.15752,0.22991
808.66773,0.15040
807.17794,0.04225
805.68815,0.14444
804.19836,0.01088
802.70857,0.00642
801.21879,0.00199
799.72900,0.04822
798.23921,0.13910
796.74942,0.21409
795.25963,0.14414
793.76984,0.07423
792.28006,0.18759
790.79027,0.06837
789.30048,0.12445
787.81069,0.23475
786.32090,0.16345
784.83111,0.09220
783.34132,0.06241
781.85154,0.08684
780.36175,0.16229
778.87196,0.08642
777.38217,0.01060
775.89238,0.03519
774.40259,0.00247
772.91281,0.17372
771.42302,0.15542
769.93323,0.13716
768.44344,0.03132
766.95365,0.00199
765.46386,0.11910
763.97407,0.16615
762.48429,0.11127
760.99450,0.05643
759.50471,0.12272
758.01492,0.10302
756.52513,0.00051
755.03534,0.10186
753.54556,0.20325
752.05577,0.12306
750.56598,0.16717
749.07619,0.09662
747.58640,0.11055
746.09661,0.12452
744.60683,0.14650
743.11704,0.26730
741.62725,0.09180
740.13746,0.17763
738.64767,0.26351
737.15788,0.12637
735.66809,0.07850
734.17831,0.00199
732.68852,0.13448
731.19873,0.26701
729.70894,0.10961
728.21915,0.06379
726.72936,0.10085
725.23958,0.27816
723.74979,0.28344
722.26000,0.28876
720.77021,0.11568
719.28042,0.33777
717.79063,0.39101
716.30084,0.36305
714.81106,0.33512
713.32127,0.27378
711.83148,0.31763
710.34169,0.31054
708.85190,0.32102
707.36211,0.33154
705.87233,0.26085
704.38254,0.23480
702.89275,0.29484
701.40296,0.26888
699.91317,0.24297
698.42338,0.26489
696.93360,0.39201
695.44381,0.33754
693.95402,0.27196
692.46423,0.20642
690.97444,0.09154
689.48465,0.25073
687.99486,0.27294
686.50508,0.34300
685.01529,0.41309
683.52550,0.38126
682.03571,0.25388
680.54592,0.29543
679.05613,0.26691
677.56635,0.23843
676.07656,0.28966
674.58677,0.31225
673.09698,0.27116
671.60719,0.22532
670.11740,0.17953
668.62761,0.17998
667.13783,0.28563
665.64804,0.18739
664.15825,0.08918
662.66846,0.11211
661.17867,0.02036
659.68888,0.08161
658.19910,0.13015
656.70931,0.17874
655.21952,0.07122
653.72973,0.00199
652.23994,0.32219
650.75015,0.28554
649.26037,0.24894
647.77058,0.21875
646.28079,0.25552
644.79100,0.18398
643.30121,0.21606
641.81142,0.24817
640.32163,0.23093
638.83185,0.14682
637.34206,0.05320
635.85227,0.11097
634.36248,0.16878
632.87269,0.00199
631.38290,0.19525
629.89312,0.24198
628.40333,0.21227
626.91354,0.18260
625.42375,0.09880
623.93396,0.35919
622.44417,0.30893
620.95438,0.25872
619.46460,0.16553
617.97481,0.12337
616.48502,0.23420
614.99523,0.18097
613.50544,0.12777
612.01565,0.16863
610.52587,0.30830
609.03608,0.41934
607.54629,0.42367
606.05650,0.42805
604.56671,0.23331
603.07692,0.28397
601.58714,0.27573
600.09735,0.26752
598.60756,0.28007
597.11777,0.26398
595.62798,0.14916
594.13819,0.18573
592.64840,0.22235
591.15862,0.28609
589.66883,0.08540
588.17904,0.20020
586.68925,0.30072
585.19946,0.40127
583.70967,0.57037
582.21989,0.41769
580.73010,0.37338
579.24031,0.32912
577.75052,0.45378
576.26073,0.60079
574.77094,0.55983
573.28115,0.64160
571.79137,0.72342
570.30158,0.65391
568.81179,0.75651
567.32200,0.78587
565.83221,0.81527
564.34242,0.90845
562.85264,1.03990
561.36285,1.16502
559.87306,1.22167
558.38327,1.27837
556.89348,1.36537
555.40369,1.53209
553.91391,1.55226
552.42412,1.57248
550.93433,1.63098
549.44454,1.79467
547.95475,1.91060
546.46496,1.82583
544.97517,1.74111
543.48539,1.82212
541.99560,1.83307
540.50581,1.83609
539.01602,1.83916
537.52623,2.00000
536.03644,1.75301
534.54666,1.83427
533.05687,1.82476
531.56708,1.81529
530.07729,1.87437
528.58750,1.74231
527.09771,1.61028
525.60792,1.47830
524.11814,1.40372
522.62835,1.23996
521.13856,1.22600
519.64877,1.14198
518.15898,1.05801
516.66919,1.06011
515.17941,1.03994
513.68962,1.07877
512.19983,1.11764
510.71004,1.06255
509.22025,1.11266
507.73046,1.00030
506.24068,0.97242
504.75089,0.94458
503.26110,0.97574
501.77131,0.97188
500.28152,0.90912
498.79173,0.84640
497.30194,0.69290
495.81216,0.66054
494.32237,0.74930
492.83258,0.83810
491.34279,0.75807
489.85300,0.61115
488.36321,0.60767
486.87343,0.62017
485.38364,0.63271
483.89385,0.54332
482.40406,0.25004
480.91427,0.28023
479.42448,0.31045
477.93469,0.21486
476.44491,0.09063
474.95512,0.08912
473.46533,0.08765
471.97554,0.11650
470.48575,0.00199
468.99596,0.18835
467.50618,0.19472
466.01639,0.20113
464.52660,0.24104
463.03681,0.31285
461.54702,0.32098
460.05723,0.32915
458.56745,0.47119
457.07766,0.68338
455.58787,0.75859
454.09808,0.83384
452.60829,0.92826
451.11850,1.16929
449.62871,1.16501
448.13893,1.16076
446.64914,1.42741
445.15935,1.52522
443.66956,1.42551
442.17977,1.37523
440.68998,1.32499
439.20020,1.42615
437.71041,1.34254
436.22062,1.23985
434.73083,1.13721
433.24104,1.23216
431.75125,1.17739
430.26146,1.25969
428.77168,1.34202
427.28189,1.43077
425.79210,1.56099
424.30231,1.56538
422.81252,1.56981
421.32273,1.80531
419.83295,1.76681
418.34316,1.81757
416.85337,1.86838
415.36358,1.76627
413.87379,1.63872
412.38400,1.70399
410.89422,1.76930
409.40443,1.53034
407.91464,1.54634
406.42485,1.27561
404.93506,1.09732
403.44527,0.91908
401.95548,0.85240
400.46570,0.89410
398.97591,0.82751
397.48612,0.76096
395.99633,0.99079
394.50654,0.81598
393.01675,0.72247
391.52697,0.62900
390.03718,0.92591
388.54739,0.75446
387.05760,0.70891
385.56781,0.66340
384.07802,0.64502
382.58824,0.68723
381.09845,0.58768
379.60866,0.48817
378.11887,0.62609
376.62908,0.48047
375.13929,0.46393
373.64950,0.44744
372.15972,0.44851
370.66993,0.62807
369.18014,0.52248
367.69035,0.41693
366.20056,0.48509
364.71077,0.61701
363.22099,0.40644
361.73120,0.19590
360.24141,0.22280
358.75162,0.34534
357.26183,0.31337
355.77204,0.28145
354.28225,0.18106
352.79247,0.16993
351.30268,0.25284
349.81289,0.33579
348.32310,0.11448
346.83331,0.17044
345.34352,0.20731
343.85374,0.24423
342.36395,0.08363
340.87416,0.13019
339.38437,0.10988
337.89458,0.08961
336.40479,0.03433
334.91501,0.12885
333.42522,0.10711
331.93543,0.08542
330.44564,0.02393
328.95585,0.15686
327.46606,0.17671
325.97627,0.19660
324.48649,0.22769
322.99670,0.06445
321.50691,0.08128
320.01712,0.09816
318.52733,0.11029
317.03754,0.03643
315.54776,0.09485
314.05797,0.15331
312.56818,0.13374
311.07839,0.12058
309.58860,0.06127
308.09881,0.00199
306.60902,0.12988
305.11924,0.21001
303.62945,0.15316
302.13966,0.09636
300.64987,0.12563
299.16008,0.00199
