1778.52000,0.25789
1777.03021,0.38106
1775.54042,0.00583
1774.05063,0.08822
1772.56085,0.30138
1771.07106,0.24493
1769.58127,0.14766
1768.09148,0.32008
1766.60169,0.19020
1765.11190,0.28097
1763.62212,0.22469
1762.13233,0.22566
1760.64254,0.40642
1759.15275,0.22769
1757.66296,0.51474
1756.17317,0.22986
1754.68339,0.16563
1753.19360,0.21583
1751.70381,0.33143
1750.21402,0.00583
1748.72423,0.29760
1747.23444,0.40147
1745.74465,0.31744
1744.25487,0.20077
1742.76508,0.15766
1741.27529,0.39241
1739.78550,0.25133
1738.29571,0.15931
1736.80592,0.29611
1735.31614,0.25318
1733.82635,0.25932
1732.33656,0.11842
1730.84677,0.18182
1729.35698,0.05733
1727.86719,0.16165
1726.37740,0.02089
1724.88762,0.29688
1723.39783,0.36863
1721.90804,0.05638
1720.41825,0.23443
1718.92846,0.11835
1717.43867,0.20659
1715.94889,0.22949
1714.45910,0.17889
1712.96931,0.12015
1711.47952,0.10231
1709.98973,0.08449
1708.49994,0.14026
1707.01016,0.18380
1705.52037,0.22738
1704.03058,0.35679
1702.54079,0.31464
1701.05100,0.29704
1699.56121,0.41021
1698.07142,0.23744
1696.58164,0.24445
1695.09185,0.22700
1693.60206,0.27494
1692.11227,0.30658
1690.62248,0.28923
1689.13269,0.19020
1687.64291,0.34451
1686.15312,0.29458
1684.66333,0.20383
1683.17354,0.54619
1681.68375,0.21854
1680.19396,0.23413
1678.70417,0.43767
1677.21439,0.28174
1675.72460,0.10132
1674.23481,0.28863
1672.74502,0.29621
1671.25523,0.33651
1669.76544,0.20527
1668.27566,0.22113
1666.78587,0.41679
1665.29608,0.20393
1663.80629,0.27710
1662.31650,0.30945
1660.82671,0.08036
1659.33693,0.36608
1657.84714,0.38218
1656.35735,0.31662
1654.86756,0.12036
1653.37777,0.00583
1651.88798,0.06134
1650.39819,0.19043
1648.90841,0.22966
1647.41862,0.23625
1645.92883,0.18976
1644.43904,0.14331
1642.94925,0.17452
1641.45946,0.20576
1639.96968,0.11448
1638.47989,0.24384
1636.99010,0.11994
1635.50031,0.11864
1634.01052,0.41153
1632.52073,0.36127
1631.03094,0.38460
1629.54116,0.30990
1628.05137,0.30061
1626.56158,0.05439
1625.07179,0.25761
1623.58200,0.23208
1622.09221,0.10853
1620.60243,0.12393
1619.11264,0.10668
1617.62285,0.26922
1616.13306,0.04776
1614.64327,0.14501
1613.15348,0.21778
1611.66370,0.23339
1610.17391,0.24903
1608.68412,0.11763
1607.19433,0.14969
1605.70454,0.36154
1604.21475,0.26702
1602.72496,0.17253
1601.23518,0.09850
1599.74539,-0.00000
1598.25560,0.20386
1596.76581,0.26067
1595.27602,0.18679
1593.78623,0.10477
1592.29645,0.15352
1590.80666,0.27585
1589.31687,0.22662
1587.82708,0.00583
1586.33729,0.30718
1584.84750,0.24087
1583.35771,0.44424
1581.86793,0.09202
1580.37814,0.21375
1578.88835,0.22112
1577.39856,0.43280
1575.90877,0.14609
1574.41898,0.12089
1572.92920,0.00583
1571.43941,0.02866
1569.94962,0.12507
1568.45983,0.22151
1566.97004,0.27713
1565.48025,0.25107
1563.99047,0.17604
1562.50068,0.31347
1561.01089,0.22215
1559.52110,0.14721
1558.03131,0.06414
1556.54152,0.12818
1555.05173,0.24128
1553.56195,0.20734
1552.07216,0.05904
1550.58237,0.28664
1549.09258,0.19560
1547.60279,0.08009
1546.11300,0.29963
1544.62322,0.25773
1543.13343,0.27306
1541.64364,0.19854
1540.15385,0.16492
1538.66406,0.13133
1537.17427,0.33474
1535.68448,0.13780
1534.19470,0.11249
1532.70491,0.20161
1531.21512,0.22540
1529.72533,0.33092
1528.23554,0.24038
1526.74575,0.14171
1525.25597,0.18198
1523.76618,0.30400
1522.27639,0.31165
1520.78660,0.24580
1519.29681,0.16365
1517.80702,0.19592
1516.31724,0.18737
1514.82745,0.39131
1513.33766,0.39101
1511.84787,0.39074
1510.35808,0.28428
1508.86829,0.03895
1507.37850,0.29209
1505.88872,0.30831
1504.39893,0.25919
1502.90914,0.00583
1501.41935,0.23805
1499.92956,0.38859
1498.43977,0.02439
1496.94999,0.26488
1495.46020,0.17040
1493.97041,0.44365
1492.48062,0.27569
1490.99083,0.19766
1489.50104,0.41381
1488.01125,0.54012
1486.52147,0.66647
1485.03168,0.57223
1483.54189,0.51072
1482.05210,0.62900
1480.56231,0.82902
1479.07252,0.71858
1477.58274,0.65721
1476.09295,1.09430
1474.60316,1.23727
1473.11337,0.97989
1471.62358,1.01671
1470.13379,0.96368
1468.64401,1.10680
1467.15422,0.93127
1465.66443,0.91103
1464.17464,0.89083
1462.68485,0.78895
1461.19506,0.67077
1459.70527,0.83044
1458.21549,0.67964
1456.72570,0.44717
1455.23591,0.78670
1453.74612,0.74223
1452.25633,0.28108
1450.76654,0.31022
1449.27676,0.42928
1447.78697,0.50751
1446.29718,0.43871
1444.80739,0.39854
1443.31760,0.35841
1441.82781,0.37959
1440.33802,0.38446
1438.84824,0.45474
1437.35845,0.51689
1435.86866,0.35845
1434.37887,0.39615
1432.88908,0.27047
1431.39929,0.15299
1429.90951,0.29702
1428.41972,0.49011
1426.92993,0.40542
1425.44014,0.46785
1423.95035,0.49763
1422.46056,0.52744
1420.97078,0.46741
1419.48099,0.61986
1417.99120,0.36379
1416.50141,0.57351
1415.01162,0.57081
1413.52183,0.48644
1412.03204,0.21418
1410.54226,0.42403
1409.05247,0.56039
1407.56268,0.37811
1406.07289,0.71881
1404.58310,0.65100
1403.09331,0.58322
1401.60353,0.65438
1400.11374,0.57850
1398.62395,0.60070
1397.13416,0.91710
1395.64437,0.84133
1394.15458,0.72474
1392.66479,0.84514
1391.17501,0.75313
1389.68522,0.76738
1388.19543,1.01862
1386.70564,0.98800
1385.21585,0.95742
1383.72606,1.06986
1382.23628,0.78196
1380.74649,0.79642
1379.25670,0.84360
1377.76691,1.05423
1376.27712,1.10149
1374.78733,0.95267
1373.29755,0.82023
1371.80776,1.02283
1370.31797,1.10291
1368.82818,1.09723
1367.33839,1.09158
1365.84860,1.43323
1364.35881,1.48077
1362.86903,1.27503
1361.37924,1.52691
1359.88945,1.32942
1358.39966,1.49966
1356.90987,1.31859
1355.42008,1.05584
1353.93030,1.49582
1352.44051,1.31894
1350.95072,1.14209
1349.46093,1.19814
1347.97114,1.28692
1346.48135,1.14694
1344.99156,0.92529
1343.50178,0.85893
1342.01199,0.76809
1340.52220,0.79167
1339.03241,0.81529
1337.54262,0.97786
1336.05283,0.94027
1334.56305,0.90272
1333.07326,0.78757
1331.58347,0.85222
1330.09368,0.59007
1328.60389,0.74468
1327.11410,0.54796
1325.62432,0.67813
1324.13453,0.52234
1322.64474,0.41561
1321.15495,0.60308
1319.66516,0.52094
1318.17537,0.43883
1316.68558,0.52835
1315.19580,0.25838
1313.70601,0.41334
1312.21622,0.23332
1310.72643,0.27396
1309.23664,0.32280
1307.74685,0.29814
1306.25707,0.33888
1304.76728,0.31838
1303.27749,0.29791
1301.78770,0.60023
1300.29791,0.59208
1298.80812,0.13457
1297.31834,0.59224
1295.82855,0.57603
1294.33876,0.47815
1292.84897,0.47836
1291.35918,0.42957
1289.86939,0.39716
1288.37960,0.36479
1286.88982,0.44684
1285.40003,0.60247
1283.91024,0.22702
1282.42045,0.51346
1280.93066,0.32601
1279.44087,0.30202
1277.95109,0.70296
1276.46130,0.36854
1274.97151,0.45905
1273.48172,0.54960
1271.99193,0.51761
1270.50214,0.54286
1269.01235,0.51095
1267.52257,0.55261
1266.03278,0.66784
1264.54299,0.75043
1263.05320,0.57975
1261.56341,0.65832
1260.07362,0.73693
1258.58384,0.47647
1257.09405,0.51838
1255.60426,0.69106
1254.11447,0.47974
1252.62468,0.51358
1251.13489,0.39221
1249.64511,0.59771
1248.15532,0.49276
1246.66553,0.42460
1245.17574,0.35648
1243.68595,0.39871
1242.19616,0.52268
1240.70637,0.36071
1239.21659,0.60731
1237.72680,0.55163
1236.23701,0.39793
1234.74722,0.30963
1233.25743,0.25405
1231.76764,0.19850
1230.27786,0.58423
1228.78807,0.33265
1227.29828,0.30990
1225.80849,0.32804
1224.31870,0.26450
1222.82891,0.05392
1221.33912,0.30095
1219.84934,0.24978
1218.35955,0.19863
1216.86976,0.42943
1215.37997,0.47233
1213.89018,0.29465
1212.40039,0.32945
1210.91061,0.51953
1209.42082,0.30926
1207.93103,0.22568
1206.44124,0.14215
1204.95145,0.14443
1203.46166,0.29384
1201.97188,0.10010
1200.48209,0.13518
1198.99230,0.21932
1197.50251,0.30349
1196.01272,0.44490
1194.52293,0.25134
1193.03314,0.05780
1191.54336,0.10127
1190.05357,0.21831
1188.56378,0.44977
1187.07399,0.34626
1185.58420,0.00583
1184.09441,0.31043
1182.60463,0.24329
1181.11484,0.17617
1179.62505,0.06416
1178.13526,0.08291
1176.64547,0.28147
1175.15568,0.25127
1173.66589,0.46623
1172.17611,0.68123
1170.68632,0.60211
1169.19653,0.52303
1167.70674,0.37862
1166.21695,0.62644
1164.72716,0.53112
1163.23738,0.41132
1161.74759,0.46315
1160.25780,0.58856
1158.76801,0.64454
1157.27822,0.70056
1155.78843,0.75253
1154.29865,0.73916
1152.80886,0.88109
1151.31907,0.61450
1149.82928,0.91174
1148.33949,0.94754
1146.84970,0.98747
1145.35991,1.02743
1143.87013,0.77735
1142.38034,1.14014
1140.89055,1.01270
1139.40076,1.01603
1137.91097,1.03574
1136.42118,0.94110
1134.93140,0.99764
1133.44161,1.05423
1131.95182,1.18848
1130.46203,1.10214
1128.97224,1.28549
1127.48245,1.29727
1125.99266,1.29275
1124.50288,1.09216
1123.01309,1.18985
1121.52330,1.28757
1120.03351,1.07075
1118.54372,1.18897
1117.05393,1.20918
1115.56415,1.20490
1114.07436,1.15981
1112.58457,1.22506
1111.09478,1.29035
1109.60499,1.16365
1108.11520,1.07785
1106.62542,0.82866
1105.13563,1.05342
1103.64584,1.02491
1102.15605,0.97194
1100.66626,0.95984
1099.17647,0.94779
1097.68668,1.02565
1096.19690,1.22612
1094.70711,0.96903
1093.21732,0.95712
1091.72753,1.16586
1090.23774,1.19487
1088.74795,1.22392
1087.25817,1.32654
1085.76838,1.33932
1084.27859,1.18871
1082.78880,1.45486
1081.29901,1.13273
1079.80922,1.14565
1078.31943,1.20354
1076.82965,1.26147
1075.33986,1.20913
1073.85007,1.50817
1072.36028,1.52127
1070.87049,1.60793
1069.38070,1.44951
1067.89092,1.49131
1066.40113,1.53314
1064.91134,1.41568
1063.42155,1.38813
1061.93176,0.98475
1060.44197,1.19423
1058.95219,1.32204
1057.46240,1.24152
1055.97261,1.16103
1054.48282,1.12552
1052.99303,0.96749
1051.50324,0.97291
1050.01345,1.15812
1048.52367,0.75506
1047.03388,0.67888
1045.54409,0.60273
1044.05430,0.45307
1042.56451,0.69566
1041.07472,0.60328
1039.58494,0.76423
1038.09515,0.34507
1036.60536,0.42438
1035.11557,0.50373
1033.62578,0.60762
1032.13599,0.60533
1030.64620,0.58673
1029.15642,0.51097
1027.66663,0.52920
1026.17684,0.54749
1024.68705,1.00295
1023.19726,0.58414
1021.70747,0.91711
1020.21769,0.94778
1018.72790,1.01118
1017.23811,0.91119
1015.74832,0.81123
1014.25853,1.02997
1012.76874,1.28144
1011.27896,1.32050
1009.78917,1.49850
1008.29938,1.48043
1006.80959,1.49508
1005.31980,1.50977
1003.83001,1.58986
1002.34022,1.65364
1000.85044,1.39878
999.36065,1.40544
997.87086,1.46116
996.38107,1.51691
994.89128,1.46647
993.40149,1.57132
991.91171,1.26766
990.42192,1.27452
988.93213,1.52656
987.44234,1.56618
985.95255,1.60584
984.46276,1.35137
982.97297,1.46464
981.48319,1.34098
979.99340,0.93138
978.50361,1.05292
977.01382,1.17450
975.52403,0.73232
974.03424,1.02556
972.54446,1.10639
971.05467,1.01567
969.56488,0.89229
968.07509,0.91195
966.58530,0.93164
965.09551,0.59592
963.60573,0.59526
962.11594,0.64365
960.62615,0.59403
959.13636,0.49133
957.64657,0.38866
956.15678,0.67416
954.66699,0.46126
953.17721,0.59975
951.68742,0.47680
950.19763,0.58676
948.70784,0.69675
947.21805,0.50037
945.72826,0.44293
944.23848,0.25479
942.74869,0.75305
941.25890,0.51595
939.76911,0.57713
938.27932,0.63835
936.78953,0.77722
935.29974,0.56478
933.80996,0.83447
932.32017,0.99796
930.83038,0.90002
929.34059,0.80212
927.85080,1.20268
926.36101,1.09667
924.87123,1.08875
923.38144,1.29331
921.89165,1.33857
920.40186,1.38387
918.91207,1.15548
917.42228,0.95164
915.93250,1.41785
914.44271,0.92809
912.95292,0.94905
911.46313,0.97005
909.97334,1.11773
908.48355,0.99581
906.99376,0.80038
905.50398,0.59681
904.01419,0.77324
902.52440,0.94970
901.03461,0.55014
899.54482,0.85332
898.05503,0.82152
896.56525,1.05940
895.07546,0.80297
893.58567,0.54658
892.09588,0.70286
890.60609,0.89186
889.11630,0.99101
887.62651,1.35984
886.13673,1.20985
884.64694,1.05989
883.15715,1.20004
881.66736,1.09510
880.17757,1.43959
878.68778,1.28569
877.19800,1.13182
875.70821,1.54996
874.21842,1.49422
872.72863,1.54473
871.23884,1.32564
869.74905,1.40074
868.25927,1.47588
866.76948,1.70629
865.27969,1.54454
863.78990,1.16221
862.30011,1.39273
860.81032,1.42310
859.32053,1.45351
857.83075,1.50437
856.34096,1.66150
854.85117,1.75330
853.36138,1.67353
851.87159,1.60607
850.38180,1.53863
848.89202,1.12396
847.40223,1.17508
845.91244,1.40599
844.42265,1.13851
842.93286,0.87107
841.44307,0.86513
839.95329,0.46701
838.46350,0.72262
836.97371,0.47165
835.48392,0.34738
833.99413,0.22313
832.50434,0.35631
831.01455,0.27708
829.52477,0.35313
828.03498,0.76424
826.54519,0.66468
825.05540,0.56517
823.56561,0.73124
822.07582,0.39892
820.58604,0.25457
819.09625,0.39624
817.60646,0.53794
816.11667,0.22211
814.62688,0.56816
813.13709,0.34228
811.64730,0.44326
810.15752,0.41355
808.66773,0.38388
807.17794,0.25619
805.68815,0.38183
804.19836,0.38495
802.70857,0.40853
801.21879,0.43214
799.72900,0.10852
798.23921,0.13629
796.74942,0.36837
795.25963,0.26956
793.76984,0.17079
792.28006,0.27224
790.79027,0.12042
789.30048,0.23828
787.81069,0.34801
786.32090,0.38423
784.83111,0.42049
783.34132,0.35056
781.85154,0.06005
780.36175,0.22715
778.87196,0.11647
777.38217,0.00583
775.89238,0.47140
774.40259,0.13625
772.91281,0.09529
771.42302,0.22187
769.93323,0.34849
768.44344,0.21775
766.95365,0.05436
765.46386,0.55287
763.97407,0.25882
762.48429,0.13231
760.99450,0.00583
759.50471,0.33509
758.01492,0.05156
756.52513,0.25015
755.03534,0.33030
753.54556,0.41048
752.05577,0.27417
750.56598,0.34217
749.07619,0.33666
747.58640,0.26991
746.09661,0.20319
744.60683,0.48378
743.11704,0.04535
741.62725,0.36686
740.13746,0.25942
738.64767,0.15203
737.15788,0.04058
735.66809,0.14162
734.17831,0.17732
732.68852,0.15586
731.19873,0.13444
729.70894,0.18659
728.21915,0.15706
726.72936,0.11123
725.23958,0.08178
723.74979,0.21987
722.26000,0.35799
720.77021,0.18156
719.28042,0.29933
717.79063,0.35176
716.30084,0.32661
714.81106,0.30149
713.32127,0.35402
711.83148,0.41477
710.34169,0.23042
708.85190,0.24630
707.36211,0.26221
705.87233,0.28224
704.38254,0.24511
702.89275,0.39595
701.40296,0.32212
699.91317,0.24833
698.42338,0.18683
696.93360,0.34598
695.44381,0.05576
693.95402,0.24358
692.46423,0.43143
690.97444,0.10864
689.48465,0.43956
687.99486,0.23123
686.50508,0.33343
685.01529,0.43566
683.52550,0.54611
682.03571,0.18267
680.54592,0.17879
679.05613,0.22805
677.56635,0.27735
676.07656,0.24907
674.58677,0.04106
673.09698,0.35602
671.60719,0.39321
670.11740,0.43043
668.62761,0.45135
667.13783,0.19449
665.64804,0.18279
664.15825,0.17112
662.66846,0.24121
661.17867,0.08254
659.68888,0.29160
658.19910,0.28008
656.70931,0.26859
655.21952,0.05287
653.72973,0.29475
652.23994,0.14447
650.75015,0.27203
649.26037,0.39963
647.77058,0.18408
646.28079,0.36895
644.79100,0.40677
643.30121,0.33023
641.81142,0.25373
640.32163,0.15276
638.83185,0.41134
637.34206,0.48203
635.85227,0.45877
634.36248,0.43556
632.87269,0.29391
631.38290,0.14412
629.89312,0.10875
628.40333,0.29813
626.91354,0.48754
625.42375,0.41960
623.93396,0.43341
622.44417,0.45541
620.95438,0.47746
619.46460,0.24624
617.97481,0.31739
616.48502,0.06990
614.99523,0.18605
613.50544,0.30224
612.01565,0.00583
610.52587,0.32578
609.03608,0.29442
607.54629,0.40608
606.05650,0.51778
604.56671,0.74799
603.07692,0.44712
601.58714,0.39551
600.09735,0.34392
598.60756,0.40269
597.11777,0.30623
595.62798,0.35690
594.13819,0.34631
592.64840,0.33576
591.15862,0.31299
589.66883,0.47819
588.17904,0.41463
586.68925,0.55539
585.19946,0.69618
583.70967,0.60822
582.21989,0.36504
580.73010,0.50185
579.24031,0.63870
577.75052,0.48551
576.26073,0.47127
574.77094,0.58779
573.28115,0.62264
571.79137,0.65752
570.30158,0.57805
568.81179,0.72740
567.32200,0.84410
565.83221,0.96084
564.34242,1.11030
562.85264,0.95746
561.36285,0.87003
559.87306,1.09313
558.38327,1.31627
556.89348,1.66201
555.40369,1.19068
553.91391,1.26684
552.42412,1.34305
550.93433,1.28855
549.44454,1.49555
547.95475,1.48197
546.46496,1.63594
544.97517,1.78995
543.48539,1.55586
541.99560,2.00000
540.50581,1.70470
539.01602,1.40944
537.52623,1.60039
536.03644,1.46453
534.54666,1.22249
533.05687,1.52793
531.56708,1.83342
530.07729,1.41989
528.58750,1.33323
527.09771,1.29564
525.60792,1.25808
524.11814,1.22873
522.62835,0.91343
521.13856,1.10477
519.64877,1.01424
518.15898,0.92375
516.66919,0.81286
515.17941,1.13508
513.68962,1.09372
512.19983,1.05239
510.71004,1.09690
509.22025,0.98619
507.73046,0.85100
506.24068,0.71177
504.75089,0.57257
503.26110,0.92775
501.77131,0.73551
500.28152,0.67812
498.79173,0.62077
497.30194,0.86987
495.81216,0.48167
494.32237,0.63279
492.83258,0.78395
491.34279,0.82073
489.85300,0.49804
488.36321,0.64930
486.87343,0.69029
485.38364,0.73131
483.89385,0.47412
482.40406,0.53564
480.91427,0.40110
479.42448,0.26658
477.93469,0.42626
476.44491,0.00583
474.95512,0.14435
473.46533,0.28290
471.97554,0.21313
470.48575,0.41303
468.99596,0.21259
467.50618,0.34311
466.01639,0.47367
464.52660,0.28968
463.03681,0.47342
461.54702,0.36304
460.05723,0.25269
458.56745,0.31397
457.07766,0.71847
455.58787,0.70219
454.09808,0.68596
452.60829,0.98434
451.11850,1.16836
449.62871,1.07460
448.13893,0.98088
446.64914,0.94439
445.15935,1.21844
443.66956,1.19019
442.17977,1.15789
440.68998,1.12563
439.20020,1.24457
437.71041,1.22463
436.22062,1.15571
434.73083,1.08681
433.24104,0.78100
431.75125,1.14525
430.26146,1.03561
428.77168,0.92600
427.28189,1.34755
425.79210,1.28704
424.30231,1.12443
422.81252,0.96186
421.32273,1.20379
419.83295,1.46209
418.34316,1.38133
416.85337,1.30061
415.36358,1.04425
413.87379,1.50697
412.38400,1.30378
410.89422,1.10064
409.40443,1.43273
407.91464,1.38082
406.42485,0.89588
404.93506,0.83586
403.44527,0.77589
401.95548,0.74863
400.46570,0.77043
398.97591,0.67788
397.48612,0.58536
395.99633,0.83606
394.50654,0.54751
393.01675,0.50003
391.52697,0.45259
390.03718,0.67892
388.54739,0.52124
387.05760,0.59648
385.56781,0.67175
384.07802,0.64491
382.58824,0.61811
381.09845,0.62404
379.60866,0.63000
378.11887,0.46440
376.62908,0.51127
375.13929,0.52142
373.64950,0.53161
372.15972,0.22724
370.66993,0.73185
369.18014,0.72171
367.69035,0.71160
366.20056,0.34201
364.71077,0.61797
363.22099,0.54260
361.73120,0.46728
360.24141,0.09782
358.75162,0.52917
357.26183,0.48663
355.77204,0.44413
354.28225,0.35263
352.79247,0.37557
351.30268,0.43530
349.81289,0.49508
348.32310,0.61617
346.83331,0.39412
345.34352,0.44583
343.85374,0.49758
342.36395,0.47990
340.87416,0.37239
339.38437,0.32210
337.89458,0.27185
336.40479,0.29518
334.91501,0.13060
333.42522,0.06820
331.93543,0.00583
330.44564,0.25333
328.95585,0.39465
327.46606,0.31946
325.97627,0.24431
324.48649,0.09157
322.99670,0.36377
321.50691,0.38678
320.01712,0.40982
318.52733,0.35528
317.03754,0.20272
315.54776,0.27489
314.05797,0.34710
312.56818,0.23551
311.07839,0.11577
309.58860,0.19626
308.09881,0.27679
306.60902,0.18167
305.11924,0.24184
303.62945,0.16313
302.13966,0.08447
300.64987,0.00583
299.16008,0.00583
