1778.52000,0.02151
1777.03021,0.03624
1775.54042,0.04282
1774.05063,0.04034
1772.56085,0.04062
1771.07106,0.01458
1769.58127,0.03310
1768.09148,0.00803
1766.60169,0.02752
1765.11190,0.04068
1763.62212,0.01207
1762.13233,0.05436
1760.64254,0.04035
1759.15275,0.03910
1757.66296,0.02424
1756.17317,0.00760
1754.68339,0.05369
1753.19360,0.01530
1751.70381,0.02056
1750.21402,0.01677
1748.72423,0.01936
1747.23444,0.01836
1745.74465,0.03192
1744.25487,0.02916
1742.76508,0.03642
1741.27529,0.04099
1739.78550,0.04286
1738.29571,0.03205
1736.80592,0.03035
1735.31614,0.01778
1733.82635,0.02886
1732.33656,-0.00000
1730.84677,0.02347
1729.35698,0.03061
1727.86719,0.03507
1726.37740,0.00956
1724.88762,0.03407
1723.39783,0.02680
1721.90804,0.02410
1720.41825,0.03961
1718.92846,0.01245
1717.43867,0.00803
1715.94889,0.02528
1714.45910,0.04801
1712.96931,0.07714
1711.47952,0.05632
1709.98973,0.01372
1708.49994,0.05839
1707.01016,0.05810
1705.52037,0.05785
1704.03058,0.06899
1702.54079,0.07743
1701.05100,0.09681
1699.56121,0.07806
1698.07142,0.10295
1696.58164,0.12333
1695.09185,0.13920
1693.60206,0.19508
1692.11227,0.16558
1690.62248,0.15246
1689.13269,0.14937
1687.64291,0.17721
1686.15312,0.18599
1684.66333,0.16119
1683.17354,0.23455
1681.68375,0.21254
1680.19396,0.19510
1678.70417,0.18041
1677.21439,0.17576
1675.72460,0.20657
1674.23481,0.18289
1672.74502,0.15652
1671.25523,0.21832
1669.76544,0.21654
1668.27566,0.23388
1666.78587,0.15312
1665.29608,0.18142
1663.80629,0.12616
1662.31650,0.17270
1660.82671,0.19473
1659.33693,0.16683
1657.84714,0.15258
1656.35735,0.17198
1654.86756,0.13963
1653.37777,0.14274
1651.88798,0.16859
1650.39819,0.10725
1648.90841,0.14408
1647.41862,0.13277
1645.92883,0.13695
1644.43904,0.14115
1642.94925,0.14539
1641.45946,0.16874
1639.96968,0.14941
1638.47989,0.13921
1636.99010,0.14084
1635.50031,0.13706
1634.01052,0.15874
1632.52073,0.15593
1631.03094,0.13406
1629.54116,0.12859
1628.05137,0.14949
1626.56158,0.15134
1625.07179,0.14778
1623.58200,0.16423
1622.09221,0.21797
1620.60243,0.21268
1619.11264,0.18470
1617.62285,0.17129
1616.13306,0.15610
1614.64327,0.17456
1613.15348,0.18305
1611.66370,0.15978
1610.17391,0.16924
1608.68412,0.14694
1607.19433,0.16191
1605.70454,0.14694
1604.21475,0.15471
1602.72496,0.16252
1601.23518,0.14763
1599.74539,0.14369
1598.25560,0.12433
1596.76581,0.12044
1595.27602,0.11659
1593.78623,0.15275
1592.29645,0.13351
1590.80666,0.10794
1589.31687,0.09876
1587.82708,0.12596
1586.33729,0.15137
1584.84750,0.10503
1583.35771,0.10324
1581.86793,0.05878
1580.37814,0.07886
1578.88835,0.11351
1577.39856,0.07732
1575.90877,0.05752
1574.41898,0.08590
1572.92920,0.08433
1571.43941,0.05099
1569.94962,0.02950
1568.45983,0.00803
1566.97004,0.10431
1565.48025,0.07796
1563.99047,0.05709
1562.50068,0.07895
1561.01089,0.05269
1559.52110,0.06008
1558.03131,0.05842
1556.54152,0.09676
1555.05173,0.10788
1553.56195,0.10267
1552.07216,0.12930
1550.58237,0.07873
1549.09258,0.09088
1547.60279,0.08489
1546.11300,0.06984
1544.62322,0.09208
1543.13343,0.05438
1541.64364,0.04943
1540.15385,0.05904
1538.66406,0.06868
1537.17427,0.07563
1535.68448,0.07262
1534.19470,0.07508
1532.70491,0.00580
1531.21512,0.02559
1529.72533,0.01907
1528.23554,0.00803
1526.74575,0.02671
1525.25597,0.04723
1523.76618,0.02781
1522.27639,0.03114
1520.78660,0.03722
1519.29681,0.01880
1517.80702,0.03312
1516.31724,0.01930
1514.82745,0.04095
1513.33766,0.04583
1511.84787,0.05073
1510.35808,0.04795
1508.86829,0.05609
1507.37850,0.02157
1505.88872,0.01342
1504.39893,0.00803
1502.90914,0.03294
1501.41935,0.02335
1499.92956,0.04014
1498.43977,0.07331
1496.94999,0.09289
1495.46020,0.12159
1493.97041,0.18030
1492.48062,0.21178
1490.99083,0.24511
1489.50104,0.28938
1488.01125,0.34367
1486.52147,0.39800
1485.03168,0.42600
1483.54189,0.45222
1482.05210,0.48665
1480.56231,0.62560
1479.07252,0.68462
1477.58274,0.79819
1476.09295,0.85636
1474.60316,0.93819
1473.11337,0.92738
1471.62358,0.99746
1470.13379,1.04395
1468.64401,1.00415
1467.15422,0.89896
1465.66443,0.88785
1464.17464,0.87676
1462.68485,0.79348
1461.19506,0.78382
1459.70527,0.74420
1458.21549,0.67555
1456.72570,0.65962
1455.23591,0.59830
1453.74612,0.57517
1452.25633,0.55025
1450.76654,0.48720
1449.27676,0.42418
1447.78697,0.42571
1446.29718,0.41000
1444.80739,0.36479
1443.31760,0.31962
1441.82781,0.30219
1440.33802,0.23663
1438.84824,0.20836
1437.35845,0.18375
1435.86866,0.11102
1434.37887,0.16098
1432.88908,0.12465
1431.39929,0.15287
1429.90951,0.17021
1428.41972,0.19668
1426.92993,0.16502
1425.44014,0.16610
1423.95035,0.17767
1422.46056,0.18926
1420.97078,0.16590
1419.48099,0.21254
1417.99120,0.20560
1416.50141,0.22141
1415.01162,0.24906
1413.52183,0.18679
1412.03204,0.21269
1410.54226,0.15866
1409.05247,0.20370
1407.56268,0.19516
1406.07289,0.18847
1404.58310,0.18454
1403.09331,0.18063
1401.60353,0.25309
1400.11374,0.21199
1398.62395,0.23090
1397.13416,0.22894
1395.64437,0.27063
1394.15458,0.22330
1392.66479,0.28413
1391.17501,0.28865
1389.68522,0.27685
1388.19543,0.24782
1386.70564,0.24199
1385.21585,0.23619
1383.72606,0.28539
1382.23628,0.21287
1380.74649,0.23488
1379.25670,0.19331
1377.76691,0.22629
1376.27712,0.25747
1374.78733,0.25053
1373.29755,0.29268
1371.80776,0.38302
1370.31797,0.49883
1368.82818,0.51473
1367.33839,0.53065
1365.84860,0.65746
1364.35881,0.75431
1362.86903,0.82758
1361.37924,0.87270
1359.88945,0.89696
1358.39966,0.95124
1356.90987,0.99191
1355.42008,1.01263
1353.93030,0.96251
1352.44051,0.92696
1350.95072,0.89144
1349.46093,0.88229
1347.97114,0.75961
1346.48135,0.65603
1344.99156,0.58702
1343.50178,0.52985
1342.01199,0.52540
1340.52220,0.44467
1339.03241,0.41485
1337.54262,0.44321
1336.05283,0.39891
1334.56305,0.35465
1333.07326,0.31677
1331.58347,0.32890
1330.09368,0.30745
1328.60389,0.32055
1327.11410,0.27280
1325.62432,0.21509
1324.13453,0.24919
1322.64474,0.27695
1321.15495,0.29566
1319.66516,0.27578
1318.17537,0.25594
1316.68558,0.27383
1315.19580,0.27358
1313.70601,0.21976
1312.21622,0.17778
1310.72643,0.18671
1309.23664,0.23202
1307.74685,0.23556
1306.25707,0.20279
1304.76728,0.20821
1303.27749,0.21366
1301.78770,0.17372
1300.29791,0.16106
1298.80812,0.20659
1297.31834,0.23125
1295.82855,0.23595
1294.33876,0.27248
1292.84897,0.23544
1291.35918,0.19662
1289.86939,0.20009
1288.37960,0.20358
1286.88982,0.20120
1285.40003,0.25427
1283.91024,0.26831
1282.42045,0.27420
1280.93066,0.31101
1279.44087,0.23700
1277.95109,0.24571
1276.46130,0.29534
1274.97151,0.27867
1273.48172,0.26203
1271.99193,0.33537
1270.50214,0.42419
1269.01235,0.43854
1267.52257,0.43565
1266.03278,0.36011
1264.54299,0.36455
1263.05320,0.39902
1261.56341,0.44759
1260.07362,0.49620
1258.58384,0.46715
1257.09405,0.50082
1255.60426,0.46729
1254.11447,0.53920
1252.62468,0.49392
1251.13489,0.45685
1249.64511,0.35802
1248.15532,0.35281
1246.66553,0.34128
1245.17574,0.32977
1243.68595,0.28922
1242.19616,0.30140
1240.70637,0.32361
1239.21659,0.28679
1237.72680,0.25818
1236.23701,0.22051
1234.74722,0.20468
1233.25743,0.18752
1231.76764,0.17039
1230.27786,0.15192
1228.78807,0.17347
1227.29828,0.17052
1225.80849,0.14306
1224.31870,0.08111
1222.82891,0.03464
1221.33912,0.09268
1219.84934,0.08807
1218.35955,0.08348
1216.86976,0.12436
1215.37997,0.11984
1213.89018,0.15078
1212.40039,0.12361
1210.91061,0.10828
1209.42082,0.09752
1207.93103,0.09679
1206.44124,0.09609
1204.95145,0.08996
1203.46166,0.10750
1201.97188,0.07146
1200.48209,0.11177
1198.99230,0.05216
1197.50251,0.10253
1196.01272,0.08297
1194.52293,0.05934
1193.03314,0.03575
1191.54336,0.02719
1190.05357,0.05136
1188.56378,0.05376
1187.07399,0.00803
1185.58420,0.02114
1184.09441,0.06971
1182.60463,0.06834
1181.11484,0.06700
1179.62505,0.11022
1178.13526,0.05443
1176.64547,0.08953
1175.15568,0.04470
1173.66589,0.05624
1172.17611,0.05054
1170.68632,0.03171
1169.19653,0.01290
1167.70674,0.04092
1166.21695,0.03625
1164.72716,0.03162
1163.23738,0.01703
1161.74759,0.01155
1160.25780,0.02973
1158.76801,0.01887
1157.27822,0.00803
1155.78843,0.04477
1154.29865,0.07971
1152.80886,0.03382
1151.31907,0.04157
1149.82928,0.06117
1148.33949,0.09442
1146.84970,0.09045
1145.35991,0.08652
1143.87013,0.03445
1142.38034,0.07328
1140.89055,0.06762
1139.40076,0.16012
1137.91097,0.17724
1136.42118,0.20438
1134.93140,0.18476
1133.44161,0.16517
1131.95182,0.21513
1130.46203,0.23785
1128.97224,0.24334
1127.48245,0.23614
1125.99266,0.32347
1124.50288,0.31997
1123.01309,0.32241
1121.52330,0.32487
1120.03351,0.33782
1118.54372,0.38351
1117.05393,0.39379
1115.56415,0.37322
1114.07436,0.39719
1112.58457,0.39485
1111.09478,0.39254
1109.60499,0.44477
1108.11520,0.43798
1106.62542,0.49118
1105.13563,0.58713
1103.64584,0.69309
1102.15605,0.82453
1100.66626,0.78746
1099.17647,0.75041
1097.68668,0.74293
1096.19690,0.80726
1094.70711,0.81074
1093.21732,0.82697
1091.72753,0.93682
1090.23774,0.93586
1088.74795,0.93492
1087.25817,0.90494
1085.76838,0.99129
1084.27859,1.04224
1082.78880,1.08867
1081.29901,1.11242
1079.80922,1.10804
1078.31943,1.13004
1076.82965,1.15206
1075.33986,1.16140
1073.85007,1.28798
1072.36028,1.27285
1070.87049,1.15689
1069.38070,1.21451
1067.89092,1.24945
1066.40113,1.28441
1064.91134,1.24036
1063.42155,1.10094
1061.93176,1.05059
1060.44197,0.98210
1058.95219,1.01540
1057.46240,0.96742
1055.97261,0.91946
1054.48282,0.87381
1052.99303,0.83364
1051.50324,0.67811
1050.01345,0.61711
1048.52367,0.62246
1047.03388,0.61059
1045.54409,0.59874
1044.05430,0.57421
1042.56451,0.53880
1041.07472,0.49434
1039.58494,0.42174
1038.09515,0.32827
1036.60536,0.33479
1035.11557,0.34133
1033.62578,0.34064
1032.13599,0.34543
1030.64620,0.37024
1029.15642,0.44687
1027.66663,0.45130
1026.17684,0.45576
1024.68705,0.52612
1023.19726,0.63286
1021.70747,0.81777
1020.21769,1.02180
1018.72790,1.20677
1017.23811,1.31591
1015.74832,1.42507
1014.25853,1.62377
1012.76874,1.75072
1011.27896,1.83681
1009.78917,1.93202
1008.29938,2.00000
1006.80959,1.98851
1005.31980,1.97705
1003.83001,1.76073
1002.34022,1.81793
1000.85044,1.67800
999.36065,1.60261
997.87086,1.52815
996.38107,1.45373
994.89128,1.56561
993.40149,1.54122
991.91171,1.46235
990.42192,1.55433
988.93213,1.61181
987.44234,1.55257
985.95255,1.49336
984.46276,1.42827
982.97297,1.34232
981.48319,1.33000
979.99340,1.20049
978.50361,1.21140
977.01382,1.22234
975.52403,1.30191
974.03424,1.28610
972.54446,1.10497
971.05467,1.03925
969.56488,1.06079
968.07509,1.05148
966.58530,1.04219
965.09551,0.96206
963.60573,0.99191
962.11594,0.98271
960.62615,0.82545
959.13636,0.80723
957.64657,0.78904
956.15678,0.77634
954.66699,0.75276
953.17721,0.70741
951.68742,0.78657
950.19763,0.76354
948.70784,0.74054
947.21805,0.62808
945.72826,0.69646
944.23848,0.67674
942.74869,0.66795
941.25890,0.71916
939.76911,0.73814
938.27932,0.75716
936.78953,0.81846
935.29974,0.75349
933.80996,0.74216
932.32017,0.80901
930.83038,0.81818
929.34059,0.82739
927.85080,0.81891
926.36101,0.81501
924.87123,0.75571
923.38144,0.65283
921.89165,0.68900
920.40186,0.72520
918.91207,0.66421
917.42228,0.66685
915.93250,0.69951
914.44271,0.68859
912.95292,0.73948
911.46313,0.79041
909.97334,0.77503
908.48355,0.88871
906.99376,0.87522
905.50398,0.80997
904.01419,0.77064
902.52440,0.73134
901.03461,0.91696
899.54482,0.85456
898.05503,0.78219
896.56525,0.84251
895.07546,0.84108
893.58567,0.83968
892.09588,0.81741
890.60609,0.91874
889.11630,0.88745
887.62651,0.82984
886.13673,0.81224
884.64694,0.79467
883.15715,0.81347
881.66736,0.73782
880.17757,0.69126
878.68778,0.75060
877.19800,0.80996
875.70821,0.84528
874.21842,0.90061
872.72863,0.94508
871.23884,0.93506
869.74905,0.92688
868.25927,0.91874
866.76948,0.86793
865.27969,0.90619
863.78990,0.92176
862.30011,0.93828
860.81032,0.92984
859.32053,0.92143
857.83075,0.80447
856.34096,0.80022
854.85117,0.75419
853.36138,0.73001
851.87159,0.66406
850.38180,0.59814
848.89202,0.49682
847.40223,0.40461
845.91244,0.36604
844.42265,0.35249
842.93286,0.33898
841.44307,0.30141
839.95329,0.30022
838.46350,0.30815
836.97371,0.33155
835.48392,0.28366
833.99413,0.23581
832.50434,0.27384
831.01455,0.27738
829.52477,0.27823
828.03498,0.29455
826.54519,0.25094
825.05540,0.20735
823.56561,0.18379
822.07582,0.21478
820.58604,0.19037
819.09625,0.12465
817.60646,0.05896
816.11667,0.08825
814.62688,0.11122
813.13709,0.10514
811.64730,0.06365
810.15752,0.03583
808.66773,0.00803
807.17794,0.06239
805.68815,0.12676
804.19836,0.16664
802.70857,0.15294
801.21879,0.13927
799.72900,0.20105
798.23921,0.31738
796.74942,0.37195
795.25963,0.36885
793.76984,0.36579
792.28006,0.44317
790.79027,0.52694
789.30048,0.57167
787.81069,0.63915
786.32090,0.68076
784.83111,0.72241
783.34132,0.70184
781.85154,0.69858
780.36175,0.73441
778.87196,0.70712
777.38217,0.67987
775.89238,0.80211
774.40259,0.88350
772.91281,0.89950
771.42302,0.90463
769.93323,0.90978
768.44344,0.90679
766.95365,0.87294
765.46386,0.94543
763.97407,0.87167
762.48429,0.79475
760.99450,0.71786
759.50471,0.57150
758.01492,0.49513
756.52513,0.52147
755.03534,0.43063
753.54556,0.33981
752.05577,0.31264
750.56598,0.22461
749.07619,0.16478
747.58640,0.16132
746.09661,0.15789
744.60683,0.11815
743.11704,0.09297
741.62725,0.06056
740.13746,0.04999
738.64767,0.03944
737.15788,0.00803
735.66809,0.04934
734.17831,0.04706
732.68852,0.04164
731.19873,0.03624
729.70894,0.06677
728.21915,0.07007
726.72936,0.03615
725.23958,0.03043
723.74979,0.03745
722.26000,0.04451
720.77021,0.05524
719.28042,0.01511
717.79063,0.02317
716.30084,0.03217
714.81106,0.04120
713.32127,0.00847
711.83148,0.05187
710.34169,0.05895
708.85190,0.04472
707.36211,0.03051
705.87233,0.01679
704.38254,0.01037
702.89275,0.00803
701.40296,0.03477
699.91317,0.06154
698.42338,0.09015
696.93360,0.03248
695.44381,0.11295
693.95402,0.12394
692.46423,0.13496
690.97444,0.11557
689.48465,0.07805
687.99486,0.15140
686.50508,0.15392
685.01529,0.15646
683.52550,0.16994
682.03571,0.14620
680.54592,0.11886
679.05613,0.15378
677.56635,0.18874
676.07656,0.17512
674.58677,0.04795
673.09698,0.10617
671.60719,0.10672
670.11740,0.10731
668.62761,0.05931
667.13783,0.05587
665.64804,0.05201
664.15825,0.04818
662.66846,0.06028
661.17867,0.05968
659.68888,0.06549
658.19910,0.04497
656.70931,0.02448
655.21952,0.11851
653.72973,0.07446
652.23994,0.15492
650.75015,0.11048
649.26037,0.06608
647.77058,0.09484
646.28079,0.05367
644.79100,0.08250
643.30121,0.07638
641.81142,0.07029
640.32163,0.04287
638.83185,0.02094
637.34206,0.01358
635.85227,0.01079
634.36248,0.00803
632.87269,0.00946
631.38290,0.06271
629.89312,0.03330
628.40333,0.02483
626.91354,0.01638
625.42375,0.05794
623.93396,0.07682
622.44417,0.07710
620.95438,0.07741
619.46460,0.11728
617.97481,0.04996
616.48502,0.12533
614.99523,0.12304
613.50544,0.12078
612.01565,0.10719
610.52587,0.09182
609.03608,0.10101
607.54629,0.13432
606.05650,0.16765
604.56671,0.20874
603.07692,0.21169
601.58714,0.15381
600.09735,0.09595
598.60756,0.08719
597.11777,0.12843
595.62798,0.08157
594.13819,0.08653
592.64840,0.09152
591.15862,0.09927
589.66883,0.07797
588.17904,0.14030
586.68925,0.13134
585.19946,0.12240
583.70967,0.07397
582.21989,0.14369
580.73010,0.15666
579.24031,0.16965
577.75052,0.12771
576.26073,0.15030
574.77094,0.15658
573.28115,0.17379
571.79137,0.19103
570.30158,0.21102
568.81179,0.25922
567.32200,0.27428
565.83221,0.28937
564.34242,0.32858
562.85264,0.34691
561.36285,0.42252
559.87306,0.43138
558.38327,0.44027
556.89348,0.56231
555.40369,0.58352
553.91391,0.58705
552.42412,0.59061
550.93433,0.63100
549.44454,0.62600
547.95475,0.62193
546.46496,0.65469
544.97517,0.68748
543.48539,0.67442
541.99560,0.70409
540.50581,0.73652
539.01602,0.76899
537.52623,0.72788
536.03644,0.61503
534.54666,0.62487
533.05687,0.64383
531.56708,0.66282
530.07729,0.64095
528.58750,0.54279
527.09771,0.56369
525.60792,0.58462
524.11814,0.49746
522.62835,0.44122
521.13856,0.44952
519.64877,0.46694
518.15898,0.48440
516.66919,0.41284
515.17941,0.33404
513.68962,0.29752
512.19983,0.26103
510.71004,0.32680
509.22025,0.29265
507.73046,0.29578
506.24068,0.30530
504.75089,0.31486
503.26110,0.38259
501.77131,0.30407
500.28152,0.30509
498.79173,0.30614
497.30194,0.29677
495.81216,0.27471
494.32237,0.30402
492.83258,0.33335
491.34279,0.32865
489.85300,0.31398
488.36321,0.19849
486.87343,0.17707
485.38364,0.15569
483.89385,0.17931
482.40406,0.17661
480.91427,0.17576
479.42448,0.17494
477.93469,0.10782
476.44491,0.03801
474.95512,0.05954
473.46533,0.08111
471.97554,0.06227
470.48575,0.00803
468.99596,0.09276
467.50618,0.07349
466.01639,0.05425
464.52660,0.03822
463.03681,0.04130
461.54702,0.03033
460.05723,0.01939
458.56745,0.08435
457.07766,0.11481
455.58787,0.13531
454.09808,0.15584
452.60829,0.18004
451.11850,0.15066
449.62871,0.17219
448.13893,0.19376
446.64914,0.30531
445.15935,0.44778
443.66956,0.48125
442.17977,0.47477
440.68998,0.46832
439.20020,0.47554
437.71041,0.56547
436.22062,0.66088
434.73083,0.75632
433.24104,0.88087
431.75125,0.92912
430.26146,1.04374
428.77168,1.15839
427.28189,1.14223
425.79210,1.23967
424.30231,1.21176
422.81252,1.18388
421.32273,1.09425
419.83295,1.03099
418.34316,0.99912
416.85337,0.96728
415.36358,0.83234
413.87379,0.77284
412.38400,0.71838
410.89422,0.66394
409.40443,0.60727
407.91464,0.61332
406.42485,0.61758
404.93506,0.56872
403.44527,0.51989
401.95548,0.52243
400.46570,0.47685
398.97591,0.50853
397.48612,0.54024
395.99633,0.49293
394.50654,0.53379
393.01675,0.48926
391.52697,0.44477
390.03718,0.49299
388.54739,0.28956
387.05760,0.33239
385.56781,0.37525
384.07802,0.47175
382.58824,0.46743
381.09845,0.40453
379.60866,0.34166
378.11887,0.30200
376.62908,0.24328
375.13929,0.23048
373.64950,0.21771
372.15972,0.22996
370.66993,0.22589
369.18014,0.17959
367.69035,0.13333
366.20056,0.16842
364.71077,0.16719
363.22099,0.15328
361.73120,0.13940
360.24141,0.14644
358.75162,0.11899
357.26183,0.10657
355.77204,0.09417
354.28225,0.08771
352.79247,0.04312
351.30268,0.07489
349.81289,0.10669
348.32310,0.06673
346.83331,0.02681
345.34352,0.04117
343.85374,0.05555
342.36395,0.09859
340.87416,0.04898
339.38437,0.04982
337.89458,0.05070
336.40479,0.07478
334.91501,0.00803
333.42522,0.01815
331.93543,0.02830
330.44564,0.09118
328.95585,0.07504
327.46606,0.08755
325.97627,0.10010
324.48649,0.04044
322.99670,0.05115
321.50691,0.05372
320.01712,0.05631
318.52733,0.07439
317.03754,0.17245
315.54776,0.14743
314.05797,0.12243
312.56818,0.08975
311.07839,0.00803
309.58860,0.02180
308.09881,0.03560
306.60902,0.01764
305.11924,0.01696
303.62945,0.02177
302.13966,0.01201
300.64987,0.02591
299.16008,0.00803
