1778.52000,0.05329
1777.03021,0.03027
1775.54042,0.04597
1774.05063,0.01409
1772.56085,0.02786
1771.07106,0.04366
1769.58127,0.01981
1768.09148,0.00493
1766.60169,0.00000
1765.11190,0.02882
1763.62212,0.00512
1762.13233,0.04690
1760.64254,0.01136
1759.15275,0.01651
1757.66296,0.05642
1756.17317,0.04180
1754.68339,0.05797
1753.19360,0.00177
1751.70381,0.02396
1750.21402,0.03329
1748.72423,0.00000
1747.23444,0.06296
1745.74465,0.01885
1744.25487,0.02734
1742.76508,0.02891
1741.27529,0.04441
1739.78550,0.04010
1738.29571,0.03583
1736.80592,0.03159
1735.31614,0.03731
1733.82635,0.01627
1732.33656,0.02305
1730.84677,0.05167
1729.35698,0.02182
1727.86719,0.05250
1726.37740,0.00585
1724.88762,0.03957
1723.39783,0.03167
1721.90804,0.00000
1720.41825,0.06166
1718.92846,0.05691
1717.43867,0.04326
1715.94889,0.02469
1714.45910,0.04384
1712.96931,0.05310
1711.47952,0.06736
1709.98973,0.06678
1708.49994,0.07416
1707.01016,0.09050
1705.52037,0.10688
1704.03058,0.08759
1702.54079,0.09213
1701.05100,0.11952
1699.56121,0.15290
1698.07142,0.15457
1696.58164,0.12156
1695.09185,0.11140
1693.60206,0.18061
1692.11227,0.17250
1690.62248,0.24277
1689.13269,0.20299
1687.64291,0.24060
1686.15312,0.23362
1684.66333,0.27031
1683.17354,0.24554
1681.68375,0.24461
1680.19396,0.20404
1678.70417,0.22003
1677.21439,0.27177
1675.72460,0.24717
1674.23481,0.23550
1672.74502,0.21989
1671.25523,0.22515
1669.76544,0.25424
1668.27566,0.22188
1666.78587,0.21038
1665.29608,0.20783
1663.80629,0.23706
1662.31650,0.22765
1660.82671,0.21132
1659.33693,0.17420
1657.84714,0.16885
1656.35735,0.19825
1654.86756,0.16421
1653.37777,0.12921
1651.88798,0.12202
1650.39819,0.12775
1648.90841,0.16525
1647.41862,0.10757
1645.92883,0.14118
1644.43904,0.17481
1642.94925,0.16881
1641.45946,0.13508
1639.96968,0.20750
1638.47989,0.14804
1636.99010,0.13127
1635.50031,0.14428
1634.01052,0.10675
1632.52073,0.11288
1631.03094,0.08335
1629.54116,0.13320
1628.05137,0.12753
1626.56158,0.15464
1625.07179,0.15400
1623.58200,0.15737
1622.09221,0.15482
1620.60243,0.17114
1619.11264,0.20337
1617.62285,0.12753
1616.13306,0.14396
1614.64327,0.11480
1613.15348,0.16006
1611.66370,0.16073
1610.17391,0.14655
1608.68412,0.17604
1607.19433,0.12225
1605.70454,0.13495
1604.21475,0.12835
1602.72496,0.12177
1601.23518,0.09193
1599.74539,0.10278
1598.25560,0.10375
1596.76581,0.10971
1595.27602,0.10975
1593.78623,0.11975
1592.29645,0.11292
1590.80666,0.06942
1589.31687,0.07357
1587.82708,0.06188
1586.33729,0.05916
1584.84750,0.06440
1583.35771,0.03198
1581.86793,0.03332
1580.37814,0.04858
1578.88835,0.05594
1577.39856,0.04449
1575.90877,0.01919
1574.41898,0.03062
1572.92920,0.04406
1571.43941,0.08432
1569.94962,0.07304
1568.45983,0.06179
1566.97004,0.03273
1565.48025,0.02155
1563.99047,0.02131
1562.50068,0.05186
1561.01089,0.08243
1559.52110,0.07635
1558.03131,0.06236
1556.54152,0.09205
1555.05173,0.06524
1553.56195,0.09797
1552.07216,0.03553
1550.58237,0.07427
1549.09258,0.03867
1547.60279,0.04575
1546.11300,0.05088
1544.62322,0.09473
1543.13343,0.01067
1541.64364,0.02581
1540.15385,0.03554
1538.66406,0.04531
1537.17427,0.03378
1535.68448,0.04212
1534.19470,0.00389
1532.70491,0.05594
1531.21512,0.03463
1529.72533,0.02228
1528.23554,0.04368
1526.74575,0.01058
1525.25597,0.00130
1523.76618,0.00000
1522.27639,0.06899
1520.78660,0.05074
1519.29681,0.05335
1517.80702,0.00838
1516.31724,0.01899
1514.82745,0.05245
1513.33766,0.03982
1511.84787,0.02723
1510.35808,0.07169
1508.86829,0.01404
1507.37850,0.02783
1505.88872,0.00000
1504.39893,0.03325
1502.90914,0.00108
1501.41935,0.02572
1499.92956,0.02163
1498.43977,0.05229
1496.94999,0.12563
1495.46020,0.08197
1493.97041,0.17819
1492.48062,0.22188
1490.99083,0.24576
1489.50104,0.26869
1488.01125,0.28768
1486.52147,0.30671
1485.03168,0.34858
1483.54189,0.39347
1482.05210,0.48500
1480.56231,0.58251
1479.07252,0.70485
1477.58274,0.86591
1476.09295,0.88815
1474.60316,0.94216
1473.11337,0.99919
1471.62358,1.08798
1470.13379,1.09944
1468.64401,1.08119
1467.15422,0.93107
1465.66443,0.91933
1464.17464,0.90762
1462.68485,0.86868
1461.19506,0.83671
1459.70527,0.81866
1458.21549,0.80660
1456.72570,0.76878
1455.23591,0.72703
1453.74612,0.67044
1452.25633,0.65950
1450.76654,0.59505
1449.27676,0.55641
1447.78697,0.57929
1446.29718,0.51394
1444.80739,0.46350
1443.31760,0.41310
1441.82781,0.37463
1440.33802,0.31041
1438.84824,0.27697
1437.35845,0.24058
1435.86866,0.21514
1434.37887,0.21453
1432.88908,0.23776
1431.39929,0.20944
1429.90951,0.20893
1428.41972,0.25507
1426.92993,0.23677
1425.44014,0.31075
1423.95035,0.27368
1422.46056,0.23664
1420.97078,0.28592
1419.48099,0.29557
1417.99120,0.31517
1416.50141,0.24950
1415.01162,0.28801
1413.52183,0.26903
1412.03204,0.25703
1410.54226,0.23514
1409.05247,0.27676
1407.56268,0.25494
1406.07289,0.24604
1404.58310,0.23272
1403.09331,0.21943
1401.60353,0.29097
1400.11374,0.21081
1398.62395,0.27349
1397.13416,0.27670
1395.64437,0.26408
1394.15458,0.33480
1392.66479,0.31629
1391.17501,0.31171
1389.68522,0.32302
1388.19543,0.26495
1386.70564,0.25649
1385.21585,0.24807
1383.72606,0.23473
1382.23628,0.19861
1380.74649,0.19327
1379.25670,0.21672
1377.76691,0.20252
1376.27712,0.23001
1374.78733,0.29820
1373.29755,0.28112
1371.80776,0.37913
1370.31797,0.43155
1368.82818,0.45673
1367.33839,0.48194
1365.84860,0.58306
1364.35881,0.69115
1362.86903,0.70606
1361.37924,0.78149
1359.88945,0.81034
1358.39966,0.89874
1356.90987,0.95642
1355.42008,0.93479
1353.93030,0.94196
1352.44051,0.94520
1350.95072,0.94847
1349.46093,0.90516
1347.97114,0.84701
1346.48135,0.66691
1344.99156,0.61676
1343.50178,0.54681
1342.01199,0.56416
1340.52220,0.47742
1339.03241,0.51964
1337.54262,0.50140
1336.05283,0.47377
1334.56305,0.44617
1333.07326,0.37249
1331.58347,0.43373
1330.09368,0.35714
1328.60389,0.29248
1327.11410,0.29630
1325.62432,0.34775
1324.13453,0.33973
1322.64474,0.40117
1321.15495,0.41702
1319.66516,0.32728
1318.17537,0.23757
1316.68558,0.27237
1315.19580,0.32208
1313.70601,0.31330
1312.21622,0.28175
1310.72643,0.28991
1309.23664,0.26537
1307.74685,0.25970
1306.25707,0.21242
1304.76728,0.20831
1303.27749,0.20424
1301.78770,0.19177
1300.29791,0.26165
1298.80812,0.24726
1297.31834,0.28250
1295.82855,0.26917
1294.33876,0.30646
1292.84897,0.30511
1291.35918,0.27105
1289.86939,0.25786
1288.37960,0.24471
1286.88982,0.19885
1285.40003,0.36230
1283.91024,0.31454
1282.42045,0.30251
1280.93066,0.36490
1279.44087,0.38467
1277.95109,0.31423
1276.46130,0.38366
1274.97151,0.34701
1273.48172,0.31039
1271.99193,0.42058
1270.50214,0.55164
1269.01235,0.45661
1267.52257,0.47269
1266.03278,0.54732
1264.54299,0.46231
1263.05320,0.51022
1261.56341,0.52545
1260.07362,0.54071
1258.58384,0.56691
1257.09405,0.52074
1255.60426,0.60255
1254.11447,0.64869
1252.62468,0.63635
1251.13489,0.54569
1249.64511,0.50068
1248.15532,0.46166
1246.66553,0.43805
1245.17574,0.41447
1243.68595,0.39936
1242.19616,0.35750
1240.70637,0.37122
1239.21659,0.30661
1237.72680,0.30850
1236.23701,0.23900
1234.74722,0.23699
1233.25743,0.24889
1231.76764,0.26082
1230.27786,0.26783
1228.78807,0.26793
1227.29828,0.19468
1225.80849,0.21369
1224.31870,0.19902
1222.82891,0.17148
1221.33912,0.16878
1219.84934,0.18148
1218.35955,0.19422
1216.86976,0.18071
1215.37997,0.23070
1213.89018,0.22916
1212.40039,0.21277
1210.91061,0.12402
1209.42082,0.21383
1207.93103,0.15638
1206.44124,0.09897
1204.95145,0.12045
1203.46166,0.12311
1201.97188,0.05142
1200.48209,0.06903
1198.99230,0.08171
1197.50251,0.09740
1196.01272,0.12998
1194.52293,0.10756
1193.03314,0.08517
1191.54336,0.08116
1190.05357,0.00280
1188.56378,0.04249
1187.07399,0.06834
1185.58420,0.00000
1184.09441,0.05057
1182.60463,0.07490
1181.11484,0.09926
1179.62505,0.06365
1178.13526,0.05386
1176.64547,0.06394
1175.15568,0.04629
1173.66589,0.07231
1172.17611,0.07555
1170.68632,0.07386
1169.19653,0.07221
1167.70674,0.08745
1166.21695,0.11265
1164.72716,0.07936
1163.23738,0.05206
1161.74759,0.00000
1160.25780,0.04945
1158.76801,0.05828
1157.27822,0.06714
1155.78843,0.06909
1154.29865,0.10876
1152.80886,0.11871
1151.31907,0.06125
1149.82928,0.07425
1148.33949,0.19935
1146.84970,0.17274
1145.35991,0.14617
1143.87013,0.09384
1142.38034,0.10601
1140.89055,0.12913
1139.40076,0.18005
1137.91097,0.19828
1136.42118,0.16496
1134.93140,0.17879
1133.44161,0.19266
1131.95182,0.33697
1130.46203,0.35834
1128.97224,0.33313
1127.48245,0.27920
1125.99266,0.37009
1124.50288,0.39557
1123.01309,0.36653
1121.52330,0.33752
1120.03351,0.37202
1118.54372,0.43829
1117.05393,0.43120
1115.56415,0.51143
1114.07436,0.49846
1112.58457,0.52718
1111.09478,0.55593
1109.60499,0.52918
1108.11520,0.51635
1106.62542,0.61264
1105.13563,0.71592
1103.64584,0.87873
1102.15605,0.93248
1100.66626,0.86924
1099.17647,0.80603
1097.68668,0.89063
1096.19690,0.94253
1094.70711,0.95579
1093.21732,0.99586
1091.72753,1.00224
1090.23774,1.06866
1088.74795,1.13512
1087.25817,1.17036
1085.76838,1.20465
1084.27859,1.14277
1082.78880,1.26242
1081.29901,1.27004
1079.80922,1.35405
1078.31943,1.33099
1076.82965,1.30796
1075.33986,1.36628
1073.85007,1.34828
1072.36028,1.33130
1070.87049,1.26279
1069.38070,1.34803
1067.89092,1.38124
1066.40113,1.41448
1064.91134,1.34511
1063.42155,1.33131
1061.93176,1.17968
1060.44197,1.15108
1058.95219,1.13639
1057.46240,1.04487
1055.97261,0.95338
1054.48282,0.80491
1052.99303,0.94507
1051.50324,0.86212
1050.01345,0.75143
1048.52367,0.86888
1047.03388,0.80537
1045.54409,0.74190
1044.05430,0.67796
1042.56451,0.58529
1041.07472,0.56307
1039.58494,0.52403
1038.09515,0.49990
1036.60536,0.51051
1035.11557,0.52116
1033.62578,0.49713
1032.13599,0.46817
1030.64620,0.44917
1029.15642,0.51450
1027.66663,0.50648
1026.17684,0.49848
1024.68705,0.57086
1023.19726,0.69980
1021.70747,0.87440
1020.21769,0.98357
1018.72790,1.22667
1017.23811,1.30120
1015.74832,1.37576
1014.25853,1.52077
1012.76874,1.67177
1011.27896,1.88330
1009.78917,1.91138
1008.29938,2.00000
1006.80959,1.96270
1005.31980,1.92542
1003.83001,1.81777
1002.34022,1.78255
1000.85044,1.73249
999.36065,1.56642
997.87086,1.51742
996.38107,1.46845
994.89128,1.54250
993.40149,1.60170
991.91171,1.55184
990.42192,1.54367
988.93213,1.52165
987.44234,1.53239
985.95255,1.54317
984.46276,1.52224
982.97297,1.41308
981.48319,1.50330
979.99340,1.36346
978.50361,1.40713
977.01382,1.45084
975.52403,1.52334
974.03424,1.36876
972.54446,1.29653
971.05467,1.22632
969.56488,1.25631
968.07509,1.19857
966.58530,1.14085
965.09551,1.11144
963.60573,1.10686
962.11594,1.03189
960.62615,1.03531
959.13636,0.98124
957.64657,0.92720
956.15678,0.94659
954.66699,0.98584
953.17721,0.88133
951.68742,0.89586
950.19763,0.91141
948.70784,0.92700
947.21805,0.88114
945.72826,0.81646
944.23848,0.74091
942.74869,0.82209
941.25890,0.90728
939.76911,0.91266
938.27932,0.91807
936.78953,0.96468
935.29974,0.96669
933.80996,0.92212
932.32017,0.87759
930.83038,0.93673
929.34059,0.99590
927.85080,1.02188
926.36101,1.00129
924.87123,0.90237
923.38144,0.87094
921.89165,0.90697
920.40186,0.94304
918.91207,0.88592
917.42228,0.92900
915.93250,0.97311
914.44271,0.99245
912.95292,0.99844
911.46313,1.00447
909.97334,0.98920
908.48355,1.02059
906.99376,1.01134
905.50398,1.02692
904.01419,1.02617
902.52440,1.02546
901.03461,1.00841
899.54482,1.05984
898.05503,0.98930
896.56525,1.08344
895.07546,1.09033
893.58567,1.09726
892.09588,1.13497
890.60609,1.21238
889.11630,1.09048
887.62651,1.01721
886.13673,1.06546
884.64694,1.11375
883.15715,1.11298
881.66736,0.98927
880.17757,0.96179
878.68778,0.96905
877.19800,0.97636
875.70821,0.98071
874.21842,0.92957
872.72863,0.99747
871.23884,1.02375
869.74905,1.02725
868.25927,1.03079
866.76948,1.08395
865.27969,1.08260
863.78990,1.15169
862.30011,1.16231
860.81032,1.13180
859.32053,1.10132
857.83075,1.03567
856.34096,0.99981
854.85117,0.81819
853.36138,0.77446
851.87159,0.73027
850.38180,0.68611
848.89202,0.65637
847.40223,0.52946
845.91244,0.52062
844.42265,0.51577
842.93286,0.51096
841.44307,0.45262
839.95329,0.46772
838.46350,0.35887
836.97371,0.45139
835.48392,0.42988
833.99413,0.40841
832.50434,0.34136
831.01455,0.36161
829.52477,0.36603
828.03498,0.28122
826.54519,0.24901
825.05540,0.21684
823.56561,0.16585
822.07582,0.16846
820.58604,0.16812
819.09625,0.13063
817.60646,0.09317
816.11667,0.10384
814.62688,0.12744
813.13709,0.04893
811.64730,0.00416
810.15752,0.01299
808.66773,0.02185
807.17794,0.00000
805.68815,0.08256
804.19836,0.10465
802.70857,0.13471
801.21879,0.16481
799.72900,0.10171
798.23921,0.25287
796.74942,0.34059
795.25963,0.38322
793.76984,0.42588
792.28006,0.49287
790.79027,0.58370
789.30048,0.69044
787.81069,0.81803
786.32090,0.78598
784.83111,0.75397
783.34132,0.74976
781.85154,0.69401
780.36175,0.76227
778.87196,0.75469
777.38217,0.74714
775.89238,0.80360
774.40259,0.95927
772.91281,0.89678
771.42302,0.91020
769.93323,0.92365
768.44344,0.94457
766.95365,1.04487
765.46386,1.00933
763.97407,0.94011
762.48429,0.88083
760.99450,0.82159
759.50471,0.66618
758.01492,0.65858
756.52513,0.50919
755.03534,0.47389
753.54556,0.43862
752.05577,0.31710
750.56598,0.24917
749.07619,0.22590
747.58640,0.21556
746.09661,0.20526
744.60683,0.08490
743.11704,0.14508
741.62725,0.08231
740.13746,0.07413
738.64767,0.06597
737.15788,0.02315
735.66809,0.02597
734.17831,0.13198
732.68852,0.13586
731.19873,0.13978
729.70894,0.07133
728.21915,0.04458
726.72936,0.00000
725.23958,0.09339
723.74979,0.11639
722.26000,0.13943
720.77021,0.08613
719.28042,0.13007
717.79063,0.10461
716.30084,0.08415
714.81106,0.06371
713.32127,0.00861
711.83148,0.08246
710.34169,0.02345
708.85190,0.05126
707.36211,0.07910
705.87233,0.10449
704.38254,0.00000
702.89275,0.03166
701.40296,0.08567
699.91317,0.13972
698.42338,0.15760
696.93360,0.12989
695.44381,0.11610
693.95402,0.09888
692.46423,0.08168
690.97444,0.16122
689.48465,0.12774
687.99486,0.13990
686.50508,0.14913
685.01529,0.15839
683.52550,0.14288
682.03571,0.19387
680.54592,0.16256
679.05613,0.18684
677.56635,0.21114
676.07656,0.21763
674.58677,0.15274
673.09698,0.11367
671.60719,0.12423
670.11740,0.13482
668.62761,0.15040
667.13783,0.02122
665.64804,0.01307
664.15825,0.00495
662.66846,0.01968
661.17867,0.02650
659.68888,0.08097
658.19910,0.08439
656.70931,0.08785
655.21952,0.15829
653.72973,0.12462
652.23994,0.19116
650.75015,0.16500
649.26037,0.13887
647.77058,0.14203
646.28079,0.09366
644.79100,0.11177
643.30121,0.07784
641.81142,0.04395
640.32163,0.02249
638.83185,0.04768
637.34206,0.09769
635.85227,0.06543
634.36248,0.03319
632.87269,0.00000
631.38290,0.03301
629.89312,0.02836
628.40333,0.07483
626.91354,0.12133
625.42375,0.12769
623.93396,0.08549
622.44417,0.09590
620.95438,0.10633
619.46460,0.09002
617.97481,0.07970
616.48502,0.14676
614.99523,0.13204
613.50544,0.11736
612.01565,0.09130
610.52587,0.12379
609.03608,0.16127
607.54629,0.14474
606.05650,0.12824
604.56671,0.17773
603.07692,0.16080
601.58714,0.13895
600.09735,0.11713
598.60756,0.11220
597.11777,0.06863
595.62798,0.07270
594.13819,0.09317
592.64840,0.11367
591.15862,0.06131
589.66883,0.11312
588.17904,0.17587
586.68925,0.15336
585.19946,0.13089
583.70967,0.13920
582.21989,0.11382
580.73010,0.14253
579.24031,0.17127
577.75052,0.18467
576.26073,0.18025
574.77094,0.16496
573.28115,0.20127
571.79137,0.23762
570.30158,0.26508
568.81179,0.35604
567.32200,0.32208
565.83221,0.28814
564.34242,0.31177
562.85264,0.29873
561.36285,0.42359
559.87306,0.46566
558.38327,0.50777
556.89348,0.54148
555.40369,0.55143
553.91391,0.56934
552.42412,0.58728
550.93433,0.65981
549.44454,0.65105
547.95475,0.61157
546.46496,0.64800
544.97517,0.68446
543.48539,0.77402
541.99560,0.73666
540.50581,0.75736
539.01602,0.77809
537.52623,0.71108
536.03644,0.73138
534.54666,0.63667
533.05687,0.66696
531.56708,0.69728
530.07729,0.65325
528.58750,0.64000
527.09771,0.61043
525.60792,0.58088
524.11814,0.50128
522.62835,0.55561
521.13856,0.53460
519.64877,0.50469
518.15898,0.47482
516.66919,0.45093
515.17941,0.34873
513.68962,0.33136
512.19983,0.31402
510.71004,0.32002
509.22025,0.36573
507.73046,0.35196
506.24068,0.36203
504.75089,0.37214
503.26110,0.32971
501.77131,0.42419
500.28152,0.41654
498.79173,0.40893
497.30194,0.27143
495.81216,0.28769
494.32237,0.34911
492.83258,0.41056
491.34279,0.41403
489.85300,0.31637
488.36321,0.25941
486.87343,0.24165
485.38364,0.22393
483.89385,0.27815
482.40406,0.18066
480.91427,0.19825
479.42448,0.21587
477.93469,0.13336
476.44491,0.06179
474.95512,0.07555
473.46533,0.08934
471.97554,0.09127
470.48575,0.00000
468.99596,0.08722
467.50618,0.05050
466.01639,0.01381
464.52660,0.13386
463.03681,0.11212
461.54702,0.13009
460.05723,0.14808
458.56745,0.09372
457.07766,0.12963
455.58787,0.12988
454.09808,0.13016
452.60829,0.21775
451.11850,0.14273
449.62871,0.17485
448.13893,0.20700
446.64914,0.31159
445.15935,0.35274
443.66956,0.48814
442.17977,0.48671
440.68998,0.48531
439.20020,0.49684
437.71041,0.70081
436.22062,0.76349
434.73083,0.82619
433.24104,0.86365
431.75125,1.00626
430.26146,1.04626
428.77168,1.08629
427.28189,1.12289
425.79210,1.07819
424.30231,1.05386
422.81252,1.02957
421.32273,0.98398
419.83295,1.01976
418.34316,0.97672
416.85337,0.93371
415.36358,0.84264
413.87379,0.68317
412.38400,0.65613
410.89422,0.62913
409.40443,0.54811
407.91464,0.59904
406.42485,0.57958
404.93506,0.55420
403.44527,0.52885
401.95548,0.52536
400.46570,0.52290
398.97591,0.47931
397.48612,0.43576
395.99633,0.45620
394.50654,0.51140
393.01675,0.49373
391.52697,0.47610
390.03718,0.32709
388.54739,0.29811
387.05760,0.38224
385.56781,0.46640
384.07802,0.45935
382.58824,0.38489
381.09845,0.31939
379.60866,0.25393
378.11887,0.35809
376.62908,0.22923
375.13929,0.24122
373.64950,0.25325
372.15972,0.23953
370.66993,0.20402
369.18014,0.18690
367.69035,0.16981
366.20056,0.13143
364.71077,0.14664
363.22099,0.20899
361.73120,0.27138
360.24141,0.15181
358.75162,0.17410
357.26183,0.12352
355.77204,0.07298
354.28225,0.08049
352.79247,0.06820
351.30268,0.06438
349.81289,0.06059
348.32310,0.15651
346.83331,0.03427
345.34352,0.06334
343.85374,0.09244
342.36395,0.13348
340.87416,0.08728
339.38437,0.11301
337.89458,0.13878
336.40479,0.02226
334.91501,0.02380
333.42522,0.05364
331.93543,0.08351
330.44564,0.08912
328.95585,0.08584
327.46606,0.07267
325.97627,0.05953
324.48649,0.05562
322.99670,0.09043
321.50691,0.07072
320.01712,0.05105
318.52733,0.10777
317.03754,0.18734
315.54776,0.15488
314.05797,0.12245
312.56818,0.05732
311.07839,0.03289
309.58860,0.01643
308.09881,0.00000
306.60902,0.03037
305.11924,0.16490
303.62945,0.09665
302.13966,0.02844
300.64987,0.05189
299.16008,0.00000
