1778.52000,0.01650
1777.03021,0.02712
1775.54042,0.01604
1774.05063,0.01174
1772.56085,0.00522
1771.07106,0.05567
1769.58127,0.02898
1768.09148,0.02555
1766.60169,0.01616
1765.11190,0.04500
1763.62212,0.01993
1762.13233,0.03160
1760.64254,0.03431
1759.15275,0.04230
1757.66296,0.05406
1756.17317,0.04937
1754.68339,0.02373
1753.19360,0.03034
1751.70381,0.01151
1750.21402,0.04290
1748.72423,0.04210
1747.23444,0.03759
1745.74465,0.00989
1744.25487,0.03270
1742.76508,0.05855
1741.27529,0.05595
1739.78550,0.06013
1738.29571,0.03662
1736.80592,0.03561
1735.31614,0.03614
1733.82635,0.00522
1732.33656,0.02834
1730.84677,0.03501
1729.35698,0.03871
1727.86719,0.06641
1726.37740,0.03571
1724.88762,0.03426
1723.39783,0.01710
1721.90804,0.02320
1720.41825,0.03532
1718.92846,0.01901
1717.43867,0.01546
1715.94889,0.02692
1714.45910,0.05265
1712.96931,0.05368
1711.47952,0.07123
1709.98973,0.01613
1708.49994,0.02550
1707.01016,0.03489
1705.52037,0.04432
1704.03058,0.07850
1702.54079,0.08873
1701.05100,0.06828
1699.56121,0.08681
1698.07142,0.14134
1696.58164,0.09925
1695.09185,0.14035
1693.60206,0.16126
1692.11227,0.13874
1690.62248,0.16270
1689.13269,0.15447
1687.64291,0.16725
1686.15312,0.19655
1684.66333,0.19366
1683.17354,0.19529
1681.68375,0.19021
1680.19396,0.17917
1678.70417,0.20712
1677.21439,0.19988
1675.72460,0.19118
1674.23481,0.17426
1672.74502,0.17236
1671.25523,0.17274
1669.76544,0.21810
1668.27566,0.20055
1666.78587,0.18828
1665.29608,0.16855
1663.80629,0.13761
1662.31650,0.17263
1660.82671,0.13651
1659.33693,0.15960
1657.84714,0.12428
1656.35735,0.13695
1654.86756,0.12941
1653.37777,0.14139
1651.88798,0.11668
1650.39819,0.12347
1648.90841,0.14528
1647.41862,0.08770
1645.92883,0.10469
1644.43904,0.12171
1642.94925,0.14963
1641.45946,0.13263
1639.96968,0.11640
1638.47989,0.11369
1636.99010,0.11326
1635.50031,0.12185
1634.01052,0.10200
1632.52073,0.10166
1631.03094,0.13955
1629.54116,0.12054
1628.05137,0.12329
1626.56158,0.13655
1625.07179,0.16333
1623.58200,0.16916
1622.09221,0.19001
1620.60243,0.20189
1619.11264,0.16886
1617.62285,0.16432
1616.13306,0.14932
1614.64327,0.14485
1613.15348,0.12916
1611.66370,0.15396
1610.17391,0.17130
1608.68412,0.15346
1607.19433,0.13940
1605.70454,0.12012
1604.21475,0.13907
1602.72496,0.15806
1601.23518,0.15835
1599.74539,0.12570
1598.25560,0.13804
1596.76581,0.14741
1595.27602,0.14482
1593.78623,0.12054
1592.29645,0.12100
1590.80666,0.10502
1589.31687,0.08907
1587.82708,0.09787
1586.33729,0.11344
1584.84750,0.10132
1583.35771,0.04354
1581.86793,0.06669
1580.37814,0.09587
1578.88835,0.08687
1577.39856,0.10412
1575.90877,0.08469
1574.41898,0.07877
1572.92920,0.09162
1571.43941,0.04831
1569.94962,0.04885
1568.45983,0.04943
1566.97004,0.06389
1565.48025,0.03493
1563.99047,0.05695
1562.50068,0.08349
1561.01089,0.06885
1559.52110,0.06549
1558.03131,0.06889
1556.54152,0.10080
1555.05173,0.09603
1553.56195,0.05682
1552.07216,0.09631
1550.58237,0.06915
1549.09258,0.07273
1547.60279,0.06586
1546.11300,0.08973
1544.62322,0.08142
1543.13343,0.11060
1541.64364,0.03942
1540.15385,0.06342
1538.66406,0.08744
1537.17427,0.06804
1535.68448,0.00522
1534.19470,0.05837
1532.70491,0.04413
1531.21512,0.02991
1529.72533,0.02097
1528.23554,0.01806
1526.74575,0.03765
1525.25597,0.02655
1523.76618,0.02447
1522.27639,0.01418
1520.78660,0.03089
1519.29681,0.03715
1517.80702,0.00522
1516.31724,0.00746
1514.82745,0.00823
1513.33766,0.02101
1511.84787,0.03383
1510.35808,0.03768
1508.86829,0.00485
1507.37850,0.01476
1505.88872,0.00522
1504.39893,0.01542
1502.90914,0.02714
1501.41935,0.06437
1499.92956,0.03121
1498.43977,0.06175
1496.94999,0.11780
1495.46020,0.13042
1493.97041,0.14982
1492.48062,0.17749
1490.99083,0.19920
1489.50104,0.24490
1488.01125,0.27641
1486.52147,0.30794
1485.03168,0.40094
1483.54189,0.42205
1482.05210,0.47690
1480.56231,0.58572
1479.07252,0.66460
1477.58274,0.71504
1476.09295,0.80972
1474.60316,0.85348
1473.11337,0.92574
1471.62358,0.96207
1470.13379,0.98270
1468.64401,0.90596
1467.15422,0.87720
1465.66443,0.85559
1464.17464,0.83401
1462.68485,0.76488
1461.19506,0.73400
1459.70527,0.76757
1458.21549,0.61987
1456.72570,0.60705
1455.23591,0.56055
1453.74612,0.52532
1452.25633,0.49536
1450.76654,0.47518
1449.27676,0.46850
1447.78697,0.40118
1446.29718,0.38333
1444.80739,0.34828
1443.31760,0.31325
1441.82781,0.21908
1440.33802,0.20809
1438.84824,0.24283
1437.35845,0.19594
1435.86866,0.14234
1434.37887,0.13372
1432.88908,0.16409
1431.39929,0.13530
1429.90951,0.12752
1428.41972,0.19544
1426.92993,0.17348
1425.44014,0.17328
1423.95035,0.18960
1422.46056,0.20594
1420.97078,0.17886
1419.48099,0.19227
1417.99120,0.21394
1416.50141,0.21093
1415.01162,0.23341
1413.52183,0.20124
1412.03204,0.19981
1410.54226,0.21789
1409.05247,0.22102
1407.56268,0.20920
1406.07289,0.24460
1404.58310,0.23321
1403.09331,0.22185
1401.60353,0.24236
1400.11374,0.29136
1398.62395,0.28796
1397.13416,0.30931
1395.64437,0.32394
1394.15458,0.40154
1392.66479,0.34207
1391.17501,0.40699
1389.68522,0.43748
1388.19543,0.38858
1386.70564,0.37793
1385.21585,0.36730
1383.72606,0.34771
1382.23628,0.36112
1380.74649,0.38505
1379.25670,0.35431
1377.76691,0.36481
1376.27712,0.40231
1374.78733,0.45033
1373.29755,0.55083
1371.80776,0.64611
1370.31797,0.76014
1368.82818,0.80566
1367.33839,0.85121
1365.84860,1.04025
1364.35881,1.15666
1362.86903,1.28958
1361.37924,1.33562
1359.88945,1.38619
1358.39966,1.46001
1356.90987,1.55184
1355.42008,1.51035
1353.93030,1.43143
1352.44051,1.36265
1350.95072,1.29391
1349.46093,1.26977
1347.97114,1.07709
1346.48135,0.93089
1344.99156,0.77798
1343.50178,0.70751
1342.01199,0.56590
1340.52220,0.56442
1339.03241,0.52325
1337.54262,0.48812
1336.05283,0.47249
1334.56305,0.45689
1333.07326,0.43383
1331.58347,0.45275
1330.09368,0.38929
1328.60389,0.34310
1327.11410,0.29094
1325.62432,0.28226
1324.13453,0.28635
1322.64474,0.29721
1321.15495,0.31859
1319.66516,0.28157
1318.17537,0.24457
1316.68558,0.25855
1315.19580,0.23885
1313.70601,0.20943
1312.21622,0.24673
1310.72643,0.19490
1309.23664,0.23300
1307.74685,0.18797
1306.25707,0.15571
1304.76728,0.17143
1303.27749,0.18718
1301.78770,0.22318
1300.29791,0.16108
1298.80812,0.13945
1297.31834,0.15982
1295.82855,0.18246
1294.33876,0.22011
1292.84897,0.22183
1291.35918,0.17789
1289.86939,0.19091
1288.37960,0.20396
1286.88982,0.22078
1285.40003,0.24738
1283.91024,0.22980
1282.42045,0.32314
1280.93066,0.25393
1279.44087,0.27990
1277.95109,0.26918
1276.46130,0.25775
1274.97151,0.28680
1273.48172,0.31589
1271.99193,0.30979
1270.50214,0.37864
1269.01235,0.39508
1267.52257,0.41155
1266.03278,0.37485
1264.54299,0.41460
1263.05320,0.42142
1261.56341,0.43501
1260.07362,0.44863
1258.58384,0.45330
1257.09405,0.43251
1255.60426,0.52714
1254.11447,0.44124
1252.62468,0.46699
1251.13489,0.44109
1249.64511,0.40997
1248.15532,0.31595
1246.66553,0.31486
1245.17574,0.31379
1243.68595,0.30302
1242.19616,0.28479
1240.70637,0.28831
1239.21659,0.28063
1237.72680,0.22278
1236.23701,0.20241
1234.74722,0.20980
1233.25743,0.19025
1231.76764,0.17073
1230.27786,0.19619
1228.78807,0.13028
1227.29828,0.14081
1225.80849,0.11092
1224.31870,0.10204
1222.82891,0.11791
1221.33912,0.12856
1219.84934,0.11565
1218.35955,0.10277
1216.86976,0.11651
1215.37997,0.13478
1213.89018,0.12835
1212.40039,0.11147
1210.91061,0.12083
1209.42082,0.10701
1207.93103,0.09770
1206.44124,0.08843
1204.95145,0.06570
1203.46166,0.09919
1201.97188,0.09226
1200.48209,0.07487
1198.99230,0.09346
1197.50251,0.07388
1196.01272,0.07081
1194.52293,0.04530
1193.03314,0.01982
1191.54336,0.03856
1190.05357,0.06184
1188.56378,0.01172
1187.07399,0.01183
1185.58420,0.00522
1184.09441,0.07868
1182.60463,0.07650
1181.11484,0.07436
1179.62505,0.08797
1178.13526,0.06416
1176.64547,0.08308
1175.15568,0.09229
1173.66589,0.11127
1172.17611,0.10855
1170.68632,0.09200
1169.19653,0.07548
1167.70674,0.08784
1166.21695,0.08599
1164.72716,0.05271
1163.23738,0.00522
1161.74759,0.07820
1160.25780,0.02459
1158.76801,0.03918
1157.27822,0.05381
1155.78843,0.04974
1154.29865,0.07567
1152.80886,0.06566
1151.31907,0.06168
1149.82928,0.06297
1148.33949,0.14221
1146.84970,0.09449
1145.35991,0.04680
1143.87013,0.02573
1142.38034,0.04366
1140.89055,0.09083
1139.40076,0.16950
1137.91097,0.18527
1136.42118,0.19207
1134.93140,0.18393
1133.44161,0.17581
1131.95182,0.25313
1130.46203,0.24282
1128.97224,0.29024
1127.48245,0.26201
1125.99266,0.30274
1124.50288,0.30080
1123.01309,0.31686
1121.52330,0.33296
1120.03351,0.33186
1118.54372,0.35625
1117.05393,0.40690
1115.56415,0.38716
1114.07436,0.35546
1112.58457,0.37136
1111.09478,0.38729
1109.60499,0.38715
1108.11520,0.41176
1106.62542,0.46711
1105.13563,0.48878
1103.64584,0.60113
1102.15605,0.68430
1100.66626,0.70231
1099.17647,0.72036
1097.68668,0.70547
1096.19690,0.72358
1094.70711,0.75070
1093.21732,0.78385
1091.72753,0.71065
1090.23774,0.74573
1088.74795,0.78084
1087.25817,0.82685
1085.76838,0.77624
1084.27859,0.88898
1082.78880,0.93432
1081.29901,0.98120
1079.80922,0.99214
1078.31943,1.02334
1076.82965,1.05458
1075.33986,1.10082
1073.85007,1.14335
1072.36028,1.07953
1070.87049,1.09964
1069.38070,1.18721
1067.89092,1.20364
1066.40113,1.22010
1064.91134,1.13545
1063.42155,1.05457
1061.93176,0.96548
1060.44197,0.96633
1058.95219,0.89903
1057.46240,0.86547
1055.97261,0.83195
1054.48282,0.74825
1052.99303,0.73726
1051.50324,0.61467
1050.01345,0.59550
1048.52367,0.62206
1047.03388,0.58272
1045.54409,0.54341
1044.05430,0.45693
1042.56451,0.38022
1041.07472,0.36048
1039.58494,0.32803
1038.09515,0.30460
1036.60536,0.30555
1035.11557,0.30653
1033.62578,0.29443
1032.13599,0.22468
1030.64620,0.28081
1029.15642,0.36545
1027.66663,0.36995
1026.17684,0.37448
1024.68705,0.47419
1023.19726,0.57243
1021.70747,0.73363
1020.21769,0.96079
1018.72790,1.13704
1017.23811,1.25975
1015.74832,1.38249
1014.25853,1.53485
1012.76874,1.67375
1011.27896,1.81419
1009.78917,1.97413
1008.29938,2.00000
1006.80959,1.92701
1005.31980,1.85405
1003.83001,1.78786
1002.34022,1.75841
1000.85044,1.64358
999.36065,1.56624
997.87086,1.47320
996.38107,1.38019
994.89128,1.44679
993.40149,1.38006
991.91171,1.30062
990.42192,1.33659
988.93213,1.28569
987.44234,1.23931
985.95255,1.19296
984.46276,1.16986
982.97297,1.11383
981.48319,1.00014
979.99340,0.99587
978.50361,1.00735
977.01382,1.01887
975.52403,0.95849
974.03424,0.89965
972.54446,0.77116
971.05467,0.80077
969.56488,0.78547
968.07509,0.74397
966.58530,0.70251
965.09551,0.69553
963.60573,0.66312
962.11594,0.65171
960.62615,0.57590
959.13636,0.53534
957.64657,0.49480
956.15678,0.53221
954.66699,0.53668
953.17721,0.54568
951.68742,0.52699
950.19763,0.51433
948.70784,0.50169
947.21805,0.48009
945.72826,0.42182
944.23848,0.42575
942.74869,0.49490
941.25890,0.54085
939.76911,0.57222
938.27932,0.60362
936.78953,0.69761
935.29974,0.61332
933.80996,0.60548
932.32017,0.59092
930.83038,0.61049
929.34059,0.63008
927.85080,0.60663
926.36101,0.60718
924.87123,0.52610
923.38144,0.47951
921.89165,0.50262
920.40186,0.52577
918.91207,0.49500
917.42228,0.54293
915.93250,0.53320
914.44271,0.49579
912.95292,0.49099
911.46313,0.48622
909.97334,0.51332
908.48355,0.54644
906.99376,0.55562
905.50398,0.56933
904.01419,0.55722
902.52440,0.54514
901.03461,0.57467
899.54482,0.55253
898.05503,0.49747
896.56525,0.57428
895.07546,0.56085
893.58567,0.54746
892.09588,0.56368
890.60609,0.61664
889.11630,0.61195
887.62651,0.63576
886.13673,0.62363
884.64694,0.61153
883.15715,0.58748
881.66736,0.65711
880.17757,0.64885
878.68778,0.65411
877.19800,0.65939
875.70821,0.63699
874.21842,0.74497
872.72863,0.77133
871.23884,0.78497
869.74905,0.80240
868.25927,0.81985
866.76948,0.83733
865.27969,0.80840
863.78990,0.93907
862.30011,0.89745
860.81032,0.90120
859.32053,0.90497
857.83075,0.84622
856.34096,0.85192
854.85117,0.79173
853.36138,0.69486
851.87159,0.66282
850.38180,0.63082
848.89202,0.54153
847.40223,0.40807
845.91244,0.39001
844.42265,0.38247
842.93286,0.37496
841.44307,0.35400
839.95329,0.34880
838.46350,0.30092
836.97371,0.31526
835.48392,0.29254
833.99413,0.26986
832.50434,0.24083
831.01455,0.28600
829.52477,0.27127
828.03498,0.25957
826.54519,0.24190
825.05540,0.22427
823.56561,0.19018
822.07582,0.17560
820.58604,0.16854
819.09625,0.12780
817.60646,0.08708
816.11667,0.07637
814.62688,0.06943
813.13709,0.05054
811.64730,0.01894
810.15752,0.03007
808.66773,0.04123
807.17794,0.00522
805.68815,0.06851
804.19836,0.13033
802.70857,0.11202
801.21879,0.09373
799.72900,0.14141
798.23921,0.21234
796.74942,0.24733
795.25963,0.28498
793.76984,0.32267
792.28006,0.37873
790.79027,0.44232
789.30048,0.46848
787.81069,0.49017
786.32090,0.50328
784.83111,0.51642
783.34132,0.55918
781.85154,0.54877
780.36175,0.56313
778.87196,0.57938
777.38217,0.59566
775.89238,0.65656
774.40259,0.65829
772.91281,0.75595
771.42302,0.76112
769.93323,0.76632
768.44344,0.72247
766.95365,0.72286
765.46386,0.74051
763.97407,0.74170
762.48429,0.66576
760.99450,0.58985
759.50471,0.47951
758.01492,0.40067
756.52513,0.34882
755.03534,0.32210
753.54556,0.29542
752.05577,0.19496
750.56598,0.17395
749.07619,0.12451
747.58640,0.09869
746.09661,0.07290
744.60683,0.12019
743.11704,0.04539
741.62725,0.02381
740.13746,0.02473
738.64767,0.02569
737.15788,0.06264
735.66809,0.00522
734.17831,0.03826
732.68852,0.03237
731.19873,0.02650
729.70894,0.05364
728.21915,0.07106
726.72936,0.02483
725.23958,0.00710
723.74979,0.03540
722.26000,0.06372
720.77021,0.03102
719.28042,0.05304
717.79063,0.04288
716.30084,0.02824
714.81106,0.01364
713.32127,0.00357
711.83148,0.05209
710.34169,0.03997
708.85190,0.05259
707.36211,0.06525
705.87233,0.04946
704.38254,0.02997
702.89275,0.01050
701.40296,0.02858
699.91317,0.04670
698.42338,0.09107
696.93360,0.09726
695.44381,0.13344
693.95402,0.14419
692.46423,0.15496
690.97444,0.19873
689.48465,0.17810
687.99486,0.18971
686.50508,0.21185
685.01529,0.23401
683.52550,0.19402
682.03571,0.17504
680.54592,0.18081
679.05613,0.19897
677.56635,0.21716
676.07656,0.19905
674.58677,0.12328
673.09698,0.09399
671.60719,0.11605
670.11740,0.13813
668.62761,0.11418
667.13783,0.09774
665.64804,0.09445
664.15825,0.09118
662.66846,0.09956
661.17867,0.05478
659.68888,0.10142
658.19910,0.10165
656.70931,0.10191
655.21952,0.09545
653.72973,0.08603
652.23994,0.15456
650.75015,0.13058
649.26037,0.10664
647.77058,0.09659
646.28079,0.10380
644.79100,0.10355
643.30121,0.07561
641.81142,0.04770
640.32163,0.08050
638.83185,0.05340
637.34206,0.03831
635.85227,0.04461
634.36248,0.05093
632.87269,0.00522
631.38290,0.07443
629.89312,0.11820
628.40333,0.11181
626.91354,0.10544
625.42375,0.10810
623.93396,0.14375
622.44417,0.12212
620.95438,0.10051
619.46460,0.05909
617.97481,0.08811
616.48502,0.11043
614.99523,0.11104
613.50544,0.11169
612.01565,0.11836
610.52587,0.13330
609.03608,0.05837
607.54629,0.08349
606.05650,0.10864
604.56671,0.18813
603.07692,0.21820
601.58714,0.18051
600.09735,0.14284
598.60756,0.11382
597.11777,0.09383
595.62798,0.13154
594.13819,0.10748
592.64840,0.08345
591.15862,0.11602
589.66883,0.14337
588.17904,0.09133
586.68925,0.10638
585.19946,0.12146
583.70967,0.13020
582.21989,0.11649
580.73010,0.14290
579.24031,0.16933
577.75052,0.12051
576.26073,0.12640
574.77094,0.12783
573.28115,0.15101
571.79137,0.17423
570.30158,0.17574
568.81179,0.28068
567.32200,0.26465
565.83221,0.24865
564.34242,0.25479
562.85264,0.30141
561.36285,0.37727
559.87306,0.41196
558.38327,0.44669
556.89348,0.40053
555.40369,0.45179
553.91391,0.47761
552.42412,0.50347
550.93433,0.48664
549.44454,0.48783
547.95475,0.52576
546.46496,0.50641
544.97517,0.48709
543.48539,0.57605
541.99560,0.61260
540.50581,0.60498
539.01602,0.59739
537.52623,0.52615
536.03644,0.53884
534.54666,0.55382
533.05687,0.55796
531.56708,0.56213
530.07729,0.51351
528.58750,0.47392
527.09771,0.44334
525.60792,0.41280
524.11814,0.41075
522.62835,0.36453
521.13856,0.38652
519.64877,0.35422
518.15898,0.32195
516.66919,0.30507
515.17941,0.25376
513.68962,0.23169
512.19983,0.20966
510.71004,0.23785
509.22025,0.29304
507.73046,0.31979
506.24068,0.28290
504.75089,0.24603
503.26110,0.25489
501.77131,0.34769
500.28152,0.32927
498.79173,0.31088
497.30194,0.27116
495.81216,0.28167
494.32237,0.30158
492.83258,0.32151
491.34279,0.32837
489.85300,0.29030
488.36321,0.24028
486.87343,0.22812
485.38364,0.21599
483.89385,0.17954
482.40406,0.21504
480.91427,0.16405
479.42448,0.11308
477.93469,0.04978
476.44491,0.04345
474.95512,0.04352
473.46533,0.04362
471.97554,0.05910
470.48575,0.05364
468.99596,0.05645
467.50618,0.03082
466.01639,0.00522
464.52660,0.01405
463.03681,0.05663
461.54702,0.04979
460.05723,0.04298
458.56745,0.06179
457.07766,0.08060
455.58787,0.09941
454.09808,0.11823
452.60829,0.13704
451.11850,0.15585
449.62871,0.17466
448.13893,0.19347
446.64914,0.21228
445.15935,0.27170
443.66956,0.37011
442.17977,0.35766
440.68998,0.34525
439.20020,0.40029
437.71041,0.42840
436.22062,0.49961
434.73083,0.57085
433.24104,0.71966
431.75125,0.87374
430.26146,0.90686
428.77168,0.94001
427.28189,0.96083
425.79210,0.99592
424.30231,0.96361
422.81252,0.93133
421.32273,0.93953
419.83295,0.89832
418.34316,0.84815
416.85337,0.79801
415.36358,0.71268
413.87379,0.60641
412.38400,0.57509
410.89422,0.54380
409.40443,0.50729
407.91464,0.49329
406.42485,0.44561
404.93506,0.41968
403.44527,0.39378
401.95548,0.36192
400.46570,0.34507
398.97591,0.37358
397.48612,0.40212
395.99633,0.29995
394.50654,0.38362
393.01675,0.39127
391.52697,0.39895
390.03718,0.25570
388.54739,0.19639
387.05760,0.26222
385.56781,0.32808
384.07802,0.35052
382.58824,0.30182
381.09845,0.26626
379.60866,0.23073
378.11887,0.19560
376.62908,0.13952
375.13929,0.13218
373.64950,0.12486
372.15972,0.12432
370.66993,0.09758
369.18014,0.05439
367.69035,0.01123
366.20056,0.05877
364.71077,0.03441
363.22099,0.08350
361.73120,0.13262
360.24141,0.11135
358.75162,0.03317
357.26183,0.05429
355.77204,0.07544
354.28225,0.03031
352.79247,0.00469
351.30268,0.00233
349.81289,0.00000
348.32310,0.06919
346.83331,0.05525
345.34352,0.05969
343.85374,0.06416
342.36395,0.15145
340.87416,0.10616
339.38437,0.09013
337.89458,0.07412
336.40479,0.07612
334.91501,0.03020
333.42522,0.02739
331.93543,0.02461
330.44564,0.02074
328.95585,0.07159
327.46606,0.06366
325.97627,0.05576
324.48649,0.04152
322.99670,0.07310
321.50691,0.07025
320.01712,0.06744
318.52733,0.10361
317.03754,0.13531
315.54776,0.14120
314.05797,0.14712
312.56818,0.11973
311.07839,0.01146
309.58860,0.03619
308.09881,0.06096
306.60902,0.00522
305.11924,0.07064
303.62945,0.05481
302.13966,0.00522
300.64987,0.00633
299.16008,0.00522
