1778.52000,0.03305
1777.03021,0.02679
1775.54042,0.04627
1774.05063,0.00042
1772.56085,0.00967
1771.07106,0.01895
1769.58127,0.02386
1768.09148,0.01998
1766.60169,0.03523
1765.11190,0.03583
1763.62212,0.04820
1762.13233,0.02756
1760.64254,0.01429
1759.15275,0.03336
1757.66296,0.04218
1756.17317,0.03855
1754.68339,0.03275
1753.19360,0.01009
1751.70381,0.04673
1750.21402,0.01806
1748.72423,0.02833
1747.23444,0.04817
1745.74465,0.03354
1744.25487,0.05124
1742.76508,0.01758
1741.27529,0.03681
1739.78550,0.02010
1738.29571,0.02544
1736.80592,0.03889
1735.31614,0.03328
1733.82635,0.04239
1732.33656,0.02068
1730.84677,0.01590
1729.35698,0.03464
1727.86719,0.04827
1726.37740,0.01788
1724.88762,0.00000
1723.39783,0.00042
1721.90804,0.01420
1720.41825,0.01039
1718.92846,0.03451
1717.43867,0.00580
1715.94889,0.03586
1714.45910,0.04686
1712.96931,0.03879
1711.47952,0.03076
1709.98973,0.01395
1708.49994,0.04856
1707.01016,0.03365
1705.52037,0.01876
1704.03058,0.08871
1702.54079,0.08086
1701.05100,0.09581
1699.56121,0.08361
1698.07142,0.08393
1696.58164,0.11659
1695.09185,0.12064
1693.60206,0.15556
1692.11227,0.12442
1690.62248,0.14766
1689.13269,0.13714
1687.64291,0.16778
1686.15312,0.18156
1684.66333,0.14397
1683.17354,0.13872
1681.68375,0.18343
1680.19396,0.18778
1678.70417,0.17748
1677.21439,0.15473
1675.72460,0.17019
1674.23481,0.16438
1672.74502,0.18945
1671.25523,0.18297
1669.76544,0.20810
1668.27566,0.16497
1666.78587,0.14170
1665.29608,0.13975
1663.80629,0.13489
1662.31650,0.16311
1660.82671,0.17373
1659.33693,0.18439
1657.84714,0.14074
1656.35735,0.16981
1654.86756,0.15632
1653.37777,0.13039
1651.88798,0.12357
1650.39819,0.12413
1648.90841,0.10929
1647.41862,0.07614
1645.92883,0.07642
1644.43904,0.07673
1642.94925,0.12810
1641.45946,0.11710
1639.96968,0.11126
1638.47989,0.11940
1636.99010,0.10188
1635.50031,0.11742
1634.01052,0.09188
1632.52073,0.11410
1631.03094,0.08935
1629.54116,0.08005
1628.05137,0.11117
1626.56158,0.15995
1625.07179,0.17791
1623.58200,0.16359
1622.09221,0.15445
1620.60243,0.15048
1619.11264,0.18765
1617.62285,0.15877
1616.13306,0.15856
1614.64327,0.17013
1613.15348,0.13033
1611.66370,0.12360
1610.17391,0.11763
1608.68412,0.11611
1607.19433,0.11534
1605.70454,0.13958
1604.21475,0.13006
1602.72496,0.12058
1601.23518,0.13829
1599.74539,0.13989
1598.25560,0.10993
1596.76581,0.11893
1595.27602,0.10666
1593.78623,0.09295
1592.29645,0.08515
1590.80666,0.07518
1589.31687,0.06597
1587.82708,0.05165
1586.33729,0.07628
1584.84750,0.05835
1583.35771,0.04706
1581.86793,0.03800
1580.37814,0.07523
1578.88835,0.07505
1577.39856,0.09325
1575.90877,0.02998
1574.41898,0.02768
1572.92920,0.02248
1571.43941,0.00042
1569.94962,0.02836
1568.45983,0.05634
1566.97004,0.05167
1565.48025,0.03455
1563.99047,0.03067
1562.50068,0.01141
1561.01089,0.02889
1559.52110,0.01482
1558.03131,0.03824
1556.54152,0.04920
1555.05173,0.04404
1553.56195,0.06682
1552.07216,0.07787
1550.58237,0.01553
1549.09258,0.01857
1547.60279,0.01943
1546.11300,0.04162
1544.62322,0.06898
1543.13343,0.03396
1541.64364,0.01733
1540.15385,0.02165
1538.66406,0.02600
1537.17427,0.00579
1535.68448,0.03627
1534.19470,0.02419
1532.70491,0.02242
1531.21512,0.02142
1529.72533,0.01384
1528.23554,0.00042
1526.74575,0.01013
1525.25597,0.03162
1523.76618,0.01350
1522.27639,0.02257
1520.78660,0.01332
1519.29681,0.01951
1517.80702,0.00958
1516.31724,0.03199
1514.82745,0.01846
1513.33766,0.02147
1511.84787,0.02451
1510.35808,0.02575
1508.86829,0.02335
1507.37850,0.00042
1505.88872,0.06243
1504.39893,0.02021
1502.90914,0.01253
1501.41935,0.05041
1499.92956,0.01195
1498.43977,0.01391
1496.94999,0.08125
1495.46020,0.09796
1493.97041,0.14480
1492.48062,0.20122
1490.99083,0.21434
1489.50104,0.29212
1488.01125,0.30860
1486.52147,0.32513
1485.03168,0.40519
1483.54189,0.45445
1482.05210,0.51402
1480.56231,0.59271
1479.07252,0.64940
1477.58274,0.72521
1476.09295,0.85759
1474.60316,0.82847
1473.11337,0.93227
1471.62358,0.97737
1470.13379,0.94906
1468.64401,0.92299
1467.15422,0.91605
1465.66443,0.87535
1464.17464,0.83469
1462.68485,0.77937
1461.19506,0.75271
1459.70527,0.70480
1458.21549,0.66939
1456.72570,0.57821
1455.23591,0.60602
1453.74612,0.53399
1452.25633,0.44364
1450.76654,0.44731
1449.27676,0.43044
1447.78697,0.39966
1446.29718,0.35716
1444.80739,0.33598
1443.31760,0.31483
1441.82781,0.27829
1440.33802,0.22931
1438.84824,0.20605
1437.35845,0.16593
1435.86866,0.12951
1434.37887,0.14379
1432.88908,0.15517
1431.39929,0.14968
1429.90951,0.17581
1428.41972,0.16965
1426.92993,0.17013
1425.44014,0.16183
1423.95035,0.16347
1422.46056,0.16515
1420.97078,0.18191
1419.48099,0.16492
1417.99120,0.20817
1416.50141,0.17582
1415.01162,0.23088
1413.52183,0.19713
1412.03204,0.16634
1410.54226,0.19285
1409.05247,0.17828
1407.56268,0.21734
1406.07289,0.21605
1404.58310,0.20266
1403.09331,0.18931
1401.60353,0.24098
1400.11374,0.25009
1398.62395,0.27758
1397.13416,0.24342
1395.64437,0.33706
1394.15458,0.33601
1392.66479,0.32104
1391.17501,0.30756
1389.68522,0.34038
1388.19543,0.33358
1386.70564,0.32864
1385.21585,0.32373
1383.72606,0.30453
1382.23628,0.29712
1380.74649,0.27284
1379.25670,0.36314
1377.76691,0.31764
1376.27712,0.37569
1374.78733,0.40000
1373.29755,0.49777
1371.80776,0.50085
1370.31797,0.62584
1368.82818,0.71306
1367.33839,0.80030
1365.84860,0.86151
1364.35881,0.98663
1362.86903,1.13087
1361.37924,1.08129
1359.88945,1.13894
1358.39966,1.17534
1356.90987,1.32043
1355.42008,1.31650
1353.93030,1.23844
1352.44051,1.17913
1350.95072,1.11984
1349.46093,1.01984
1347.97114,0.94484
1346.48135,0.82874
1344.99156,0.69872
1343.50178,0.65171
1342.01199,0.57389
1340.52220,0.50271
1339.03241,0.45578
1337.54262,0.45369
1336.05283,0.45162
1334.56305,0.44958
1333.07326,0.37121
1331.58347,0.41475
1330.09368,0.28578
1328.60389,0.28386
1327.11410,0.27096
1325.62432,0.31169
1324.13453,0.26287
1322.64474,0.27723
1321.15495,0.25491
1319.66516,0.26088
1318.17537,0.26689
1316.68558,0.22704
1315.19580,0.26798
1313.70601,0.21056
1312.21622,0.20311
1310.72643,0.22212
1309.23664,0.22353
1307.74685,0.22204
1306.25707,0.18901
1304.76728,0.20190
1303.27749,0.21482
1301.78770,0.21418
1300.29791,0.19228
1298.80812,0.19611
1297.31834,0.17281
1295.82855,0.19139
1294.33876,0.17328
1292.84897,0.20954
1291.35918,0.21793
1289.86939,0.22048
1288.37960,0.22306
1286.88982,0.21612
1285.40003,0.21949
1283.91024,0.27209
1282.42045,0.28800
1280.93066,0.29073
1279.44087,0.32213
1277.95109,0.28820
1276.46130,0.27487
1274.97151,0.26414
1273.48172,0.25343
1271.99193,0.34519
1270.50214,0.33785
1269.01235,0.34523
1267.52257,0.38495
1266.03278,0.40046
1264.54299,0.41895
1263.05320,0.41763
1261.56341,0.43618
1260.07362,0.45475
1258.58384,0.44913
1257.09405,0.45748
1255.60426,0.47174
1254.11447,0.51394
1252.62468,0.42766
1251.13489,0.39795
1249.64511,0.33817
1248.15532,0.30779
1246.66553,0.29029
1245.17574,0.27283
1243.68595,0.28219
1242.19616,0.28571
1240.70637,0.29440
1239.21659,0.27889
1237.72680,0.22449
1236.23701,0.20684
1234.74722,0.14516
1233.25743,0.12866
1231.76764,0.11220
1230.27786,0.16223
1228.78807,0.19686
1227.29828,0.19408
1225.80849,0.12670
1224.31870,0.10856
1222.82891,0.07503
1221.33912,0.05107
1219.84934,0.07377
1218.35955,0.09650
1216.86976,0.13652
1215.37997,0.15233
1213.89018,0.13367
1212.40039,0.13926
1210.91061,0.09716
1209.42082,0.10796
1207.93103,0.11255
1206.44124,0.11716
1204.95145,0.08840
1203.46166,0.04865
1201.97188,0.10146
1200.48209,0.12125
1198.99230,0.10656
1197.50251,0.08309
1196.01272,0.04349
1194.52293,0.03183
1193.03314,0.02020
1191.54336,0.04678
1190.05357,0.04182
1188.56378,0.07140
1187.07399,0.00042
1185.58420,0.04784
1184.09441,0.01452
1182.60463,0.04622
1181.11484,0.07795
1179.62505,0.02564
1178.13526,0.12608
1176.64547,0.07970
1175.15568,0.09429
1173.66589,0.06707
1172.17611,0.03766
1170.68632,0.05088
1169.19653,0.06413
1167.70674,0.02601
1166.21695,0.03785
1164.72716,0.04752
1163.23738,0.03739
1161.74759,0.03610
1160.25780,0.02677
1158.76801,0.02555
1157.27822,0.02435
1155.78843,0.03200
1154.29865,0.05289
1152.80886,0.05252
1151.31907,0.01767
1149.82928,0.04160
1148.33949,0.07290
1146.84970,0.06641
1145.35991,0.05995
1143.87013,0.04287
1142.38034,0.04272
1140.89055,0.08885
1139.40076,0.11813
1137.91097,0.12247
1136.42118,0.17530
1134.93140,0.18521
1133.44161,0.19515
1131.95182,0.21136
1130.46203,0.22173
1128.97224,0.21598
1127.48245,0.25871
1125.99266,0.27651
1124.50288,0.25102
1123.01309,0.29679
1121.52330,0.34259
1120.03351,0.32893
1118.54372,0.34542
1117.05393,0.32669
1115.56415,0.36306
1114.07436,0.34953
1112.58457,0.38303
1111.09478,0.41655
1109.60499,0.39430
1108.11520,0.46974
1106.62542,0.48207
1105.13563,0.51278
1103.64584,0.61548
1102.15605,0.70132
1100.66626,0.70238
1099.17647,0.70348
1097.68668,0.67413
1096.19690,0.72852
1094.70711,0.72420
1093.21732,0.76176
1091.72753,0.83533
1090.23774,0.83734
1088.74795,0.83938
1087.25817,0.81392
1085.76838,0.89863
1084.27859,0.97749
1082.78880,1.01013
1081.29901,1.00681
1079.80922,0.91028
1078.31943,0.94264
1076.82965,0.97503
1075.33986,1.10327
1073.85007,1.09350
1072.36028,1.10946
1070.87049,1.14895
1069.38070,1.18700
1067.89092,1.19570
1066.40113,1.20444
1064.91134,1.12216
1063.42155,1.06340
1061.93176,1.00468
1060.44197,0.93571
1058.95219,0.87631
1057.46240,0.83676
1055.97261,0.79725
1054.48282,0.73428
1052.99303,0.67794
1051.50324,0.58858
1050.01345,0.56902
1048.52367,0.55830
1047.03388,0.54063
1045.54409,0.52299
1044.05430,0.53292
1042.56451,0.49956
1041.07472,0.41409
1039.58494,0.35509
1038.09515,0.31814
1036.60536,0.30032
1035.11557,0.28253
1033.62578,0.28533
1032.13599,0.25145
1030.64620,0.31158
1029.15642,0.37542
1027.66663,0.37540
1026.17684,0.37541
1024.68705,0.37399
1023.19726,0.53855
1021.70747,0.73250
1020.21769,0.91034
1018.72790,1.13593
1017.23811,1.25288
1015.74832,1.36986
1014.25853,1.58232
1012.76874,1.67660
1011.27896,1.86563
1009.78917,1.96731
1008.29938,2.00000
1006.80959,1.95415
1005.31980,1.90833
1003.83001,1.81555
1002.34022,1.73087
1000.85044,1.69101
999.36065,1.51314
997.87086,1.49024
996.38107,1.46736
994.89128,1.42616
993.40149,1.40188
991.91171,1.35927
990.42192,1.33505
988.93213,1.29470
987.44234,1.29367
985.95255,1.29267
984.46276,1.26343
982.97297,1.23569
981.48319,1.14630
979.99340,1.09586
978.50361,1.10492
977.01382,1.11402
975.52403,1.08937
974.03424,0.99939
972.54446,0.88963
971.05467,0.84744
969.56488,0.78253
968.07509,0.77308
966.58530,0.76366
965.09551,0.73629
963.60573,0.79412
962.11594,0.73303
960.62615,0.69840
959.13636,0.62085
957.64657,0.54333
956.15678,0.57561
954.66699,0.57855
953.17721,0.56390
951.68742,0.56544
950.19763,0.56517
948.70784,0.56493
947.21805,0.51883
945.72826,0.56674
944.23848,0.57577
942.74869,0.56501
941.25890,0.50581
939.76911,0.53880
938.27932,0.57181
936.78953,0.65516
935.29974,0.61885
933.80996,0.63470
932.32017,0.70345
930.83038,0.69439
929.34059,0.68537
927.85080,0.72044
926.36101,0.67549
924.87123,0.55422
923.38144,0.57248
921.89165,0.54930
920.40186,0.52614
918.91207,0.52467
917.42228,0.56215
915.93250,0.55560
914.44271,0.57405
912.95292,0.56573
911.46313,0.55744
909.97334,0.60389
908.48355,0.64669
906.99376,0.61096
905.50398,0.57011
904.01419,0.58510
902.52440,0.60012
901.03461,0.63207
899.54482,0.69635
898.05503,0.62408
896.56525,0.65758
895.07546,0.65146
893.58567,0.64537
892.09588,0.60774
890.60609,0.68395
889.11630,0.67428
887.62651,0.65729
886.13673,0.66935
884.64694,0.68143
883.15715,0.65866
881.66736,0.67338
880.17757,0.59634
878.68778,0.62176
877.19800,0.64721
875.70821,0.70977
874.21842,0.79660
872.72863,0.78653
871.23884,0.75667
869.74905,0.78264
868.25927,0.80864
866.76948,0.79355
865.27969,0.84972
863.78990,0.89857
862.30011,0.83805
860.81032,0.82969
859.32053,0.82137
857.83075,0.81160
856.34096,0.77690
854.85117,0.75031
853.36138,0.66133
851.87159,0.60469
850.38180,0.54808
848.89202,0.48270
847.40223,0.38870
845.91244,0.37991
844.42265,0.35647
842.93286,0.33306
841.44307,0.32216
839.95329,0.28853
838.46350,0.23583
836.97371,0.25440
835.48392,0.24545
833.99413,0.23654
832.50434,0.23097
831.01455,0.25039
829.52477,0.34253
828.03498,0.28491
826.54519,0.24164
825.05540,0.19840
823.56561,0.15409
822.07582,0.17369
820.58604,0.16615
819.09625,0.14763
817.60646,0.12914
816.11667,0.04974
814.62688,0.06655
813.13709,0.02099
811.64730,0.00042
810.15752,0.01016
808.66773,0.01994
807.17794,0.00845
805.68815,0.04472
804.19836,0.06707
802.70857,0.07440
801.21879,0.08176
799.72900,0.10567
798.23921,0.18174
796.74942,0.33422
795.25963,0.34537
793.76984,0.35655
792.28006,0.38061
790.79027,0.41939
789.30048,0.53824
787.81069,0.55651
786.32090,0.57556
784.83111,0.59463
783.34132,0.62108
781.85154,0.61085
780.36175,0.60872
778.87196,0.60992
777.38217,0.61116
775.89238,0.65979
774.40259,0.75250
772.91281,0.73804
771.42302,0.74454
769.93323,0.75107
768.44344,0.77121
766.95365,0.77377
765.46386,0.84464
763.97407,0.76501
762.48429,0.70634
760.99450,0.64770
759.50471,0.56449
758.01492,0.45561
756.52513,0.41578
755.03534,0.35690
753.54556,0.29804
752.05577,0.18855
750.56598,0.13343
749.07619,0.11505
747.58640,0.09817
746.09661,0.08132
744.60683,0.06303
743.11704,0.02715
741.62725,0.04638
740.13746,0.05498
738.64767,0.06362
737.15788,0.05283
735.66809,0.05234
734.17831,0.00710
732.68852,0.00374
731.19873,0.00042
729.70894,0.05509
728.21915,0.01361
726.72936,0.01475
725.23958,0.06878
723.74979,0.05713
722.26000,0.04551
720.77021,0.06953
719.28042,0.07743
717.79063,0.00311
716.30084,0.02149
714.81106,0.03989
713.32127,0.02234
711.83148,0.00042
710.34169,0.00808
708.85190,0.00953
707.36211,0.01100
705.87233,0.05767
704.38254,0.00671
702.89275,0.02554
701.40296,0.02530
699.91317,0.02510
698.42338,0.09028
696.93360,0.08720
695.44381,0.13482
693.95402,0.14685
692.46423,0.15891
690.97444,0.14053
689.48465,0.14201
687.99486,0.18244
686.50508,0.17039
685.01529,0.15838
683.52550,0.21652
682.03571,0.17776
680.54592,0.13389
679.05613,0.15908
677.56635,0.18430
676.07656,0.13098
674.58677,0.10706
673.09698,0.09933
671.60719,0.10264
670.11740,0.10598
668.62761,0.09613
667.13783,0.07237
665.64804,0.04937
664.15825,0.02640
662.66846,0.06807
661.17867,0.05471
659.68888,0.06340
658.19910,0.07066
656.70931,0.07795
655.21952,0.09775
653.72973,0.12933
652.23994,0.13523
650.75015,0.13347
649.26037,0.13173
647.77058,0.11937
646.28079,0.06739
644.79100,0.05730
643.30121,0.04724
641.81142,0.03720
640.32163,0.07420
638.83185,0.02090
637.34206,0.01537
635.85227,0.02455
634.36248,0.03376
632.87269,0.00042
631.38290,0.06177
629.89312,0.06442
628.40333,0.06196
626.91354,0.05953
625.42375,0.06961
623.93396,0.08192
622.44417,0.09169
620.95438,0.10150
619.46460,0.07792
617.97481,0.07935
616.48502,0.12926
614.99523,0.14947
613.50544,0.16970
612.01565,0.14261
610.52587,0.09498
609.03608,0.11641
607.54629,0.12099
606.05650,0.12559
604.56671,0.14931
603.07692,0.21051
601.58714,0.16674
600.09735,0.12300
598.60756,0.08957
597.11777,0.06939
595.62798,0.08082
594.13819,0.07208
592.64840,0.06337
591.15862,0.09397
589.66883,0.12094
588.17904,0.09874
586.68925,0.09713
585.19946,0.09555
583.70967,0.09693
582.21989,0.09248
580.73010,0.12219
579.24031,0.15194
577.75052,0.14023
576.26073,0.15278
574.77094,0.16023
573.28115,0.17248
571.79137,0.18475
570.30158,0.23194
568.81179,0.33276
567.32200,0.31172
565.83221,0.29071
564.34242,0.30056
562.85264,0.30678
561.36285,0.35562
559.87306,0.36888
558.38327,0.38216
556.89348,0.39437
555.40369,0.46683
553.91391,0.48571
552.42412,0.50463
550.93433,0.51329
549.44454,0.55797
547.95475,0.58358
546.46496,0.61180
544.97517,0.64004
543.48539,0.65473
541.99560,0.65477
540.50581,0.65300
539.01602,0.65126
537.52623,0.63523
536.03644,0.54801
534.54666,0.55921
533.05687,0.55539
531.56708,0.55160
530.07729,0.54527
528.58750,0.50005
527.09771,0.47873
525.60792,0.45744
524.11814,0.49602
522.62835,0.42229
521.13856,0.40587
519.64877,0.36964
518.15898,0.33345
516.66919,0.29949
515.17941,0.28465
513.68962,0.29922
512.19983,0.31382
510.71004,0.31890
509.22025,0.28435
507.73046,0.30638
506.24068,0.31156
504.75089,0.31676
503.26110,0.37045
501.77131,0.34634
500.28152,0.31015
498.79173,0.27399
497.30194,0.24777
495.81216,0.27591
494.32237,0.28647
492.83258,0.29705
491.34279,0.32603
489.85300,0.28601
488.36321,0.23280
486.87343,0.22331
485.38364,0.21386
483.89385,0.20627
482.40406,0.19137
480.91427,0.15630
479.42448,0.12127
477.93469,0.09618
476.44491,0.08874
474.95512,0.07509
473.46533,0.06147
471.97554,0.06441
470.48575,0.05930
468.99596,0.06743
467.50618,0.03484
466.01639,0.00228
464.52660,0.00978
463.03681,0.00042
461.54702,0.04136
460.05723,0.08234
458.56745,0.06901
457.07766,0.04543
455.58787,0.08026
454.09808,0.11511
452.60829,0.12760
451.11850,0.08873
449.62871,0.14754
448.13893,0.20638
446.64914,0.30564
445.15935,0.36528
443.66956,0.39925
442.17977,0.39360
440.68998,0.38797
439.20020,0.46536
437.71041,0.53910
436.22062,0.59929
434.73083,0.65950
433.24104,0.80383
431.75125,0.87843
430.26146,0.89835
428.77168,0.91830
427.28189,1.01135
425.79210,1.11177
424.30231,1.10758
422.81252,1.10343
421.32273,1.04019
419.83295,1.03426
418.34316,0.96191
416.85337,0.88959
415.36358,0.78609
413.87379,0.66132
412.38400,0.62213
410.89422,0.58298
409.40443,0.61030
407.91464,0.51283
406.42485,0.51378
404.93506,0.49347
403.44527,0.47319
401.95548,0.35160
400.46570,0.41729
398.97591,0.42868
397.48612,0.44009
395.99633,0.40234
394.50654,0.47182
393.01675,0.45065
391.52697,0.42951
390.03718,0.34048
388.54739,0.23166
387.05760,0.28183
385.56781,0.33204
384.07802,0.29453
382.58824,0.38702
381.09845,0.34921
379.60866,0.31142
378.11887,0.26229
376.62908,0.18307
375.13929,0.18283
373.64950,0.18261
372.15972,0.16150
370.66993,0.10004
369.18014,0.12231
367.69035,0.14461
366.20056,0.09058
364.71077,0.10780
363.22099,0.12542
361.73120,0.14307
360.24141,0.11560
358.75162,0.10357
357.26183,0.10883
355.77204,0.11412
354.28225,0.09044
352.79247,0.04696
351.30268,0.04610
349.81289,0.04527
348.32310,0.05475
346.83331,0.06500
345.34352,0.06353
343.85374,0.06208
342.36395,0.05700
340.87416,0.12097
339.38437,0.12476
337.89458,0.12858
336.40479,0.07662
334.91501,0.02764
333.42522,0.04880
331.93543,0.07000
330.44564,0.09453
328.95585,0.11322
327.46606,0.08054
325.97627,0.04789
324.48649,0.07436
322.99670,0.07002
321.50691,0.06608
320.01712,0.06217
318.52733,0.14310
317.03754,0.11539
315.54776,0.14058
314.05797,0.16579
312.56818,0.08016
311.07839,0.11205
309.58860,0.05622
308.09881,0.00042
306.60902,0.03864
305.11924,0.05341
303.62945,0.03626
302.13966,0.01914
300.64987,0.02371
299.16008,0.00042
