1778.52000,0.03091
1777.03021,0.02257
1775.54042,0.02965
1774.05063,0.00770
1772.56085,0.00544
1771.07106,0.02544
1769.58127,0.00956
1768.09148,0.03818
1766.60169,0.01724
1765.11190,0.03993
1763.62212,0.04556
1762.13233,0.04266
1760.64254,0.03895
1759.15275,0.02500
1757.66296,0.04871
1756.17317,0.04937
1754.68339,0.03637
1753.19360,0.03025
1751.70381,0.02758
1750.21402,0.00099
1748.72423,0.00608
1747.23444,0.02232
1745.74465,0.03260
1744.25487,0.03607
1742.76508,0.05069
1741.27529,0.02002
1739.78550,0.02444
1738.29571,0.04172
1736.80592,0.00859
1735.31614,0.03108
1733.82635,0.00829
1732.33656,0.02401
1730.84677,0.00214
1729.35698,0.01235
1727.86719,0.02517
1726.37740,0.04742
1724.88762,0.02352
1723.39783,0.00308
1721.90804,0.02201
1720.41825,0.00334
1718.92846,0.00865
1717.43867,0.00544
1715.94889,0.02731
1714.45910,0.01844
1712.96931,0.03012
1711.47952,0.05209
1709.98973,0.03305
1708.49994,0.04141
1707.01016,0.04766
1705.52037,0.05394
1704.03058,0.06752
1702.54079,0.08198
1701.05100,0.06570
1699.56121,0.10759
1698.07142,0.14096
1696.58164,0.09827
1695.09185,0.14025
1693.60206,0.14551
1692.11227,0.15164
1690.62248,0.16294
1689.13269,0.17940
1687.64291,0.17024
1686.15312,0.19959
1684.66333,0.18708
1683.17354,0.19255
1681.68375,0.21259
1680.19396,0.20274
1678.70417,0.20488
1677.21439,0.22331
1675.72460,0.21269
1674.23481,0.18159
1672.74502,0.15222
1671.25523,0.19130
1669.76544,0.24579
1668.27566,0.20712
1666.78587,0.21978
1665.29608,0.19485
1663.80629,0.16653
1662.31650,0.16304
1660.82671,0.17583
1659.33693,0.19206
1657.84714,0.15276
1656.35735,0.16649
1654.86756,0.14777
1653.37777,0.14020
1651.88798,0.12325
1650.39819,0.14138
1648.90841,0.17409
1647.41862,0.11961
1645.92883,0.10108
1644.43904,0.08258
1642.94925,0.13080
1641.45946,0.12091
1639.96968,0.12645
1638.47989,0.13885
1636.99010,0.11453
1635.50031,0.14324
1634.01052,0.11214
1632.52073,0.12381
1631.03094,0.09192
1629.54116,0.11563
1628.05137,0.14621
1626.56158,0.13236
1625.07179,0.18524
1623.58200,0.16718
1622.09221,0.16882
1620.60243,0.17819
1619.11264,0.17561
1617.62285,0.16880
1616.13306,0.15859
1614.64327,0.15269
1613.15348,0.15538
1611.66370,0.15382
1610.17391,0.18221
1608.68412,0.14652
1607.19433,0.14762
1605.70454,0.14704
1604.21475,0.14863
1602.72496,0.15025
1601.23518,0.13780
1599.74539,0.11597
1598.25560,0.11811
1596.76581,0.11687
1595.27602,0.09941
1593.78623,0.09481
1592.29645,0.07827
1590.80666,0.09767
1589.31687,0.09744
1587.82708,0.07416
1586.33729,0.07741
1584.84750,0.06445
1583.35771,0.02159
1581.86793,0.04974
1580.37814,0.08646
1578.88835,0.08218
1577.39856,0.07194
1575.90877,0.05489
1574.41898,0.01137
1572.92920,0.02432
1571.43941,0.02874
1569.94962,0.03619
1568.45983,0.04367
1566.97004,0.00544
1565.48025,0.05843
1563.99047,0.05246
1562.50068,0.03198
1561.01089,0.05087
1559.52110,0.08775
1558.03131,0.06395
1556.54152,0.07267
1555.05173,0.06518
1553.56195,0.06969
1552.07216,0.10501
1550.58237,0.04033
1549.09258,0.02612
1547.60279,0.06154
1546.11300,0.07561
1544.62322,0.07262
1543.13343,0.03374
1541.64364,0.03680
1540.15385,0.04330
1538.66406,0.04984
1537.17427,0.05812
1535.68448,0.03479
1534.19470,0.04142
1532.70491,0.03783
1531.21512,0.02742
1529.72533,0.08801
1528.23554,0.00499
1526.74575,0.02054
1525.25597,0.04124
1523.76618,0.02522
1522.27639,0.03402
1520.78660,0.00865
1519.29681,0.01614
1517.80702,0.01854
1516.31724,0.01328
1514.82745,0.03626
1513.33766,0.04688
1511.84787,0.05752
1510.35808,0.00878
1508.86829,0.02334
1507.37850,0.00544
1505.88872,0.02248
1504.39893,0.01646
1502.90914,0.04554
1501.41935,0.03959
1499.92956,0.09780
1498.43977,0.04574
1496.94999,0.11683
1495.46020,0.12127
1493.97041,0.14369
1492.48062,0.20634
1490.99083,0.28440
1489.50104,0.35224
1488.01125,0.37564
1486.52147,0.39908
1485.03168,0.47556
1483.54189,0.49991
1482.05210,0.59270
1480.56231,0.65474
1479.07252,0.77410
1477.58274,0.85074
1476.09295,0.96589
1474.60316,0.99727
1473.11337,1.07572
1471.62358,1.05757
1470.13379,1.11983
1468.64401,1.05473
1467.15422,0.94519
1465.66443,0.95539
1464.17464,0.96562
1462.68485,0.86730
1461.19506,0.84424
1459.70527,0.84602
1458.21549,0.74351
1456.72570,0.72654
1455.23591,0.74893
1453.74612,0.65935
1452.25633,0.60228
1450.76654,0.54269
1449.27676,0.52929
1447.78697,0.47147
1446.29718,0.46583
1444.80739,0.44527
1443.31760,0.42473
1441.82781,0.36960
1440.33802,0.33673
1438.84824,0.26114
1437.35845,0.22320
1435.86866,0.19898
1434.37887,0.16538
1432.88908,0.19936
1431.39929,0.19148
1429.90951,0.16824
1428.41972,0.20744
1426.92993,0.21248
1425.44014,0.18078
1423.95035,0.18588
1422.46056,0.19101
1420.97078,0.19617
1419.48099,0.26892
1417.99120,0.26559
1416.50141,0.26059
1415.01162,0.25904
1413.52183,0.25410
1412.03204,0.24064
1410.54226,0.27424
1409.05247,0.25999
1407.56268,0.20473
1406.07289,0.25895
1404.58310,0.23496
1403.09331,0.21100
1401.60353,0.24992
1400.11374,0.24441
1398.62395,0.27228
1397.13416,0.28479
1395.64437,0.25373
1394.15458,0.31418
1392.66479,0.31139
1391.17501,0.27187
1389.68522,0.32986
1388.19543,0.30237
1386.70564,0.31553
1385.21585,0.32872
1383.72606,0.29192
1382.23628,0.24660
1380.74649,0.24407
1379.25670,0.30569
1377.76691,0.28954
1376.27712,0.25376
1374.78733,0.28128
1373.29755,0.36184
1371.80776,0.36805
1370.31797,0.48031
1368.82818,0.52505
1367.33839,0.56983
1365.84860,0.74888
1364.35881,0.83305
1362.86903,0.91127
1361.37924,0.90145
1359.88945,0.95323
1358.39966,1.02898
1356.90987,1.07141
1355.42008,1.01384
1353.93030,0.98623
1352.44051,0.98771
1350.95072,0.98923
1349.46093,0.90528
1347.97114,0.85043
1346.48135,0.74516
1344.99156,0.61172
1343.50178,0.57492
1342.01199,0.49369
1340.52220,0.44498
1339.03241,0.44761
1337.54262,0.45711
1336.05283,0.42175
1334.56305,0.38642
1333.07326,0.40371
1331.58347,0.37657
1330.09368,0.35545
1328.60389,0.32751
1327.11410,0.29192
1325.62432,0.25892
1324.13453,0.30889
1322.64474,0.29391
1321.15495,0.33112
1319.66516,0.29568
1318.17537,0.26027
1316.68558,0.22661
1315.19580,0.31866
1313.70601,0.24829
1312.21622,0.22328
1310.72643,0.21282
1309.23664,0.25199
1307.74685,0.23733
1306.25707,0.23210
1304.76728,0.22562
1303.27749,0.21918
1301.78770,0.27133
1300.29791,0.22690
1298.80812,0.24834
1297.31834,0.19969
1295.82855,0.25796
1294.33876,0.22477
1292.84897,0.23265
1291.35918,0.23629
1289.86939,0.25706
1288.37960,0.27786
1286.88982,0.23799
1285.40003,0.29648
1283.91024,0.26608
1282.42045,0.33660
1280.93066,0.28745
1279.44087,0.31100
1277.95109,0.28500
1276.46130,0.30264
1274.97151,0.32030
1273.48172,0.33800
1271.99193,0.34889
1270.50214,0.44617
1269.01235,0.44430
1267.52257,0.50231
1266.03278,0.40218
1264.54299,0.51156
1263.05320,0.48672
1261.56341,0.48971
1260.07362,0.49273
1258.58384,0.50648
1257.09405,0.49118
1255.60426,0.49130
1254.11447,0.52736
1252.62468,0.48651
1251.13489,0.52777
1249.64511,0.44337
1248.15532,0.43596
1246.66553,0.37385
1245.17574,0.31178
1243.68595,0.36004
1242.19616,0.34933
1240.70637,0.31044
1239.21659,0.30236
1237.72680,0.27550
1236.23701,0.20678
1234.74722,0.21760
1233.25743,0.21221
1231.76764,0.20686
1230.27786,0.16220
1228.78807,0.19026
1227.29828,0.19525
1225.80849,0.15326
1224.31870,0.07880
1222.82891,0.10527
1221.33912,0.15144
1219.84934,0.14078
1218.35955,0.13015
1216.86976,0.14820
1215.37997,0.15772
1213.89018,0.18182
1212.40039,0.10078
1210.91061,0.09672
1209.42082,0.10894
1207.93103,0.10793
1206.44124,0.10696
1204.95145,0.12013
1203.46166,0.07690
1201.97188,0.04054
1200.48209,0.08715
1198.99230,0.05085
1197.50251,0.04964
1196.01272,0.05873
1194.52293,0.06143
1193.03314,0.06416
1191.54336,0.02033
1190.05357,0.03638
1188.56378,0.00544
1187.07399,0.01024
1185.58420,0.05354
1184.09441,0.02591
1182.60463,0.04492
1181.11484,0.06395
1179.62505,0.05865
1178.13526,0.04568
1176.64547,0.03702
1175.15568,0.05832
1173.66589,0.06169
1172.17611,0.00525
1170.68632,0.01179
1169.19653,0.01836
1167.70674,0.03009
1166.21695,0.03074
1164.72716,0.03997
1163.23738,0.06377
1161.74759,0.03630
1160.25780,0.00544
1158.76801,0.02860
1157.27822,0.05179
1155.78843,0.05835
1154.29865,0.08032
1152.80886,0.07582
1151.31907,0.09273
1149.82928,0.05153
1148.33949,0.14289
1146.84970,0.12355
1145.35991,0.10425
1143.87013,0.05633
1142.38034,0.07258
1140.89055,0.12220
1139.40076,0.18895
1137.91097,0.14031
1136.42118,0.19601
1134.93140,0.21839
1133.44161,0.24081
1131.95182,0.27010
1130.46203,0.31995
1128.97224,0.30569
1127.48245,0.32311
1125.99266,0.38330
1124.50288,0.43498
1123.01309,0.42727
1121.52330,0.41959
1120.03351,0.42177
1118.54372,0.44621
1117.05393,0.44504
1115.56415,0.44988
1114.07436,0.50264
1112.58457,0.48617
1111.09478,0.46973
1109.60499,0.49009
1108.11520,0.55579
1106.62542,0.61298
1105.13563,0.62403
1103.64584,0.73771
1102.15605,0.86340
1100.66626,0.88010
1099.17647,0.89683
1097.68668,0.92942
1096.19690,0.92954
1094.70711,0.96561
1093.21732,0.98717
1091.72753,0.96601
1090.23774,0.98507
1088.74795,1.00416
1087.25817,1.07715
1085.76838,1.10913
1084.27859,1.12832
1082.78880,1.22193
1081.29901,1.22920
1079.80922,1.19376
1078.31943,1.20111
1076.82965,1.20848
1075.33986,1.33303
1073.85007,1.34987
1072.36028,1.29663
1070.87049,1.33064
1069.38070,1.33561
1067.89092,1.37224
1066.40113,1.40891
1064.91134,1.32590
1063.42155,1.23780
1061.93176,1.21556
1060.44197,1.15317
1058.95219,1.11219
1057.46240,1.04687
1055.97261,0.98158
1054.48282,0.89880
1052.99303,0.87248
1051.50324,0.82310
1050.01345,0.71904
1048.52367,0.67742
1047.03388,0.67901
1045.54409,0.68064
1044.05430,0.69042
1042.56451,0.62755
1041.07472,0.55873
1039.58494,0.44206
1038.09515,0.37331
1036.60536,0.39778
1035.11557,0.42229
1033.62578,0.42801
1032.13599,0.38418
1030.64620,0.40023
1029.15642,0.41546
1027.66663,0.42088
1026.17684,0.42634
1024.68705,0.51006
1023.19726,0.60322
1021.70747,0.77936
1020.21769,0.96150
1018.72790,1.16078
1017.23811,1.26518
1015.74832,1.36962
1014.25853,1.58780
1012.76874,1.61706
1011.27896,1.76178
1009.78917,1.80563
1008.29938,2.00000
1006.80959,1.96525
1005.31980,1.93054
1003.83001,1.75392
1002.34022,1.78083
1000.85044,1.77272
999.36065,1.59791
997.87086,1.54839
996.38107,1.49890
994.89128,1.58753
993.40149,1.61292
991.91171,1.64690
990.42192,1.66637
988.93213,1.61575
987.44234,1.63187
985.95255,1.64801
984.46276,1.62485
982.97297,1.56325
981.48319,1.48116
979.99340,1.46494
978.50361,1.46030
977.01382,1.45568
975.52403,1.54301
974.03424,1.43458
972.54446,1.32532
971.05467,1.35717
969.56488,1.29329
968.07509,1.24354
966.58530,1.19383
965.09551,1.11979
963.60573,1.10391
962.11594,1.14279
960.62615,1.02951
959.13636,1.01202
957.64657,0.99457
956.15678,0.97116
954.66699,0.91016
953.17721,0.86458
951.68742,0.94301
950.19763,0.88980
948.70784,0.83662
947.21805,0.80913
945.72826,0.76542
944.23848,0.76877
942.74869,0.82345
941.25890,0.87816
939.76911,0.87306
938.27932,0.86798
936.78953,0.98521
935.29974,0.88700
933.80996,0.83414
932.32017,0.89845
930.83038,0.94440
929.34059,0.99039
927.85080,0.94877
926.36101,0.97473
924.87123,0.93745
923.38144,0.94124
921.89165,0.90659
920.40186,0.87197
918.91207,0.86987
917.42228,0.93022
915.93250,0.89227
914.44271,0.88428
912.95292,0.87804
911.46313,0.87182
909.97334,0.83998
908.48355,0.90651
906.99376,0.97392
905.50398,0.96356
904.01419,0.95835
902.52440,0.95318
901.03461,1.02585
899.54482,1.07376
898.05503,0.89340
896.56525,0.96616
895.07546,0.98552
893.58567,1.00491
892.09588,0.97003
890.60609,1.01556
889.11630,1.00896
887.62651,0.96392
886.13673,0.96893
884.64694,0.97397
883.15715,1.00256
881.66736,0.98757
880.17757,0.97518
878.68778,0.96111
877.19800,0.94707
875.70821,0.98180
874.21842,1.04734
872.72863,1.12318
871.23884,1.14004
869.74905,1.14626
868.25927,1.15250
866.76948,1.09764
865.27969,1.09839
863.78990,1.17955
862.30011,1.16497
860.81032,1.15384
859.32053,1.14275
857.83075,1.11117
856.34096,1.09586
854.85117,0.99765
853.36138,0.88835
851.87159,0.84706
850.38180,0.80580
848.89202,0.70344
847.40223,0.56349
845.91244,0.50138
844.42265,0.48505
842.93286,0.46874
841.44307,0.37167
839.95329,0.38920
838.46350,0.37855
836.97371,0.39871
835.48392,0.38556
833.99413,0.37244
832.50434,0.40295
831.01455,0.34116
829.52477,0.32642
828.03498,0.34592
826.54519,0.29833
825.05540,0.25077
823.56561,0.24556
822.07582,0.22842
820.58604,0.21900
819.09625,0.17670
817.60646,0.13443
816.11667,0.11655
814.62688,0.09700
813.13709,0.08774
811.64730,0.07424
810.15752,0.03982
808.66773,0.00544
807.17794,0.01500
805.68815,0.06905
804.19836,0.08466
802.70857,0.10714
801.21879,0.12965
799.72900,0.17442
798.23921,0.29276
796.74942,0.43422
795.25963,0.47737
793.76984,0.52056
792.28006,0.53386
790.79027,0.62243
789.30048,0.71531
787.81069,0.69877
786.32090,0.74340
784.83111,0.78807
783.34132,0.82464
781.85154,0.75693
780.36175,0.78074
778.87196,0.77593
777.38217,0.77116
775.89238,0.88485
774.40259,0.95324
772.91281,0.96096
771.42302,0.98625
769.93323,1.01156
768.44344,0.94926
766.95365,0.95369
765.46386,1.04280
763.97407,1.00711
762.48429,0.91458
760.99450,0.82209
759.50471,0.63943
758.01492,0.54999
756.52513,0.47683
755.03534,0.43406
753.54556,0.39132
752.05577,0.29004
750.56598,0.24009
749.07619,0.19616
747.58640,0.19844
746.09661,0.20074
744.60683,0.10817
743.11704,0.11567
741.62725,0.06335
740.13746,0.04783
738.64767,0.03234
737.15788,0.08015
735.66809,0.03052
734.17831,0.07156
732.68852,0.05875
731.19873,0.04599
729.70894,0.06489
728.21915,0.01712
726.72936,0.06181
725.23958,0.08430
723.74979,0.10212
722.26000,0.11997
720.77021,0.12204
719.28042,0.12242
717.79063,0.06043
716.30084,0.05959
714.81106,0.05879
713.32127,0.00544
711.83148,0.07694
710.34169,0.08692
708.85190,0.06572
707.36211,0.04455
705.87233,0.06830
704.38254,0.06472
702.89275,0.03553
701.40296,0.06792
699.91317,0.10035
698.42338,0.03363
696.93360,0.03705
695.44381,0.07556
693.95402,0.09871
692.46423,0.12189
690.97444,0.17417
689.48465,0.18459
687.99486,0.15144
686.50508,0.17646
685.01529,0.20150
683.52550,0.20778
682.03571,0.26794
680.54592,0.19989
679.05613,0.21994
677.56635,0.24001
676.07656,0.21481
674.58677,0.12807
673.09698,0.07727
671.60719,0.10090
670.11740,0.12455
668.62761,0.13029
667.13783,0.09330
665.64804,0.08370
664.15825,0.07414
662.66846,0.03639
661.17867,0.06109
659.68888,0.05846
658.19910,0.06783
656.70931,0.07724
655.21952,0.18244
653.72973,0.11666
652.23994,0.09709
650.75015,0.11133
649.26037,0.12559
647.77058,0.14288
646.28079,0.14396
644.79100,0.02622
643.30121,0.01795
641.81142,0.00972
640.32163,0.03657
638.83185,0.05661
637.34206,0.04078
635.85227,0.04464
634.36248,0.04854
632.87269,0.00544
631.38290,0.15683
629.89312,0.15007
628.40333,0.09033
626.91354,0.03062
625.42375,0.08295
623.93396,0.11736
622.44417,0.11290
620.95438,0.10847
619.46460,0.06089
617.97481,0.08859
616.48502,0.11289
614.99523,0.14065
613.50544,0.16844
612.01565,0.09793
610.52587,0.09843
609.03608,0.11178
607.54629,0.13029
606.05650,0.14883
604.56671,0.15800
603.07692,0.17746
601.58714,0.16746
600.09735,0.15748
598.60756,0.11462
597.11777,0.10599
595.62798,0.08799
594.13819,0.10166
592.64840,0.11536
591.15862,0.11455
589.66883,0.09838
588.17904,0.15151
586.68925,0.11403
585.19946,0.07658
583.70967,0.05542
582.21989,0.15911
580.73010,0.15169
579.24031,0.14429
577.75052,0.21132
576.26073,0.23734
574.77094,0.23431
573.28115,0.23987
571.79137,0.24546
570.30158,0.28186
568.81179,0.34566
567.32200,0.34835
565.83221,0.35108
564.34242,0.39530
562.85264,0.41647
561.36285,0.48555
559.87306,0.52987
558.38327,0.57422
556.89348,0.65024
555.40369,0.69124
553.91391,0.70319
552.42412,0.71518
550.93433,0.66307
549.44454,0.65631
547.95475,0.70174
546.46496,0.73095
544.97517,0.76019
543.48539,0.75527
541.99560,0.89830
540.50581,0.86907
539.01602,0.83987
537.52623,0.81883
536.03644,0.77644
534.54666,0.79137
533.05687,0.82429
531.56708,0.85724
530.07729,0.71152
528.58750,0.73342
527.09771,0.66001
525.60792,0.58663
524.11814,0.51286
522.62835,0.60928
521.13856,0.56293
519.64877,0.51918
518.15898,0.47546
516.66919,0.46598
515.17941,0.37871
513.68962,0.36031
512.19983,0.34195
510.71004,0.35567
509.22025,0.35319
507.73046,0.40802
506.24068,0.40388
504.75089,0.39978
503.26110,0.38032
501.77131,0.40193
500.28152,0.39622
498.79173,0.39053
497.30194,0.34298
495.81216,0.40063
494.32237,0.42112
492.83258,0.44164
491.34279,0.38737
489.85300,0.33570
488.36321,0.32511
486.87343,0.27949
485.38364,0.23390
483.89385,0.23537
482.40406,0.17702
480.91427,0.16060
479.42448,0.14421
477.93469,0.08596
476.44491,0.06792
474.95512,0.03666
473.46533,0.00544
471.97554,0.05076
470.48575,0.12776
468.99596,0.09107
467.50618,0.07579
466.01639,0.06054
464.52660,0.00000
463.03681,0.01438
461.54702,0.06300
460.05723,0.11164
458.56745,0.12184
457.07766,0.09616
455.58787,0.10985
454.09808,0.12357
452.60829,0.19546
451.11850,0.19042
449.62871,0.19141
448.13893,0.19243
446.64914,0.39441
445.15935,0.50322
443.66956,0.50091
442.17977,0.50420
440.68998,0.50751
439.20020,0.64210
437.71041,0.80580
436.22062,0.83656
434.73083,0.86736
433.24104,1.01833
431.75125,1.19583
430.26146,1.22202
428.77168,1.24825
427.28189,1.43097
425.79210,1.45726
424.30231,1.42501
422.81252,1.39279
421.32273,1.25073
419.83295,1.17454
418.34316,1.18175
416.85337,1.18899
415.36358,1.05817
413.87379,0.90430
412.38400,0.86717
410.89422,0.83008
409.40443,0.80370
407.91464,0.82353
406.42485,0.73907
404.93506,0.67859
403.44527,0.61814
401.95548,0.57311
400.46570,0.59395
398.97591,0.61568
397.48612,0.63744
395.99633,0.57030
394.50654,0.60324
393.01675,0.61355
391.52697,0.62389
390.03718,0.56971
388.54739,0.37363
387.05760,0.39817
385.56781,0.42275
384.07802,0.52431
382.58824,0.55151
381.09845,0.47187
379.60866,0.39226
378.11887,0.33491
376.62908,0.39217
375.13929,0.34985
373.64950,0.30755
372.15972,0.26059
370.66993,0.23162
369.18014,0.21165
367.69035,0.19172
366.20056,0.09700
364.71077,0.19128
363.22099,0.17529
361.73120,0.15933
360.24141,0.15281
358.75162,0.18052
357.26183,0.16594
355.77204,0.15139
354.28225,0.09455
352.79247,0.04543
351.30268,0.02542
349.81289,0.00544
348.32310,0.03218
346.83331,0.05811
345.34352,0.08107
343.85374,0.10407
342.36395,0.18481
340.87416,0.11766
339.38437,0.06508
337.89458,0.01253
336.40479,0.12161
334.91501,0.04604
333.42522,0.05985
331.93543,0.07370
330.44564,0.09997
328.95585,0.08951
327.46606,0.08078
325.97627,0.07209
324.48649,0.06942
322.99670,0.01633
321.50691,0.07643
320.01712,0.13655
318.52733,0.11761
317.03754,0.19191
315.54776,0.14824
314.05797,0.10460
312.56818,0.04817
311.07839,0.06958
309.58860,0.06109
308.09881,0.05264
306.60902,0.02797
305.11924,0.03582
303.62945,0.02960
302.13966,0.00544
300.64987,0.02680
299.16008,0.00544
