1778.52000,0.04236
1777.03021,0.05505
1775.54042,0.03023
1774.05063,0.02706
1772.56085,0.04895
1771.07106,0.07087
1769.58127,0.08941
1768.09148,0.03290
1766.60169,0.05832
1765.11190,0.00415
1763.62212,0.06718
1762.13233,0.06540
1760.64254,0.05455
1759.15275,0.04828
1757.66296,0.05001
1756.17317,0.04722
1754.68339,0.05128
1753.19360,0.05197
1751.70381,0.02424
1750.21402,0.01589
1748.72423,0.00415
1747.23444,0.03769
1745.74465,0.00984
1744.25487,0.04458
1742.76508,0.04067
1741.27529,0.06069
1739.78550,0.04433
1738.29571,0.05872
1736.80592,0.02651
1735.31614,0.03414
1733.82635,0.01336
1732.33656,0.02446
1730.84677,0.06745
1729.35698,0.04904
1727.86719,0.02952
1726.37740,0.02824
1724.88762,0.04974
1723.39783,0.00415
1721.90804,0.04769
1720.41825,0.00707
1718.92846,0.02223
1717.43867,0.01239
1715.94889,0.04922
1714.45910,0.02580
1712.96931,0.04221
1711.47952,0.04957
1709.98973,0.03533
1708.49994,0.04389
1707.01016,0.03825
1705.52037,0.03264
1704.03058,0.03674
1702.54079,0.04883
1701.05100,0.04503
1699.56121,0.10154
1698.07142,0.12055
1696.58164,0.10319
1695.09185,0.12681
1693.60206,0.10155
1692.11227,0.06836
1690.62248,0.16261
1689.13269,0.16019
1687.64291,0.14188
1686.15312,0.13612
1684.66333,0.16906
1683.17354,0.20204
1681.68375,0.16338
1680.19396,0.12589
1678.70417,0.11005
1677.21439,0.14542
1675.72460,0.14329
1674.23481,0.19124
1672.74502,0.13685
1671.25523,0.11661
1669.76544,0.18172
1668.27566,0.15017
1666.78587,0.15506
1665.29608,0.11219
1663.80629,0.07960
1662.31650,0.12781
1660.82671,0.13964
1659.33693,0.10373
1657.84714,0.15089
1656.35735,0.09116
1654.86756,0.13155
1653.37777,0.09918
1651.88798,0.13509
1650.39819,0.14374
1648.90841,0.11715
1647.41862,0.05646
1645.92883,0.06520
1644.43904,0.07397
1642.94925,0.13851
1641.45946,0.11549
1639.96968,0.16530
1638.47989,0.14689
1636.99010,0.14103
1635.50031,0.13520
1634.01052,0.17490
1632.52073,0.13274
1631.03094,0.10311
1629.54116,0.12471
1628.05137,0.10880
1626.56158,0.13387
1625.07179,0.17148
1623.58200,0.15681
1622.09221,0.13306
1620.60243,0.14802
1619.11264,0.16187
1617.62285,0.13822
1616.13306,0.16806
1614.64327,0.14675
1613.15348,0.14366
1611.66370,0.15995
1610.17391,0.10347
1608.68412,0.13005
1607.19433,0.12937
1605.70454,0.11507
1604.21475,0.11673
1602.72496,0.11842
1601.23518,0.16677
1599.74539,0.13212
1598.25560,0.12594
1596.76581,0.13231
1595.27602,0.11936
1593.78623,0.07119
1592.29645,0.08675
1590.80666,0.08982
1589.31687,0.04971
1587.82708,0.05057
1586.33729,0.07991
1584.84750,0.07060
1583.35771,0.06246
1581.86793,0.01909
1580.37814,0.05423
1578.88835,0.04846
1577.39856,0.07799
1575.90877,0.06204
1574.41898,0.01428
1572.92920,0.04731
1571.43941,0.00415
1569.94962,0.01381
1568.45983,0.02350
1566.97004,0.01899
1565.48025,0.03614
1563.99047,0.06810
1562.50068,0.05459
1561.01089,0.03884
1559.52110,0.03678
1558.03131,0.06431
1556.54152,0.04525
1555.05173,0.02052
1553.56195,0.11754
1552.07216,0.10767
1550.58237,0.00000
1549.09258,0.08574
1547.60279,0.05890
1546.11300,0.12423
1544.62322,0.09859
1543.13343,0.07866
1541.64364,0.04854
1540.15385,0.05484
1538.66406,0.06117
1537.17427,0.06299
1535.68448,0.04209
1534.19470,0.00415
1532.70491,0.06460
1531.21512,0.06251
1529.72533,0.06386
1528.23554,0.01064
1526.74575,0.05642
1525.25597,0.05104
1523.76618,0.03432
1522.27639,0.03015
1520.78660,0.05330
1519.29681,0.04123
1517.80702,0.00415
1516.31724,0.05124
1514.82745,0.03011
1513.33766,0.01924
1511.84787,0.00841
1510.35808,0.06244
1508.86829,0.03006
1507.37850,0.00453
1505.88872,0.03022
1504.39893,0.02751
1502.90914,0.03506
1501.41935,0.04151
1499.92956,0.08326
1498.43977,0.12276
1496.94999,0.10883
1495.46020,0.14384
1493.97041,0.20277
1492.48062,0.16960
1490.99083,0.18992
1489.50104,0.25463
1488.01125,0.32791
1486.52147,0.40122
1485.03168,0.49447
1483.54189,0.52860
1482.05210,0.62987
1480.56231,0.69364
1479.07252,0.79497
1477.58274,0.86904
1476.09295,0.88285
1474.60316,0.91375
1473.11337,0.98564
1471.62358,1.04163
1470.13379,1.04874
1468.64401,1.02517
1467.15422,0.90494
1465.66443,0.89622
1464.17464,0.88753
1462.68485,0.85044
1461.19506,0.86343
1459.70527,0.71492
1458.21549,0.64607
1456.72570,0.61251
1455.23591,0.57102
1453.74612,0.52729
1452.25633,0.52568
1450.76654,0.44106
1449.27676,0.44861
1447.78697,0.37657
1446.29718,0.39670
1444.80739,0.33382
1443.31760,0.27097
1441.82781,0.21156
1440.33802,0.22044
1438.84824,0.16110
1437.35845,0.17914
1435.86866,0.14603
1434.37887,0.15958
1432.88908,0.17999
1431.39929,0.16062
1429.90951,0.12080
1428.41972,0.16065
1426.92993,0.16867
1425.44014,0.15739
1423.95035,0.14842
1422.46056,0.13947
1420.97078,0.16696
1419.48099,0.18424
1417.99120,0.22658
1416.50141,0.21663
1415.01162,0.21011
1413.52183,0.26392
1412.03204,0.24041
1410.54226,0.22717
1409.05247,0.20486
1407.56268,0.21784
1406.07289,0.28318
1404.58310,0.23765
1403.09331,0.19215
1401.60353,0.28147
1400.11374,0.33784
1398.62395,0.39765
1397.13416,0.38924
1395.64437,0.43433
1394.15458,0.48968
1392.66479,0.45634
1391.17501,0.49811
1389.68522,0.45573
1388.19543,0.52373
1386.70564,0.52237
1385.21585,0.52104
1383.72606,0.45148
1382.23628,0.45249
1380.74649,0.48083
1379.25670,0.48645
1377.76691,0.51713
1376.27712,0.53077
1374.78733,0.59109
1373.29755,0.62527
1371.80776,0.77210
1370.31797,0.84275
1368.82818,0.97372
1367.33839,1.10472
1365.84860,1.27784
1364.35881,1.50900
1362.86903,1.58891
1361.37924,1.66429
1359.88945,1.71924
1358.39966,1.72757
1356.90987,1.73025
1355.42008,1.73183
1353.93030,1.67883
1352.44051,1.57297
1350.95072,1.46714
1349.46093,1.32552
1347.97114,1.20212
1346.48135,1.00027
1344.99156,0.86214
1343.50178,0.81051
1342.01199,0.71909
1340.52220,0.57537
1339.03241,0.54658
1337.54262,0.50644
1336.05283,0.48567
1334.56305,0.46494
1333.07326,0.46699
1331.58347,0.42811
1330.09368,0.37562
1328.60389,0.33340
1327.11410,0.29803
1325.62432,0.27407
1324.13453,0.29906
1322.64474,0.29223
1321.15495,0.25357
1319.66516,0.25647
1318.17537,0.25940
1316.68558,0.19582
1315.19580,0.22327
1313.70601,0.18932
1312.21622,0.17475
1310.72643,0.21822
1309.23664,0.21053
1307.74685,0.12552
1306.25707,0.19866
1304.76728,0.17401
1303.27749,0.14938
1301.78770,0.24650
1300.29791,0.24924
1298.80812,0.21106
1297.31834,0.18998
1295.82855,0.17120
1294.33876,0.15245
1292.84897,0.21677
1291.35918,0.22767
1289.86939,0.23745
1288.37960,0.24727
1286.88982,0.25484
1285.40003,0.27268
1283.91024,0.25074
1282.42045,0.26751
1280.93066,0.28659
1279.44087,0.26019
1277.95109,0.29298
1276.46130,0.29053
1274.97151,0.26423
1273.48172,0.23796
1271.99193,0.29021
1270.50214,0.34136
1269.01235,0.35841
1267.52257,0.34819
1266.03278,0.40398
1264.54299,0.49052
1263.05320,0.45196
1261.56341,0.49305
1260.07362,0.53418
1258.58384,0.42974
1257.09405,0.49254
1255.60426,0.42798
1254.11447,0.45444
1252.62468,0.42634
1251.13489,0.39599
1249.64511,0.36226
1248.15532,0.27965
1246.66553,0.28239
1245.17574,0.28516
1243.68595,0.30616
1242.19616,0.30330
1240.70637,0.24587
1239.21659,0.24422
1237.72680,0.24487
1236.23701,0.19322
1234.74722,0.18142
1233.25743,0.15032
1231.76764,0.11924
1230.27786,0.16214
1228.78807,0.18686
1227.29828,0.16498
1225.80849,0.09650
1224.31870,0.10653
1222.82891,0.09953
1221.33912,0.08119
1219.84934,0.07824
1218.35955,0.07532
1216.86976,0.12077
1215.37997,0.10142
1213.89018,0.12646
1212.40039,0.09921
1210.91061,0.07085
1209.42082,0.08006
1207.93103,0.06939
1206.44124,0.05876
1204.95145,0.06124
1203.46166,0.02394
1201.97188,0.04355
1200.48209,0.05522
1198.99230,0.06010
1197.50251,0.12076
1196.01272,0.10750
1194.52293,0.06754
1193.03314,0.02762
1191.54336,0.05200
1190.05357,0.05593
1188.56378,0.00415
1187.07399,0.00484
1185.58420,0.02059
1184.09441,0.01362
1182.60463,0.01351
1181.11484,0.01344
1179.62505,0.02249
1178.13526,0.02361
1176.64547,0.04638
1175.15568,0.08738
1173.66589,0.07039
1172.17611,0.07619
1170.68632,0.06723
1169.19653,0.05831
1167.70674,0.04486
1166.21695,0.00301
1164.72716,0.10383
1163.23738,0.09662
1161.74759,0.06214
1160.25780,0.07774
1158.76801,0.05413
1157.27822,0.03055
1155.78843,0.00415
1154.29865,0.04518
1152.80886,0.03050
1151.31907,0.11709
1149.82928,0.11271
1148.33949,0.14249
1146.84970,0.14158
1145.35991,0.14071
1143.87013,0.10916
1142.38034,0.08901
1140.89055,0.12918
1139.40076,0.15118
1137.91097,0.17549
1136.42118,0.22145
1134.93140,0.22534
1133.44161,0.22927
1131.95182,0.31286
1130.46203,0.27590
1128.97224,0.30836
1127.48245,0.33517
1125.99266,0.39272
1124.50288,0.41504
1123.01309,0.38279
1121.52330,0.35057
1120.03351,0.41621
1118.54372,0.47846
1117.05393,0.49184
1115.56415,0.40628
1114.07436,0.50959
1112.58457,0.50201
1111.09478,0.49447
1109.60499,0.50573
1108.11520,0.54204
1106.62542,0.59431
1105.13563,0.62046
1103.64584,0.65459
1102.15605,0.74222
1100.66626,0.70930
1099.17647,0.67642
1097.68668,0.83695
1096.19690,0.84849
1094.70711,0.83162
1093.21732,0.89897
1091.72753,0.92653
1090.23774,0.93080
1088.74795,0.93511
1087.25817,0.95480
1085.76838,0.96770
1084.27859,1.10462
1082.78880,1.13237
1081.29901,1.25116
1079.80922,1.15384
1078.31943,1.15780
1076.82965,1.16179
1075.33986,1.22155
1073.85007,1.31432
1072.36028,1.20011
1070.87049,1.28385
1069.38070,1.36193
1067.89092,1.44005
1066.40113,1.51820
1064.91134,1.30631
1063.42155,1.19569
1061.93176,1.22274
1060.44197,1.08716
1058.95219,1.03352
1057.46240,0.93781
1055.97261,0.84214
1054.48282,0.80565
1052.99303,0.79422
1051.50324,0.71229
1050.01345,0.67817
1048.52367,0.57810
1047.03388,0.55201
1045.54409,0.52595
1044.05430,0.60115
1042.56451,0.56947
1041.07472,0.55260
1039.58494,0.36058
1038.09515,0.36994
1036.60536,0.34691
1035.11557,0.32391
1033.62578,0.25715
1032.13599,0.25753
1030.64620,0.25340
1029.15642,0.30276
1027.66663,0.32257
1026.17684,0.34242
1024.68705,0.45899
1023.19726,0.47435
1021.70747,0.66833
1020.21769,0.90671
1018.72790,1.20086
1017.23811,1.32839
1015.74832,1.45596
1014.25853,1.67854
1012.76874,1.80901
1011.27896,1.86557
1009.78917,1.89031
1008.29938,1.91623
1006.80959,1.95810
1005.31980,2.00000
1003.83001,1.92932
1002.34022,1.92009
1000.85044,1.81876
999.36065,1.65603
997.87086,1.61335
996.38107,1.57069
994.89128,1.60371
993.40149,1.59240
991.91171,1.51401
990.42192,1.52097
988.93213,1.43581
987.44234,1.49003
985.95255,1.54429
984.46276,1.47629
982.97297,1.36851
981.48319,1.29148
979.99340,1.29524
978.50361,1.27799
977.01382,1.26077
975.52403,1.20092
974.03424,1.12404
972.54446,1.07450
971.05467,1.06366
969.56488,0.95162
968.07509,0.90387
966.58530,0.85616
965.09551,0.80336
963.60573,0.83818
962.11594,0.78999
960.62615,0.68041
959.13636,0.63570
957.64657,0.59102
956.15678,0.64534
954.66699,0.56546
953.17721,0.62894
951.68742,0.58666
950.19763,0.57626
948.70784,0.56590
947.21805,0.58627
945.72826,0.54071
944.23848,0.60324
942.74869,0.63281
941.25890,0.61692
939.76911,0.65793
938.27932,0.69898
936.78953,0.67180
935.29974,0.64693
933.80996,0.55270
932.32017,0.73265
930.83038,0.76020
929.34059,0.78779
927.85080,0.75739
926.36101,0.70768
924.87123,0.69441
923.38144,0.58903
921.89165,0.61563
920.40186,0.64226
918.91207,0.64731
917.42228,0.59666
915.93250,0.60633
914.44271,0.64332
912.95292,0.62291
911.46313,0.60252
909.97334,0.66237
908.48355,0.66082
906.99376,0.71390
905.50398,0.59752
904.01419,0.58298
902.52440,0.56847
901.03461,0.63078
899.54482,0.65330
898.05503,0.65311
896.56525,0.66319
895.07546,0.62040
893.58567,0.57764
892.09588,0.66403
890.60609,0.75385
889.11630,0.70607
887.62651,0.74705
886.13673,0.75336
884.64694,0.75971
883.15715,0.67224
881.66736,0.68718
880.17757,0.70443
878.68778,0.77119
877.19800,0.83798
875.70821,0.79845
874.21842,0.84312
872.72863,0.98566
871.23884,1.01560
869.74905,1.03137
868.25927,1.04716
866.76948,1.00668
865.27969,1.00262
863.78990,1.07368
862.30011,1.04694
860.81032,1.03275
859.32053,1.01859
857.83075,1.09887
856.34096,0.99718
854.85117,0.93192
853.36138,0.77797
851.87159,0.71107
850.38180,0.64420
848.89202,0.62571
847.40223,0.45027
845.91244,0.37383
844.42265,0.37818
842.93286,0.38257
841.44307,0.37219
839.95329,0.36413
838.46350,0.37998
836.97371,0.34241
835.48392,0.31339
833.99413,0.28441
832.50434,0.35158
831.01455,0.28341
829.52477,0.30514
828.03498,0.27003
826.54519,0.24916
825.05540,0.22833
823.56561,0.26498
822.07582,0.24250
820.58604,0.17911
819.09625,0.17603
817.60646,0.17299
816.11667,0.09035
814.62688,0.12263
813.13709,0.06509
811.64730,0.00415
810.15752,0.01877
808.66773,0.03342
807.17794,0.06403
805.68815,0.06396
804.19836,0.11283
802.70857,0.15206
801.21879,0.19133
799.72900,0.19820
798.23921,0.22104
796.74942,0.37472
795.25963,0.44653
793.76984,0.51837
792.28006,0.54474
790.79027,0.56887
789.30048,0.60327
787.81069,0.67068
786.32090,0.61926
784.83111,0.56787
783.34132,0.68202
781.85154,0.74047
780.36175,0.78415
778.87196,0.76076
777.38217,0.73739
775.89238,0.84033
774.40259,0.81589
772.91281,0.85746
771.42302,0.85299
769.93323,0.84855
768.44344,0.81286
766.95365,0.83636
765.46386,0.80983
763.97407,0.78448
762.48429,0.75119
760.99450,0.71794
759.50471,0.58006
758.01492,0.44108
756.52513,0.45228
755.03534,0.38275
753.54556,0.31325
752.05577,0.28701
750.56598,0.24488
749.07619,0.07992
747.58640,0.10212
746.09661,0.12435
744.60683,0.05163
743.11704,0.04378
741.62725,0.02686
740.13746,0.05604
738.64767,0.08525
737.15788,0.04567
735.66809,0.05959
734.17831,0.00415
732.68852,0.06375
731.19873,0.12337
729.70894,0.08236
728.21915,0.05503
726.72936,0.07095
725.23958,0.00501
723.74979,0.03461
722.26000,0.06424
720.77021,0.04613
719.28042,0.11108
717.79063,0.11009
716.30084,0.10231
714.81106,0.09456
713.32127,0.01632
711.83148,0.00067
710.34169,0.02173
708.85190,0.01439
707.36211,0.00708
705.87233,0.09762
704.38254,0.01644
702.89275,0.00467
701.40296,0.02522
699.91317,0.04580
698.42338,0.09884
696.93360,0.14053
695.44381,0.18338
693.95402,0.20580
692.46423,0.22824
690.97444,0.17451
689.48465,0.24479
687.99486,0.30487
686.50508,0.28934
685.01529,0.27383
683.52550,0.32604
682.03571,0.28615
680.54592,0.24628
679.05613,0.26105
677.56635,0.27585
676.07656,0.24745
674.58677,0.15311
673.09698,0.12933
671.60719,0.12093
670.11740,0.11257
668.62761,0.13324
667.13783,0.10390
665.64804,0.10814
664.15825,0.11242
662.66846,0.08885
661.17867,0.07556
659.68888,0.02021
658.19910,0.05362
656.70931,0.08706
655.21952,0.04887
653.72973,0.12105
652.23994,0.12842
650.75015,0.14947
649.26037,0.17055
647.77058,0.12683
646.28079,0.12409
644.79100,0.07588
643.30121,0.07036
641.81142,0.06487
640.32163,0.03837
638.83185,0.09607
637.34206,0.04120
635.85227,0.08361
634.36248,0.12605
632.87269,0.00415
631.38290,0.01627
629.89312,0.06482
628.40333,0.04402
626.91354,0.02324
625.42375,0.02297
623.93396,0.08075
622.44417,0.09135
620.95438,0.10198
619.46460,0.04155
617.97481,0.06760
616.48502,0.08800
614.99523,0.10046
613.50544,0.11296
612.01565,0.15506
610.52587,0.19720
609.03608,0.16770
607.54629,0.13539
606.05650,0.10311
604.56671,0.15561
603.07692,0.13761
601.58714,0.15377
600.09735,0.16996
598.60756,0.13841
597.11777,0.09210
595.62798,0.12545
594.13819,0.10025
592.64840,0.07508
591.15862,0.10170
589.66883,0.10901
588.17904,0.13911
586.68925,0.14876
585.19946,0.15844
583.70967,0.14540
582.21989,0.09600
580.73010,0.13080
579.24031,0.16563
577.75052,0.12997
576.26073,0.20696
574.77094,0.23847
573.28115,0.23931
571.79137,0.24017
570.30158,0.30136
568.81179,0.23631
567.32200,0.29983
565.83221,0.36339
564.34242,0.39171
562.85264,0.44851
561.36285,0.50078
559.87306,0.47346
558.38327,0.44617
556.89348,0.55428
555.40369,0.63057
553.91391,0.64830
552.42412,0.66607
550.93433,0.60368
549.44454,0.68009
547.95475,0.74403
546.46496,0.70789
544.97517,0.67178
543.48539,0.84046
541.99560,0.77029
540.50581,0.80595
539.01602,0.84163
537.52623,0.80910
536.03644,0.70038
534.54666,0.68610
533.05687,0.69859
531.56708,0.71112
530.07729,0.59911
528.58750,0.52354
527.09771,0.55777
525.60792,0.59203
524.11814,0.55295
522.62835,0.50594
521.13856,0.44873
519.64877,0.40349
518.15898,0.35828
516.66919,0.43994
515.17941,0.26455
513.68962,0.29224
512.19983,0.31996
510.71004,0.32098
509.22025,0.32203
507.73046,0.37657
506.24068,0.40271
504.75089,0.42888
503.26110,0.46191
501.77131,0.38691
500.28152,0.39326
498.79173,0.39965
497.30194,0.37366
495.81216,0.44893
494.32237,0.45200
492.83258,0.45511
491.34279,0.43379
489.85300,0.45231
488.36321,0.29341
486.87343,0.28185
485.38364,0.27033
483.89385,0.26622
482.40406,0.20642
480.91427,0.16996
479.42448,0.13353
477.93469,0.11363
476.44491,0.08808
474.95512,0.06710
473.46533,0.04616
471.97554,0.00591
470.48575,0.06465
468.99596,0.07110
467.50618,0.06849
466.01639,0.06590
464.52660,0.00306
463.03681,0.04850
461.54702,0.04905
460.05723,0.04962
458.56745,0.00415
457.07766,0.03945
455.58787,0.09412
454.09808,0.14882
452.60829,0.20241
451.11850,0.17413
449.62871,0.22551
448.13893,0.27693
446.64914,0.29197
445.15935,0.45037
443.66956,0.53032
442.17977,0.53692
440.68998,0.54356
439.20020,0.58606
437.71041,0.77647
436.22062,0.79458
434.73083,0.81272
433.24104,0.98844
431.75125,1.08342
430.26146,1.11985
428.77168,1.15632
427.28189,1.23092
425.79210,1.29305
424.30231,1.31994
422.81252,1.34686
421.32273,1.43410
419.83295,1.39056
418.34316,1.23500
416.85337,1.07948
415.36358,0.94389
413.87379,0.88228
412.38400,0.81216
410.89422,0.74208
409.40443,0.78180
407.91464,0.81131
406.42485,0.75895
404.93506,0.67705
403.44527,0.59518
401.95548,0.54064
400.46570,0.45314
398.97591,0.48057
397.48612,0.50803
395.99633,0.48660
394.50654,0.54370
393.01675,0.57353
391.52697,0.60339
390.03718,0.49905
388.54739,0.51304
387.05760,0.41730
385.56781,0.32159
384.07802,0.39938
382.58824,0.47834
381.09845,0.41458
379.60866,0.35084
378.11887,0.28316
376.62908,0.22688
375.13929,0.16836
373.64950,0.10987
372.15972,0.19132
370.66993,0.13517
369.18014,0.11716
367.69035,0.09918
366.20056,0.07952
364.71077,0.00415
363.22099,0.04698
361.73120,0.08984
360.24141,0.09633
358.75162,0.11650
357.26183,0.11168
355.77204,0.10689
354.28225,0.09644
352.79247,0.07010
351.30268,0.03696
349.81289,0.00386
348.32310,0.06179
346.83331,0.13112
345.34352,0.07081
343.85374,0.01054
342.36395,0.04911
340.87416,0.08203
339.38437,0.09450
337.89458,0.10701
336.40479,0.13775
334.91501,0.09799
333.42522,0.08500
331.93543,0.07204
330.44564,0.11200
328.95585,0.10195
327.46606,0.11695
325.97627,0.13198
324.48649,0.02874
322.99670,0.04870
321.50691,0.05220
320.01712,0.05573
318.52733,0.07123
317.03754,0.05491
315.54776,0.09949
314.05797,0.14409
312.56818,0.15972
311.07839,0.15377
309.58860,0.12396
308.09881,0.09419
306.60902,0.02804
305.11924,0.06999
303.62945,0.05339
302.13966,0.00415
300.64987,0.06898
299.16008,0.00415
