1778.52000,0.07442
1777.03021,0.07804
1775.54042,0.00683
1774.05063,0.03204
1772.56085,0.04136
1771.07106,0.03763
1769.58127,0.04796
1768.09148,0.02557
1766.60169,0.05561
1765.11190,0.07353
1763.62212,0.06153
1762.13233,0.05238
1760.64254,0.06852
1759.15275,0.06036
1757.66296,0.02417
1756.17317,0.03105
1754.68339,0.05481
1753.19360,0.05146
1751.70381,0.04347
1750.21402,0.03271
1748.72423,0.01823
1747.23444,0.05522
1745.74465,0.04920
1744.25487,0.04883
1742.76508,0.07844
1741.27529,0.06597
1739.78550,0.05353
1738.29571,0.05142
1736.80592,0.02127
1735.31614,0.04729
1733.82635,0.07615
1732.33656,0.05639
1730.84677,0.05632
1729.35698,0.02727
1727.86719,0.08246
1726.37740,0.08061
1724.88762,0.01423
1723.39783,0.00683
1721.90804,0.04325
1720.41825,0.04320
1718.92846,0.04318
1717.43867,0.08998
1715.94889,0.07880
1714.45910,0.09947
1712.96931,0.05842
1711.47952,0.05576
1709.98973,0.06062
1708.49994,0.07393
1707.01016,0.08494
1705.52037,0.09598
1704.03058,0.09629
1702.54079,0.11348
1701.05100,0.13631
1699.56121,0.11988
1698.07142,0.13249
1696.58164,0.08992
1695.09185,0.14470
1693.60206,0.15179
1692.11227,0.17950
1690.62248,0.19602
1689.13269,0.20788
1687.64291,0.15709
1686.15312,0.16996
1684.66333,0.18754
1683.17354,0.18270
1681.68375,0.18070
1680.19396,0.21241
1678.70417,0.19831
1677.21439,0.20015
1675.72460,0.17769
1674.23481,0.22451
1672.74502,0.22738
1671.25523,0.20689
1669.76544,0.22106
1668.27566,0.21654
1666.78587,0.15124
1665.29608,0.16270
1663.80629,0.15641
1662.31650,0.19693
1660.82671,0.21972
1659.33693,0.18826
1657.84714,0.16433
1656.35735,0.12733
1654.86756,0.16147
1653.37777,0.15448
1651.88798,0.14938
1650.39819,0.11345
1648.90841,0.16644
1647.41862,0.12682
1645.92883,0.13028
1644.43904,0.13378
1642.94925,0.13824
1641.45946,0.15022
1639.96968,0.09300
1638.47989,0.09475
1636.99010,0.12741
1635.50031,0.11707
1634.01052,0.10676
1632.52073,0.13110
1631.03094,0.10682
1629.54116,0.13590
1628.05137,0.12947
1626.56158,0.10903
1625.07179,0.14850
1623.58200,0.21047
1622.09221,0.18264
1620.60243,0.11555
1619.11264,0.21597
1617.62285,0.14988
1616.13306,0.16429
1614.64327,0.10949
1613.15348,0.13613
1611.66370,0.15438
1610.17391,0.13150
1608.68412,0.11706
1607.19433,0.16816
1605.70454,0.13789
1604.21475,0.13618
1602.72496,0.13451
1601.23518,0.14925
1599.74539,0.11817
1598.25560,0.12268
1596.76581,0.09448
1595.27602,0.07847
1593.78623,0.07278
1592.29645,0.10175
1590.80666,0.08303
1589.31687,0.10552
1587.82708,0.09435
1586.33729,0.07199
1584.84750,0.05714
1583.35771,0.06760
1581.86793,0.04814
1580.37814,0.04743
1578.88835,0.07856
1577.39856,0.03020
1575.90877,0.04175
1574.41898,0.00000
1572.92920,0.03782
1571.43941,0.02794
1569.94962,0.02887
1568.45983,0.02982
1566.97004,0.03502
1565.48025,0.00937
1563.99047,0.04832
1562.50068,0.00683
1561.01089,0.01493
1559.52110,0.02587
1558.03131,0.03122
1556.54152,0.04035
1555.05173,0.10191
1553.56195,0.06152
1552.07216,0.07823
1550.58237,0.01919
1549.09258,0.00883
1547.60279,0.04062
1546.11300,0.00694
1544.62322,0.01533
1543.13343,0.03592
1541.64364,0.02006
1540.15385,0.02481
1538.66406,0.02960
1537.17427,0.03816
1535.68448,0.01587
1534.19470,0.04228
1532.70491,0.01257
1531.21512,0.04278
1529.72533,0.00192
1528.23554,0.00451
1526.74575,0.00339
1525.25597,0.00960
1523.76618,0.07291
1522.27639,0.04737
1520.78660,0.01625
1519.29681,0.02726
1517.80702,0.01211
1516.31724,0.01103
1514.82745,0.00811
1513.33766,0.01286
1511.84787,0.01765
1510.35808,0.06411
1508.86829,0.01048
1507.37850,0.02239
1505.88872,0.01000
1504.39893,0.01542
1502.90914,0.00683
1501.41935,0.02405
1499.92956,0.02913
1498.43977,0.08664
1496.94999,0.11050
1495.46020,0.12972
1493.97041,0.14055
1492.48062,0.24684
1490.99083,0.20347
1489.50104,0.29954
1488.01125,0.32828
1486.52147,0.35704
1485.03168,0.47848
1483.54189,0.46427
1482.05210,0.61665
1480.56231,0.61186
1479.07252,0.75121
1477.58274,0.86532
1476.09295,0.89619
1474.60316,0.99446
1473.11337,1.05534
1471.62358,1.07133
1470.13379,1.10233
1468.64401,1.00986
1467.15422,0.96046
1465.66443,0.91109
1464.17464,0.86175
1462.68485,0.89291
1461.19506,0.91756
1459.70527,0.83277
1458.21549,0.71993
1456.72570,0.67450
1455.23591,0.66373
1453.74612,0.57345
1452.25633,0.51502
1450.76654,0.50995
1449.27676,0.47498
1447.78697,0.44752
1446.29718,0.40419
1444.80739,0.35482
1443.31760,0.30547
1441.82781,0.28002
1440.33802,0.22933
1438.84824,0.19085
1437.35845,0.15239
1435.86866,0.11023
1434.37887,0.16260
1432.88908,0.21968
1431.39929,0.18510
1429.90951,0.20763
1428.41972,0.18434
1426.92993,0.22097
1425.44014,0.27822
1423.95035,0.24895
1422.46056,0.21971
1420.97078,0.25928
1419.48099,0.27923
1417.99120,0.24307
1416.50141,0.26309
1415.01162,0.23074
1413.52183,0.27234
1412.03204,0.28965
1410.54226,0.26863
1409.05247,0.24577
1407.56268,0.33709
1406.07289,0.30681
1404.58310,0.33972
1403.09331,0.37266
1401.60353,0.36213
1400.11374,0.31327
1398.62395,0.41695
1397.13416,0.38967
1395.64437,0.44851
1394.15458,0.55229
1392.66479,0.46430
1391.17501,0.46616
1389.68522,0.56068
1388.19543,0.53360
1386.70564,0.52059
1385.21585,0.50761
1383.72606,0.51899
1382.23628,0.51730
1380.74649,0.47822
1379.25670,0.53087
1377.76691,0.45162
1376.27712,0.53521
1374.78733,0.58609
1373.29755,0.67349
1371.80776,0.75344
1370.31797,0.90078
1368.82818,1.01869
1367.33839,1.13663
1365.84860,1.25133
1364.35881,1.43998
1362.86903,1.53603
1361.37924,1.51890
1359.88945,1.65150
1358.39966,1.70835
1356.90987,1.76804
1355.42008,1.68086
1353.93030,1.64799
1352.44051,1.57257
1350.95072,1.49719
1349.46093,1.43914
1347.97114,1.29505
1346.48135,1.12292
1344.99156,0.90966
1343.50178,0.87046
1342.01199,0.70124
1340.52220,0.64433
1339.03241,0.58277
1337.54262,0.61014
1336.05283,0.59263
1334.56305,0.57515
1333.07326,0.50624
1331.58347,0.51596
1330.09368,0.39752
1328.60389,0.31467
1327.11410,0.34882
1325.62432,0.36803
1324.13453,0.35639
1322.64474,0.36537
1321.15495,0.36971
1319.66516,0.33525
1318.17537,0.30082
1316.68558,0.31835
1315.19580,0.29475
1313.70601,0.25246
1312.21622,0.31126
1310.72643,0.25782
1309.23664,0.18943
1307.74685,0.25488
1306.25707,0.22492
1304.76728,0.24646
1303.27749,0.26803
1301.78770,0.23350
1300.29791,0.20461
1298.80812,0.22815
1297.31834,0.21523
1295.82855,0.23696
1294.33876,0.26902
1292.84897,0.26369
1291.35918,0.23406
1289.86939,0.25265
1288.37960,0.27128
1286.88982,0.22584
1285.40003,0.29926
1283.91024,0.27448
1282.42045,0.34516
1280.93066,0.29705
1279.44087,0.34815
1277.95109,0.30946
1276.46130,0.34659
1274.97151,0.33042
1273.48172,0.31429
1271.99193,0.40391
1270.50214,0.44866
1269.01235,0.44479
1267.52257,0.47089
1266.03278,0.48299
1264.54299,0.49886
1263.05320,0.51757
1261.56341,0.51760
1260.07362,0.51767
1258.58384,0.47285
1257.09405,0.53661
1255.60426,0.51151
1254.11447,0.55288
1252.62468,0.52223
1251.13489,0.46354
1249.64511,0.47787
1248.15532,0.41364
1246.66553,0.36300
1245.17574,0.31240
1243.68595,0.32967
1242.19616,0.36568
1240.70637,0.36711
1239.21659,0.30494
1237.72680,0.27649
1236.23701,0.22468
1234.74722,0.17852
1233.25743,0.16608
1231.76764,0.15366
1230.27786,0.21614
1228.78807,0.19350
1227.29828,0.22516
1225.80849,0.11370
1224.31870,0.14449
1222.82891,0.14444
1221.33912,0.16594
1219.84934,0.16128
1218.35955,0.15665
1216.86976,0.18667
1215.37997,0.19520
1213.89018,0.20658
1212.40039,0.13939
1210.91061,0.13866
1209.42082,0.14077
1207.93103,0.14105
1206.44124,0.14136
1204.95145,0.12205
1203.46166,0.09436
1201.97188,0.09757
1200.48209,0.12047
1198.99230,0.16679
1197.50251,0.08308
1196.01272,0.07894
1194.52293,0.08092
1193.03314,0.08292
1191.54336,0.00683
1190.05357,0.02629
1188.56378,0.05326
1187.07399,0.07933
1185.58420,0.00906
1184.09441,0.06327
1182.60463,0.07540
1181.11484,0.08757
1179.62505,0.08012
1178.13526,0.15411
1176.64547,0.07842
1175.15568,0.05984
1173.66589,0.09556
1172.17611,0.09763
1170.68632,0.08336
1169.19653,0.06912
1167.70674,0.04696
1166.21695,0.04636
1164.72716,0.07198
1163.23738,0.07144
1161.74759,0.03351
1160.25780,0.00683
1158.76801,0.03885
1157.27822,0.07089
1155.78843,0.07022
1154.29865,0.09578
1152.80886,0.11764
1151.31907,0.05531
1149.82928,0.10436
1148.33949,0.11602
1146.84970,0.12864
1145.35991,0.14130
1143.87013,0.08008
1142.38034,0.08906
1140.89055,0.11585
1139.40076,0.19227
1137.91097,0.22567
1136.42118,0.24414
1134.93140,0.23364
1133.44161,0.22317
1131.95182,0.29507
1130.46203,0.32303
1128.97224,0.31733
1127.48245,0.29951
1125.99266,0.35750
1124.50288,0.45015
1123.01309,0.43523
1121.52330,0.42035
1120.03351,0.46537
1118.54372,0.45617
1117.05393,0.45916
1115.56415,0.35270
1114.07436,0.41938
1112.58457,0.42060
1111.09478,0.42185
1109.60499,0.47085
1108.11520,0.52362
1106.62542,0.55023
1105.13563,0.61618
1103.64584,0.71396
1102.15605,0.77248
1100.66626,0.77490
1099.17647,0.77734
1097.68668,0.76017
1096.19690,0.72339
1094.70711,0.92991
1093.21732,0.86886
1091.72753,0.83592
1090.23774,0.89096
1088.74795,0.94603
1087.25817,0.98055
1085.76838,0.98704
1084.27859,1.05531
1082.78880,1.04782
1081.29901,1.10961
1079.80922,1.10500
1078.31943,1.15562
1076.82965,1.20628
1075.33986,1.25229
1073.85007,1.35167
1072.36028,1.34254
1070.87049,1.30537
1069.38070,1.32719
1067.89092,1.31816
1066.40113,1.30916
1064.91134,1.23377
1063.42155,1.20519
1061.93176,1.12143
1060.44197,1.05643
1058.95219,1.04479
1057.46240,1.00605
1055.97261,0.96734
1054.48282,0.86691
1052.99303,0.75060
1051.50324,0.72228
1050.01345,0.61540
1048.52367,0.59276
1047.03388,0.60758
1045.54409,0.62244
1044.05430,0.56247
1042.56451,0.47540
1041.07472,0.47632
1039.58494,0.35937
1038.09515,0.28176
1036.60536,0.29166
1035.11557,0.30160
1033.62578,0.30081
1032.13599,0.28976
1030.64620,0.31243
1029.15642,0.34074
1027.66663,0.34897
1026.17684,0.35723
1024.68705,0.42120
1023.19726,0.53105
1021.70747,0.78503
1020.21769,0.93237
1018.72790,1.11717
1017.23811,1.21265
1015.74832,1.30816
1014.25853,1.56978
1012.76874,1.67518
1011.27896,1.77874
1009.78917,1.98620
1008.29938,2.00000
1006.80959,1.97734
1005.31980,1.95472
1003.83001,1.83014
1002.34022,1.71121
1000.85044,1.65219
999.36065,1.51741
997.87086,1.49776
996.38107,1.47814
994.89128,1.41738
993.40149,1.42870
991.91171,1.42228
990.42192,1.42244
988.93213,1.38427
987.44234,1.34894
985.95255,1.31364
984.46276,1.33546
982.97297,1.19449
981.48319,1.19111
979.99340,1.12319
978.50361,1.07823
977.01382,1.03331
975.52403,1.04970
974.03424,0.93139
972.54446,0.91136
971.05467,0.82118
969.56488,0.86297
968.07509,0.81871
966.58530,0.77448
965.09551,0.71625
963.60573,0.72074
962.11594,0.67193
960.62615,0.65310
959.13636,0.61184
957.64657,0.57062
956.15678,0.50510
954.66699,0.58183
953.17721,0.57065
951.68742,0.58289
950.19763,0.52873
948.70784,0.47460
947.21805,0.55244
945.72826,0.52551
944.23848,0.46961
942.74869,0.52322
941.25890,0.55908
939.76911,0.55708
938.27932,0.55511
936.78953,0.62195
935.29974,0.64390
933.80996,0.64344
932.32017,0.64675
930.83038,0.70389
929.34059,0.76107
927.85080,0.70646
926.36101,0.65095
924.87123,0.48881
923.38144,0.52226
921.89165,0.53843
920.40186,0.55463
918.91207,0.48806
917.42228,0.51790
915.93250,0.63478
914.44271,0.67310
912.95292,0.67731
911.46313,0.68154
909.97334,0.61049
908.48355,0.68263
906.99376,0.59012
905.50398,0.63238
904.01419,0.60216
902.52440,0.57197
901.03461,0.68451
899.54482,0.68199
898.05503,0.62336
896.56525,0.63307
895.07546,0.66293
893.58567,0.69282
892.09588,0.69889
890.60609,0.71809
889.11630,0.75416
887.62651,0.70137
886.13673,0.72394
884.64694,0.74655
883.15715,0.77246
881.66736,0.71326
880.17757,0.72333
878.68778,0.75776
877.19800,0.79222
875.70821,0.76590
874.21842,0.73119
872.72863,0.88177
871.23884,0.92759
869.74905,0.94023
868.25927,0.95290
866.76948,0.92304
865.27969,0.93437
863.78990,1.00562
862.30011,1.02076
860.81032,0.99664
859.32053,0.97254
857.83075,0.91948
856.34096,0.98902
854.85117,0.86585
853.36138,0.75393
851.87159,0.68930
850.38180,0.62471
848.89202,0.55780
847.40223,0.44602
845.91244,0.36889
844.42265,0.38255
842.93286,0.39625
841.44307,0.36694
839.95329,0.31614
838.46350,0.32526
836.97371,0.27920
835.48392,0.27902
833.99413,0.27888
832.50434,0.26661
831.01455,0.28244
829.52477,0.31421
828.03498,0.24402
826.54519,0.21223
825.05540,0.18047
823.56561,0.20769
822.07582,0.21810
820.58604,0.11720
819.09625,0.09587
817.60646,0.07457
816.11667,0.07295
814.62688,0.00867
813.13709,0.02489
811.64730,0.03179
810.15752,0.03638
808.66773,0.04101
807.17794,0.00683
805.68815,0.04152
804.19836,0.03040
802.70857,0.04410
801.21879,0.05783
799.72900,0.09359
798.23921,0.20236
796.74942,0.30929
795.25963,0.34514
793.76984,0.38103
792.28006,0.37484
790.79027,0.39301
789.30048,0.46923
787.81069,0.47531
786.32090,0.50294
784.83111,0.53060
783.34132,0.64251
781.85154,0.58696
780.36175,0.60630
778.87196,0.61023
777.38217,0.61419
775.89238,0.68509
774.40259,0.76725
772.91281,0.72687
771.42302,0.76887
769.93323,0.81089
768.44344,0.79119
766.95365,0.74533
765.46386,0.80897
763.97407,0.80154
762.48429,0.71320
760.99450,0.62489
759.50471,0.55393
758.01492,0.43341
756.52513,0.43081
755.03534,0.39036
753.54556,0.34993
752.05577,0.28662
750.56598,0.22428
749.07619,0.11424
747.58640,0.10670
746.09661,0.09919
744.60683,0.05288
743.11704,0.04029
741.62725,0.04177
740.13746,0.04842
738.64767,0.05511
737.15788,0.06417
735.66809,0.00683
734.17831,0.07568
732.68852,0.08842
731.19873,0.10119
729.70894,0.05505
728.21915,0.10063
726.72936,0.00683
725.23958,0.05282
723.74979,0.06048
722.26000,0.06817
720.77021,0.08806
719.28042,0.12670
717.79063,0.05683
716.30084,0.05997
714.81106,0.06315
713.32127,0.00180
711.83148,0.06763
710.34169,0.02497
708.85190,0.02257
707.36211,0.02020
705.87233,0.03284
704.38254,0.00714
702.89275,0.03160
701.40296,0.05329
699.91317,0.07500
698.42338,0.11921
696.93360,0.14099
695.44381,0.13099
693.95402,0.10278
692.46423,0.07460
690.97444,0.14891
689.48465,0.18489
687.99486,0.21903
686.50508,0.20549
685.01529,0.19198
683.52550,0.27113
682.03571,0.27266
680.54592,0.21714
679.05613,0.21779
677.56635,0.21848
676.07656,0.20610
674.58677,0.13761
673.09698,0.15992
671.60719,0.15980
670.11740,0.15972
668.62761,0.12037
667.13783,0.06701
665.64804,0.06703
664.15825,0.06707
662.66846,0.07744
661.17867,0.05978
659.68888,0.04308
658.19910,0.07601
656.70931,0.10897
655.21952,0.09517
653.72973,0.11697
652.23994,0.09763
650.75015,0.10452
649.26037,0.11144
647.77058,0.08191
646.28079,0.05334
644.79100,0.07253
643.30121,0.05151
641.81142,0.03053
640.32163,0.08069
638.83185,0.03825
637.34206,0.04731
635.85227,0.04704
634.36248,0.04681
632.87269,0.07187
631.38290,0.06141
629.89312,0.05192
628.40333,0.02936
626.91354,0.00683
625.42375,0.01366
623.93396,0.10098
622.44417,0.11115
620.95438,0.12135
619.46460,0.05438
617.97481,0.08102
616.48502,0.09459
614.99523,0.11053
613.50544,0.12651
612.01565,0.14766
610.52587,0.05844
609.03608,0.06562
607.54629,0.08407
606.05650,0.10255
604.56671,0.28106
603.07692,0.18732
601.58714,0.16800
600.09735,0.14872
598.60756,0.09438
597.11777,0.09060
595.62798,0.13831
594.13819,0.09389
592.64840,0.04951
591.15862,0.04773
589.66883,0.09931
588.17904,0.15374
586.68925,0.14458
585.19946,0.13544
583.70967,0.07020
582.21989,0.11727
580.73010,0.12929
579.24031,0.14134
577.75052,0.17822
576.26073,0.17864
574.77094,0.10798
573.28115,0.14262
571.79137,0.17729
570.30158,0.17129
568.81179,0.35808
567.32200,0.32314
565.83221,0.28823
564.34242,0.20657
562.85264,0.26998
561.36285,0.44289
559.87306,0.44414
558.38327,0.44542
556.89348,0.41165
555.40369,0.56691
553.91391,0.53554
552.42412,0.50421
550.93433,0.62401
549.44454,0.65029
547.95475,0.61297
546.46496,0.63510
544.97517,0.65726
543.48539,0.69021
541.99560,0.75501
540.50581,0.74639
539.01602,0.73781
537.52623,0.65487
536.03644,0.65898
534.54666,0.67155
533.05687,0.64157
531.56708,0.61163
530.07729,0.59903
528.58750,0.57243
527.09771,0.55615
525.60792,0.53991
524.11814,0.50498
522.62835,0.47103
521.13856,0.47640
519.64877,0.44579
518.15898,0.41520
516.66919,0.36079
515.17941,0.29986
513.68962,0.33254
512.19983,0.36525
510.71004,0.32407
509.22025,0.39052
507.73046,0.45233
506.24068,0.41827
504.75089,0.38424
503.26110,0.38814
501.77131,0.38364
500.28152,0.37170
498.79173,0.35979
497.30194,0.33013
495.81216,0.33139
494.32237,0.36916
492.83258,0.40697
491.34279,0.46073
489.85300,0.48644
488.36321,0.29230
486.87343,0.27597
485.38364,0.25968
483.89385,0.31078
482.40406,0.19256
480.91427,0.18385
479.42448,0.17518
477.93469,0.16279
476.44491,0.18412
474.95512,0.15495
473.46533,0.12582
471.97554,0.05368
470.48575,0.00683
468.99596,0.04010
467.50618,0.04159
466.01639,0.04311
464.52660,0.05682
463.03681,0.02940
461.54702,0.06050
460.05723,0.09162
458.56745,0.05962
457.07766,0.08660
455.58787,0.14496
454.09808,0.20335
452.60829,0.14434
451.11850,0.11157
449.62871,0.15836
448.13893,0.20519
446.64914,0.24643
445.15935,0.39438
443.66956,0.50399
442.17977,0.49855
440.68998,0.49314
439.20020,0.51958
437.71041,0.48523
436.22062,0.60437
434.73083,0.72353
433.24104,0.84928
431.75125,0.96103
430.26146,1.01948
428.77168,1.07796
427.28189,1.15238
425.79210,1.13045
424.30231,1.10342
422.81252,1.07641
421.32273,1.10699
419.83295,0.97478
418.34316,0.93010
416.85337,0.88545
415.36358,0.80668
413.87379,0.73075
412.38400,0.68012
410.89422,0.62951
409.40443,0.57988
407.91464,0.64350
406.42485,0.47697
404.93506,0.45644
403.44527,0.43595
401.95548,0.44168
400.46570,0.43622
398.97591,0.44951
397.48612,0.46283
395.99633,0.41536
394.50654,0.49331
393.01675,0.46790
391.52697,0.44252
390.03718,0.33062
388.54739,0.24682
387.05760,0.28376
385.56781,0.32074
384.07802,0.36897
382.58824,0.47712
381.09845,0.39536
379.60866,0.31364
378.11887,0.16177
376.62908,0.19987
375.13929,0.18234
373.64950,0.16484
372.15972,0.15345
370.66993,0.14678
369.18014,0.13358
367.69035,0.12042
366.20056,0.08203
364.71077,0.09794
363.22099,0.14149
361.73120,0.18507
360.24141,0.11032
358.75162,0.11139
357.26183,0.14338
355.77204,0.17539
354.28225,0.07457
352.79247,0.07203
351.30268,0.06110
349.81289,0.05021
348.32310,0.06180
346.83331,0.08653
345.34352,0.07433
343.85374,0.06216
342.36395,0.02336
340.87416,0.08658
339.38437,0.10352
337.89458,0.12048
336.40479,0.13234
334.91501,0.10774
333.42522,0.11545
331.93543,0.12319
330.44564,0.10150
328.95585,0.14720
327.46606,0.09329
325.97627,0.03941
324.48649,0.09842
322.99670,0.03864
321.50691,0.04907
320.01712,0.05953
318.52733,0.17575
317.03754,0.20405
315.54776,0.17812
314.05797,0.15222
312.56818,0.11138
311.07839,0.03595
309.58860,0.02138
308.09881,0.00683
306.60902,0.02961
305.11924,0.01217
303.62945,0.04484
302.13966,0.01997
300.64987,0.00683
299.16008,0.00683
