1778.52000,0.03328
1777.03021,0.03037
1775.54042,0.01025
1774.05063,0.04650
1772.56085,0.00000
1771.07106,0.04206
1769.58127,0.02551
1768.09148,0.04349
1766.60169,0.05920
1765.11190,0.03240
1763.62212,0.02863
1762.13233,0.05592
1760.64254,0.06256
1759.15275,0.02669
1757.66296,0.07822
1756.17317,0.07116
1754.68339,0.03538
1753.19360,0.05367
1751.70381,0.03175
1750.21402,0.01217
1748.72423,0.04549
1747.23444,0.01677
1745.74465,0.07376
1744.25487,0.06639
1742.76508,0.07515
1741.27529,0.10234
1739.78550,0.08357
1738.29571,0.03035
1736.80592,0.06452
1735.31614,0.06654
1733.82635,0.03526
1732.33656,0.06838
1730.84677,0.09693
1729.35698,0.08758
1727.86719,0.08516
1726.37740,0.04943
1724.88762,0.04017
1723.39783,0.02634
1721.90804,0.07118
1720.41825,0.07466
1718.92846,0.00000
1717.43867,0.06216
1715.94889,0.04962
1714.45910,0.05320
1712.96931,0.07867
1711.47952,0.07197
1709.98973,0.10209
1708.49994,0.09546
1707.01016,0.08655
1705.52037,0.07768
1704.03058,0.11598
1702.54079,0.09337
1701.05100,0.12598
1699.56121,0.10689
1698.07142,0.13151
1696.58164,0.11478
1695.09185,0.17856
1693.60206,0.17109
1692.11227,0.19354
1690.62248,0.14704
1689.13269,0.20404
1687.64291,0.17255
1686.15312,0.21927
1684.66333,0.23268
1683.17354,0.23347
1681.68375,0.19751
1680.19396,0.21331
1678.70417,0.18546
1677.21439,0.15419
1675.72460,0.18388
1674.23481,0.19981
1672.74502,0.21346
1671.25523,0.15243
1669.76544,0.22133
1668.27566,0.18335
1666.78587,0.20748
1665.29608,0.14197
1663.80629,0.14547
1662.31650,0.16510
1660.82671,0.10888
1659.33693,0.18030
1657.84714,0.16323
1656.35735,0.15194
1654.86756,0.11654
1653.37777,0.12026
1651.88798,0.14700
1650.39819,0.13584
1648.90841,0.14540
1647.41862,0.12740
1645.92883,0.10311
1644.43904,0.07885
1642.94925,0.14027
1641.45946,0.15458
1639.96968,0.17008
1638.47989,0.10168
1636.99010,0.13563
1635.50031,0.15467
1634.01052,0.14155
1632.52073,0.15950
1631.03094,0.13380
1629.54116,0.17366
1628.05137,0.16181
1626.56158,0.11321
1625.07179,0.17041
1623.58200,0.16900
1622.09221,0.16878
1620.60243,0.17318
1619.11264,0.15463
1617.62285,0.14760
1616.13306,0.17279
1614.64327,0.18652
1613.15348,0.13475
1611.66370,0.16004
1610.17391,0.16466
1608.68412,0.10954
1607.19433,0.14756
1605.70454,0.12239
1604.21475,0.12886
1602.72496,0.13537
1601.23518,0.15743
1599.74539,0.12203
1598.25560,0.13840
1596.76581,0.10767
1595.27602,0.13905
1593.78623,0.15551
1592.29645,0.10303
1590.80666,0.10001
1589.31687,0.13497
1587.82708,0.11477
1586.33729,0.11529
1584.84750,0.07906
1583.35771,0.08080
1581.86793,0.06647
1580.37814,0.07517
1578.88835,0.08390
1577.39856,0.12485
1575.90877,0.04167
1574.41898,0.02405
1572.92920,0.05475
1571.43941,0.01880
1569.94962,0.01680
1568.45983,0.01482
1566.97004,0.03300
1565.48025,0.05121
1563.99047,0.07060
1562.50068,0.06243
1561.01089,0.01865
1559.52110,0.05193
1558.03131,0.06569
1556.54152,0.05190
1555.05173,0.07147
1553.56195,0.09683
1552.07216,0.10612
1550.58237,0.07176
1549.09258,0.07766
1547.60279,0.08360
1546.11300,0.07922
1544.62322,0.07028
1543.13343,0.10620
1541.64364,0.03178
1540.15385,0.03730
1538.66406,0.04285
1537.17427,0.08925
1535.68448,0.09083
1534.19470,0.05107
1532.70491,0.03662
1531.21512,0.08544
1529.72533,0.02162
1528.23554,0.01877
1526.74575,0.06193
1525.25597,0.03845
1523.76618,0.06213
1522.27639,0.03755
1520.78660,0.06820
1519.29681,0.00000
1517.80702,0.04521
1516.31724,0.01917
1514.82745,0.04375
1513.33766,0.05054
1511.84787,0.05736
1510.35808,0.08548
1508.86829,0.05500
1507.37850,0.04869
1505.88872,0.02402
1504.39893,0.04077
1502.90914,0.00007
1501.41935,0.03642
1499.92956,0.03947
1498.43977,0.09773
1496.94999,0.07210
1495.46020,0.17066
1493.97041,0.19683
1492.48062,0.18968
1490.99083,0.23085
1489.50104,0.37668
1488.01125,0.38802
1486.52147,0.39940
1485.03168,0.46829
1483.54189,0.49697
1482.05210,0.59926
1480.56231,0.71308
1479.07252,0.77634
1477.58274,0.78216
1476.09295,0.84894
1474.60316,0.98357
1473.11337,0.99293
1471.62358,0.97818
1470.13379,1.01174
1468.64401,1.05683
1467.15422,0.90881
1465.66443,0.86372
1464.17464,0.81865
1462.68485,0.79259
1461.19506,0.77231
1459.70527,0.72906
1458.21549,0.70424
1456.72570,0.65646
1455.23591,0.61791
1453.74612,0.51960
1452.25633,0.49261
1450.76654,0.40816
1449.27676,0.45941
1447.78697,0.39572
1446.29718,0.38840
1444.80739,0.36673
1443.31760,0.34510
1441.82781,0.27579
1440.33802,0.26284
1438.84824,0.18784
1437.35845,0.17725
1435.86866,0.16555
1434.37887,0.17112
1432.88908,0.15028
1431.39929,0.16626
1429.90951,0.14318
1428.41972,0.15463
1426.92993,0.17300
1425.44014,0.17071
1423.95035,0.14201
1422.46056,0.11335
1420.97078,0.15369
1419.48099,0.25154
1417.99120,0.23446
1416.50141,0.21282
1415.01162,0.29812
1413.52183,0.28344
1412.03204,0.23084
1410.54226,0.18863
1409.05247,0.21083
1407.56268,0.22961
1406.07289,0.23922
1404.58310,0.24139
1403.09331,0.24360
1401.60353,0.24871
1400.11374,0.29868
1398.62395,0.36479
1397.13416,0.39068
1395.64437,0.43615
1394.15458,0.37014
1392.66479,0.40533
1391.17501,0.41640
1389.68522,0.51948
1388.19543,0.47314
1386.70564,0.48546
1385.21585,0.49781
1383.72606,0.45731
1382.23628,0.49501
1380.74649,0.52930
1379.25670,0.46360
1377.76691,0.45656
1376.27712,0.49324
1374.78733,0.54720
1373.29755,0.62533
1371.80776,0.70119
1370.31797,0.88170
1368.82818,0.95188
1367.33839,1.02209
1365.84860,1.21074
1364.35881,1.41207
1362.86903,1.47893
1361.37924,1.56880
1359.88945,1.64147
1358.39966,1.66243
1356.90987,1.77539
1355.42008,1.77112
1353.93030,1.60018
1352.44051,1.55344
1350.95072,1.50673
1349.46093,1.37267
1347.97114,1.20991
1346.48135,1.08166
1344.99156,0.93046
1343.50178,0.84826
1342.01199,0.70747
1340.52220,0.59199
1339.03241,0.52484
1337.54262,0.59337
1336.05283,0.55502
1334.56305,0.51670
1333.07326,0.45426
1331.58347,0.41600
1330.09368,0.43871
1328.60389,0.35108
1327.11410,0.32211
1325.62432,0.34720
1324.13453,0.30335
1322.64474,0.29977
1321.15495,0.29967
1319.66516,0.32892
1318.17537,0.35819
1316.68558,0.26391
1315.19580,0.27658
1313.70601,0.24100
1312.21622,0.20889
1310.72643,0.20211
1309.23664,0.16547
1307.74685,0.28062
1306.25707,0.17621
1304.76728,0.18852
1303.27749,0.20087
1301.78770,0.22186
1300.29791,0.19576
1298.80812,0.19957
1297.31834,0.20227
1295.82855,0.26478
1294.33876,0.21926
1292.84897,0.23699
1291.35918,0.16164
1289.86939,0.16622
1288.37960,0.17083
1286.88982,0.23468
1285.40003,0.29396
1283.91024,0.27049
1282.42045,0.24246
1280.93066,0.27424
1279.44087,0.26812
1277.95109,0.25168
1276.46130,0.31115
1274.97151,0.28040
1273.48172,0.24968
1271.99193,0.32074
1270.50214,0.33090
1269.01235,0.40777
1267.52257,0.37890
1266.03278,0.38915
1264.54299,0.44312
1263.05320,0.48332
1261.56341,0.49137
1260.07362,0.49945
1258.58384,0.47077
1257.09405,0.48580
1255.60426,0.48363
1254.11447,0.46884
1252.62468,0.53110
1251.13489,0.50143
1249.64511,0.41201
1248.15532,0.30882
1246.66553,0.29073
1245.17574,0.27268
1243.68595,0.31789
1242.19616,0.31485
1240.70637,0.29459
1239.21659,0.31920
1237.72680,0.21163
1236.23701,0.24435
1234.74722,0.16444
1233.25743,0.17250
1231.76764,0.18060
1230.27786,0.14216
1228.78807,0.14860
1227.29828,0.13437
1225.80849,0.09948
1224.31870,0.11635
1222.82891,0.05163
1221.33912,0.06742
1219.84934,0.10163
1218.35955,0.13588
1216.86976,0.06439
1215.37997,0.11824
1213.89018,0.12268
1212.40039,0.13866
1210.91061,0.08913
1209.42082,0.11207
1207.93103,0.11607
1206.44124,0.12010
1204.95145,0.09829
1203.46166,0.11330
1201.97188,0.11685
1200.48209,0.06869
1198.99230,0.12979
1197.50251,0.07939
1196.01272,0.05892
1194.52293,0.04653
1193.03314,0.03417
1191.54336,0.00000
1190.05357,0.05269
1188.56378,0.02033
1187.07399,0.01100
1185.58420,0.00515
1184.09441,0.04876
1182.60463,0.06079
1181.11484,0.07286
1179.62505,0.07173
1178.13526,0.09132
1176.64547,0.04312
1175.15568,0.08348
1173.66589,0.07788
1172.17611,0.09990
1170.68632,0.05527
1169.19653,0.01068
1167.70674,0.07188
1166.21695,0.01125
1164.72716,0.03803
1163.23738,0.06368
1161.74759,0.02039
1160.25780,0.08980
1158.76801,0.06784
1157.27822,0.04591
1155.78843,0.01540
1154.29865,0.04469
1152.80886,0.06597
1151.31907,0.06083
1149.82928,0.04309
1148.33949,0.13574
1146.84970,0.11345
1145.35991,0.09120
1143.87013,0.00000
1142.38034,0.07058
1140.89055,0.12050
1139.40076,0.18539
1137.91097,0.17329
1136.42118,0.19111
1134.93140,0.21413
1133.44161,0.23718
1131.95182,0.27234
1130.46203,0.35467
1128.97224,0.28527
1127.48245,0.28833
1125.99266,0.27763
1124.50288,0.39457
1123.01309,0.37416
1121.52330,0.35377
1120.03351,0.38688
1118.54372,0.42002
1117.05393,0.41181
1115.56415,0.41857
1114.07436,0.45180
1112.58457,0.43448
1111.09478,0.41719
1109.60499,0.47351
1108.11520,0.47813
1106.62542,0.51957
1105.13563,0.53115
1103.64584,0.61173
1102.15605,0.80042
1100.66626,0.76668
1099.17647,0.73297
1097.68668,0.78724
1096.19690,0.77832
1094.70711,0.81770
1093.21732,0.83528
1091.72753,0.83219
1090.23774,0.82454
1088.74795,0.81692
1087.25817,0.86796
1085.76838,0.87649
1084.27859,0.99543
1082.78880,1.06151
1081.29901,1.07129
1079.80922,1.10524
1078.31943,1.09036
1076.82965,1.07552
1075.33986,1.14175
1073.85007,1.21377
1072.36028,1.23293
1070.87049,1.21764
1069.38070,1.27250
1067.89092,1.27624
1066.40113,1.28001
1064.91134,1.26369
1063.42155,1.07725
1061.93176,1.04720
1060.44197,0.97004
1058.95219,1.02742
1057.46240,0.93596
1055.97261,0.84452
1054.48282,0.82152
1052.99303,0.79970
1051.50324,0.67560
1050.01345,0.57567
1048.52367,0.54589
1047.03388,0.51270
1045.54409,0.47955
1044.05430,0.59932
1042.56451,0.52829
1041.07472,0.47913
1039.58494,0.35297
1038.09515,0.31652
1036.60536,0.31919
1035.11557,0.32189
1033.62578,0.28898
1032.13599,0.29864
1030.64620,0.35777
1029.15642,0.36979
1027.66663,0.39966
1026.17684,0.42957
1024.68705,0.41754
1023.19726,0.58489
1021.70747,0.71893
1020.21769,0.96222
1018.72790,1.12966
1017.23811,1.31840
1015.74832,1.50718
1014.25853,1.59309
1012.76874,1.69283
1011.27896,1.78800
1009.78917,1.92229
1008.29938,1.96004
1006.80959,1.98001
1005.31980,2.00000
1003.83001,1.82171
1002.34022,1.75267
1000.85044,1.70780
999.36065,1.58939
997.87086,1.48653
996.38107,1.38370
994.89128,1.56773
993.40149,1.52417
991.91171,1.42546
990.42192,1.44059
988.93213,1.29826
987.44234,1.35369
985.95255,1.40916
984.46276,1.30140
982.97297,1.16149
981.48319,1.21475
979.99340,1.04156
978.50361,1.05694
977.01382,1.07235
975.52403,1.06136
974.03424,0.96302
972.54446,0.96818
971.05467,0.90210
969.56488,0.87858
968.07509,0.82693
966.58530,0.77531
965.09551,0.72314
963.60573,0.71584
962.11594,0.67064
960.62615,0.69215
959.13636,0.66310
957.64657,0.63408
956.15678,0.55796
954.66699,0.49567
953.17721,0.50929
951.68742,0.57467
950.19763,0.54466
948.70784,0.51468
947.21805,0.55026
945.72826,0.42837
944.23848,0.50311
942.74869,0.54568
941.25890,0.58369
939.76911,0.58724
938.27932,0.59082
936.78953,0.68756
935.29974,0.64981
933.80996,0.64199
932.32017,0.69743
930.83038,0.69255
929.34059,0.68769
927.85080,0.69609
926.36101,0.66083
924.87123,0.64170
923.38144,0.58811
921.89165,0.58571
920.40186,0.58335
918.91207,0.48501
917.42228,0.56721
915.93250,0.57816
914.44271,0.57419
912.95292,0.54784
911.46313,0.52151
909.97334,0.61996
908.48355,0.58393
906.99376,0.62035
905.50398,0.59243
904.01419,0.58466
902.52440,0.57692
901.03461,0.65716
899.54482,0.66385
898.05503,0.67057
896.56525,0.63364
895.07546,0.61284
893.58567,0.59206
892.09588,0.66099
890.60609,0.66787
889.11630,0.72077
887.62651,0.74496
886.13673,0.73124
884.64694,0.71755
883.15715,0.65790
881.66736,0.68452
880.17757,0.66862
878.68778,0.70219
877.19800,0.73580
875.70821,0.73034
874.21842,0.85023
872.72863,0.90232
871.23884,1.07286
869.74905,1.04454
868.25927,1.01625
866.76948,0.95695
865.27969,1.04828
863.78990,1.02583
862.30011,0.95283
860.81032,0.94424
859.32053,0.93568
857.83075,0.90876
856.34096,0.85428
854.85117,0.94009
853.36138,0.82588
851.87159,0.78127
850.38180,0.73668
848.89202,0.58923
847.40223,0.56023
845.91244,0.42089
844.42265,0.42472
842.93286,0.42857
841.44307,0.33876
839.95329,0.38694
838.46350,0.37307
836.97371,0.31440
835.48392,0.33566
833.99413,0.35694
832.50434,0.32251
831.01455,0.32604
829.52477,0.25372
828.03498,0.32745
826.54519,0.26784
825.05540,0.20826
823.56561,0.27518
822.07582,0.26166
820.58604,0.24471
819.09625,0.18009
817.60646,0.11550
816.11667,0.12624
814.62688,0.10827
813.13709,0.11563
811.64730,0.00000
810.15752,0.02468
808.66773,0.04939
807.17794,0.06149
805.68815,0.13800
804.19836,0.16281
802.70857,0.18017
801.21879,0.19757
799.72900,0.14659
798.23921,0.20946
796.74942,0.33330
795.25963,0.37496
793.76984,0.41665
792.28006,0.47160
790.79027,0.47140
789.30048,0.59769
787.81069,0.58950
786.32090,0.57846
784.83111,0.56746
783.34132,0.69273
781.85154,0.63523
780.36175,0.65938
778.87196,0.64333
777.38217,0.62732
775.89238,0.73434
774.40259,0.79081
772.91281,0.82087
771.42302,0.83717
769.93323,0.85350
768.44344,0.83882
766.95365,0.76324
765.46386,0.80380
763.97407,0.67655
762.48429,0.67521
760.99450,0.67391
759.50471,0.50306
758.01492,0.43916
756.52513,0.45232
755.03534,0.40056
753.54556,0.34883
752.05577,0.24712
750.56598,0.22821
749.07619,0.17945
747.58640,0.16175
746.09661,0.14409
744.60683,0.07013
743.11704,0.04563
741.62725,0.06140
740.13746,0.04387
738.64767,0.02636
737.15788,0.01694
735.66809,0.02249
734.17831,0.00737
732.68852,0.01529
731.19873,0.02323
729.70894,0.01051
728.21915,0.07255
726.72936,0.04495
725.23958,0.04382
723.74979,0.03812
722.26000,0.03246
720.77021,0.10615
719.28042,0.12009
717.79063,0.08348
716.30084,0.04172
714.81106,0.00000
713.32127,0.00077
711.83148,0.05216
710.34169,0.00357
708.85190,0.03662
707.36211,0.06971
705.87233,0.02006
704.38254,0.03482
702.89275,0.00362
701.40296,0.02936
699.91317,0.05513
698.42338,0.03208
696.93360,0.12632
695.44381,0.13896
693.95402,0.15049
692.46423,0.16205
690.97444,0.20928
689.48465,0.17836
687.99486,0.20151
686.50508,0.18905
685.01529,0.17662
683.52550,0.31713
682.03571,0.25188
680.54592,0.21885
679.05613,0.22207
677.56635,0.22532
676.07656,0.23492
674.58677,0.16063
673.09698,0.12201
671.60719,0.12884
670.11740,0.13569
668.62761,0.11786
667.13783,0.11845
665.64804,0.11390
664.15825,0.10938
662.66846,0.06638
661.17867,0.16597
659.68888,0.09084
658.19910,0.07438
656.70931,0.05795
655.21952,0.15421
653.72973,0.18268
652.23994,0.16634
650.75015,0.16958
649.26037,0.17284
647.77058,0.09337
646.28079,0.08865
644.79100,0.09661
643.30121,0.07241
641.81142,0.04824
640.32163,0.10113
638.83185,0.00000
637.34206,0.07123
635.85227,0.06892
634.36248,0.06664
632.87269,0.03565
631.38290,0.04493
629.89312,0.11632
628.40333,0.10210
626.91354,0.08790
625.42375,0.08926
623.93396,0.09869
622.44417,0.11735
620.95438,0.13605
619.46460,0.05131
617.97481,0.09306
616.48502,0.18887
614.99523,0.19332
613.50544,0.19780
612.01565,0.18449
610.52587,0.16317
609.03608,0.09589
607.54629,0.09187
606.05650,0.08788
604.56671,0.17935
603.07692,0.21107
601.58714,0.18303
600.09735,0.15503
598.60756,0.08567
597.11777,0.10026
595.62798,0.16088
594.13819,0.13185
592.64840,0.10285
591.15862,0.12562
589.66883,0.12428
588.17904,0.13676
586.68925,0.08432
585.19946,0.03191
583.70967,0.11922
582.21989,0.18241
580.73010,0.18068
579.24031,0.17898
577.75052,0.19169
576.26073,0.11935
574.77094,0.22638
573.28115,0.25585
571.79137,0.28535
570.30158,0.18899
568.81179,0.35593
567.32200,0.35103
565.83221,0.34617
564.34242,0.34191
562.85264,0.40666
561.36285,0.42890
559.87306,0.44887
558.38327,0.46888
556.89348,0.51421
555.40369,0.58831
553.91391,0.59577
552.42412,0.60326
550.93433,0.60157
549.44454,0.60337
547.95475,0.60636
546.46496,0.63408
544.97517,0.66185
543.48539,0.75804
541.99560,0.70481
540.50581,0.70738
539.01602,0.70997
537.52623,0.74306
536.03644,0.75089
534.54666,0.70127
533.05687,0.69766
531.56708,0.69409
530.07729,0.58823
528.58750,0.57552
527.09771,0.56112
525.60792,0.54675
524.11814,0.45711
522.62835,0.49856
521.13856,0.44922
519.64877,0.42808
518.15898,0.40696
516.66919,0.38646
515.17941,0.35794
513.68962,0.34094
512.19983,0.32398
510.71004,0.30130
509.22025,0.37407
507.73046,0.43078
506.24068,0.43176
504.75089,0.43278
503.26110,0.43439
501.77131,0.39925
500.28152,0.41933
498.79173,0.43944
497.30194,0.42049
495.81216,0.34983
494.32237,0.41085
492.83258,0.47189
491.34279,0.39214
489.85300,0.36874
488.36321,0.32124
486.87343,0.28412
485.38364,0.24702
483.89385,0.20191
482.40406,0.26375
480.91427,0.18881
479.42448,0.11390
477.93469,0.16319
476.44491,0.09754
474.95512,0.10263
473.46533,0.10774
471.97554,0.11002
470.48575,0.07094
468.99596,0.10432
467.50618,0.11358
466.01639,0.12288
464.52660,0.00000
463.03681,0.11273
461.54702,0.09442
460.05723,0.07615
458.56745,0.07630
457.07766,0.04660
455.58787,0.09625
454.09808,0.14593
452.60829,0.13241
451.11850,0.12582
449.62871,0.12387
448.13893,0.12194
446.64914,0.33733
445.15935,0.36880
443.66956,0.45894
442.17977,0.46289
440.68998,0.46686
439.20020,0.50191
437.71041,0.61862
436.22062,0.65718
434.73083,0.69577
433.24104,0.82406
431.75125,1.03862
430.26146,1.09167
428.77168,1.14476
427.28189,1.15822
425.79210,1.23033
424.30231,1.21396
422.81252,1.19762
421.32273,1.19970
419.83295,1.04202
418.34316,1.04704
416.85337,1.05209
415.36358,0.72320
413.87379,0.75763
412.38400,0.68633
410.89422,0.61505
409.40443,0.69326
407.91464,0.70827
406.42485,0.62215
404.93506,0.55272
403.44527,0.48333
401.95548,0.43983
400.46570,0.34348
398.97591,0.38225
397.48612,0.42105
395.99633,0.43286
394.50654,0.50908
393.01675,0.50601
391.52697,0.50298
390.03718,0.39765
388.54739,0.27741
387.05760,0.25147
385.56781,0.22556
384.07802,0.28131
382.58824,0.37733
381.09845,0.37163
379.60866,0.36597
378.11887,0.19421
376.62908,0.24437
375.13929,0.19856
373.64950,0.15279
372.15972,0.14671
370.66993,0.11881
369.18014,0.08348
367.69035,0.04817
366.20056,0.07556
364.71077,0.02594
363.22099,0.06833
361.73120,0.11076
360.24141,0.12677
358.75162,0.13016
357.26183,0.13359
355.77204,0.13705
354.28225,0.05891
352.79247,0.01645
351.30268,0.01081
349.81289,0.00519
348.32310,0.03814
346.83331,0.00788
345.34352,0.03504
343.85374,0.06223
342.36395,0.01989
340.87416,0.11555
339.38437,0.05776
337.89458,0.00000
336.40479,0.14598
334.91501,0.05400
333.42522,0.09887
331.93543,0.14377
330.44564,0.10363
328.95585,0.02098
327.46606,0.06023
325.97627,0.09950
324.48649,0.05489
322.99670,0.00570
321.50691,0.08806
320.01712,0.17046
318.52733,0.14367
317.03754,0.21463
315.54776,0.16318
314.05797,0.11177
312.56818,0.17822
311.07839,0.09295
309.58860,0.13763
308.09881,0.18233
306.60902,0.13970
305.11924,0.04881
303.62945,0.02463
302.13966,0.00048
300.64987,0.00942
299.16008,0.00000
