1778.52000,0.00779
1777.03021,0.01255
1775.54042,0.05550
1774.05063,0.03006
1772.56085,0.03097
1771.07106,0.05428
1769.58127,0.06053
1768.09148,0.07996
1766.60169,0.03890
1765.11190,0.05709
1763.62212,0.00688
1762.13233,0.05935
1760.64254,0.00000
1759.15275,0.05122
1757.66296,0.06694
1756.17317,0.03796
1754.68339,0.01427
1753.19360,0.04457
1751.70381,0.02358
1750.21402,0.00000
1748.72423,0.01905
1747.23444,0.02234
1745.74465,0.05067
1744.25487,0.03034
1742.76508,0.06268
1741.27529,0.10032
1739.78550,0.07089
1738.29571,0.05991
1736.80592,0.06212
1735.31614,0.05384
1733.82635,0.03901
1732.33656,0.04133
1730.84677,0.08578
1729.35698,0.00000
1727.86719,0.02246
1726.37740,0.01601
1724.88762,0.03064
1723.39783,0.00715
1721.90804,0.03106
1720.41825,0.02606
1718.92846,0.01188
1717.43867,0.01484
1715.94889,0.03099
1714.45910,0.01165
1712.96931,0.04366
1711.47952,0.05991
1709.98973,0.09725
1708.49994,0.02672
1707.01016,0.04834
1705.52037,0.06999
1704.03058,0.09431
1702.54079,0.09366
1701.05100,0.11804
1699.56121,0.11877
1698.07142,0.14849
1696.58164,0.15455
1695.09185,0.16196
1693.60206,0.21941
1692.11227,0.22558
1690.62248,0.26335
1689.13269,0.21958
1687.64291,0.28638
1686.15312,0.27425
1684.66333,0.25032
1683.17354,0.23958
1681.68375,0.26440
1680.19396,0.24057
1678.70417,0.26546
1677.21439,0.26801
1675.72460,0.30086
1674.23481,0.27980
1672.74502,0.31535
1671.25523,0.29172
1669.76544,0.28918
1668.27566,0.29588
1666.78587,0.23946
1665.29608,0.22781
1663.80629,0.20172
1662.31650,0.27698
1660.82671,0.23648
1659.33693,0.25128
1657.84714,0.20953
1656.35735,0.16913
1654.86756,0.23272
1653.37777,0.17923
1651.88798,0.20341
1650.39819,0.25262
1648.90841,0.19792
1647.41862,0.18404
1645.92883,0.16164
1644.43904,0.13928
1642.94925,0.22551
1641.45946,0.22229
1639.96968,0.14147
1638.47989,0.13042
1636.99010,0.21810
1635.50031,0.17554
1634.01052,0.15144
1632.52073,0.13790
1631.03094,0.14676
1629.54116,0.16750
1628.05137,0.10142
1626.56158,0.21433
1625.07179,0.24438
1623.58200,0.25999
1622.09221,0.22695
1620.60243,0.23473
1619.11264,0.18859
1617.62285,0.20829
1616.13306,0.21090
1614.64327,0.21092
1613.15348,0.20966
1611.66370,0.21501
1610.17391,0.18619
1608.68412,0.17187
1607.19433,0.21811
1605.70454,0.17623
1604.21475,0.18701
1602.72496,0.19783
1601.23518,0.15999
1599.74539,0.19193
1598.25560,0.12916
1596.76581,0.12564
1595.27602,0.11162
1593.78623,0.14501
1592.29645,0.11264
1590.80666,0.10530
1589.31687,0.10195
1587.82708,0.11442
1586.33729,0.14534
1584.84750,0.08156
1583.35771,0.10071
1581.86793,0.09358
1580.37814,0.11674
1578.88835,0.15573
1577.39856,0.09343
1575.90877,0.06670
1574.41898,0.02289
1572.92920,0.07517
1571.43941,0.05380
1569.94962,0.05220
1568.45983,0.05063
1566.97004,0.10568
1565.48025,0.08312
1563.99047,0.02508
1562.50068,0.03022
1561.01089,0.01830
1559.52110,0.09062
1558.03131,0.10376
1556.54152,0.07352
1555.05173,0.12489
1553.56195,0.19340
1552.07216,0.15272
1550.58237,0.12130
1549.09258,0.08201
1547.60279,0.09144
1546.11300,0.07854
1544.62322,0.09330
1543.13343,0.05020
1541.64364,0.06766
1540.15385,0.06476
1538.66406,0.06189
1537.17427,0.07945
1535.68448,0.04178
1534.19470,0.08310
1532.70491,0.04550
1531.21512,0.05793
1529.72533,0.02303
1528.23554,0.00000
1526.74575,0.04183
1525.25597,0.02975
1523.76618,0.02428
1522.27639,0.04647
1520.78660,0.01606
1519.29681,0.03043
1517.80702,0.02246
1516.31724,0.00663
1514.82745,0.07500
1513.33766,0.05327
1511.84787,0.03157
1510.35808,0.07636
1508.86829,0.06065
1507.37850,0.06208
1505.88872,0.04249
1504.39893,0.05846
1502.90914,0.05868
1501.41935,0.05630
1499.92956,0.00000
1498.43977,0.05067
1496.94999,0.15138
1495.46020,0.18238
1493.97041,0.15815
1492.48062,0.27212
1490.99083,0.32427
1489.50104,0.33567
1488.01125,0.40829
1486.52147,0.48094
1485.03168,0.49639
1483.54189,0.55266
1482.05210,0.56818
1480.56231,0.72715
1479.07252,0.82958
1477.58274,0.84388
1476.09295,0.93190
1474.60316,1.09627
1473.11337,1.15673
1471.62358,1.19748
1470.13379,1.24747
1468.64401,1.08697
1467.15422,1.00545
1465.66443,1.00949
1464.17464,1.01357
1462.68485,1.00715
1461.19506,0.98893
1459.70527,0.94179
1458.21549,0.89599
1456.72570,0.89234
1455.23591,0.90057
1453.74612,0.85620
1452.25633,0.78817
1450.76654,0.64255
1449.27676,0.70880
1447.78697,0.68167
1446.29718,0.56246
1444.80739,0.57092
1443.31760,0.57942
1441.82781,0.47084
1440.33802,0.42019
1438.84824,0.35247
1437.35845,0.22294
1435.86866,0.28292
1434.37887,0.33240
1432.88908,0.33719
1431.39929,0.32095
1429.90951,0.28238
1428.41972,0.35701
1426.92993,0.31455
1425.44014,0.29451
1423.95035,0.27317
1422.46056,0.25188
1420.97078,0.33588
1419.48099,0.36071
1417.99120,0.28424
1416.50141,0.36177
1415.01162,0.34064
1413.52183,0.41560
1412.03204,0.31822
1410.54226,0.30114
1409.05247,0.31831
1407.56268,0.35130
1406.07289,0.27116
1404.58310,0.29566
1403.09331,0.32020
1401.60353,0.36911
1400.11374,0.33253
1398.62395,0.31572
1397.13416,0.30552
1395.64437,0.27956
1394.15458,0.35233
1392.66479,0.28697
1391.17501,0.29796
1389.68522,0.34056
1388.19543,0.32662
1386.70564,0.30679
1385.21585,0.28699
1383.72606,0.24026
1382.23628,0.30671
1380.74649,0.29425
1379.25670,0.23841
1377.76691,0.26944
1376.27712,0.34129
1374.78733,0.34081
1373.29755,0.42984
1371.80776,0.43469
1370.31797,0.45273
1368.82818,0.50304
1367.33839,0.55339
1365.84860,0.63074
1364.35881,0.71734
1362.86903,0.83819
1361.37924,0.79853
1359.88945,0.72865
1358.39966,0.87723
1356.90987,0.94426
1355.42008,1.01527
1353.93030,0.94815
1352.44051,0.93896
1350.95072,0.92981
1349.46093,0.84832
1347.97114,0.81292
1346.48135,0.76965
1344.99156,0.71063
1343.50178,0.67796
1342.01199,0.56374
1340.52220,0.55877
1339.03241,0.55910
1337.54262,0.56999
1336.05283,0.52893
1334.56305,0.48791
1333.07326,0.51206
1331.58347,0.45071
1330.09368,0.51703
1328.60389,0.42153
1327.11410,0.42345
1325.62432,0.33197
1324.13453,0.46027
1322.64474,0.43728
1321.15495,0.41169
1319.66516,0.39601
1318.17537,0.38036
1316.68558,0.39435
1315.19580,0.37416
1313.70601,0.25664
1312.21622,0.29968
1310.72643,0.38486
1309.23664,0.34112
1307.74685,0.29347
1306.25707,0.25901
1304.76728,0.28248
1303.27749,0.30598
1301.78770,0.34926
1300.29791,0.35177
1298.80812,0.33722
1297.31834,0.30954
1295.82855,0.32927
1294.33876,0.31613
1292.84897,0.35040
1291.35918,0.33601
1289.86939,0.36508
1288.37960,0.39419
1286.88982,0.26806
1285.40003,0.40907
1283.91024,0.40275
1282.42045,0.43594
1280.93066,0.37705
1279.44087,0.36425
1277.95109,0.38306
1276.46130,0.39665
1274.97151,0.43856
1273.48172,0.48050
1271.99193,0.45076
1270.50214,0.50790
1269.01235,0.50850
1267.52257,0.52360
1266.03278,0.57426
1264.54299,0.49469
1263.05320,0.62174
1261.56341,0.61526
1260.07362,0.60882
1258.58384,0.61492
1257.09405,0.57894
1255.60426,0.62589
1254.11447,0.69919
1252.62468,0.56989
1251.13489,0.54457
1249.64511,0.53639
1248.15532,0.49008
1246.66553,0.43723
1245.17574,0.38442
1243.68595,0.43559
1242.19616,0.46179
1240.70637,0.44591
1239.21659,0.41297
1237.72680,0.39322
1236.23701,0.36561
1234.74722,0.25250
1233.25743,0.25916
1231.76764,0.26586
1230.27786,0.24628
1228.78807,0.21489
1227.29828,0.26116
1225.80849,0.22194
1224.31870,0.19854
1222.82891,0.16334
1221.33912,0.10580
1219.84934,0.11343
1218.35955,0.12109
1216.86976,0.15312
1215.37997,0.27862
1213.89018,0.26993
1212.40039,0.24023
1210.91061,0.06844
1209.42082,0.12565
1207.93103,0.15328
1206.44124,0.18095
1204.95145,0.12247
1203.46166,0.10349
1201.97188,0.17797
1200.48209,0.16432
1198.99230,0.15071
1197.50251,0.02134
1196.01272,0.06174
1194.52293,0.06599
1193.03314,0.07028
1191.54336,0.04762
1190.05357,0.00000
1188.56378,0.05915
1187.07399,0.03281
1185.58420,0.05782
1184.09441,0.04075
1182.60463,0.04675
1181.11484,0.05278
1179.62505,0.03844
1178.13526,0.07415
1176.64547,0.09146
1175.15568,0.13250
1173.66589,0.08409
1172.17611,0.11992
1170.68632,0.06500
1169.19653,0.01012
1167.70674,0.00000
1166.21695,0.03313
1164.72716,0.10971
1163.23738,0.01527
1161.74759,0.00244
1160.25780,0.05807
1158.76801,0.05189
1157.27822,0.04575
1155.78843,0.05411
1154.29865,0.07566
1152.80886,0.03014
1151.31907,0.03334
1149.82928,0.06552
1148.33949,0.08063
1146.84970,0.09643
1145.35991,0.11227
1143.87013,0.05116
1142.38034,0.09930
1140.89055,0.13431
1139.40076,0.14436
1137.91097,0.10313
1136.42118,0.24351
1134.93140,0.20958
1133.44161,0.17568
1131.95182,0.27143
1130.46203,0.32378
1128.97224,0.30643
1127.48245,0.37070
1125.99266,0.26526
1124.50288,0.34407
1123.01309,0.33935
1121.52330,0.33467
1120.03351,0.43858
1118.54372,0.40831
1117.05393,0.44518
1115.56415,0.39787
1114.07436,0.32165
1112.58457,0.41520
1111.09478,0.50879
1109.60499,0.44582
1108.11520,0.49079
1106.62542,0.52526
1105.13563,0.58872
1103.64584,0.70221
1102.15605,0.86311
1100.66626,0.83126
1099.17647,0.79946
1097.68668,0.81440
1096.19690,0.87542
1094.70711,0.75358
1093.21732,0.86599
1091.72753,0.87317
1090.23774,0.94749
1088.74795,1.02185
1087.25817,0.98307
1085.76838,0.97328
1084.27859,1.05826
1082.78880,1.16827
1081.29901,1.17832
1079.80922,1.11471
1078.31943,1.07943
1076.82965,1.04418
1075.33986,1.18463
1073.85007,1.20274
1072.36028,1.20114
1070.87049,1.27985
1069.38070,1.30201
1067.89092,1.30643
1066.40113,1.31090
1064.91134,1.21341
1063.42155,1.11597
1061.93176,1.04224
1060.44197,1.15670
1058.95219,1.02120
1057.46240,1.01139
1055.97261,1.00161
1054.48282,0.85173
1052.99303,0.87689
1051.50324,0.65208
1050.01345,0.58125
1048.52367,0.64335
1047.03388,0.62325
1045.54409,0.60318
1044.05430,0.66670
1042.56451,0.63683
1041.07472,0.54647
1039.58494,0.41140
1038.09515,0.39085
1036.60536,0.36506
1035.11557,0.33930
1033.62578,0.31227
1032.13599,0.28658
1030.64620,0.39383
1029.15642,0.37084
1027.66663,0.36039
1026.17684,0.34997
1024.68705,0.46130
1023.19726,0.51082
1021.70747,0.73143
1020.21769,0.95339
1018.72790,1.17275
1017.23811,1.28096
1015.74832,1.38920
1014.25853,1.55472
1012.76874,1.62816
1011.27896,1.72137
1009.78917,1.73435
1008.29938,2.00000
1006.80959,1.98607
1005.31980,1.97218
1003.83001,1.75765
1002.34022,1.69316
1000.85044,1.54055
999.36065,1.48797
997.87086,1.46503
996.38107,1.44213
994.89128,1.50282
993.40149,1.41221
991.91171,1.37560
990.42192,1.44033
988.93213,1.50246
987.44234,1.49490
985.95255,1.48736
984.46276,1.37064
982.97297,1.30133
981.48319,1.34390
979.99340,1.27334
978.50361,1.26597
977.01382,1.25863
975.52403,1.27502
974.03424,1.20196
972.54446,1.14736
971.05467,1.10200
969.56488,1.14220
968.07509,1.10020
966.58530,1.05824
965.09551,1.00643
963.60573,0.94545
962.11594,0.89503
960.62615,0.96044
959.13636,0.88114
957.64657,0.80187
956.15678,0.82922
954.66699,0.72766
953.17721,0.73534
951.68742,0.77989
950.19763,0.77514
948.70784,0.77042
947.21805,0.81508
945.72826,0.69134
944.23848,0.76896
942.74869,0.87688
941.25890,0.79272
939.76911,0.78491
938.27932,0.77714
936.78953,0.82466
935.29974,0.80511
933.80996,0.81323
932.32017,0.84244
930.83038,0.87694
929.34059,0.91147
927.85080,0.85525
926.36101,0.82932
924.87123,0.87975
923.38144,0.79205
921.89165,0.78727
920.40186,0.78254
918.91207,0.80283
917.42228,0.78369
915.93250,0.81853
914.44271,0.86919
912.95292,0.85343
911.46313,0.83771
909.97334,0.88979
908.48355,0.95375
906.99376,0.88220
905.50398,0.75938
904.01419,0.79646
902.52440,0.83358
901.03461,0.83717
899.54482,0.80659
898.05503,0.80893
896.56525,0.89684
895.07546,0.92557
893.58567,0.95434
892.09588,0.87524
890.60609,0.91591
889.11630,0.86320
887.62651,0.87499
886.13673,0.88024
884.64694,0.88552
883.15715,0.87767
881.66736,0.87513
880.17757,0.84498
878.68778,0.87079
877.19800,0.89664
875.70821,0.83633
874.21842,0.84185
872.72863,0.97635
871.23884,0.99246
869.74905,1.03690
868.25927,1.08137
866.76948,1.02126
865.27969,1.01251
863.78990,1.05116
862.30011,1.02141
860.81032,1.01079
859.32053,1.00019
857.83075,0.92055
856.34096,0.96068
854.85117,0.93111
853.36138,0.86210
851.87159,0.78917
850.38180,0.71627
848.89202,0.66842
847.40223,0.50085
845.91244,0.41885
844.42265,0.38753
842.93286,0.35626
841.44307,0.34936
839.95329,0.39381
838.46350,0.36987
836.97371,0.40781
835.48392,0.35631
833.99413,0.30484
832.50434,0.38367
831.01455,0.37569
829.52477,0.34406
828.03498,0.31377
826.54519,0.26050
825.05540,0.20726
823.56561,0.25339
822.07582,0.21272
820.58604,0.23261
819.09625,0.18542
817.60646,0.13827
816.11667,0.03589
814.62688,0.11381
813.13709,0.08912
811.64730,0.00000
810.15752,0.01900
808.66773,0.03803
807.17794,0.00643
805.68815,0.08145
804.19836,0.14203
802.70857,0.14014
801.21879,0.13828
799.72900,0.07527
798.23921,0.16888
796.74942,0.34937
795.25963,0.41805
793.76984,0.48676
792.28006,0.46603
790.79027,0.47033
789.30048,0.54045
787.81069,0.52509
786.32090,0.57686
784.83111,0.62867
783.34132,0.67393
781.85154,0.72448
780.36175,0.66718
778.87196,0.65267
777.38217,0.63819
775.89238,0.75468
774.40259,0.73172
772.91281,0.74826
771.42302,0.78129
769.93323,0.81436
768.44344,0.84811
766.95365,0.80295
765.46386,0.93809
763.97407,0.82721
762.48429,0.80452
760.99450,0.78186
759.50471,0.58160
758.01492,0.56032
756.52513,0.47461
755.03534,0.43235
753.54556,0.39012
752.05577,0.27161
750.56598,0.20313
749.07619,0.17680
747.58640,0.14721
746.09661,0.11765
744.60683,0.03615
743.11704,0.04548
741.62725,0.06010
740.13746,0.06357
738.64767,0.06708
737.15788,0.01996
735.66809,0.03340
734.17831,0.00214
732.68852,0.02951
731.19873,0.05692
729.70894,0.01461
728.21915,0.03682
726.72936,0.00380
725.23958,0.02918
723.74979,0.03421
722.26000,0.03927
720.77021,0.04239
719.28042,0.11396
717.79063,0.00135
716.30084,0.01644
714.81106,0.03156
713.32127,0.00000
711.83148,0.00766
710.34169,0.03378
708.85190,0.04940
707.36211,0.06506
705.87233,0.05180
704.38254,0.00963
702.89275,0.03260
701.40296,0.05561
699.91317,0.07864
698.42338,0.08593
696.93360,0.04061
695.44381,0.13086
693.95402,0.14350
692.46423,0.15618
690.97444,0.09916
689.48465,0.10270
687.99486,0.17074
686.50508,0.15593
685.01529,0.14114
683.52550,0.17113
682.03571,0.26431
680.54592,0.18384
679.05613,0.16130
677.56635,0.13879
676.07656,0.21105
674.58677,0.13334
673.09698,0.11093
671.60719,0.08856
670.11740,0.06621
668.62761,0.02417
667.13783,0.16243
665.64804,0.09808
664.15825,0.03377
662.66846,0.05896
661.17867,0.02761
659.68888,0.10551
658.19910,0.05909
656.70931,0.01271
655.21952,0.09992
653.72973,0.10558
652.23994,0.19023
650.75015,0.16767
649.26037,0.14514
647.77058,0.16409
646.28079,0.10808
644.79100,0.01394
643.30121,0.02378
641.81142,0.03366
640.32163,0.06068
638.83185,0.09300
637.34206,0.01087
635.85227,0.04142
634.36248,0.07201
632.87269,0.00000
631.38290,0.09129
629.89312,0.04576
628.40333,0.04368
626.91354,0.04165
625.42375,0.00675
623.93396,0.12715
622.44417,0.11666
620.95438,0.10620
619.46460,0.12801
617.97481,0.13012
616.48502,0.08885
614.99523,0.07129
613.50544,0.05376
612.01565,0.11654
610.52587,0.09645
609.03608,0.09613
607.54629,0.09847
606.05650,0.10086
604.56671,0.15327
603.07692,0.17546
601.58714,0.12333
600.09735,0.07124
598.60756,0.11721
597.11777,0.07374
595.62798,0.01451
594.13819,0.10795
592.64840,0.20143
591.15862,0.06467
589.66883,0.12532
588.17904,0.14521
586.68925,0.08421
585.19946,0.02324
583.70967,0.11297
582.21989,0.07510
580.73010,0.09911
579.24031,0.12315
577.75052,0.19196
576.26073,0.20291
574.77094,0.16915
573.28115,0.18412
571.79137,0.19911
570.30158,0.21415
568.81179,0.29763
567.32200,0.32129
565.83221,0.34497
564.34242,0.36540
562.85264,0.37665
561.36285,0.45241
559.87306,0.46242
558.38327,0.47246
556.89348,0.56411
555.40369,0.63079
553.91391,0.65278
552.42412,0.67479
550.93433,0.67052
549.44454,0.56628
547.95475,0.62787
546.46496,0.64213
544.97517,0.65642
543.48539,0.71811
541.99560,0.66141
540.50581,0.70080
539.01602,0.74022
537.52623,0.73363
536.03644,0.65864
534.54666,0.57842
533.05687,0.63641
531.56708,0.69442
530.07729,0.57351
528.58750,0.62107
527.09771,0.61800
525.60792,0.61496
524.11814,0.54156
522.62835,0.43792
521.13856,0.43828
519.64877,0.42945
518.15898,0.42066
516.66919,0.37769
515.17941,0.40845
513.68962,0.38463
512.19983,0.36084
510.71004,0.34564
509.22025,0.40942
507.73046,0.39297
506.24068,0.39892
504.75089,0.40491
503.26110,0.47014
501.77131,0.41304
500.28152,0.36320
498.79173,0.31340
497.30194,0.34982
495.81216,0.28495
494.32237,0.35105
492.83258,0.41717
491.34279,0.38530
489.85300,0.35478
488.36321,0.31772
486.87343,0.23200
485.38364,0.14632
483.89385,0.17120
482.40406,0.15137
480.91427,0.15000
479.42448,0.14867
477.93469,0.15658
476.44491,0.04478
474.95512,0.03236
473.46533,0.01997
471.97554,0.06091
470.48575,0.01636
468.99596,0.11000
467.50618,0.05498
466.01639,0.00000
464.52660,0.02398
463.03681,0.05721
461.54702,0.08060
460.05723,0.10403
458.56745,0.14525
457.07766,0.09572
455.58787,0.13701
454.09808,0.17834
452.60829,0.24601
451.11850,0.21767
449.62871,0.21830
448.13893,0.21897
446.64914,0.32625
445.15935,0.45857
443.66956,0.52119
442.17977,0.50357
440.68998,0.48599
439.20020,0.57239
437.71041,0.65750
436.22062,0.65844
434.73083,0.65941
433.24104,0.78806
431.75125,1.08911
430.26146,1.11386
428.77168,1.13866
427.28189,1.22269
425.79210,1.22782
424.30231,1.24481
422.81252,1.26184
421.32273,1.19075
419.83295,1.12758
418.34316,1.09998
416.85337,1.07240
415.36358,0.87381
413.87379,0.90025
412.38400,0.85107
410.89422,0.80192
409.40443,0.78636
407.91464,0.83136
406.42485,0.62770
404.93506,0.63395
403.44527,0.64024
401.95548,0.50774
400.46570,0.47659
398.97591,0.48100
397.48612,0.48545
395.99633,0.62940
394.50654,0.62602
393.01675,0.58122
391.52697,0.53646
390.03718,0.49634
388.54739,0.31282
387.05760,0.36487
385.56781,0.41696
384.07802,0.39013
382.58824,0.55807
381.09845,0.51420
379.60866,0.47037
378.11887,0.34893
376.62908,0.31701
375.13929,0.26340
373.64950,0.20983
372.15972,0.26485
370.66993,0.26727
369.18014,0.22236
367.69035,0.17747
366.20056,0.15105
364.71077,0.16544
363.22099,0.19369
361.73120,0.22197
360.24141,0.24700
358.75162,0.19837
357.26183,0.21162
355.77204,0.22491
354.28225,0.18296
352.79247,0.07394
351.30268,0.08272
349.81289,0.09153
348.32310,0.18262
346.83331,0.13557
345.34352,0.13001
343.85374,0.12449
342.36395,0.12623
340.87416,0.17801
339.38437,0.17719
337.89458,0.17641
336.40479,0.19934
334.91501,0.15651
333.42522,0.15320
331.93543,0.14992
330.44564,0.20588
328.95585,0.14082
327.46606,0.13764
325.97627,0.13449
324.48649,0.00374
322.99670,0.14747
321.50691,0.19387
320.01712,0.24030
318.52733,0.29071
317.03754,0.25563
315.54776,0.24360
314.05797,0.23161
312.56818,0.21900
311.07839,0.17352
309.58860,0.11492
308.09881,0.05636
306.60902,0.05440
305.11924,0.12354
303.62945,0.07626
302.13966,0.02901
300.64987,0.00000
299.16008,0.00000
