1778.52000,0.04053
1777.03021,0.06188
1775.54042,0.03122
1774.05063,0.04446
1772.56085,0.02100
1771.07106,0.05879
1769.58127,0.04254
1768.09148,0.00795
1766.60169,0.02236
1765.11190,0.04395
1763.62212,0.02781
1762.13233,0.03926
1760.64254,0.00482
1759.15275,0.00000
1757.66296,0.02480
1756.17317,0.02922
1754.68339,0.01123
1753.19360,0.02082
1751.70381,0.00901
1750.21402,0.01661
1748.72423,0.03343
1747.23444,0.01967
1745.74465,0.00900
1744.25487,0.02999
1742.76508,0.00000
1741.27529,0.03070
1739.78550,0.02165
1738.29571,0.03915
1736.80592,0.02505
1735.31614,0.03955
1733.82635,0.00306
1732.33656,0.01966
1730.84677,0.02201
1729.35698,0.01112
1727.86719,0.05435
1726.37740,0.01189
1724.88762,0.06537
1723.39783,0.02910
1721.90804,0.00000
1720.41825,0.04787
1718.92846,0.01721
1717.43867,0.04882
1715.94889,0.02741
1714.45910,0.06112
1712.96931,0.05915
1711.47952,0.10006
1709.98973,0.02979
1708.49994,0.05444
1707.01016,0.04341
1705.52037,0.03241
1704.03058,0.05205
1702.54079,0.06661
1701.05100,0.07917
1699.56121,0.11114
1698.07142,0.09417
1696.58164,0.10478
1695.09185,0.16031
1693.60206,0.15976
1692.11227,0.16637
1690.62248,0.15567
1689.13269,0.17970
1687.64291,0.16090
1686.15312,0.18498
1684.66333,0.18257
1683.17354,0.17202
1681.68375,0.17885
1680.19396,0.13877
1678.70417,0.13648
1677.21439,0.11687
1675.72460,0.13913
1674.23481,0.17161
1672.74502,0.14802
1671.25523,0.18260
1669.76544,0.21008
1668.27566,0.21208
1666.78587,0.15085
1665.29608,0.16006
1663.80629,0.16929
1662.31650,0.17345
1660.82671,0.12050
1659.33693,0.13289
1657.84714,0.15143
1656.35735,0.11592
1654.86756,0.11921
1653.37777,0.12559
1651.88798,0.13609
1650.39819,0.15784
1648.90841,0.10514
1647.41862,0.13307
1645.92883,0.11410
1644.43904,0.09515
1642.94925,0.11910
1641.45946,0.14103
1639.96968,0.13136
1638.47989,0.12682
1636.99010,0.09987
1635.50031,0.13621
1634.01052,0.11544
1632.52073,0.11612
1631.03094,0.16582
1629.54116,0.07882
1628.05137,0.12959
1626.56158,0.09571
1625.07179,0.17715
1623.58200,0.15251
1622.09221,0.19218
1620.60243,0.15638
1619.11264,0.19917
1617.62285,0.16343
1616.13306,0.14404
1614.64327,0.10326
1613.15348,0.11964
1611.66370,0.12279
1610.17391,0.18515
1608.68412,0.13531
1607.19433,0.16916
1605.70454,0.19488
1604.21475,0.16400
1602.72496,0.13316
1601.23518,0.14774
1599.74539,0.12665
1598.25560,0.13517
1596.76581,0.10598
1595.27602,0.10538
1593.78623,0.12624
1592.29645,0.09101
1590.80666,0.09357
1589.31687,0.09513
1587.82708,0.08755
1586.33729,0.12284
1584.84750,0.07552
1583.35771,0.08129
1581.86793,0.07587
1580.37814,0.04802
1578.88835,0.08755
1577.39856,0.07303
1575.90877,0.02284
1574.41898,0.06246
1572.92920,0.07966
1571.43941,0.04792
1569.94962,0.04886
1568.45983,0.04983
1566.97004,0.04266
1565.48025,0.06002
1563.99047,0.02945
1562.50068,0.02544
1561.01089,0.07043
1559.52110,0.05832
1558.03131,0.03603
1556.54152,0.01479
1555.05173,0.08644
1553.56195,0.01323
1552.07216,0.03289
1550.58237,0.05769
1549.09258,0.03253
1547.60279,0.05739
1546.11300,0.05983
1544.62322,0.07251
1543.13343,0.05461
1541.64364,0.05714
1540.15385,0.06634
1538.66406,0.07557
1537.17427,0.06595
1535.68448,0.03697
1534.19470,0.00905
1532.70491,0.01075
1531.21512,0.02880
1529.72533,0.04994
1528.23554,0.01806
1526.74575,0.05252
1525.25597,0.05845
1523.76618,0.02870
1522.27639,0.00000
1520.78660,0.05922
1519.29681,0.01951
1517.80702,0.06043
1516.31724,0.04016
1514.82745,0.05563
1513.33766,0.04052
1511.84787,0.02544
1510.35808,0.09508
1508.86829,0.05047
1507.37850,0.02324
1505.88872,0.01135
1504.39893,0.00356
1502.90914,0.01724
1501.41935,0.02686
1499.92956,0.03447
1498.43977,0.04925
1496.94999,0.09468
1495.46020,0.11259
1493.97041,0.19276
1492.48062,0.19644
1490.99083,0.27770
1489.50104,0.30287
1488.01125,0.33113
1486.52147,0.35942
1485.03168,0.42651
1483.54189,0.55077
1482.05210,0.56895
1480.56231,0.63614
1479.07252,0.75233
1477.58274,0.77978
1476.09295,0.90113
1474.60316,0.90211
1473.11337,0.89293
1471.62358,0.97458
1470.13379,1.03075
1468.64401,0.96553
1467.15422,0.87382
1465.66443,0.83928
1464.17464,0.80476
1462.68485,0.79681
1461.19506,0.73378
1459.70527,0.66467
1458.21549,0.62721
1456.72570,0.60714
1455.23591,0.58403
1453.74612,0.53034
1452.25633,0.44199
1450.76654,0.39550
1449.27676,0.39292
1447.78697,0.38731
1446.29718,0.38479
1444.80739,0.35169
1443.31760,0.31862
1441.82781,0.23456
1440.33802,0.20665
1438.84824,0.15021
1437.35845,0.18358
1435.86866,0.11597
1434.37887,0.09328
1432.88908,0.10226
1431.39929,0.11535
1429.90951,0.13663
1428.41972,0.17120
1426.92993,0.21091
1425.44014,0.15677
1423.95035,0.16236
1422.46056,0.16797
1420.97078,0.15474
1419.48099,0.18440
1417.99120,0.20082
1416.50141,0.22645
1415.01162,0.18988
1413.52183,0.24006
1412.03204,0.22395
1410.54226,0.19767
1409.05247,0.22549
1407.56268,0.24825
1406.07289,0.27103
1404.58310,0.23824
1403.09331,0.20548
1401.60353,0.32426
1400.11374,0.34309
1398.62395,0.42928
1397.13416,0.39919
1395.64437,0.43545
1394.15458,0.48501
1392.66479,0.49480
1391.17501,0.51075
1389.68522,0.54509
1388.19543,0.53151
1386.70564,0.54091
1385.21585,0.55034
1383.72606,0.60011
1382.23628,0.54074
1380.74649,0.52934
1379.25670,0.50574
1377.76691,0.55767
1376.27712,0.56881
1374.78733,0.64835
1373.29755,0.67691
1371.80776,0.85548
1370.31797,0.91266
1368.82818,1.05864
1367.33839,1.20465
1365.84860,1.35069
1364.35881,1.63756
1362.86903,1.78571
1361.37924,1.72777
1359.88945,1.81272
1358.39966,1.85892
1356.90987,1.90821
1355.42008,1.86979
1353.93030,1.78242
1352.44051,1.69253
1350.95072,1.60267
1349.46093,1.47763
1347.97114,1.28121
1346.48135,1.06441
1344.99156,0.96498
1343.50178,0.82579
1342.01199,0.73662
1340.52220,0.63524
1339.03241,0.57164
1337.54262,0.59990
1336.05283,0.55728
1334.56305,0.51468
1333.07326,0.46243
1331.58347,0.44592
1330.09368,0.39372
1328.60389,0.33544
1327.11410,0.30371
1325.62432,0.33629
1324.13453,0.26381
1322.64474,0.34033
1321.15495,0.36994
1319.66516,0.34092
1318.17537,0.31192
1316.68558,0.28551
1315.19580,0.27035
1313.70601,0.24706
1312.21622,0.12687
1310.72643,0.17914
1309.23664,0.23042
1307.74685,0.22357
1306.25707,0.23921
1304.76728,0.21457
1303.27749,0.18996
1301.78770,0.21282
1300.29791,0.18980
1298.80812,0.15457
1297.31834,0.19079
1295.82855,0.15255
1294.33876,0.20312
1292.84897,0.27820
1291.35918,0.21251
1289.86939,0.20195
1288.37960,0.19141
1286.88982,0.21560
1285.40003,0.29288
1283.91024,0.24162
1282.42045,0.30875
1280.93066,0.30245
1279.44087,0.28496
1277.95109,0.24811
1276.46130,0.23476
1274.97151,0.24337
1273.48172,0.25202
1271.99193,0.29386
1270.50214,0.34797
1269.01235,0.36232
1267.52257,0.41649
1266.03278,0.35131
1264.54299,0.38718
1263.05320,0.47613
1261.56341,0.44880
1260.07362,0.42149
1258.58384,0.44626
1257.09405,0.44962
1255.60426,0.43568
1254.11447,0.44625
1252.62468,0.39461
1251.13489,0.41136
1249.64511,0.40366
1248.15532,0.29599
1246.66553,0.26641
1245.17574,0.23686
1243.68595,0.23336
1242.19616,0.25437
1240.70637,0.18869
1239.21659,0.24956
1237.72680,0.26556
1236.23701,0.17753
1234.74722,0.16298
1233.25743,0.17347
1231.76764,0.18398
1230.27786,0.12157
1228.78807,0.14082
1227.29828,0.11725
1225.80849,0.13247
1224.31870,0.12324
1222.82891,0.10180
1221.33912,0.13548
1219.84934,0.12328
1218.35955,0.11111
1216.86976,0.10509
1215.37997,0.13278
1213.89018,0.14927
1212.40039,0.15048
1210.91061,0.12214
1209.42082,0.09280
1207.93103,0.11197
1206.44124,0.13116
1204.95145,0.11416
1203.46166,0.05740
1201.97188,0.07719
1200.48209,0.08273
1198.99230,0.03320
1197.50251,0.05615
1196.01272,0.08320
1194.52293,0.07764
1193.03314,0.07211
1191.54336,0.10027
1190.05357,0.05705
1188.56378,0.02304
1187.07399,0.04109
1185.58420,0.00000
1184.09441,0.05455
1182.60463,0.03056
1181.11484,0.00660
1179.62505,0.13164
1178.13526,0.09346
1176.64547,0.01041
1175.15568,0.06514
1173.66589,0.07092
1172.17611,0.07571
1170.68632,0.05248
1169.19653,0.02927
1167.70674,0.06987
1166.21695,0.03499
1164.72716,0.04401
1163.23738,0.08470
1161.74759,0.02134
1160.25780,0.04780
1158.76801,0.03603
1157.27822,0.02429
1155.78843,0.02432
1154.29865,0.06110
1152.80886,0.03466
1151.31907,0.10314
1149.82928,0.07165
1148.33949,0.08713
1146.84970,0.07765
1145.35991,0.06819
1143.87013,0.03172
1142.38034,0.01672
1140.89055,0.08949
1139.40076,0.13678
1137.91097,0.14227
1136.42118,0.16309
1134.93140,0.18293
1133.44161,0.20279
1131.95182,0.22473
1130.46203,0.23649
1128.97224,0.28706
1127.48245,0.22950
1125.99266,0.28829
1124.50288,0.30527
1123.01309,0.31157
1121.52330,0.31791
1120.03351,0.38600
1118.54372,0.39086
1117.05393,0.37229
1115.56415,0.37925
1114.07436,0.39033
1112.58457,0.38970
1111.09478,0.38910
1109.60499,0.39109
1108.11520,0.43085
1106.62542,0.38800
1105.13563,0.47068
1103.64584,0.55543
1102.15605,0.65858
1100.66626,0.67095
1099.17647,0.68335
1097.68668,0.76210
1096.19690,0.70620
1094.70711,0.69726
1093.21732,0.76488
1091.72753,0.76723
1090.23774,0.77777
1088.74795,0.78834
1087.25817,0.77649
1085.76838,0.82283
1084.27859,0.85798
1082.78880,0.90642
1081.29901,1.04877
1079.80922,0.97483
1078.31943,1.03153
1076.82965,1.08826
1075.33986,1.16542
1073.85007,1.21405
1072.36028,1.21679
1070.87049,1.17977
1069.38070,1.22644
1067.89092,1.24968
1066.40113,1.27295
1064.91134,1.19626
1063.42155,1.13592
1061.93176,0.96134
1060.44197,1.03472
1058.95219,0.88367
1057.46240,0.87192
1055.97261,0.86020
1054.48282,0.69393
1052.99303,0.68686
1051.50324,0.65840
1050.01345,0.54426
1048.52367,0.50463
1047.03388,0.48850
1045.54409,0.47240
1044.05430,0.54510
1042.56451,0.49437
1041.07472,0.37327
1039.58494,0.29913
1038.09515,0.21278
1036.60536,0.23309
1035.11557,0.25342
1033.62578,0.23552
1032.13599,0.21051
1030.64620,0.29063
1029.15642,0.24629
1027.66663,0.32697
1026.17684,0.40769
1024.68705,0.41956
1023.19726,0.56615
1021.70747,0.63420
1020.21769,0.91553
1018.72790,1.09383
1017.23811,1.21503
1015.74832,1.33626
1014.25853,1.57996
1012.76874,1.69309
1011.27896,1.87052
1009.78917,1.90107
1008.29938,2.00000
1006.80959,1.95510
1005.31980,1.91023
1003.83001,1.80621
1002.34022,1.77262
1000.85044,1.67989
999.36065,1.51372
997.87086,1.46594
996.38107,1.41819
994.89128,1.45924
993.40149,1.42277
991.91171,1.35063
990.42192,1.31116
988.93213,1.24316
987.44234,1.23436
985.95255,1.22559
984.46276,1.21482
982.97297,1.13163
981.48319,0.99235
979.99340,0.97555
978.50361,0.97306
977.01382,0.97059
975.52403,0.97224
974.03424,0.89026
972.54446,0.76749
971.05467,0.78861
969.56488,0.75161
968.07509,0.69321
966.58530,0.63485
965.09551,0.54080
963.60573,0.54065
962.11594,0.58441
960.62615,0.56595
959.13636,0.52202
957.64657,0.47812
956.15678,0.46588
954.66699,0.42204
953.17721,0.42924
951.68742,0.45382
950.19763,0.42742
948.70784,0.40105
947.21805,0.39817
945.72826,0.36471
944.23848,0.30986
942.74869,0.42441
941.25890,0.43594
939.76911,0.44240
938.27932,0.44889
936.78953,0.58703
935.29974,0.53746
933.80996,0.53180
932.32017,0.54555
930.83038,0.57820
929.34059,0.61089
927.85080,0.56760
926.36101,0.54066
924.87123,0.57089
923.38144,0.51238
921.89165,0.46257
920.40186,0.41279
918.91207,0.51967
917.42228,0.49393
915.93250,0.43047
914.44271,0.45275
912.95292,0.45108
911.46313,0.44944
909.97334,0.44222
908.48355,0.50645
906.99376,0.54317
905.50398,0.55746
904.01419,0.52996
902.52440,0.50248
901.03461,0.51075
899.54482,0.56190
898.05503,0.51513
896.56525,0.56430
895.07546,0.52932
893.58567,0.49437
892.09588,0.41303
890.60609,0.55415
889.11630,0.58205
887.62651,0.59671
886.13673,0.61191
884.64694,0.62714
883.15715,0.62046
881.66736,0.61280
880.17757,0.68577
878.68778,0.68735
877.19800,0.68896
875.70821,0.68243
874.21842,0.76573
872.72863,0.85722
871.23884,0.89262
869.74905,0.91019
868.25927,0.92780
866.76948,0.90615
865.27969,0.86719
863.78990,0.90682
862.30011,0.95261
860.81032,0.92190
859.32053,0.89122
857.83075,0.95138
856.34096,0.89015
854.85117,0.79018
853.36138,0.71269
851.87159,0.67808
850.38180,0.64351
848.89202,0.63753
847.40223,0.43874
845.91244,0.34099
844.42265,0.33766
842.93286,0.33435
841.44307,0.30812
839.95329,0.33089
838.46350,0.33635
836.97371,0.33877
835.48392,0.31419
833.99413,0.28964
832.50434,0.28502
831.01455,0.25797
829.52477,0.35646
828.03498,0.24990
826.54519,0.20509
825.05540,0.16031
823.56561,0.17424
822.07582,0.18309
820.58604,0.18483
819.09625,0.13711
817.60646,0.08943
816.11667,0.06371
814.62688,0.08189
813.13709,0.07358
811.64730,0.00000
810.15752,0.04408
808.66773,0.08818
807.17794,0.01652
805.68815,0.04997
804.19836,0.09468
802.70857,0.10269
801.21879,0.11072
799.72900,0.16368
798.23921,0.25749
796.74942,0.35337
795.25963,0.35999
793.76984,0.36665
792.28006,0.47384
790.79027,0.46168
789.30048,0.54139
787.81069,0.51297
786.32090,0.55294
784.83111,0.59294
783.34132,0.60848
781.85154,0.62915
780.36175,0.66006
778.87196,0.63897
777.38217,0.61790
775.89238,0.63665
774.40259,0.70952
772.91281,0.77119
771.42302,0.79156
769.93323,0.81197
768.44344,0.79517
766.95365,0.75289
765.46386,0.62289
763.97407,0.69290
762.48429,0.64612
760.99450,0.59937
759.50471,0.52459
758.01492,0.43453
756.52513,0.35573
755.03534,0.33053
753.54556,0.30535
752.05577,0.23378
750.56598,0.17551
749.07619,0.13869
747.58640,0.13150
746.09661,0.12433
744.60683,0.11413
743.11704,0.07642
741.62725,0.09383
740.13746,0.07403
738.64767,0.05426
737.15788,0.07686
735.66809,0.04848
734.17831,0.03340
732.68852,0.03262
731.19873,0.03188
729.70894,0.10463
728.21915,0.00396
726.72936,0.08782
725.23958,0.00336
723.74979,0.03714
722.26000,0.07095
720.77021,0.10173
719.28042,0.04990
717.79063,0.09605
716.30084,0.07642
714.81106,0.05681
713.32127,0.00000
711.83148,0.01285
710.34169,0.03696
708.85190,0.04018
707.36211,0.04343
705.87233,0.06252
704.38254,0.00512
702.89275,0.04162
701.40296,0.04703
699.91317,0.05247
698.42338,0.14314
696.93360,0.07059
695.44381,0.15010
693.95402,0.14239
692.46423,0.13472
690.97444,0.18575
689.48465,0.17457
687.99486,0.13485
686.50508,0.18189
685.01529,0.22895
683.52550,0.20973
682.03571,0.20176
680.54592,0.16934
679.05613,0.17928
677.56635,0.18926
676.07656,0.20998
674.58677,0.16033
673.09698,0.05459
671.60719,0.04428
670.11740,0.03401
668.62761,0.09773
667.13783,0.06660
665.64804,0.05386
664.15825,0.04115
662.66846,0.07847
661.17867,0.04134
659.68888,0.05933
658.19910,0.04419
656.70931,0.02909
655.21952,0.04921
653.72973,0.08773
652.23994,0.11098
650.75015,0.10977
649.26037,0.10859
647.77058,0.08703
646.28079,0.06244
644.79100,0.05625
643.30121,0.05621
641.81142,0.05620
640.32163,0.00011
638.83185,0.01253
637.34206,0.00969
635.85227,0.00483
634.36248,0.00000
632.87269,0.01192
631.38290,0.02387
629.89312,0.01544
628.40333,0.01011
626.91354,0.00480
625.42375,0.01585
623.93396,0.05652
622.44417,0.05233
620.95438,0.04817
619.46460,0.09199
617.97481,0.03279
616.48502,0.09197
614.99523,0.08997
613.50544,0.08800
612.01565,0.10851
610.52587,0.10252
609.03608,0.03431
607.54629,0.06103
606.05650,0.08778
604.56671,0.14517
603.07692,0.15668
601.58714,0.13709
600.09735,0.11754
598.60756,0.09342
597.11777,0.02138
595.62798,0.13099
594.13819,0.09421
592.64840,0.05746
591.15862,0.12839
589.66883,0.05140
588.17904,0.07239
586.68925,0.06331
585.19946,0.05426
583.70967,0.08045
582.21989,0.05564
580.73010,0.10382
579.24031,0.15204
577.75052,0.19977
576.26073,0.15468
574.77094,0.20043
573.28115,0.18142
571.79137,0.16244
570.30158,0.23277
568.81179,0.26538
567.32200,0.25721
565.83221,0.24906
564.34242,0.26442
562.85264,0.36143
561.36285,0.35439
559.87306,0.38412
558.38327,0.41388
556.89348,0.48652
555.40369,0.51226
553.91391,0.51252
552.42412,0.51281
550.93433,0.51314
549.44454,0.52063
547.95475,0.53632
546.46496,0.56530
544.97517,0.59431
543.48539,0.66314
541.99560,0.69018
540.50581,0.67694
539.01602,0.66373
537.52623,0.69391
536.03644,0.71290
534.54666,0.61764
533.05687,0.62445
531.56708,0.63129
530.07729,0.55959
528.58750,0.58383
527.09771,0.52546
525.60792,0.46712
524.11814,0.40779
522.62835,0.47297
521.13856,0.38308
519.64877,0.39833
518.15898,0.41360
516.66919,0.36360
515.17941,0.29833
513.68962,0.31879
512.19983,0.33929
510.71004,0.36084
509.22025,0.33242
507.73046,0.35912
506.24068,0.38739
504.75089,0.41569
503.26110,0.37923
501.77131,0.41830
500.28152,0.42425
498.79173,0.43022
497.30194,0.36735
495.81216,0.32594
494.32237,0.41618
492.83258,0.50645
491.34279,0.45799
489.85300,0.34834
488.36321,0.32239
486.87343,0.30360
485.38364,0.28485
483.89385,0.31817
482.40406,0.22397
480.91427,0.18746
479.42448,0.15097
477.93469,0.14563
476.44491,0.12706
474.95512,0.07587
473.46533,0.02471
471.97554,0.07970
470.48575,0.02860
468.99596,0.11629
467.50618,0.07954
466.01639,0.04282
464.52660,0.00000
463.03681,0.01120
461.54702,0.06529
460.05723,0.11941
458.56745,0.08173
457.07766,0.09714
455.58787,0.12686
454.09808,0.15661
452.60829,0.12211
451.11850,0.15295
449.62871,0.16442
448.13893,0.17593
446.64914,0.25481
445.15935,0.40004
443.66956,0.47388
442.17977,0.44010
440.68998,0.40635
439.20020,0.54150
437.71041,0.62158
436.22062,0.64915
434.73083,0.67674
433.24104,0.82834
431.75125,0.93507
430.26146,0.98112
428.77168,1.02720
427.28189,1.13096
425.79210,1.22863
424.30231,1.22429
422.81252,1.21999
421.32273,1.21470
419.83295,1.02374
418.34316,0.94862
416.85337,0.87352
415.36358,0.83672
413.87379,0.73057
412.38400,0.66118
410.89422,0.59181
409.40443,0.61431
407.91464,0.60725
406.42485,0.59002
404.93506,0.52894
403.44527,0.46790
401.95548,0.40484
400.46570,0.41833
398.97591,0.42676
397.48612,0.43522
395.99633,0.39575
394.50654,0.39610
393.01675,0.44546
391.52697,0.49485
390.03718,0.40551
388.54739,0.32538
387.05760,0.31313
385.56781,0.30091
384.07802,0.33311
382.58824,0.36534
381.09845,0.34147
379.60866,0.31764
378.11887,0.21426
376.62908,0.18947
375.13929,0.20858
373.64950,0.22773
372.15972,0.11324
370.66993,0.07429
369.18014,0.06189
367.69035,0.04953
366.20056,0.06270
364.71077,0.07998
363.22099,0.11414
361.73120,0.14832
360.24141,0.08917
358.75162,0.07188
357.26183,0.08320
355.77204,0.09454
354.28225,0.06103
352.79247,0.00917
351.30268,0.05632
349.81289,0.10350
348.32310,0.03541
346.83331,0.00000
345.34352,0.02041
343.85374,0.04086
342.36395,0.10775
340.87416,0.11448
339.38437,0.09318
337.89458,0.07192
336.40479,0.08486
334.91501,0.04886
333.42522,0.05523
331.93543,0.06163
330.44564,0.07877
328.95585,0.09085
327.46606,0.09836
325.97627,0.10590
324.48649,0.06603
322.99670,0.04251
321.50691,0.02923
320.01712,0.01598
318.52733,0.00943
317.03754,0.15903
315.54776,0.11428
314.05797,0.06957
312.56818,0.15089
311.07839,0.12613
309.58860,0.07640
308.09881,0.02671
306.60902,0.00000
305.11924,0.00573
303.62945,0.01711
302.13966,0.00025
300.64987,0.00725
299.16008,0.00000
