1778.52000,0.06863
1777.03021,0.03456
1775.54042,0.05481
1774.05063,0.04004
1772.56085,0.04340
1771.07106,0.08185
1769.58127,0.06718
1768.09148,0.04124
1766.60169,0.03569
1765.11190,0.06071
1763.62212,0.05183
1762.13233,0.05091
1760.64254,0.05001
1759.15275,0.00505
1757.66296,0.03703
1756.17317,0.00570
1754.68339,0.03209
1753.19360,0.00197
1751.70381,0.01825
1750.21402,0.04361
1748.72423,0.02603
1747.23444,0.00622
1745.74465,0.02489
1744.25487,0.02099
1742.76508,0.04539
1741.27529,0.00310
1739.78550,0.08072
1738.29571,0.05094
1736.80592,0.03703
1735.31614,0.00505
1733.82635,0.04454
1732.33656,0.01055
1730.84677,0.04445
1729.35698,0.04559
1727.86719,0.06147
1726.37740,0.02762
1724.88762,0.01303
1723.39783,0.01431
1721.90804,0.01109
1720.41825,0.00339
1718.92846,0.03417
1717.43867,0.00505
1715.94889,0.05034
1714.45910,0.03460
1712.96931,0.03245
1711.47952,0.04618
1709.98973,0.06220
1708.49994,0.06130
1707.01016,0.05364
1705.52037,0.04601
1704.03058,0.07122
1702.54079,0.09194
1701.05100,0.08894
1699.56121,0.11425
1698.07142,0.10453
1696.58164,0.12086
1695.09185,0.14741
1693.60206,0.14345
1692.11227,0.16780
1690.62248,0.15260
1689.13269,0.19285
1687.64291,0.18677
1686.15312,0.20787
1684.66333,0.21542
1683.17354,0.23319
1681.68375,0.23856
1680.19396,0.20890
1678.70417,0.17136
1677.21439,0.20849
1675.72460,0.25697
1674.23481,0.21840
1672.74502,0.22849
1671.25523,0.25332
1669.76544,0.22504
1668.27566,0.24767
1666.78587,0.21606
1665.29608,0.16413
1663.80629,0.19479
1662.31650,0.20173
1660.82671,0.17817
1659.33693,0.26434
1657.84714,0.20919
1656.35735,0.18913
1654.86756,0.20528
1653.37777,0.13780
1651.88798,0.15629
1650.39819,0.12279
1648.90841,0.17414
1647.41862,0.14072
1645.92883,0.12994
1644.43904,0.11920
1642.94925,0.11754
1641.45946,0.17472
1639.96968,0.16182
1638.47989,0.14783
1636.99010,0.18814
1635.50031,0.14255
1634.01052,0.14449
1632.52073,0.14420
1631.03094,0.13038
1629.54116,0.11206
1628.05137,0.13563
1626.56158,0.13661
1625.07179,0.15797
1623.58200,0.20765
1622.09221,0.20873
1620.60243,0.18610
1619.11264,0.18047
1617.62285,0.17034
1616.13306,0.19757
1614.64327,0.12645
1613.15348,0.18202
1611.66370,0.16072
1610.17391,0.13946
1608.68412,0.13746
1607.19433,0.12984
1605.70454,0.12451
1604.21475,0.15315
1602.72496,0.18182
1601.23518,0.14267
1599.74539,0.12843
1598.25560,0.09048
1596.76581,0.14417
1595.27602,0.07462
1593.78623,0.05713
1592.29645,0.11318
1590.80666,0.07993
1589.31687,0.05123
1587.82708,0.07006
1586.33729,0.04709
1584.84750,0.03998
1583.35771,0.07249
1581.86793,0.03492
1580.37814,0.06184
1578.88835,0.08880
1577.39856,0.11013
1575.90877,0.09757
1574.41898,0.07035
1572.92920,0.08840
1571.43941,0.06916
1569.94962,0.04656
1568.45983,0.02400
1566.97004,0.03088
1565.48025,0.06266
1563.99047,0.08318
1562.50068,0.04492
1561.01089,0.06437
1559.52110,0.08386
1558.03131,0.04683
1556.54152,0.04603
1555.05173,0.13686
1553.56195,0.12482
1552.07216,0.12186
1550.58237,0.09180
1549.09258,0.04480
1547.60279,0.05777
1546.11300,0.08096
1544.62322,0.10305
1543.13343,0.05732
1541.64364,0.02972
1540.15385,0.03609
1538.66406,0.04248
1537.17427,0.08736
1535.68448,0.00562
1534.19470,0.04152
1532.70491,0.03787
1531.21512,0.06479
1529.72533,0.05443
1528.23554,0.00000
1526.74575,0.04369
1525.25597,0.07836
1523.76618,0.07689
1522.27639,0.05735
1520.78660,0.00505
1519.29681,0.03418
1517.80702,0.06108
1516.31724,0.05862
1514.82745,0.04600
1513.33766,0.03908
1511.84787,0.03219
1510.35808,0.01403
1508.86829,0.04679
1507.37850,0.07959
1505.88872,0.04796
1504.39893,0.00505
1502.90914,0.06614
1501.41935,0.07071
1499.92956,0.06401
1498.43977,0.09805
1496.94999,0.11743
1495.46020,0.18999
1493.97041,0.19360
1492.48062,0.29903
1490.99083,0.27331
1489.50104,0.37089
1488.01125,0.41252
1486.52147,0.45419
1485.03168,0.52926
1483.54189,0.62019
1482.05210,0.70550
1480.56231,0.81685
1479.07252,0.88640
1477.58274,0.91074
1476.09295,1.04708
1474.60316,1.05001
1473.11337,1.15588
1471.62358,1.19506
1470.13379,1.14381
1468.64401,1.15932
1467.15422,1.09231
1465.66443,1.02363
1464.17464,0.95499
1462.68485,0.98307
1461.19506,0.92185
1459.70527,0.92286
1458.21549,0.92956
1456.72570,0.85035
1455.23591,0.78022
1453.74612,0.75083
1452.25633,0.65815
1450.76654,0.64014
1449.27676,0.58937
1447.78697,0.57595
1446.29718,0.51734
1444.80739,0.51247
1443.31760,0.50764
1441.82781,0.46496
1440.33802,0.34654
1438.84824,0.22590
1437.35845,0.29414
1435.86866,0.25612
1434.37887,0.25998
1432.88908,0.21184
1431.39929,0.27344
1429.90951,0.28418
1428.41972,0.27913
1426.92993,0.22661
1425.44014,0.25894
1423.95035,0.29131
1422.46056,0.32371
1420.97078,0.28490
1419.48099,0.34112
1417.99120,0.26506
1416.50141,0.28629
1415.01162,0.30190
1413.52183,0.36051
1412.03204,0.39089
1410.54226,0.25733
1409.05247,0.28099
1407.56268,0.28433
1406.07289,0.24134
1404.58310,0.26907
1403.09331,0.29683
1401.60353,0.25507
1400.11374,0.35018
1398.62395,0.21011
1397.13416,0.27589
1395.64437,0.32361
1394.15458,0.30238
1392.66479,0.29815
1391.17501,0.23288
1389.68522,0.31353
1388.19543,0.26756
1386.70564,0.25272
1385.21585,0.23792
1383.72606,0.21015
1382.23628,0.21746
1380.74649,0.23273
1379.25670,0.25368
1377.76691,0.19551
1376.27712,0.19505
1374.78733,0.27378
1373.29755,0.27565
1371.80776,0.32392
1370.31797,0.39032
1368.82818,0.42225
1367.33839,0.45423
1365.84860,0.51846
1364.35881,0.63815
1362.86903,0.64478
1361.37924,0.70686
1359.88945,0.72939
1358.39966,0.75874
1356.90987,0.82771
1355.42008,0.86617
1353.93030,0.78820
1352.44051,0.77811
1350.95072,0.76805
1349.46093,0.74672
1347.97114,0.70280
1346.48135,0.60012
1344.99156,0.59698
1343.50178,0.55883
1342.01199,0.47095
1340.52220,0.44077
1339.03241,0.45135
1337.54262,0.42577
1336.05283,0.43358
1334.56305,0.44143
1333.07326,0.42726
1331.58347,0.51604
1330.09368,0.38093
1328.60389,0.38722
1327.11410,0.36527
1325.62432,0.34223
1324.13453,0.32601
1322.64474,0.32339
1321.15495,0.34229
1319.66516,0.32729
1318.17537,0.31234
1316.68558,0.25105
1315.19580,0.27687
1313.70601,0.29368
1312.21622,0.25059
1310.72643,0.26069
1309.23664,0.30813
1307.74685,0.34770
1306.25707,0.30135
1304.76728,0.26917
1303.27749,0.23703
1301.78770,0.33554
1300.29791,0.28707
1298.80812,0.27821
1297.31834,0.28522
1295.82855,0.28322
1294.33876,0.33101
1292.84897,0.26914
1291.35918,0.33056
1289.86939,0.32191
1288.37960,0.31330
1286.88982,0.27757
1285.40003,0.31652
1283.91024,0.39282
1282.42045,0.37869
1280.93066,0.38947
1279.44087,0.35279
1277.95109,0.34554
1276.46130,0.42314
1274.97151,0.37243
1273.48172,0.32175
1271.99193,0.42207
1270.50214,0.48737
1269.01235,0.45998
1267.52257,0.50725
1266.03278,0.48671
1264.54299,0.57137
1263.05320,0.57578
1261.56341,0.55534
1260.07362,0.53493
1258.58384,0.57111
1257.09405,0.63332
1255.60426,0.61642
1254.11447,0.62442
1252.62468,0.55782
1251.13489,0.57042
1249.64511,0.52877
1248.15532,0.49620
1246.66553,0.46762
1245.17574,0.43908
1243.68595,0.40322
1242.19616,0.38549
1240.70637,0.39041
1239.21659,0.42589
1237.72680,0.32684
1236.23701,0.33300
1234.74722,0.24419
1233.25743,0.23176
1231.76764,0.21935
1230.27786,0.18946
1228.78807,0.24554
1227.29828,0.27113
1225.80849,0.20062
1224.31870,0.17991
1222.82891,0.15018
1221.33912,0.13180
1219.84934,0.14399
1218.35955,0.15621
1216.86976,0.17185
1215.37997,0.24973
1213.89018,0.22926
1212.40039,0.14889
1210.91061,0.11039
1209.42082,0.17597
1207.93103,0.16072
1206.44124,0.14551
1204.95145,0.15351
1203.46166,0.14572
1201.97188,0.11082
1200.48209,0.16529
1198.99230,0.16326
1197.50251,0.09340
1196.01272,0.10048
1194.52293,0.05275
1193.03314,0.00505
1191.54336,0.10848
1190.05357,0.09434
1188.56378,0.07118
1187.07399,0.03674
1185.58420,0.06115
1184.09441,0.02113
1182.60463,0.03429
1181.11484,0.04749
1179.62505,0.03924
1178.13526,0.06721
1176.64547,0.06581
1175.15568,0.06558
1173.66589,0.07669
1172.17611,0.05956
1170.68632,0.03229
1169.19653,0.00505
1167.70674,0.01131
1166.21695,0.04362
1164.72716,0.04769
1163.23738,0.08797
1161.74759,0.05366
1160.25780,0.02391
1158.76801,0.02698
1157.27822,0.03009
1155.78843,0.01627
1154.29865,0.03301
1152.80886,0.08033
1151.31907,0.08018
1149.82928,0.06423
1148.33949,0.10147
1146.84970,0.09917
1145.35991,0.09689
1143.87013,0.08448
1142.38034,0.16257
1140.89055,0.13326
1139.40076,0.18653
1137.91097,0.17199
1136.42118,0.19933
1134.93140,0.23575
1133.44161,0.27220
1131.95182,0.24536
1130.46203,0.29205
1128.97224,0.37045
1127.48245,0.31092
1125.99266,0.35772
1124.50288,0.35819
1123.01309,0.40901
1121.52330,0.45987
1120.03351,0.37450
1118.54372,0.43731
1117.05393,0.47300
1115.56415,0.43523
1114.07436,0.43255
1112.58457,0.43499
1111.09478,0.43746
1109.60499,0.48012
1108.11520,0.62232
1106.62542,0.63112
1105.13563,0.65578
1103.64584,0.73250
1102.15605,0.85675
1100.66626,0.88660
1099.17647,0.91649
1097.68668,0.85312
1096.19690,0.94471
1094.70711,0.95265
1093.21732,0.97306
1091.72753,1.07946
1090.23774,1.06319
1088.74795,1.04695
1087.25817,1.13988
1085.76838,1.02476
1084.27859,1.16186
1082.78880,1.25828
1081.29901,1.26653
1079.80922,1.25220
1078.31943,1.17005
1076.82965,1.08793
1075.33986,1.34059
1073.85007,1.31056
1072.36028,1.29866
1070.87049,1.36030
1069.38070,1.43893
1067.89092,1.44127
1066.40113,1.44364
1064.91134,1.35954
1063.42155,1.23363
1061.93176,1.25250
1060.44197,1.17868
1058.95219,1.12185
1057.46240,1.05545
1055.97261,0.98908
1054.48282,0.89730
1052.99303,0.82817
1051.50324,0.76360
1050.01345,0.64252
1048.52367,0.70128
1047.03388,0.70184
1045.54409,0.70243
1044.05430,0.69457
1042.56451,0.63812
1041.07472,0.57832
1039.58494,0.43938
1038.09515,0.40000
1036.60536,0.38553
1035.11557,0.37109
1033.62578,0.42568
1032.13599,0.43053
1030.64620,0.40941
1029.15642,0.54213
1027.66663,0.49677
1026.17684,0.45144
1024.68705,0.51301
1023.19726,0.56105
1021.70747,0.71202
1020.21769,0.97273
1018.72790,1.16562
1017.23811,1.28617
1015.74832,1.40675
1014.25853,1.62462
1012.76874,1.68081
1011.27896,1.64657
1009.78917,1.77408
1008.29938,2.00000
1006.80959,1.95229
1005.31980,1.90461
1003.83001,1.77103
1002.34022,1.77092
1000.85044,1.71317
999.36065,1.57742
997.87086,1.55084
996.38107,1.52429
994.89128,1.52209
993.40149,1.58551
991.91171,1.61052
990.42192,1.69663
988.93213,1.59618
987.44234,1.61451
985.95255,1.63286
984.46276,1.60037
982.97297,1.56791
981.48319,1.58411
979.99340,1.39792
978.50361,1.47074
977.01382,1.54358
975.52403,1.47058
974.03424,1.44285
972.54446,1.31338
971.05467,1.31060
969.56488,1.28975
968.07509,1.21862
966.58530,1.14752
965.09551,1.24666
963.60573,1.12757
962.11594,1.15326
960.62615,1.07947
959.13636,1.01816
957.64657,0.95688
956.15678,0.88206
954.66699,0.86948
953.17721,0.94853
951.68742,0.91453
950.19763,0.93371
948.70784,0.95293
947.21805,0.90885
945.72826,0.87273
944.23848,0.92371
942.74869,0.91140
941.25890,0.87199
939.76911,0.88971
938.27932,0.90747
936.78953,0.82519
935.29974,0.91709
933.80996,0.96379
932.32017,0.95625
930.83038,1.00697
929.34059,1.05774
927.85080,1.05029
926.36101,0.97842
924.87123,0.98123
923.38144,0.95466
921.89165,0.92361
920.40186,0.89259
918.91207,0.90345
917.42228,0.91207
915.93250,0.94222
914.44271,0.94640
912.95292,0.92686
911.46313,0.90735
909.97334,0.98853
908.48355,1.07200
906.99376,1.02546
905.50398,0.95068
904.01419,0.93813
902.52440,0.92562
901.03461,1.07259
899.54482,1.11216
898.05503,1.02172
896.56525,1.10433
895.07546,1.05071
893.58567,0.99713
892.09588,1.08550
890.60609,1.22706
889.11630,1.00338
887.62651,1.01496
886.13673,1.03901
884.64694,1.06309
883.15715,1.00692
881.66736,0.97453
880.17757,0.92521
878.68778,0.98110
877.19800,1.03702
875.70821,0.93239
874.21842,1.03475
872.72863,1.04893
871.23884,1.14004
869.74905,1.11302
868.25927,1.08602
866.76948,1.06302
865.27969,1.05702
863.78990,1.07028
862.30011,1.00441
860.81032,1.04205
859.32053,1.07972
857.83075,1.01169
856.34096,0.97536
854.85117,0.99448
853.36138,0.87227
851.87159,0.79024
850.38180,0.70825
848.89202,0.63930
847.40223,0.49348
845.91244,0.43364
844.42265,0.42812
842.93286,0.42263
841.44307,0.41265
839.95329,0.45812
838.46350,0.40298
836.97371,0.40780
835.48392,0.35669
833.99413,0.30560
832.50434,0.36482
831.01455,0.43537
829.52477,0.38269
828.03498,0.30291
826.54519,0.25313
825.05540,0.20338
823.56561,0.25828
822.07582,0.21369
820.58604,0.19628
819.09625,0.19756
817.60646,0.19887
816.11667,0.19965
814.62688,0.15298
813.13709,0.11764
811.64730,0.04841
810.15752,0.02672
808.66773,0.00505
807.17794,0.13306
805.68815,0.09487
804.19836,0.16754
802.70857,0.18143
801.21879,0.19536
799.72900,0.17314
798.23921,0.24368
796.74942,0.41151
795.25963,0.46855
793.76984,0.52562
792.28006,0.57594
790.79027,0.67153
789.30048,0.64276
787.81069,0.69093
786.32090,0.70350
784.83111,0.71611
783.34132,0.75760
781.85154,0.77650
780.36175,0.80787
778.87196,0.78499
777.38217,0.76215
775.89238,0.92028
774.40259,0.90430
772.91281,1.04101
771.42302,1.00983
769.93323,0.97868
768.44344,0.99562
766.95365,1.02391
765.46386,1.01944
763.97407,0.99012
762.48429,0.91787
760.99450,0.84565
759.50471,0.72370
758.01492,0.59275
756.52513,0.52063
755.03534,0.48982
753.54556,0.45905
752.05577,0.27281
750.56598,0.20196
749.07619,0.16847
747.58640,0.15875
746.09661,0.14907
744.60683,0.05574
743.11704,0.08345
741.62725,0.06030
740.13746,0.05641
738.64767,0.05256
737.15788,0.06570
735.66809,0.03477
734.17831,0.06608
732.68852,0.05614
731.19873,0.04624
729.70894,0.06181
728.21915,0.02879
726.72936,0.10437
725.23958,0.05559
723.74979,0.09732
722.26000,0.13907
720.77021,0.07456
719.28042,0.12543
717.79063,0.09379
716.30084,0.08988
714.81106,0.08601
713.32127,0.09970
711.83148,0.10325
710.34169,0.00505
708.85190,0.04854
707.36211,0.09207
705.87233,0.09265
704.38254,0.07518
702.89275,0.09392
701.40296,0.08500
699.91317,0.07611
698.42338,0.12210
696.93360,0.20658
695.44381,0.14973
693.95402,0.14493
692.46423,0.14017
690.97444,0.18068
689.48465,0.20878
687.99486,0.17585
686.50508,0.21251
685.01529,0.24920
683.52550,0.20280
682.03571,0.17679
680.54592,0.19040
679.05613,0.16899
677.56635,0.14761
676.07656,0.15792
674.58677,0.11626
673.09698,0.08141
671.60719,0.10879
670.11740,0.13621
668.62761,0.17836
667.13783,0.04753
665.64804,0.05356
664.15825,0.05963
662.66846,0.06008
661.17867,0.12276
659.68888,0.03281
658.19910,0.05259
656.70931,0.07240
655.21952,0.05379
653.72973,0.20485
652.23994,0.16144
650.75015,0.20626
649.26037,0.25113
647.77058,0.19311
646.28079,0.13174
644.79100,0.11338
643.30121,0.08091
641.81142,0.04848
640.32163,0.07319
638.83185,0.04592
637.34206,0.03112
635.85227,0.02087
634.36248,0.01067
632.87269,0.01067
631.38290,0.00505
629.89312,0.05735
628.40333,0.04071
626.91354,0.02409
625.42375,0.07537
623.93396,0.10971
622.44417,0.10960
620.95438,0.10952
619.46460,0.08403
617.97481,0.08459
616.48502,0.08744
614.99523,0.10220
613.50544,0.11699
612.01565,0.06906
610.52587,0.03699
609.03608,0.05472
607.54629,0.08378
606.05650,0.11288
604.56671,0.14315
603.07692,0.13274
601.58714,0.15064
600.09735,0.16857
598.60756,0.12320
597.11777,0.05978
595.62798,0.06311
594.13819,0.06930
592.64840,0.07553
591.15862,0.04391
589.66883,0.06321
588.17904,0.06897
586.68925,0.09061
585.19946,0.11227
583.70967,0.08308
582.21989,0.11726
580.73010,0.12037
579.24031,0.12351
577.75052,0.12499
576.26073,0.21698
574.77094,0.18008
573.28115,0.16357
571.79137,0.14709
570.30158,0.29576
568.81179,0.35059
567.32200,0.33988
565.83221,0.32919
564.34242,0.38074
562.85264,0.46512
561.36285,0.54048
559.87306,0.54746
558.38327,0.55448
556.89348,0.54400
555.40369,0.68396
553.91391,0.70239
552.42412,0.72085
550.93433,0.66867
549.44454,0.65384
547.95475,0.75779
546.46496,0.79448
544.97517,0.83121
543.48539,0.95900
541.99560,0.79507
540.50581,0.86300
539.01602,0.93096
537.52623,0.89718
536.03644,0.70851
534.54666,0.73247
533.05687,0.70841
531.56708,0.68437
530.07729,0.68808
528.58750,0.74950
527.09771,0.67242
525.60792,0.59538
524.11814,0.63202
522.62835,0.64834
521.13856,0.57084
519.64877,0.50807
518.15898,0.44533
516.66919,0.42899
515.17941,0.39686
513.68962,0.39077
512.19983,0.38471
510.71004,0.38208
509.22025,0.38740
507.73046,0.52167
506.24068,0.49427
504.75089,0.46690
503.26110,0.36832
501.77131,0.42922
500.28152,0.39517
498.79173,0.36115
497.30194,0.26723
495.81216,0.33732
494.32237,0.35938
492.83258,0.38147
491.34279,0.39399
489.85300,0.25274
488.36321,0.27438
486.87343,0.24685
485.38364,0.21936
483.89385,0.23205
482.40406,0.13621
480.91427,0.11956
479.42448,0.10295
477.93469,0.04001
476.44491,0.08680
474.95512,0.08330
473.46533,0.07983
471.97554,0.07696
470.48575,0.06168
468.99596,0.05775
467.50618,0.04142
466.01639,0.02512
464.52660,0.03033
463.03681,0.00505
461.54702,0.07772
460.05723,0.15043
458.56745,0.07389
457.07766,0.12970
455.58787,0.15218
454.09808,0.17470
452.60829,0.24644
451.11850,0.16895
449.62871,0.23058
448.13893,0.29225
446.64914,0.39467
445.15935,0.55366
443.66956,0.51365
442.17977,0.56811
440.68998,0.62260
439.20020,0.62227
437.71041,0.81763
436.22062,0.83999
434.73083,0.86239
433.24104,1.09177
431.75125,1.21601
430.26146,1.23625
428.77168,1.25652
427.28189,1.32206
425.79210,1.47019
424.30231,1.44646
422.81252,1.42277
421.32273,1.39459
419.83295,1.38566
418.34316,1.33437
416.85337,1.28310
415.36358,1.22226
413.87379,1.00653
412.38400,0.97742
410.89422,0.94835
409.40443,0.85146
407.91464,0.80436
406.42485,0.80932
404.93506,0.70800
403.44527,0.60673
401.95548,0.65250
400.46570,0.66777
398.97591,0.65028
397.48612,0.63282
395.99633,0.63575
394.50654,0.74842
393.01675,0.74576
391.52697,0.74315
390.03718,0.56867
388.54739,0.47792
387.05760,0.53477
385.56781,0.59166
384.07802,0.58130
382.58824,0.56305
381.09845,0.54880
379.60866,0.53458
378.11887,0.43955
376.62908,0.32645
375.13929,0.32590
373.64950,0.32539
372.15972,0.34245
370.66993,0.20574
369.18014,0.20759
367.69035,0.20948
366.20056,0.19274
364.71077,0.22467
363.22099,0.30130
361.73120,0.37796
360.24141,0.19626
358.75162,0.15934
357.26183,0.17503
355.77204,0.19077
354.28225,0.19466
352.79247,0.04706
351.30268,0.06063
349.81289,0.07424
348.32310,0.09184
346.83331,0.11626
345.34352,0.07908
343.85374,0.04194
342.36395,0.14346
340.87416,0.19978
339.38437,0.17415
337.89458,0.14855
336.40479,0.16088
334.91501,0.17549
333.42522,0.16922
331.93543,0.16299
330.44564,0.19014
328.95585,0.19472
327.46606,0.13826
325.97627,0.08184
324.48649,0.07295
322.99670,0.11177
321.50691,0.13536
320.01712,0.15899
318.52733,0.24993
317.03754,0.18485
315.54776,0.21763
314.05797,0.25043
312.56818,0.17641
311.07839,0.11260
309.58860,0.07144
308.09881,0.03031
306.60902,0.00505
305.11924,0.03695
303.62945,0.06549
302.13966,0.09017
300.64987,0.06173
299.16008,0.00505
