1778.52000,0.00394
1777.03021,0.04303
1775.54042,0.00000
1774.05063,0.02652
1772.56085,0.01796
1771.07106,0.02628
1769.58127,0.03604
1768.09148,0.02687
1766.60169,0.02265
1765.11190,0.04233
1763.62212,0.05081
1762.13233,0.03966
1760.64254,0.03134
1759.15275,0.03991
1757.66296,0.02253
1756.17317,0.02555
1754.68339,0.02298
1753.19360,0.00639
1751.70381,0.01723
1750.21402,0.00000
1748.72423,0.01586
1747.23444,0.02333
1745.74465,0.03504
1744.25487,0.04327
1742.76508,0.04662
1741.27529,0.03103
1739.78550,0.03093
1738.29571,0.01190
1736.80592,0.05048
1735.31614,0.02870
1733.82635,0.02591
1732.33656,0.06037
1730.84677,0.04641
1729.35698,0.05144
1727.86719,0.02420
1726.37740,0.02507
1724.88762,0.00000
1723.39783,0.02580
1721.90804,0.00949
1720.41825,0.03957
1718.92846,0.02192
1717.43867,0.03520
1715.94889,0.02042
1714.45910,0.06466
1712.96931,0.06961
1711.47952,0.06546
1709.98973,0.05361
1708.49994,0.05304
1707.01016,0.05530
1705.52037,0.05759
1704.03058,0.11469
1702.54079,0.10230
1701.05100,0.13067
1699.56121,0.11694
1698.07142,0.16573
1696.58164,0.15136
1695.09185,0.22550
1693.60206,0.18310
1692.11227,0.22429
1690.62248,0.20232
1689.13269,0.25552
1687.64291,0.21745
1686.15312,0.22787
1684.66333,0.27835
1683.17354,0.28322
1681.68375,0.28390
1680.19396,0.22633
1678.70417,0.22847
1677.21439,0.25874
1675.72460,0.24902
1674.23481,0.26109
1672.74502,0.26898
1671.25523,0.31061
1669.76544,0.29750
1668.27566,0.25071
1666.78587,0.23484
1665.29608,0.20146
1663.80629,0.20391
1662.31650,0.22326
1660.82671,0.20822
1659.33693,0.23746
1657.84714,0.24004
1656.35735,0.23564
1654.86756,0.22634
1653.37777,0.17705
1651.88798,0.20363
1650.39819,0.15792
1648.90841,0.20493
1647.41862,0.15997
1645.92883,0.15051
1644.43904,0.14109
1642.94925,0.17558
1641.45946,0.18904
1639.96968,0.20674
1638.47989,0.18304
1636.99010,0.19238
1635.50031,0.17366
1634.01052,0.16199
1632.52073,0.21917
1631.03094,0.15068
1629.54116,0.17703
1628.05137,0.15354
1626.56158,0.20804
1625.07179,0.21131
1623.58200,0.19845
1622.09221,0.19054
1620.60243,0.20795
1619.11264,0.23662
1617.62285,0.23652
1616.13306,0.21048
1614.64327,0.22169
1613.15348,0.20694
1611.66370,0.17818
1610.17391,0.17684
1608.68412,0.18817
1607.19433,0.21287
1605.70454,0.20039
1604.21475,0.19672
1602.72496,0.19307
1601.23518,0.14135
1599.74539,0.17464
1598.25560,0.13703
1596.76581,0.15142
1595.27602,0.13845
1593.78623,0.13604
1592.29645,0.10979
1590.80666,0.07585
1589.31687,0.10654
1587.82708,0.11409
1586.33729,0.06830
1584.84750,0.09347
1583.35771,0.07864
1581.86793,0.05191
1580.37814,0.09964
1578.88835,0.10246
1577.39856,0.11304
1575.90877,0.07309
1574.41898,0.04580
1572.92920,0.08316
1571.43941,0.06296
1569.94962,0.04806
1568.45983,0.03319
1566.97004,0.04960
1565.48025,0.04076
1563.99047,0.04109
1562.50068,0.01124
1561.01089,0.03550
1559.52110,0.01485
1558.03131,0.05954
1556.54152,0.08038
1555.05173,0.07808
1553.56195,0.07511
1552.07216,0.11641
1550.58237,0.06926
1549.09258,0.06989
1547.60279,0.04738
1546.11300,0.05931
1544.62322,0.06354
1543.13343,0.02286
1541.64364,0.03418
1540.15385,0.04062
1538.66406,0.04709
1537.17427,0.02198
1535.68448,0.02711
1534.19470,0.02173
1532.70491,0.00655
1531.21512,0.02300
1529.72533,0.02615
1528.23554,0.00333
1526.74575,0.02831
1525.25597,0.05753
1523.76618,0.06009
1522.27639,0.04372
1520.78660,0.00000
1519.29681,0.01602
1517.80702,0.00539
1516.31724,0.04464
1514.82745,0.01651
1513.33766,0.02669
1511.84787,0.03689
1510.35808,0.04116
1508.86829,0.01456
1507.37850,0.02802
1505.88872,0.00218
1504.39893,0.02483
1502.90914,0.01381
1501.41935,0.00000
1499.92956,0.02120
1498.43977,0.05577
1496.94999,0.08967
1495.46020,0.09902
1493.97041,0.17231
1492.48062,0.24773
1490.99083,0.28948
1489.50104,0.33266
1488.01125,0.36605
1486.52147,0.39946
1485.03168,0.45257
1483.54189,0.55487
1482.05210,0.65368
1480.56231,0.76447
1479.07252,0.81981
1477.58274,0.89203
1476.09295,1.00783
1474.60316,1.12717
1473.11337,1.12786
1471.62358,1.19318
1470.13379,1.19604
1468.64401,1.18277
1467.15422,1.05015
1465.66443,1.01834
1464.17464,0.98656
1462.68485,0.98395
1461.19506,0.93853
1459.70527,0.86646
1458.21549,0.86676
1456.72570,0.77368
1455.23591,0.75999
1453.74612,0.71544
1452.25633,0.65195
1450.76654,0.60254
1449.27676,0.59951
1447.78697,0.55507
1446.29718,0.55702
1444.80739,0.52002
1443.31760,0.48305
1441.82781,0.38537
1440.33802,0.33407
1438.84824,0.27297
1437.35845,0.23578
1435.86866,0.20634
1434.37887,0.24505
1432.88908,0.20725
1431.39929,0.20389
1429.90951,0.20126
1428.41972,0.25203
1426.92993,0.22348
1425.44014,0.23148
1423.95035,0.24197
1422.46056,0.25249
1420.97078,0.28305
1419.48099,0.30241
1417.99120,0.31408
1416.50141,0.30962
1415.01162,0.30941
1413.52183,0.30782
1412.03204,0.26554
1410.54226,0.27736
1409.05247,0.29342
1407.56268,0.32427
1406.07289,0.29194
1404.58310,0.29440
1403.09331,0.29690
1401.60353,0.32365
1400.11374,0.34271
1398.62395,0.32388
1397.13416,0.31983
1395.64437,0.35513
1394.15458,0.35465
1392.66479,0.34788
1391.17501,0.36713
1389.68522,0.38711
1388.19543,0.37341
1386.70564,0.36571
1385.21585,0.35804
1383.72606,0.36691
1382.23628,0.28030
1380.74649,0.30468
1379.25670,0.34173
1377.76691,0.31350
1376.27712,0.37870
1374.78733,0.43129
1373.29755,0.45091
1371.80776,0.48601
1370.31797,0.61524
1368.82818,0.66866
1367.33839,0.72211
1365.84860,0.92588
1364.35881,0.96675
1362.86903,1.09122
1361.37924,1.11811
1359.88945,1.12677
1358.39966,1.31945
1356.90987,1.42509
1355.42008,1.37134
1353.93030,1.26706
1352.44051,1.18985
1350.95072,1.11267
1349.46093,1.13208
1347.97114,1.03073
1346.48135,0.90273
1344.99156,0.80355
1343.50178,0.75918
1342.01199,0.68605
1340.52220,0.58205
1339.03241,0.57990
1337.54262,0.53847
1336.05283,0.53990
1334.56305,0.54136
1333.07326,0.49299
1331.58347,0.52331
1330.09368,0.42444
1328.60389,0.33333
1327.11410,0.41149
1325.62432,0.34292
1324.13453,0.35794
1322.64474,0.38704
1321.15495,0.39018
1319.66516,0.36141
1318.17537,0.33266
1316.68558,0.29306
1315.19580,0.33004
1313.70601,0.26382
1312.21622,0.33105
1310.72643,0.30071
1309.23664,0.25565
1307.74685,0.28857
1306.25707,0.24918
1304.76728,0.25162
1303.27749,0.25408
1301.78770,0.25974
1300.29791,0.27104
1298.80812,0.27184
1297.31834,0.30147
1295.82855,0.27424
1294.33876,0.28005
1292.84897,0.26132
1291.35918,0.28123
1289.86939,0.27590
1288.37960,0.27060
1286.88982,0.28429
1285.40003,0.33664
1283.91024,0.33072
1282.42045,0.35364
1280.93066,0.31900
1279.44087,0.36093
1277.95109,0.31582
1276.46130,0.34377
1274.97151,0.33524
1273.48172,0.32673
1271.99193,0.41447
1270.50214,0.44957
1269.01235,0.49945
1267.52257,0.49598
1266.03278,0.44410
1264.54299,0.47721
1263.05320,0.54898
1261.56341,0.55021
1260.07362,0.55147
1258.58384,0.53625
1257.09405,0.52177
1255.60426,0.52909
1254.11447,0.51186
1252.62468,0.54311
1251.13489,0.48170
1249.64511,0.44701
1248.15532,0.39269
1246.66553,0.36367
1245.17574,0.33469
1243.68595,0.33243
1242.19616,0.35758
1240.70637,0.33291
1239.21659,0.31318
1237.72680,0.27592
1236.23701,0.25766
1234.74722,0.18957
1233.25743,0.19665
1231.76764,0.20376
1230.27786,0.22074
1228.78807,0.17173
1227.29828,0.20562
1225.80849,0.12227
1224.31870,0.07757
1222.82891,0.08135
1221.33912,0.09922
1219.84934,0.10938
1218.35955,0.11959
1216.86976,0.14527
1215.37997,0.17098
1213.89018,0.20164
1212.40039,0.12277
1210.91061,0.12611
1209.42082,0.10981
1207.93103,0.12022
1206.44124,0.13067
1204.95145,0.07444
1203.46166,0.07652
1201.97188,0.10251
1200.48209,0.07095
1198.99230,0.10332
1197.50251,0.02547
1196.01272,0.03403
1194.52293,0.02015
1193.03314,0.00629
1191.54336,0.04655
1190.05357,0.02854
1188.56378,0.04498
1187.07399,0.01932
1185.58420,0.00000
1184.09441,0.01147
1182.60463,0.03387
1181.11484,0.05629
1179.62505,0.06926
1178.13526,0.09139
1176.64547,0.08336
1175.15568,0.05780
1173.66589,0.10952
1172.17611,0.04470
1170.68632,0.03363
1169.19653,0.02259
1167.70674,0.01193
1166.21695,0.03361
1164.72716,0.04197
1163.23738,0.06372
1161.74759,0.04967
1160.25780,0.02302
1158.76801,0.01149
1157.27822,0.00000
1155.78843,0.04947
1154.29865,0.03366
1152.80886,0.02350
1151.31907,0.03585
1149.82928,0.05314
1148.33949,0.08801
1146.84970,0.09483
1145.35991,0.10168
1143.87013,0.04185
1142.38034,0.06140
1140.89055,0.11891
1139.40076,0.10903
1137.91097,0.20030
1136.42118,0.18697
1134.93140,0.20317
1133.44161,0.21939
1131.95182,0.26796
1130.46203,0.27301
1128.97224,0.26896
1127.48245,0.26003
1125.99266,0.26026
1124.50288,0.28581
1123.01309,0.30857
1121.52330,0.33137
1120.03351,0.39492
1118.54372,0.40865
1117.05393,0.39572
1115.56415,0.36035
1114.07436,0.38541
1112.58457,0.38943
1111.09478,0.39348
1109.60499,0.37931
1108.11520,0.50000
1106.62542,0.50344
1105.13563,0.54764
1103.64584,0.68036
1102.15605,0.72954
1100.66626,0.74435
1099.17647,0.75918
1097.68668,0.75859
1096.19690,0.80439
1094.70711,0.83336
1093.21732,0.84551
1091.72753,0.88086
1090.23774,0.89588
1088.74795,0.91093
1087.25817,0.93303
1085.76838,0.95517
1084.27859,0.99489
1082.78880,1.07046
1081.29901,1.07443
1079.80922,1.02084
1078.31943,1.03857
1076.82965,1.05632
1075.33986,1.10887
1073.85007,1.15864
1072.36028,1.18948
1070.87049,1.21544
1069.38070,1.25758
1067.89092,1.29553
1066.40113,1.33352
1064.91134,1.16859
1063.42155,1.05705
1061.93176,1.03333
1060.44197,0.99630
1058.95219,0.91295
1057.46240,0.90232
1055.97261,0.89172
1054.48282,0.76352
1052.99303,0.72172
1051.50324,0.65328
1050.01345,0.56450
1048.52367,0.57126
1047.03388,0.54890
1045.54409,0.52658
1044.05430,0.57205
1042.56451,0.52696
1041.07472,0.41800
1039.58494,0.42424
1038.09515,0.30762
1036.60536,0.30023
1035.11557,0.29287
1033.62578,0.26412
1032.13599,0.27614
1030.64620,0.33102
1029.15642,0.38664
1027.66663,0.38400
1026.17684,0.38139
1024.68705,0.39215
1023.19726,0.48160
1021.70747,0.70311
1020.21769,0.92043
1018.72790,1.07036
1017.23811,1.22700
1015.74832,1.38367
1014.25853,1.59129
1012.76874,1.71747
1011.27896,1.80506
1009.78917,1.89198
1008.29938,2.00000
1006.80959,1.95531
1005.31980,1.91064
1003.83001,1.81650
1002.34022,1.71958
1000.85044,1.63604
999.36065,1.43665
997.87086,1.42901
996.38107,1.42141
994.89128,1.36959
993.40149,1.41120
991.91171,1.37840
990.42192,1.45941
988.93213,1.44282
987.44234,1.40591
985.95255,1.36902
984.46276,1.38554
982.97297,1.27779
981.48319,1.18411
979.99340,1.15437
978.50361,1.15346
977.01382,1.15257
975.52403,1.10888
974.03424,1.11438
972.54446,1.02019
971.05467,0.94358
969.56488,0.90563
968.07509,0.89510
966.58530,0.88461
965.09551,0.81936
963.60573,0.86019
962.11594,0.83152
960.62615,0.73407
959.13636,0.68756
957.64657,0.64108
956.15678,0.65608
954.66699,0.62476
953.17721,0.64544
951.68742,0.61769
950.19763,0.62053
948.70784,0.62339
947.21805,0.60487
945.72826,0.62430
944.23848,0.61005
942.74869,0.63306
941.25890,0.63081
939.76911,0.62157
938.27932,0.61236
936.78953,0.72046
935.29974,0.64320
933.80996,0.66498
932.32017,0.68399
930.83038,0.70970
929.34059,0.73544
927.85080,0.74681
926.36101,0.65780
924.87123,0.60743
923.38144,0.60696
921.89165,0.60898
920.40186,0.61103
918.91207,0.59520
917.42228,0.61452
915.93250,0.61491
914.44271,0.62656
912.95292,0.62736
911.46313,0.62819
909.97334,0.65047
908.48355,0.76618
906.99376,0.71409
905.50398,0.64797
904.01419,0.65423
902.52440,0.66051
901.03461,0.76444
899.54482,0.71741
898.05503,0.72519
896.56525,0.75127
895.07546,0.74296
893.58567,0.73468
892.09588,0.75944
890.60609,0.83690
889.11630,0.73882
887.62651,0.71873
886.13673,0.75204
884.64694,0.78538
883.15715,0.78013
881.66736,0.72716
880.17757,0.67632
878.68778,0.72910
877.19800,0.78191
875.70821,0.75083
874.21842,0.83284
872.72863,0.84326
871.23884,0.82631
869.74905,0.81818
868.25927,0.81008
866.76948,0.88593
865.27969,0.80310
863.78990,0.92184
862.30011,0.85874
860.81032,0.85430
859.32053,0.84990
857.83075,0.85500
856.34096,0.81590
854.85117,0.76419
853.36138,0.65140
851.87159,0.61696
850.38180,0.58254
848.89202,0.49724
847.40223,0.41057
845.91244,0.37730
844.42265,0.35775
842.93286,0.33824
841.44307,0.29734
839.95329,0.28386
838.46350,0.24723
836.97371,0.26331
835.48392,0.26958
833.99413,0.27588
832.50434,0.28433
831.01455,0.27595
829.52477,0.28094
828.03498,0.23540
826.54519,0.22395
825.05540,0.21254
823.56561,0.15796
822.07582,0.19050
820.58604,0.16548
819.09625,0.12961
817.60646,0.09377
816.11667,0.04567
814.62688,0.07134
813.13709,0.06262
811.64730,0.03288
810.15752,0.03546
808.66773,0.03808
807.17794,0.00000
805.68815,0.07579
804.19836,0.08770
802.70857,0.12106
801.21879,0.15445
799.72900,0.11449
798.23921,0.21150
796.74942,0.32680
795.25963,0.36312
793.76984,0.39948
792.28006,0.48046
790.79027,0.50670
789.30048,0.56527
787.81069,0.57963
786.32090,0.60876
784.83111,0.63793
783.34132,0.62078
781.85154,0.74552
780.36175,0.72352
778.87196,0.68715
777.38217,0.65081
775.89238,0.72020
774.40259,0.77908
772.91281,0.82745
771.42302,0.83338
769.93323,0.83933
768.44344,0.82811
766.95365,0.84009
765.46386,0.88371
763.97407,0.79393
762.48429,0.76317
760.99450,0.73244
759.50471,0.57322
758.01492,0.47514
756.52513,0.42554
755.03534,0.41109
753.54556,0.39666
752.05577,0.29800
750.56598,0.20428
749.07619,0.18223
747.58640,0.14195
746.09661,0.10169
744.60683,0.10923
743.11704,0.06904
741.62725,0.06961
740.13746,0.07759
738.64767,0.08560
737.15788,0.08837
735.66809,0.05255
734.17831,0.05749
732.68852,0.06457
731.19873,0.07168
729.70894,0.03036
728.21915,0.06071
726.72936,0.05246
725.23958,0.04776
723.74979,0.06099
722.26000,0.07426
720.77021,0.10546
719.28042,0.13880
717.79063,0.05560
716.30084,0.08233
714.81106,0.10909
713.32127,0.00000
711.83148,0.03299
710.34169,0.09129
708.85190,0.07800
707.36211,0.06473
705.87233,0.05010
704.38254,0.04813
702.89275,0.07990
701.40296,0.10398
699.91317,0.12809
698.42338,0.11150
696.93360,0.08722
695.44381,0.15707
693.95402,0.12687
692.46423,0.09671
690.97444,0.14418
689.48465,0.16219
687.99486,0.18304
686.50508,0.18636
685.01529,0.18971
683.52550,0.20222
682.03571,0.22530
680.54592,0.23928
679.05613,0.20132
677.56635,0.16339
676.07656,0.15008
674.58677,0.10308
673.09698,0.08351
671.60719,0.10294
670.11740,0.12240
668.62761,0.09309
667.13783,0.09541
665.64804,0.05984
664.15825,0.02430
662.66846,0.06814
661.17867,0.05373
659.68888,0.04918
658.19910,0.07837
656.70931,0.10760
655.21952,0.13334
653.72973,0.09591
652.23994,0.15050
650.75015,0.14825
649.26037,0.14602
647.77058,0.10450
646.28079,0.04054
644.79100,0.01945
643.30121,0.02472
641.81142,0.03003
640.32163,0.01324
638.83185,0.06601
637.34206,0.06544
635.85227,0.03996
634.36248,0.01452
632.87269,0.00000
631.38290,0.06555
629.89312,0.05810
628.40333,0.03487
626.91354,0.01168
625.42375,0.02890
623.93396,0.09742
622.44417,0.09258
620.95438,0.08777
619.46460,0.05244
617.97481,0.04594
616.48502,0.07809
614.99523,0.08499
613.50544,0.09192
612.01565,0.11855
610.52587,0.08903
609.03608,0.11782
607.54629,0.09644
606.05650,0.07509
604.56671,0.16718
603.07692,0.15466
601.58714,0.13376
600.09735,0.11288
598.60756,0.13768
597.11777,0.09228
595.62798,0.07430
594.13819,0.04969
592.64840,0.02510
591.15862,0.07814
589.66883,0.07855
588.17904,0.05090
586.68925,0.06330
585.19946,0.07574
583.70967,0.11630
582.21989,0.07121
580.73010,0.11394
579.24031,0.15670
577.75052,0.15174
576.26073,0.13838
574.77094,0.15595
573.28115,0.14651
571.79137,0.13711
570.30158,0.18427
568.81179,0.27429
567.32200,0.28394
565.83221,0.29362
564.34242,0.39217
562.85264,0.28288
561.36285,0.33865
559.87306,0.38568
558.38327,0.43273
556.89348,0.50545
555.40369,0.55994
553.91391,0.57759
552.42412,0.59528
550.93433,0.57051
549.44454,0.57877
547.95475,0.65449
546.46496,0.66141
544.97517,0.66836
543.48539,0.75119
541.99560,0.73574
540.50581,0.77790
539.01602,0.82009
537.52623,0.66568
536.03644,0.66579
534.54666,0.59150
533.05687,0.60467
531.56708,0.61788
530.07729,0.61039
528.58750,0.56712
527.09771,0.58007
525.60792,0.59304
524.11814,0.51616
522.62835,0.51585
521.13856,0.45870
519.64877,0.43914
518.15898,0.41961
516.66919,0.42575
515.17941,0.35819
513.68962,0.34402
512.19983,0.32989
510.71004,0.32421
509.22025,0.33893
507.73046,0.37545
506.24068,0.37935
504.75089,0.38328
503.26110,0.36231
501.77131,0.36384
500.28152,0.36295
498.79173,0.36208
497.30194,0.28857
495.81216,0.36888
494.32237,0.35055
492.83258,0.33225
491.34279,0.30802
489.85300,0.31893
488.36321,0.26456
486.87343,0.27553
485.38364,0.28653
483.89385,0.22032
482.40406,0.14852
480.91427,0.13117
479.42448,0.11386
477.93469,0.10044
476.44491,0.05615
474.95512,0.05999
473.46533,0.06387
471.97554,0.06321
470.48575,0.04011
468.99596,0.12098
467.50618,0.08355
466.01639,0.04615
464.52660,0.00000
463.03681,0.10480
461.54702,0.10079
460.05723,0.09680
458.56745,0.03456
457.07766,0.06435
455.58787,0.12015
454.09808,0.17598
452.60829,0.19954
451.11850,0.21400
449.62871,0.21971
448.13893,0.22546
446.64914,0.40293
445.15935,0.48423
443.66956,0.49674
442.17977,0.51736
440.68998,0.53800
439.20020,0.61030
437.71041,0.71422
436.22062,0.75252
434.73083,0.79084
433.24104,1.02338
431.75125,1.10496
430.26146,1.18024
428.77168,1.25556
427.28189,1.37516
425.79210,1.33818
424.30231,1.32370
422.81252,1.30925
421.32273,1.25692
419.83295,1.16879
418.34316,1.09651
416.85337,1.02425
415.36358,0.90462
413.87379,0.93390
412.38400,0.89684
410.89422,0.85982
409.40443,0.81124
407.91464,0.79921
406.42485,0.70224
404.93506,0.64287
403.44527,0.58353
401.95548,0.58778
400.46570,0.55343
398.97591,0.55879
397.48612,0.56419
395.99633,0.64159
394.50654,0.67690
393.01675,0.68589
391.52697,0.69492
390.03718,0.52877
388.54739,0.44200
387.05760,0.46587
385.56781,0.48977
384.07802,0.55829
382.58824,0.63106
381.09845,0.55287
379.60866,0.47472
378.11887,0.44997
376.62908,0.37047
375.13929,0.32576
373.64950,0.28109
372.15972,0.28525
370.66993,0.24310
369.18014,0.21432
367.69035,0.18557
366.20056,0.22848
364.71077,0.26300
363.22099,0.25401
361.73120,0.24505
360.24141,0.23260
358.75162,0.27848
357.26183,0.25838
355.77204,0.23830
354.28225,0.18174
352.79247,0.07184
351.30268,0.07368
349.81289,0.07555
348.32310,0.11747
346.83331,0.16927
345.34352,0.13576
343.85374,0.10229
342.36395,0.14856
340.87416,0.20960
339.38437,0.17236
337.89458,0.13515
336.40479,0.20050
334.91501,0.08119
333.42522,0.07883
331.93543,0.07651
330.44564,0.16656
328.95585,0.12673
327.46606,0.13117
325.97627,0.13564
324.48649,0.11346
322.99670,0.12338
321.50691,0.13158
320.01712,0.13980
318.52733,0.19687
317.03754,0.27012
315.54776,0.24684
314.05797,0.22359
312.56818,0.19159
311.07839,0.11819
309.58860,0.08906
308.09881,0.05996
306.60902,0.00000
305.11924,0.10425
303.62945,0.08669
302.13966,0.05074
300.64987,0.09593
299.16008,0.00000
