1778.52000,0.02583
1777.03021,0.03928
1775.54042,0.03220
1774.05063,0.01144
1772.56085,0.00237
1771.07106,0.03171
1769.58127,0.03298
1768.09148,0.04250
1766.60169,0.04383
1765.11190,0.05959
1763.62212,0.02191
1762.13233,0.04047
1760.64254,0.01656
1759.15275,0.05848
1757.66296,0.03738
1756.17317,0.02384
1754.68339,0.04598
1753.19360,0.01126
1751.70381,0.03465
1750.21402,0.02928
1748.72423,0.02395
1747.23444,0.03989
1745.74465,0.03872
1744.25487,0.04102
1742.76508,0.05089
1741.27529,0.04639
1739.78550,0.03918
1738.29571,0.01624
1736.80592,0.04336
1735.31614,0.01842
1733.82635,0.00860
1732.33656,0.01114
1730.84677,0.00000
1729.35698,0.01494
1727.86719,0.02580
1726.37740,0.01681
1724.88762,0.00648
1723.39783,0.01332
1721.90804,0.00237
1720.41825,0.00458
1718.92846,0.02190
1717.43867,0.01252
1715.94889,0.01277
1714.45910,0.02127
1712.96931,0.02021
1711.47952,0.03495
1709.98973,0.04560
1708.49994,0.02407
1707.01016,0.02141
1705.52037,0.01879
1704.03058,0.06110
1702.54079,0.05340
1701.05100,0.08343
1699.56121,0.05591
1698.07142,0.10862
1696.58164,0.11681
1695.09185,0.12982
1693.60206,0.12573
1692.11227,0.14361
1690.62248,0.14369
1689.13269,0.15683
1687.64291,0.11723
1686.15312,0.16538
1684.66333,0.15325
1683.17354,0.19462
1681.68375,0.17707
1680.19396,0.16846
1678.70417,0.16536
1677.21439,0.18149
1675.72460,0.20519
1674.23481,0.15146
1672.74502,0.12382
1671.25523,0.16680
1669.76544,0.16937
1668.27566,0.19596
1666.78587,0.16227
1665.29608,0.16151
1663.80629,0.12651
1662.31650,0.15939
1660.82671,0.14296
1659.33693,0.13341
1657.84714,0.13554
1656.35735,0.13771
1654.86756,0.12551
1653.37777,0.12294
1651.88798,0.08612
1650.39819,0.12268
1648.90841,0.13254
1647.41862,0.11775
1645.92883,0.11602
1644.43904,0.11432
1642.94925,0.10853
1641.45946,0.12403
1639.96968,0.12448
1638.47989,0.13181
1636.99010,0.11381
1635.50031,0.09653
1634.01052,0.14576
1632.52073,0.08193
1631.03094,0.11615
1629.54116,0.10379
1628.05137,0.09626
1626.56158,0.12645
1625.07179,0.14297
1623.58200,0.14445
1622.09221,0.17062
1620.60243,0.14542
1619.11264,0.13054
1617.62285,0.18971
1616.13306,0.14404
1614.64327,0.14021
1613.15348,0.11653
1611.66370,0.13264
1610.17391,0.13028
1608.68412,0.14302
1607.19433,0.15717
1605.70454,0.12063
1604.21475,0.11804
1602.72496,0.11549
1601.23518,0.12291
1599.74539,0.12350
1598.25560,0.08163
1596.76581,0.08502
1595.27602,0.11107
1593.78623,0.08985
1592.29645,0.08991
1590.80666,0.09206
1589.31687,0.08121
1587.82708,0.05121
1586.33729,0.07196
1584.84750,0.05366
1583.35771,0.05322
1581.86793,0.05487
1580.37814,0.01200
1578.88835,0.04935
1577.39856,0.06822
1575.90877,0.05491
1574.41898,0.03273
1572.92920,0.01125
1571.43941,0.03162
1569.94962,0.03557
1568.45983,0.03955
1566.97004,0.04836
1565.48025,0.00237
1563.99047,0.01729
1562.50068,0.02334
1561.01089,0.01982
1559.52110,0.01770
1558.03131,0.03412
1556.54152,0.00807
1555.05173,0.05059
1553.56195,0.02049
1552.07216,0.01990
1550.58237,0.03853
1549.09258,0.03388
1547.60279,0.03544
1546.11300,0.04525
1544.62322,0.03727
1543.13343,0.05742
1541.64364,0.02345
1540.15385,0.01865
1538.66406,0.01388
1537.17427,0.04032
1535.68448,0.00237
1534.19470,0.04553
1532.70491,0.01196
1531.21512,0.03942
1529.72533,0.00591
1528.23554,0.00534
1526.74575,0.00547
1525.25597,0.03032
1523.76618,0.02846
1522.27639,0.02526
1520.78660,0.00496
1519.29681,0.00319
1517.80702,0.01585
1516.31724,0.01689
1514.82745,0.02756
1513.33766,0.01495
1511.84787,0.00237
1510.35808,0.01689
1508.86829,0.04035
1507.37850,0.01723
1505.88872,0.00237
1504.39893,0.06667
1502.90914,0.04259
1501.41935,0.04389
1499.92956,0.02535
1498.43977,0.08292
1496.94999,0.11379
1495.46020,0.16252
1493.97041,0.16123
1492.48062,0.25868
1490.99083,0.29036
1489.50104,0.33510
1488.01125,0.40591
1486.52147,0.47675
1485.03168,0.55448
1483.54189,0.60756
1482.05210,0.66958
1480.56231,0.72958
1479.07252,0.86980
1477.58274,0.98058
1476.09295,0.99818
1474.60316,1.06995
1473.11337,1.12804
1471.62358,1.19165
1470.13379,1.14426
1468.64401,1.15720
1467.15422,1.07971
1465.66443,1.02726
1464.17464,0.97484
1462.68485,0.93925
1461.19506,0.86805
1459.70527,0.85856
1458.21549,0.77645
1456.72570,0.74236
1455.23591,0.74873
1453.74612,0.64272
1452.25633,0.54292
1450.76654,0.53841
1449.27676,0.48391
1447.78697,0.45959
1446.29718,0.41542
1444.80739,0.39768
1443.31760,0.37996
1441.82781,0.33932
1440.33802,0.28705
1438.84824,0.21905
1437.35845,0.19495
1435.86866,0.16334
1434.37887,0.16329
1432.88908,0.16807
1431.39929,0.18521
1429.90951,0.17360
1428.41972,0.18327
1426.92993,0.21422
1425.44014,0.21229
1423.95035,0.22720
1422.46056,0.24213
1420.97078,0.18409
1419.48099,0.22822
1417.99120,0.28951
1416.50141,0.30422
1415.01162,0.29703
1413.52183,0.27411
1412.03204,0.27109
1410.54226,0.21533
1409.05247,0.22951
1407.56268,0.25948
1406.07289,0.23671
1404.58310,0.23933
1403.09331,0.24199
1401.60353,0.25495
1400.11374,0.33786
1398.62395,0.32415
1397.13416,0.34475
1395.64437,0.34550
1394.15458,0.35313
1392.66479,0.35257
1391.17501,0.38426
1389.68522,0.39336
1388.19543,0.39632
1386.70564,0.40856
1385.21585,0.42083
1383.72606,0.38756
1382.23628,0.40024
1380.74649,0.33824
1379.25670,0.37565
1377.76691,0.32948
1376.27712,0.33954
1374.78733,0.44079
1373.29755,0.47422
1371.80776,0.55428
1370.31797,0.65974
1368.82818,0.72856
1367.33839,0.79741
1365.84860,0.97904
1364.35881,1.08393
1362.86903,1.21491
1361.37924,1.32055
1359.88945,1.26172
1358.39966,1.35577
1356.90987,1.36555
1355.42008,1.34725
1353.93030,1.27415
1352.44051,1.21102
1350.95072,1.14792
1349.46093,1.12769
1347.97114,0.99371
1346.48135,0.87484
1344.99156,0.78616
1343.50178,0.74069
1342.01199,0.64796
1340.52220,0.49494
1339.03241,0.49344
1337.54262,0.49402
1336.05283,0.47064
1334.56305,0.44729
1333.07326,0.43562
1331.58347,0.41850
1330.09368,0.35755
1328.60389,0.39395
1327.11410,0.35157
1325.62432,0.30030
1324.13453,0.29362
1322.64474,0.35208
1321.15495,0.31735
1319.66516,0.32104
1318.17537,0.32477
1316.68558,0.25860
1315.19580,0.29392
1313.70601,0.21000
1312.21622,0.21727
1310.72643,0.16837
1309.23664,0.23259
1307.74685,0.23790
1306.25707,0.22473
1304.76728,0.22427
1303.27749,0.22384
1301.78770,0.26629
1300.29791,0.25050
1298.80812,0.20596
1297.31834,0.21971
1295.82855,0.27667
1294.33876,0.24867
1292.84897,0.22275
1291.35918,0.26747
1289.86939,0.25909
1288.37960,0.25075
1286.88982,0.29007
1285.40003,0.33011
1283.91024,0.33866
1282.42045,0.34037
1280.93066,0.33801
1279.44087,0.31649
1277.95109,0.31076
1276.46130,0.34961
1274.97151,0.33538
1273.48172,0.32117
1271.99193,0.36492
1270.50214,0.41486
1269.01235,0.45181
1267.52257,0.45315
1266.03278,0.45384
1264.54299,0.50117
1263.05320,0.52727
1261.56341,0.52874
1260.07362,0.53023
1258.58384,0.54752
1257.09405,0.49288
1255.60426,0.47253
1254.11447,0.55571
1252.62468,0.54434
1251.13489,0.50352
1249.64511,0.44012
1248.15532,0.41307
1246.66553,0.38125
1245.17574,0.34947
1243.68595,0.31224
1242.19616,0.33055
1240.70637,0.29612
1239.21659,0.29462
1237.72680,0.24242
1236.23701,0.23961
1234.74722,0.20804
1233.25743,0.21215
1231.76764,0.21629
1230.27786,0.13477
1228.78807,0.13966
1227.29828,0.14868
1225.80849,0.16734
1224.31870,0.13187
1222.82891,0.13688
1221.33912,0.13849
1219.84934,0.12985
1218.35955,0.12124
1216.86976,0.10512
1215.37997,0.13290
1213.89018,0.16345
1212.40039,0.11726
1210.91061,0.08207
1209.42082,0.10929
1207.93103,0.10535
1206.44124,0.10144
1204.95145,0.09448
1203.46166,0.08618
1201.97188,0.04227
1200.48209,0.09366
1198.99230,0.05597
1197.50251,0.09440
1196.01272,0.04650
1194.52293,0.03701
1193.03314,0.02755
1191.54336,0.04623
1190.05357,0.03272
1188.56378,0.05626
1187.07399,0.00237
1185.58420,0.02484
1184.09441,0.01581
1182.60463,0.02258
1181.11484,0.02938
1179.62505,0.08625
1178.13526,0.06912
1176.64547,0.07395
1175.15568,0.08430
1173.66589,0.09263
1172.17611,0.07836
1170.68632,0.06344
1169.19653,0.04856
1167.70674,0.03164
1166.21695,0.05657
1164.72716,0.04383
1163.23738,0.01399
1161.74759,0.01365
1160.25780,0.00237
1158.76801,0.02202
1157.27822,0.04170
1155.78843,0.06963
1154.29865,0.07910
1152.80886,0.09544
1151.31907,0.08646
1149.82928,0.10012
1148.33949,0.13575
1146.84970,0.12343
1145.35991,0.11114
1143.87013,0.09340
1142.38034,0.09694
1140.89055,0.08954
1139.40076,0.15689
1137.91097,0.22289
1136.42118,0.24437
1134.93140,0.23607
1133.44161,0.22780
1131.95182,0.29941
1130.46203,0.30182
1128.97224,0.30838
1127.48245,0.29372
1125.99266,0.34352
1124.50288,0.38786
1123.01309,0.39283
1121.52330,0.39783
1120.03351,0.40937
1118.54372,0.44835
1117.05393,0.43871
1115.56415,0.46542
1114.07436,0.46543
1112.58457,0.48740
1111.09478,0.50941
1109.60499,0.48758
1108.11520,0.53432
1106.62542,0.56738
1105.13563,0.63269
1103.64584,0.69666
1102.15605,0.78260
1100.66626,0.81750
1099.17647,0.85243
1097.68668,0.85758
1096.19690,0.88812
1094.70711,0.93102
1093.21732,0.97876
1091.72753,0.96073
1090.23774,0.97288
1088.74795,0.98507
1087.25817,1.03224
1085.76838,1.10206
1084.27859,1.08898
1082.78880,1.12665
1081.29901,1.19862
1079.80922,1.19865
1078.31943,1.20420
1076.82965,1.20978
1075.33986,1.26611
1073.85007,1.30808
1072.36028,1.30415
1070.87049,1.34070
1069.38070,1.30736
1067.89092,1.35973
1066.40113,1.41213
1064.91134,1.37889
1063.42155,1.19145
1061.93176,1.16512
1060.44197,1.09770
1058.95219,1.07143
1057.46240,1.01024
1055.97261,0.94907
1054.48282,0.91536
1052.99303,0.85220
1051.50324,0.76714
1050.01345,0.72255
1048.52367,0.64852
1047.03388,0.63278
1045.54409,0.61707
1044.05430,0.57192
1042.56451,0.54668
1041.07472,0.47485
1039.58494,0.45104
1038.09515,0.34775
1036.60536,0.32023
1035.11557,0.29274
1033.62578,0.31841
1032.13599,0.27830
1030.64620,0.29922
1029.15642,0.36611
1027.66663,0.40971
1026.17684,0.45335
1024.68705,0.53540
1023.19726,0.64285
1021.70747,0.78733
1020.21769,1.00588
1018.72790,1.19498
1017.23811,1.31797
1015.74832,1.44099
1014.25853,1.62538
1012.76874,1.82557
1011.27896,1.85787
1009.78917,1.92378
1008.29938,2.00000
1006.80959,1.97104
1005.31980,1.94211
1003.83001,1.86352
1002.34022,1.79113
1000.85044,1.67147
999.36065,1.61628
997.87086,1.57311
996.38107,1.52997
994.89128,1.55300
993.40149,1.56785
991.91171,1.54639
990.42192,1.53113
988.93213,1.52208
987.44234,1.54081
985.95255,1.55958
984.46276,1.53759
982.97297,1.45943
981.48319,1.43819
979.99340,1.29977
978.50361,1.27380
977.01382,1.24785
975.52403,1.30145
974.03424,1.25020
972.54446,1.22983
971.05467,1.15946
969.56488,1.13024
968.07509,1.06370
966.58530,0.99718
965.09551,0.96394
963.60573,0.92457
962.11594,0.89550
960.62615,0.91034
959.13636,0.85631
957.64657,0.80232
956.15678,0.77681
954.66699,0.70198
953.17721,0.65939
951.68742,0.73130
950.19763,0.72270
948.70784,0.71413
947.21805,0.66138
945.72826,0.64362
944.23848,0.62041
942.74869,0.66372
941.25890,0.71322
939.76911,0.72746
938.27932,0.74173
936.78953,0.83245
935.29974,0.80874
933.80996,0.80904
932.32017,0.79430
930.83038,0.79604
929.34059,0.79781
927.85080,0.81881
926.36101,0.78569
924.87123,0.78618
923.38144,0.68320
921.89165,0.69849
920.40186,0.71382
918.91207,0.69730
917.42228,0.72604
915.93250,0.70205
914.44271,0.73017
912.95292,0.70075
911.46313,0.67136
909.97334,0.65640
908.48355,0.75388
906.99376,0.79449
905.50398,0.71862
904.01419,0.70549
902.52440,0.69239
901.03461,0.77426
899.54482,0.87672
898.05503,0.77907
896.56525,0.77123
895.07546,0.76480
893.58567,0.75840
892.09588,0.77876
890.60609,0.76351
889.11630,0.81752
887.62651,0.80508
886.13673,0.82625
884.64694,0.84745
883.15715,0.79191
881.66736,0.77891
880.17757,0.77210
878.68778,0.79788
877.19800,0.82369
875.70821,0.76899
874.21842,0.83770
872.72863,0.90028
871.23884,0.99441
869.74905,0.99227
868.25927,0.99016
866.76948,1.02133
865.27969,1.02785
863.78990,0.99054
862.30011,1.00946
860.81032,0.99654
859.32053,0.98365
857.83075,0.94852
856.34096,0.93055
854.85117,0.85983
853.36138,0.75899
851.87159,0.72638
850.38180,0.69379
848.89202,0.63006
847.40223,0.47039
845.91244,0.39163
844.42265,0.40064
842.93286,0.40968
841.44307,0.35501
839.95329,0.31476
838.46350,0.31361
836.97371,0.27411
835.48392,0.27782
833.99413,0.28156
832.50434,0.28328
831.01455,0.32547
829.52477,0.30051
828.03498,0.25777
826.54519,0.24556
825.05540,0.23337
823.56561,0.16879
822.07582,0.21664
820.58604,0.13704
819.09625,0.11744
817.60646,0.09788
816.11667,0.04373
814.62688,0.04924
813.13709,0.05273
811.64730,0.02883
810.15752,0.01558
808.66773,0.00237
807.17794,0.02198
805.68815,0.05602
804.19836,0.09695
802.70857,0.11083
801.21879,0.12474
799.72900,0.17946
798.23921,0.19858
796.74942,0.34864
795.25963,0.43396
793.76984,0.51931
792.28006,0.50085
790.79027,0.53999
789.30048,0.55038
787.81069,0.61906
786.32090,0.59832
784.83111,0.57762
783.34132,0.64502
781.85154,0.70080
780.36175,0.72988
778.87196,0.71443
777.38217,0.69902
775.89238,0.74807
774.40259,0.80195
772.91281,0.87985
771.42302,0.85702
769.93323,0.83422
768.44344,0.86697
766.95365,0.79420
765.46386,0.75025
763.97407,0.78103
762.48429,0.71761
760.99450,0.65421
759.50471,0.58571
758.01492,0.38974
756.52513,0.42822
755.03534,0.38689
753.54556,0.34558
752.05577,0.26831
750.56598,0.22398
749.07619,0.14747
747.58640,0.14604
746.09661,0.14464
744.60683,0.05588
743.11704,0.04597
741.62725,0.03678
740.13746,0.03825
738.64767,0.03974
737.15788,0.07109
735.66809,0.02363
734.17831,0.07629
732.68852,0.05015
731.19873,0.02404
729.70894,0.05485
728.21915,0.03428
726.72936,0.08572
725.23958,0.05905
723.74979,0.05365
722.26000,0.04829
720.77021,0.07792
719.28042,0.10620
717.79063,0.09271
716.30084,0.08987
714.81106,0.08706
713.32127,0.00237
711.83148,0.05104
710.34169,0.03738
708.85190,0.04876
707.36211,0.06017
705.87233,0.10485
704.38254,0.06252
702.89275,0.06820
701.40296,0.09001
699.91317,0.11186
698.42338,0.10460
696.93360,0.13028
695.44381,0.17039
693.95402,0.17042
692.46423,0.17049
690.97444,0.19149
689.48465,0.17140
687.99486,0.18355
686.50508,0.21287
685.01529,0.24222
683.52550,0.24008
682.03571,0.24550
680.54592,0.19955
679.05613,0.18173
677.56635,0.16394
676.07656,0.19759
674.58677,0.19014
673.09698,0.12172
671.60719,0.11125
670.11740,0.10081
668.62761,0.10035
667.13783,0.09031
665.64804,0.08613
664.15825,0.08199
662.66846,0.08713
661.17867,0.06488
659.68888,0.08241
658.19910,0.07428
656.70931,0.06617
655.21952,0.10368
653.72973,0.10626
652.23994,0.08899
650.75015,0.11528
649.26037,0.14160
647.77058,0.12786
646.28079,0.08604
644.79100,0.06207
643.30121,0.07344
641.81142,0.08483
640.32163,0.04794
638.83185,0.06590
637.34206,0.07568
635.85227,0.05498
634.36248,0.03431
632.87269,0.00237
631.38290,0.03749
629.89312,0.07882
628.40333,0.05060
626.91354,0.02242
625.42375,0.02408
623.93396,0.05868
622.44417,0.07514
620.95438,0.09163
619.46460,0.05092
617.97481,0.12333
616.48502,0.10667
614.99523,0.11849
613.50544,0.13034
612.01565,0.12268
610.52587,0.17263
609.03608,0.19657
607.54629,0.16467
606.05650,0.13280
604.56671,0.13490
603.07692,0.19802
601.58714,0.18202
600.09735,0.16604
598.60756,0.10177
597.11777,0.11704
595.62798,0.10013
594.13819,0.09627
592.64840,0.09244
591.15862,0.13525
589.66883,0.11914
588.17904,0.06057
586.68925,0.06612
585.19946,0.07170
583.70967,0.09821
582.21989,0.13572
580.73010,0.12049
579.24031,0.10528
577.75052,0.16002
576.26073,0.23056
574.77094,0.21956
573.28115,0.24389
571.79137,0.26825
570.30158,0.26283
568.81179,0.31021
567.32200,0.32850
565.83221,0.34682
564.34242,0.37647
562.85264,0.39314
561.36285,0.42217
559.87306,0.46837
558.38327,0.51460
556.89348,0.54646
555.40369,0.57768
553.91391,0.62571
552.42412,0.67378
550.93433,0.65505
549.44454,0.67747
547.95475,0.66154
546.46496,0.67786
544.97517,0.69421
543.48539,0.72292
541.99560,0.74550
540.50581,0.74481
539.01602,0.74414
537.52623,0.76613
536.03644,0.77923
534.54666,0.67722
533.05687,0.66023
531.56708,0.64327
530.07729,0.60166
528.58750,0.63137
527.09771,0.59668
525.60792,0.56202
524.11814,0.55001
522.62835,0.50308
521.13856,0.46440
519.64877,0.44460
518.15898,0.42483
516.66919,0.38213
515.17941,0.37031
513.68962,0.33076
512.19983,0.29123
510.71004,0.32474
509.22025,0.35348
507.73046,0.36306
506.24068,0.36855
504.75089,0.37408
503.26110,0.39746
501.77131,0.36603
500.28152,0.38022
498.79173,0.39444
497.30194,0.41109
495.81216,0.36196
494.32237,0.37045
492.83258,0.37896
491.34279,0.37928
489.85300,0.32549
488.36321,0.31764
486.87343,0.27933
485.38364,0.24105
483.89385,0.21411
482.40406,0.15224
480.91427,0.12810
479.42448,0.10399
477.93469,0.11350
476.44491,0.04147
474.95512,0.07469
473.46533,0.10794
471.97554,0.04354
470.48575,0.04087
468.99596,0.07318
467.50618,0.08564
466.01639,0.09814
464.52660,0.00237
463.03681,0.02987
461.54702,0.05980
460.05723,0.08977
458.56745,0.05910
457.07766,0.12991
455.58787,0.13700
454.09808,0.14413
452.60829,0.22805
451.11850,0.18109
449.62871,0.19790
448.13893,0.21474
446.64914,0.30153
445.15935,0.42467
443.66956,0.51701
442.17977,0.53500
440.68998,0.55303
439.20020,0.59267
437.71041,0.73722
436.22062,0.76494
434.73083,0.79268
433.24104,0.96063
431.75125,1.09844
430.26146,1.18248
428.77168,1.26656
427.28189,1.32907
425.79210,1.28469
424.30231,1.31882
422.81252,1.35298
421.32273,1.28744
419.83295,1.20959
418.34316,1.16673
416.85337,1.12391
415.36358,0.88576
413.87379,0.83614
412.38400,0.78552
410.89422,0.73494
409.40443,0.76697
407.91464,0.77574
406.42485,0.68515
404.93506,0.69432
403.44527,0.70351
401.95548,0.55681
400.46570,0.53283
398.97591,0.56577
397.48612,0.59874
395.99633,0.56456
394.50654,0.61062
393.01675,0.60290
391.52697,0.59521
390.03718,0.52346
388.54739,0.41405
387.05760,0.40782
385.56781,0.40162
384.07802,0.44926
382.58824,0.47432
381.09845,0.46101
379.60866,0.44774
378.11887,0.33101
376.62908,0.34042
375.13929,0.32141
373.64950,0.30244
372.15972,0.24066
370.66993,0.18439
369.18014,0.17682
367.69035,0.16928
366.20056,0.15697
364.71077,0.16937
363.22099,0.17769
361.73120,0.18604
360.24141,0.12107
358.75162,0.15210
357.26183,0.12524
355.77204,0.09841
354.28225,0.15010
352.79247,0.10654
351.30268,0.07055
349.81289,0.03459
348.32310,0.06559
346.83331,0.13980
345.34352,0.13351
343.85374,0.12725
342.36395,0.11862
340.87416,0.11208
339.38437,0.08877
337.89458,0.06550
336.40479,0.12348
334.91501,0.05811
333.42522,0.08360
331.93543,0.10911
330.44564,0.10141
328.95585,0.10334
327.46606,0.11318
325.97627,0.12305
324.48649,0.06887
322.99670,0.06590
321.50691,0.07050
320.01712,0.07513
318.52733,0.06952
317.03754,0.14686
315.54776,0.11218
314.05797,0.07752
312.56818,0.10424
311.07839,0.12756
309.58860,0.08169
308.09881,0.03584
306.60902,0.00237
305.11924,0.09411
303.62945,0.06661
302.13966,0.02694
300.64987,0.00237
299.16008,0.00237
