1778.52000,0.11491
1777.03021,0.05451
1775.54042,0.08571
1774.05063,0.06819
1772.56085,0.02691
1771.07106,0.02492
1769.58127,0.05863
1768.09148,0.05433
1766.60169,0.09287
1765.11190,0.02203
1763.62212,0.05350
1762.13233,0.04933
1760.64254,0.00000
1759.15275,0.04704
1757.66296,0.06556
1756.17317,0.04369
1754.68339,0.03374
1753.19360,0.02858
1751.70381,0.02821
1750.21402,0.01836
1748.72423,0.01806
1747.23444,0.05823
1745.74465,0.03302
1744.25487,0.03996
1742.76508,0.04693
1741.27529,0.04323
1739.78550,0.08832
1738.29571,0.04545
1736.80592,0.03709
1735.31614,0.01568
1733.82635,0.07400
1732.33656,0.07645
1730.84677,0.02422
1729.35698,0.04220
1727.86719,0.06140
1726.37740,0.04258
1724.88762,0.00000
1723.39783,0.01302
1721.90804,0.04749
1720.41825,0.05225
1718.92846,0.00472
1717.43867,0.04761
1715.94889,0.07626
1714.45910,0.04072
1712.96931,0.06231
1711.47952,0.08749
1709.98973,0.07941
1708.49994,0.09039
1707.01016,0.09487
1705.52037,0.09937
1704.03058,0.11521
1702.54079,0.11087
1701.05100,0.18862
1699.56121,0.16888
1698.07142,0.16463
1696.58164,0.15805
1695.09185,0.20739
1693.60206,0.25201
1692.11227,0.25027
1690.62248,0.25452
1689.13269,0.25405
1687.64291,0.29524
1686.15312,0.29483
1684.66333,0.28256
1683.17354,0.30244
1681.68375,0.28906
1680.19396,0.24597
1678.70417,0.25168
1677.21439,0.31213
1675.72460,0.24536
1674.23481,0.27376
1672.74502,0.28080
1671.25523,0.34971
1669.76544,0.33183
1668.27566,0.32112
1666.78587,0.28310
1665.29608,0.26295
1663.80629,0.30110
1662.31650,0.24772
1660.82671,0.24669
1659.33693,0.28495
1657.84714,0.22810
1656.35735,0.25097
1654.86756,0.22153
1653.37777,0.24209
1651.88798,0.20321
1650.39819,0.22621
1648.90841,0.18621
1647.41862,0.14267
1645.92883,0.15923
1644.43904,0.17583
1642.94925,0.20732
1641.45946,0.19009
1639.96968,0.20856
1638.47989,0.17831
1636.99010,0.18972
1635.50031,0.19641
1634.01052,0.17697
1632.52073,0.13853
1631.03094,0.14769
1629.54116,0.16046
1628.05137,0.21845
1626.56158,0.19323
1625.07179,0.15020
1623.58200,0.22495
1622.09221,0.21291
1620.60243,0.29248
1619.11264,0.22699
1617.62285,0.24954
1616.13306,0.23050
1614.64327,0.21150
1613.15348,0.19133
1611.66370,0.22116
1610.17391,0.18322
1608.68412,0.22619
1607.19433,0.16454
1605.70454,0.21710
1604.21475,0.18822
1602.72496,0.15937
1601.23518,0.13710
1599.74539,0.19574
1598.25560,0.12239
1596.76581,0.16682
1595.27602,0.14112
1593.78623,0.15707
1592.29645,0.09695
1590.80666,0.12130
1589.31687,0.06362
1587.82708,0.09873
1586.33729,0.15886
1584.84750,0.11555
1583.35771,0.10082
1581.86793,0.07542
1580.37814,0.11428
1578.88835,0.13533
1577.39856,0.08030
1575.90877,0.10022
1574.41898,0.06072
1572.92920,0.06882
1571.43941,0.05912
1569.94962,0.06313
1568.45983,0.06717
1566.97004,0.05875
1565.48025,0.12530
1563.99047,0.04203
1562.50068,0.08961
1561.01089,0.04685
1559.52110,0.09093
1558.03131,0.11126
1556.54152,0.09119
1555.05173,0.14370
1553.56195,0.15462
1552.07216,0.13584
1550.58237,0.10164
1549.09258,0.08768
1547.60279,0.07614
1546.11300,0.08366
1544.62322,0.13046
1543.13343,0.07858
1541.64364,0.06479
1540.15385,0.06293
1538.66406,0.06111
1537.17427,0.10213
1535.68448,0.04210
1534.19470,0.04989
1532.70491,0.10052
1531.21512,0.03940
1529.72533,0.03659
1528.23554,0.05878
1526.74575,0.07031
1525.25597,0.14133
1523.76618,0.10298
1522.27639,0.10747
1520.78660,0.07156
1519.29681,0.00000
1517.80702,0.03186
1516.31724,0.04948
1514.82745,0.06713
1513.33766,0.08838
1511.84787,0.10967
1510.35808,0.08223
1508.86829,0.07267
1507.37850,0.10119
1505.88872,0.08932
1504.39893,0.04774
1502.90914,0.07280
1501.41935,0.04794
1499.92956,0.08258
1498.43977,0.07563
1496.94999,0.14840
1495.46020,0.16173
1493.97041,0.18937
1492.48062,0.29435
1490.99083,0.30897
1489.50104,0.38072
1488.01125,0.40373
1486.52147,0.42679
1485.03168,0.55810
1483.54189,0.63117
1482.05210,0.70070
1480.56231,0.73578
1479.07252,0.89339
1477.58274,0.95946
1476.09295,1.05648
1474.60316,1.14878
1473.11337,1.27679
1471.62358,1.31683
1470.13379,1.28793
1468.64401,1.21624
1467.15422,1.06014
1465.66443,1.04204
1464.17464,1.02397
1462.68485,1.02972
1461.19506,0.97366
1459.70527,1.03538
1458.21549,0.92824
1456.72570,0.88418
1455.23591,0.87821
1453.74612,0.80210
1452.25633,0.74624
1450.76654,0.62976
1449.27676,0.67031
1447.78697,0.61217
1446.29718,0.61711
1444.80739,0.57450
1443.31760,0.53193
1441.82781,0.40495
1440.33802,0.37909
1438.84824,0.33900
1437.35845,0.32035
1435.86866,0.26130
1434.37887,0.29861
1432.88908,0.31931
1431.39929,0.28890
1429.90951,0.29182
1428.41972,0.25315
1426.92993,0.24306
1425.44014,0.26988
1423.95035,0.28780
1422.46056,0.30576
1420.97078,0.31721
1419.48099,0.36200
1417.99120,0.33070
1416.50141,0.37793
1415.01162,0.37644
1413.52183,0.39282
1412.03204,0.34976
1410.54226,0.34837
1409.05247,0.37793
1407.56268,0.26243
1406.07289,0.32774
1404.58310,0.30686
1403.09331,0.28601
1401.60353,0.36569
1400.11374,0.32766
1398.62395,0.31821
1397.13416,0.38491
1395.64437,0.35174
1394.15458,0.36380
1392.66479,0.30453
1391.17501,0.35353
1389.68522,0.28482
1388.19543,0.33388
1386.70564,0.33659
1385.21585,0.33934
1383.72606,0.25649
1382.23628,0.24741
1380.74649,0.21696
1379.25670,0.28525
1377.76691,0.27984
1376.27712,0.25781
1374.78733,0.31313
1373.29755,0.31257
1371.80776,0.37747
1370.31797,0.45072
1368.82818,0.48000
1367.33839,0.50932
1365.84860,0.58267
1364.35881,0.74764
1362.86903,0.77230
1361.37924,0.70898
1359.88945,0.70635
1358.39966,0.80128
1356.90987,0.87008
1355.42008,0.86993
1353.93030,0.95426
1352.44051,0.88758
1350.95072,0.82093
1349.46093,0.87444
1347.97114,0.81381
1346.48135,0.69137
1344.99156,0.60701
1343.50178,0.67136
1342.01199,0.58589
1340.52220,0.53969
1339.03241,0.45191
1337.54262,0.46525
1336.05283,0.50300
1334.56305,0.54079
1333.07326,0.46860
1331.58347,0.49278
1330.09368,0.41709
1328.60389,0.36165
1327.11410,0.35501
1325.62432,0.36862
1324.13453,0.35491
1322.64474,0.41497
1321.15495,0.43820
1319.66516,0.42280
1318.17537,0.40744
1316.68558,0.38082
1315.19580,0.36969
1313.70601,0.33124
1312.21622,0.34515
1310.72643,0.29844
1309.23664,0.28031
1307.74685,0.28719
1306.25707,0.29410
1304.76728,0.28856
1303.27749,0.28305
1301.78770,0.32931
1300.29791,0.37918
1298.80812,0.32560
1297.31834,0.29823
1295.82855,0.33867
1294.33876,0.29353
1292.84897,0.28647
1291.35918,0.28658
1289.86939,0.28851
1288.37960,0.29048
1286.88982,0.33470
1285.40003,0.36944
1283.91024,0.37566
1282.42045,0.41523
1280.93066,0.38347
1279.44087,0.41001
1277.95109,0.41043
1276.46130,0.34309
1274.97151,0.38223
1273.48172,0.42140
1271.99193,0.50520
1270.50214,0.59260
1269.01235,0.58609
1267.52257,0.55582
1266.03278,0.52915
1264.54299,0.60836
1263.05320,0.59960
1261.56341,0.60336
1260.07362,0.60716
1258.58384,0.65559
1257.09405,0.69810
1255.60426,0.64432
1254.11447,0.61197
1252.62468,0.66886
1251.13489,0.57712
1249.64511,0.51038
1248.15532,0.46747
1246.66553,0.43173
1245.17574,0.39602
1243.68595,0.45429
1242.19616,0.44838
1240.70637,0.38066
1239.21659,0.33320
1237.72680,0.31193
1236.23701,0.30615
1234.74722,0.27781
1233.25743,0.26200
1231.76764,0.24621
1230.27786,0.30717
1228.78807,0.27659
1227.29828,0.29718
1225.80849,0.20720
1224.31870,0.18029
1222.82891,0.12130
1221.33912,0.13489
1219.84934,0.14971
1218.35955,0.16455
1216.86976,0.21274
1215.37997,0.24073
1213.89018,0.29374
1212.40039,0.24569
1210.91061,0.15129
1209.42082,0.13542
1207.93103,0.12017
1206.44124,0.10496
1204.95145,0.12487
1203.46166,0.08654
1201.97188,0.13268
1200.48209,0.18242
1198.99230,0.13467
1197.50251,0.13215
1196.01272,0.11302
1194.52293,0.09808
1193.03314,0.08317
1191.54336,0.05343
1190.05357,0.05940
1188.56378,0.00000
1187.07399,0.02450
1185.58420,0.02406
1184.09441,0.05338
1182.60463,0.04825
1181.11484,0.04315
1179.62505,0.12609
1178.13526,0.09251
1176.64547,0.07087
1175.15568,0.07780
1173.66589,0.08357
1172.17611,0.10603
1170.68632,0.05300
1169.19653,0.00000
1167.70674,0.02584
1166.21695,0.09452
1164.72716,0.09902
1163.23738,0.09166
1161.74759,0.06054
1160.25780,0.05325
1158.76801,0.04361
1157.27822,0.03400
1155.78843,0.02324
1154.29865,0.09696
1152.80886,0.08150
1151.31907,0.06252
1149.82928,0.08044
1148.33949,0.16974
1146.84970,0.12351
1145.35991,0.07730
1143.87013,0.03589
1142.38034,0.14793
1140.89055,0.17199
1139.40076,0.20085
1137.91097,0.20595
1136.42118,0.25510
1134.93140,0.27394
1133.44161,0.29283
1131.95182,0.30996
1130.46203,0.35091
1128.97224,0.37049
1127.48245,0.34253
1125.99266,0.33125
1124.50288,0.41040
1123.01309,0.39978
1121.52330,0.38920
1120.03351,0.45299
1118.54372,0.42285
1117.05393,0.49859
1115.56415,0.47566
1114.07436,0.48963
1112.58457,0.51850
1111.09478,0.54740
1109.60499,0.54720
1108.11520,0.63742
1106.62542,0.63015
1105.13563,0.73827
1103.64584,0.90114
1102.15605,0.99982
1100.66626,0.97603
1099.17647,0.95228
1097.68668,0.89051
1096.19690,1.03689
1094.70711,1.04416
1093.21732,1.05384
1091.72753,1.05762
1090.23774,1.13218
1088.74795,1.20678
1087.25817,1.16784
1085.76838,1.23240
1084.27859,1.26607
1082.78880,1.33189
1081.29901,1.31687
1079.80922,1.25906
1078.31943,1.27800
1076.82965,1.29698
1075.33986,1.42481
1073.85007,1.43017
1072.36028,1.40227
1070.87049,1.42316
1069.38070,1.53804
1067.89092,1.56079
1066.40113,1.58357
1064.91134,1.43214
1063.42155,1.33546
1061.93176,1.25428
1060.44197,1.29444
1058.95219,1.17883
1057.46240,1.11559
1055.97261,1.05238
1054.48282,0.93806
1052.99303,0.94152
1051.50324,0.81300
1050.01345,0.81295
1048.52367,0.73326
1047.03388,0.77729
1045.54409,0.82135
1044.05430,0.71203
1042.56451,0.71572
1041.07472,0.60409
1039.58494,0.58882
1038.09515,0.48915
1036.60536,0.42756
1035.11557,0.36601
1033.62578,0.40916
1032.13599,0.49277
1030.64620,0.51933
1029.15642,0.51619
1027.66663,0.49644
1026.17684,0.47672
1024.68705,0.55336
1023.19726,0.69902
1021.70747,0.84947
1020.21769,1.08677
1018.72790,1.27654
1017.23811,1.36584
1015.74832,1.45517
1014.25853,1.62363
1012.76874,1.61611
1011.27896,1.73825
1009.78917,1.94843
1008.29938,1.99572
1006.80959,1.99784
1005.31980,2.00000
1003.83001,1.92846
1002.34022,1.74991
1000.85044,1.76763
999.36065,1.65575
997.87086,1.60396
996.38107,1.55221
994.89128,1.62239
993.40149,1.57368
991.91171,1.61182
990.42192,1.63572
988.93213,1.62993
987.44234,1.60751
985.95255,1.58513
984.46276,1.54733
982.97297,1.49409
981.48319,1.46825
979.99340,1.51736
978.50361,1.51359
977.01382,1.50984
975.52403,1.53052
974.03424,1.36093
972.54446,1.41378
971.05467,1.34298
969.56488,1.29005
968.07509,1.26213
966.58530,1.23424
965.09551,1.25991
963.60573,1.21306
962.11594,1.21619
960.62615,1.08854
959.13636,1.07212
957.64657,1.05573
956.15678,0.94721
954.66699,0.89937
953.17721,0.90985
951.68742,0.94414
950.19763,0.95884
948.70784,0.97358
947.21805,0.97230
945.72826,0.92229
944.23848,0.89966
942.74869,0.87350
941.25890,0.87116
939.76911,0.91524
938.27932,0.95935
936.78953,1.04750
935.29974,1.01794
933.80996,0.99793
932.32017,1.04931
930.83038,1.08884
929.34059,1.12839
927.85080,1.08949
926.36101,1.06370
924.87123,0.98681
923.38144,1.03126
921.89165,1.00973
920.40186,0.98824
918.91207,0.97927
917.42228,1.02148
915.93250,1.04707
914.44271,1.04415
912.95292,1.04066
911.46313,1.03721
909.97334,1.16878
908.48355,1.19216
906.99376,1.09902
905.50398,1.21048
904.01419,1.16022
902.52440,1.11000
901.03461,1.28815
899.54482,1.22848
898.05503,1.18193
896.56525,1.24125
895.07546,1.22212
893.58567,1.20302
892.09588,1.23391
890.60609,1.27196
889.11630,1.25296
887.62651,1.22329
886.13673,1.21328
884.64694,1.20330
883.15715,1.19752
881.66736,1.07403
880.17757,1.09330
878.68778,1.10248
877.19800,1.11170
875.70821,1.19766
874.21842,1.17900
872.72863,1.18178
871.23884,1.15962
869.74905,1.13928
868.25927,1.11897
866.76948,1.18135
865.27969,1.10699
863.78990,1.22533
862.30011,1.11537
860.81032,1.08452
859.32053,1.05371
857.83075,1.03304
856.34096,0.99575
854.85117,0.92877
853.36138,0.86539
851.87159,0.80680
850.38180,0.74824
848.89202,0.65879
847.40223,0.46472
845.91244,0.55017
844.42265,0.50423
842.93286,0.45833
841.44307,0.37738
839.95329,0.41539
838.46350,0.30120
836.97371,0.30479
835.48392,0.36134
833.99413,0.41792
832.50434,0.30506
831.01455,0.39203
829.52477,0.42909
828.03498,0.29135
826.54519,0.26069
825.05540,0.23006
823.56561,0.23752
822.07582,0.27831
820.58604,0.19783
819.09625,0.12690
817.60646,0.05600
816.11667,0.11001
814.62688,0.09865
813.13709,0.04688
811.64730,0.02963
810.15752,0.01480
808.66773,0.00000
807.17794,0.02592
805.68815,0.06853
804.19836,0.10641
802.70857,0.17703
801.21879,0.24768
799.72900,0.06089
798.23921,0.22735
796.74942,0.35221
795.25963,0.39981
793.76984,0.44744
792.28006,0.49749
790.79027,0.57968
789.30048,0.68093
787.81069,0.77389
786.32090,0.75568
784.83111,0.73751
783.34132,0.83889
781.85154,0.77857
780.36175,0.74801
778.87196,0.77041
777.38217,0.79284
775.89238,0.88250
774.40259,0.88300
772.91281,0.95251
771.42302,0.99827
769.93323,1.04406
768.44344,1.02685
766.95365,1.02157
765.46386,1.09125
763.97407,0.95165
762.48429,0.89236
760.99450,0.83310
759.50471,0.60678
758.01492,0.61359
756.52513,0.57644
755.03534,0.50720
753.54556,0.43801
752.05577,0.31889
750.56598,0.22121
749.07619,0.17947
747.58640,0.15322
746.09661,0.12701
744.60683,0.04612
743.11704,0.10322
741.62725,0.05451
740.13746,0.02724
738.64767,0.00000
737.15788,0.05507
735.66809,0.03881
734.17831,0.04875
732.68852,0.03197
731.19873,0.01522
729.70894,0.02883
728.21915,0.04247
726.72936,0.02761
725.23958,0.07224
723.74979,0.07529
722.26000,0.07836
720.77021,0.07909
719.28042,0.10840
717.79063,0.02119
716.30084,0.01786
714.81106,0.01456
713.32127,0.00000
711.83148,0.04543
710.34169,0.01835
708.85190,0.01925
707.36211,0.02019
705.87233,0.06575
704.38254,0.00551
702.89275,0.00000
701.40296,0.05474
699.91317,0.10951
698.42338,0.10188
696.93360,0.16564
695.44381,0.13191
693.95402,0.13865
692.46423,0.14543
690.97444,0.15462
689.48465,0.15908
687.99486,0.12195
686.50508,0.16157
685.01529,0.20122
683.52550,0.21533
682.03571,0.15217
680.54592,0.21749
679.05613,0.18830
677.56635,0.15914
676.07656,0.14131
674.58677,0.09021
673.09698,0.04866
671.60719,0.06126
670.11740,0.07390
668.62761,0.08359
667.13783,0.06120
665.64804,0.05788
664.15825,0.05460
662.66846,0.01328
661.17867,0.04812
659.68888,0.03899
658.19910,0.05843
656.70931,0.07791
655.21952,0.08553
653.72973,0.10507
652.23994,0.13773
650.75015,0.15734
649.26037,0.17699
647.77058,0.08131
646.28079,0.06772
644.79100,0.00778
643.30121,0.02697
641.81142,0.04619
640.32163,0.01490
638.83185,0.06451
637.34206,0.03804
635.85227,0.02231
634.36248,0.00662
632.87269,0.03139
631.38290,0.02528
629.89312,0.00730
628.40333,0.00363
626.91354,0.00000
625.42375,0.07132
623.93396,0.04753
622.44417,0.07254
620.95438,0.09758
619.46460,0.06438
617.97481,0.08235
616.48502,0.07182
614.99523,0.06786
613.50544,0.06393
612.01565,0.09750
610.52587,0.08828
609.03608,0.08505
607.54629,0.07412
606.05650,0.06322
604.56671,0.12551
603.07692,0.13430
601.58714,0.08842
600.09735,0.04258
598.60756,0.08715
597.11777,0.11035
595.62798,0.06580
594.13819,0.06647
592.64840,0.06718
591.15862,0.09646
589.66883,0.06631
588.17904,0.03263
586.68925,0.03763
585.19946,0.04267
583.70967,0.07807
582.21989,0.07663
580.73010,0.09188
579.24031,0.10716
577.75052,0.19859
576.26073,0.19729
574.77094,0.13894
573.28115,0.13473
571.79137,0.13055
570.30158,0.28875
568.81179,0.38752
567.32200,0.35491
565.83221,0.32232
564.34242,0.38551
562.85264,0.44993
561.36285,0.42280
559.87306,0.46944
558.38327,0.51611
556.89348,0.59493
555.40369,0.61551
553.91391,0.60223
552.42412,0.58898
550.93433,0.60133
549.44454,0.70173
547.95475,0.70345
546.46496,0.72898
544.97517,0.75455
543.48539,0.81822
541.99560,0.75585
540.50581,0.82195
539.01602,0.88810
537.52623,0.77588
536.03644,0.73505
534.54666,0.71091
533.05687,0.75934
531.56708,0.80781
530.07729,0.63987
528.58750,0.62537
527.09771,0.59783
525.60792,0.57032
524.11814,0.60469
522.62835,0.58676
521.13856,0.51297
519.64877,0.50403
518.15898,0.49512
516.66919,0.46187
515.17941,0.47027
513.68962,0.46147
512.19983,0.45270
510.71004,0.39579
509.22025,0.40433
507.73046,0.48189
506.24068,0.41557
504.75089,0.34928
503.26110,0.40910
501.77131,0.35953
500.28152,0.31238
498.79173,0.26526
497.30194,0.29666
495.81216,0.37092
494.32237,0.36255
492.83258,0.35422
491.34279,0.43095
489.85300,0.36858
488.36321,0.20990
486.87343,0.20348
485.38364,0.19710
483.89385,0.18362
482.40406,0.14638
480.91427,0.13951
479.42448,0.13267
477.93469,0.09315
476.44491,0.06914
474.95512,0.06894
473.46533,0.06877
471.97554,0.07816
470.48575,0.07092
468.99596,0.11605
467.50618,0.06905
466.01639,0.02207
464.52660,0.03876
463.03681,0.11257
461.54702,0.10970
460.05723,0.10686
458.56745,0.00000
457.07766,0.04691
455.58787,0.09446
454.09808,0.14203
452.60829,0.21165
451.11850,0.14690
449.62871,0.21658
448.13893,0.28629
446.64914,0.34891
445.15935,0.46150
443.66956,0.54916
442.17977,0.54527
440.68998,0.54141
439.20020,0.67555
437.71041,0.74907
436.22062,0.81548
434.73083,0.88193
433.24104,0.92463
431.75125,1.14575
430.26146,1.17603
428.77168,1.20634
427.28189,1.25988
425.79210,1.44308
424.30231,1.41343
422.81252,1.38382
421.32273,1.42202
419.83295,1.27712
418.34316,1.21727
416.85337,1.15747
415.36358,1.05785
413.87379,1.00465
412.38400,0.91581
410.89422,0.82700
409.40443,0.87737
407.91464,0.86712
406.42485,0.75939
404.93506,0.74207
403.44527,0.72479
401.95548,0.49822
400.46570,0.67486
398.97591,0.65292
397.48612,0.63101
395.99633,0.58417
394.50654,0.70385
393.01675,0.67254
391.52697,0.64125
390.03718,0.60405
388.54739,0.49196
387.05760,0.51667
385.56781,0.54142
384.07802,0.71368
382.58824,0.59458
381.09845,0.55640
379.60866,0.51825
378.11887,0.44207
376.62908,0.35879
375.13929,0.33977
373.64950,0.32078
372.15972,0.31610
370.66993,0.32810
369.18014,0.28781
367.69035,0.24755
366.20056,0.18948
364.71077,0.21470
363.22099,0.22568
361.73120,0.23670
360.24141,0.21088
358.75162,0.16487
357.26183,0.17123
355.77204,0.17762
354.28225,0.13291
352.79247,0.13342
351.30268,0.11137
349.81289,0.08936
348.32310,0.13754
346.83331,0.13224
345.34352,0.11925
343.85374,0.10629
342.36395,0.07017
340.87416,0.21625
339.38437,0.18219
337.89458,0.14816
336.40479,0.12903
334.91501,0.11707
333.42522,0.11169
331.93543,0.10634
330.44564,0.14205
328.95585,0.15521
327.46606,0.14936
325.97627,0.14355
324.48649,0.10567
322.99670,0.09873
321.50691,0.12576
320.01712,0.15281
318.52733,0.17693
317.03754,0.19513
315.54776,0.18423
314.05797,0.17336
312.56818,0.22972
311.07839,0.08631
309.58860,0.08744
308.09881,0.08860
306.60902,0.00000
305.11924,0.05828
303.62945,0.07854
302.13966,0.08385
300.64987,0.00000
299.16008,0.00000
