1778.52000,0.09316
1777.03021,0.08937
1775.54042,0.05237
1774.05063,0.00745
1772.56085,0.03443
1771.07106,0.09208
1769.58127,0.07660
1768.09148,0.06118
1766.60169,0.09371
1765.11190,0.11300
1763.62212,0.06715
1762.13233,0.08256
1760.64254,0.10734
1759.15275,0.08428
1757.66296,0.14509
1756.17317,0.07957
1754.68339,0.00745
1753.19360,0.03771
1751.70381,0.08133
1750.21402,0.02522
1748.72423,0.06097
1747.23444,0.08348
1745.74465,0.06080
1744.25487,0.09939
1742.76508,0.09944
1741.27529,0.10754
1739.78550,0.10239
1738.29571,0.07734
1736.80592,0.10024
1735.31614,0.06333
1733.82635,0.05708
1732.33656,0.02427
1730.84677,0.09397
1729.35698,0.05862
1727.86719,0.09384
1726.37740,0.09851
1724.88762,0.00745
1723.39783,0.07919
1721.90804,0.06982
1720.41825,0.04854
1718.92846,0.02998
1717.43867,0.03941
1715.94889,0.06354
1714.45910,0.04382
1712.96931,0.11329
1711.47952,0.08836
1709.98973,0.14465
1708.49994,0.07460
1707.01016,0.07844
1705.52037,0.08234
1704.03058,0.09362
1702.54079,0.13955
1701.05100,0.15494
1699.56121,0.20497
1698.07142,0.11802
1696.58164,0.10563
1695.09185,0.15717
1693.60206,0.21541
1692.11227,0.21650
1690.62248,0.22963
1689.13269,0.20688
1687.64291,0.18819
1686.15312,0.24539
1684.66333,0.25741
1683.17354,0.25485
1681.68375,0.26166
1680.19396,0.23128
1678.70417,0.19163
1677.21439,0.26248
1675.72460,0.31609
1674.23481,0.24336
1672.74502,0.24253
1671.25523,0.26970
1669.76544,0.26499
1668.27566,0.30691
1666.78587,0.25442
1665.29608,0.23126
1663.80629,0.18820
1662.31650,0.17713
1660.82671,0.21002
1659.33693,0.27889
1657.84714,0.20945
1656.35735,0.25182
1654.86756,0.22374
1653.37777,0.19970
1651.88798,0.20100
1650.39819,0.14249
1648.90841,0.20777
1647.41862,0.12143
1645.92883,0.14957
1644.43904,0.17776
1642.94925,0.14481
1641.45946,0.15051
1639.96968,0.12299
1638.47989,0.16739
1636.99010,0.12136
1635.50031,0.14192
1634.01052,0.13193
1632.52073,0.12599
1631.03094,0.11478
1629.54116,0.12625
1628.05137,0.14577
1626.56158,0.14538
1625.07179,0.20758
1623.58200,0.16872
1622.09221,0.21108
1620.60243,0.19495
1619.11264,0.19351
1617.62285,0.19746
1616.13306,0.20545
1614.64327,0.12702
1613.15348,0.20698
1611.66370,0.13398
1610.17391,0.16881
1608.68412,0.14117
1607.19433,0.14684
1605.70454,0.16854
1604.21475,0.17566
1602.72496,0.18284
1601.23518,0.22067
1599.74539,0.16676
1598.25560,0.08097
1596.76581,0.10700
1595.27602,0.03197
1593.78623,0.08473
1592.29645,0.05505
1590.80666,0.12655
1589.31687,0.12360
1587.82708,0.10074
1586.33729,0.05799
1584.84750,0.13104
1583.35771,0.06711
1581.86793,0.01655
1580.37814,0.08711
1578.88835,0.12315
1577.39856,0.13661
1575.90877,0.12353
1574.41898,0.10252
1572.92920,0.10152
1571.43941,0.00745
1569.94962,0.03890
1568.45983,0.07040
1566.97004,0.06205
1565.48025,0.06839
1563.99047,0.08676
1562.50068,0.06394
1561.01089,0.07045
1559.52110,0.09830
1558.03131,0.07965
1556.54152,0.09830
1555.05173,0.14230
1553.56195,0.13179
1552.07216,0.13865
1550.58237,0.07504
1549.09258,0.12059
1547.60279,0.04778
1546.11300,0.04555
1544.62322,0.00745
1543.13343,0.01510
1541.64364,0.04542
1540.15385,0.05983
1538.66406,0.07430
1537.17427,0.05290
1535.68448,0.06882
1534.19470,0.02092
1532.70491,0.09816
1531.21512,0.03840
1529.72533,0.04124
1528.23554,0.05345
1526.74575,0.07503
1525.25597,0.04078
1523.76618,0.11702
1522.27639,0.08555
1520.78660,0.04084
1519.29681,0.01214
1517.80702,0.00745
1516.31724,0.02925
1514.82745,0.03248
1513.33766,0.05107
1511.84787,0.06971
1510.35808,0.08908
1508.86829,0.08854
1507.37850,0.02686
1505.88872,0.02112
1504.39893,0.00745
1502.90914,0.02788
1501.41935,0.05104
1499.92956,0.11150
1498.43977,0.07889
1496.94999,0.11019
1495.46020,0.15619
1493.97041,0.18761
1492.48062,0.23240
1490.99083,0.29587
1489.50104,0.35008
1488.01125,0.39437
1486.52147,0.43871
1485.03168,0.52902
1483.54189,0.45972
1482.05210,0.59405
1480.56231,0.66457
1479.07252,0.78571
1477.58274,0.81243
1476.09295,0.98823
1474.60316,1.00576
1473.11337,1.15640
1471.62358,1.13945
1470.13379,1.18908
1468.64401,1.11636
1467.15422,1.02906
1465.66443,0.97907
1464.17464,0.92915
1462.68485,0.86331
1461.19506,0.83744
1459.70527,0.82627
1458.21549,0.77657
1456.72570,0.76418
1455.23591,0.78378
1453.74612,0.68768
1452.25633,0.63289
1450.76654,0.56484
1449.27676,0.57403
1447.78697,0.53138
1446.29718,0.54467
1444.80739,0.51411
1443.31760,0.48361
1441.82781,0.31345
1440.33802,0.37088
1438.84824,0.24076
1437.35845,0.18387
1435.86866,0.04722
1434.37887,0.17273
1432.88908,0.12666
1431.39929,0.17777
1429.90951,0.17306
1428.41972,0.22562
1426.92993,0.18510
1425.44014,0.22181
1423.95035,0.18939
1422.46056,0.15703
1420.97078,0.23382
1419.48099,0.19359
1417.99120,0.23457
1416.50141,0.22372
1415.01162,0.24221
1413.52183,0.26606
1412.03204,0.18354
1410.54226,0.15030
1409.05247,0.13575
1407.56268,0.11060
1406.07289,0.14539
1404.58310,0.14631
1403.09331,0.14729
1401.60353,0.17693
1400.11374,0.21061
1398.62395,0.22573
1397.13416,0.18635
1395.64437,0.20557
1394.15458,0.18494
1392.66479,0.08985
1391.17501,0.13585
1389.68522,0.16994
1388.19543,0.14953
1386.70564,0.14315
1385.21585,0.13683
1383.72606,0.12059
1382.23628,0.11371
1380.74649,0.09093
1379.25670,0.08284
1377.76691,0.06549
1376.27712,0.07481
1374.78733,0.10415
1373.29755,0.12689
1371.80776,0.21488
1370.31797,0.22310
1368.82818,0.27528
1367.33839,0.32752
1365.84860,0.37715
1364.35881,0.47209
1362.86903,0.53780
1361.37924,0.58362
1359.88945,0.46317
1358.39966,0.52108
1356.90987,0.54844
1355.42008,0.62641
1353.93030,0.66054
1352.44051,0.65880
1350.95072,0.65711
1349.46093,0.69940
1347.97114,0.58473
1346.48135,0.55927
1344.99156,0.52322
1343.50178,0.45397
1342.01199,0.40340
1340.52220,0.31696
1339.03241,0.32771
1337.54262,0.37443
1336.05283,0.37532
1334.56305,0.37626
1333.07326,0.37925
1331.58347,0.29848
1330.09368,0.32553
1328.60389,0.28878
1327.11410,0.33059
1325.62432,0.17021
1324.13453,0.18419
1322.64474,0.26209
1321.15495,0.29747
1319.66516,0.28369
1318.17537,0.26995
1316.68558,0.25894
1315.19580,0.35309
1313.70601,0.27699
1312.21622,0.19563
1310.72643,0.14759
1309.23664,0.19940
1307.74685,0.16610
1306.25707,0.17412
1304.76728,0.15691
1303.27749,0.13975
1301.78770,0.19583
1300.29791,0.16416
1298.80812,0.19640
1297.31834,0.21141
1295.82855,0.24909
1294.33876,0.18305
1292.84897,0.11175
1291.35918,0.23476
1289.86939,0.19084
1288.37960,0.14698
1286.88982,0.16106
1285.40003,0.31623
1283.91024,0.35703
1282.42045,0.35664
1280.93066,0.29643
1279.44087,0.33075
1277.95109,0.37178
1276.46130,0.30243
1274.97151,0.29834
1273.48172,0.29430
1271.99193,0.38080
1270.50214,0.46070
1269.01235,0.44619
1267.52257,0.42375
1266.03278,0.48386
1264.54299,0.46287
1263.05320,0.58297
1261.56341,0.57407
1260.07362,0.56522
1258.58384,0.61098
1257.09405,0.55568
1255.60426,0.62817
1254.11447,0.59960
1252.62468,0.59636
1251.13489,0.62378
1249.64511,0.59937
1248.15532,0.40204
1246.66553,0.36577
1245.17574,0.32955
1243.68595,0.35859
1242.19616,0.32914
1240.70637,0.35962
1239.21659,0.36887
1237.72680,0.39415
1236.23701,0.26381
1234.74722,0.24795
1233.25743,0.23747
1231.76764,0.22705
1230.27786,0.25926
1228.78807,0.29153
1227.29828,0.25600
1225.80849,0.16065
1224.31870,0.17313
1222.82891,0.19764
1221.33912,0.11844
1219.84934,0.12244
1218.35955,0.12650
1216.86976,0.17120
1215.37997,0.34502
1213.89018,0.29803
1212.40039,0.24045
1210.91061,0.21752
1209.42082,0.14542
1207.93103,0.11928
1206.44124,0.09320
1204.95145,0.19956
1203.46166,0.16095
1201.97188,0.15034
1200.48209,0.26219
1198.99230,0.20380
1197.50251,0.14546
1196.01272,0.15370
1194.52293,0.13273
1193.03314,0.11182
1191.54336,0.18543
1190.05357,0.08081
1188.56378,0.05741
1187.07399,0.00745
1185.58420,0.02001
1184.09441,0.07122
1182.60463,0.11450
1181.11484,0.15784
1179.62505,0.12539
1178.13526,0.11030
1176.64547,0.14848
1175.15568,0.20801
1173.66589,0.20640
1172.17611,0.13299
1170.68632,0.12284
1169.19653,0.11275
1167.70674,0.12467
1166.21695,0.14728
1164.72716,0.04888
1163.23738,0.08625
1161.74759,0.03586
1160.25780,0.06270
1158.76801,0.03505
1157.27822,0.00745
1155.78843,0.06032
1154.29865,0.12388
1152.80886,0.09437
1151.31907,0.06093
1149.82928,0.11801
1148.33949,0.18713
1146.84970,0.18778
1145.35991,0.18849
1143.87013,0.11542
1142.38034,0.08364
1140.89055,0.11579
1139.40076,0.21718
1137.91097,0.18957
1136.42118,0.26181
1134.93140,0.26558
1133.44161,0.26941
1131.95182,0.34181
1130.46203,0.28389
1128.97224,0.31383
1127.48245,0.31988
1125.99266,0.28874
1124.50288,0.39070
1123.01309,0.36300
1121.52330,0.33535
1120.03351,0.43881
1118.54372,0.52371
1117.05393,0.44501
1115.56415,0.37168
1114.07436,0.43546
1112.58457,0.43942
1111.09478,0.44344
1109.60499,0.47413
1108.11520,0.56209
1106.62542,0.51838
1105.13563,0.60246
1103.64584,0.70389
1102.15605,0.88920
1100.66626,0.91491
1099.17647,0.94067
1097.68668,0.89065
1096.19690,0.99503
1094.70711,1.05556
1093.21732,1.00172
1091.72753,0.95592
1090.23774,0.99799
1088.74795,1.04012
1087.25817,1.01046
1085.76838,1.10460
1084.27859,1.10964
1082.78880,1.16664
1081.29901,1.29420
1079.80922,1.07856
1078.31943,1.12109
1076.82965,1.16367
1075.33986,1.32606
1073.85007,1.20644
1072.36028,1.29976
1070.87049,1.27738
1069.38070,1.33089
1067.89092,1.34854
1066.40113,1.36625
1064.91134,1.26027
1063.42155,1.21024
1061.93176,1.07111
1060.44197,1.03849
1058.95219,1.06978
1057.46240,1.02131
1055.97261,0.97289
1054.48282,0.78349
1052.99303,0.89750
1051.50324,0.73749
1050.01345,0.69994
1048.52367,0.56000
1047.03388,0.57712
1045.54409,0.59430
1044.05430,0.68205
1042.56451,0.58890
1041.07472,0.51843
1039.58494,0.39879
1038.09515,0.37501
1036.60536,0.37456
1035.11557,0.37417
1033.62578,0.32794
1032.13599,0.32301
1030.64620,0.38466
1029.15642,0.42109
1027.66663,0.39970
1026.17684,0.37837
1024.68705,0.41630
1023.19726,0.53412
1021.70747,0.76376
1020.21769,1.00277
1018.72790,1.16866
1017.23811,1.30068
1015.74832,1.43276
1014.25853,1.52830
1012.76874,1.61858
1011.27896,1.66634
1009.78917,1.69819
1008.29938,1.83654
1006.80959,1.86118
1005.31980,1.88589
1003.83001,1.69045
1002.34022,1.68000
1000.85044,1.61507
999.36065,1.43577
997.87086,1.44146
996.38107,1.44722
994.89128,1.57943
993.40149,1.65714
991.91171,1.60186
990.42192,1.71029
988.93213,1.64581
987.44234,1.66588
985.95255,1.68600
984.46276,1.55384
982.97297,1.58539
981.48319,1.49325
979.99340,1.41980
978.50361,1.47015
977.01382,1.52055
975.52403,1.63887
974.03424,1.56831
972.54446,1.38870
971.05467,1.36349
969.56488,1.31439
968.07509,1.27732
966.58530,1.24031
965.09551,1.13949
963.60573,1.14118
962.11594,1.17352
960.62615,1.17932
959.13636,1.14658
957.64657,1.11390
956.15678,1.07064
954.66699,0.97288
953.17721,1.10403
951.68742,0.96114
950.19763,1.02056
948.70784,1.08003
947.21805,0.93066
945.72826,0.97827
944.23848,0.93812
942.74869,0.82752
941.25890,0.79547
939.76911,0.90052
938.27932,1.00562
936.78953,0.99636
935.29974,1.04703
933.80996,0.90883
932.32017,0.98755
930.83038,1.00513
929.34059,1.02277
927.85080,1.11364
926.36101,1.03027
924.87123,0.84318
923.38144,0.90229
921.89165,0.88295
920.40186,0.86368
918.91207,0.93759
917.42228,0.89448
915.93250,0.98049
914.44271,1.04526
912.95292,1.00565
911.46313,0.96609
909.97334,0.91795
908.48355,1.10136
906.99376,1.21432
905.50398,1.05991
904.01419,1.06720
902.52440,1.07456
901.03461,1.31015
899.54482,1.28768
898.05503,1.16814
896.56525,1.17373
895.07546,1.17072
893.58567,1.16778
892.09588,1.23873
890.60609,1.25120
889.11630,1.20385
887.62651,1.38008
886.13673,1.27231
884.64694,1.16459
883.15715,1.17735
881.66736,1.06110
880.17757,1.03006
878.68778,1.04098
877.19800,1.05197
875.70821,1.02376
874.21842,1.09540
872.72863,1.16709
871.23884,1.30803
869.74905,1.31731
868.25927,1.32664
866.76948,1.06727
865.27969,1.06474
863.78990,1.14343
862.30011,1.13303
860.81032,1.08211
859.32053,1.03124
857.83075,1.07424
856.34096,1.04278
854.85117,1.02469
853.36138,0.90686
851.87159,0.82036
850.38180,0.73391
848.89202,0.55239
847.40223,0.34033
845.91244,0.36648
844.42265,0.40932
842.93286,0.45222
841.44307,0.39739
839.95329,0.43841
838.46350,0.43025
836.97371,0.37027
835.48392,0.37420
833.99413,0.37819
832.50434,0.29709
831.01455,0.39699
829.52477,0.39051
828.03498,0.37478
826.54519,0.33515
825.05540,0.29557
823.56561,0.17756
822.07582,0.28047
820.58604,0.28896
819.09625,0.21237
817.60646,0.13583
816.11667,0.00745
814.62688,0.06012
813.13709,0.04632
811.64730,0.12439
810.15752,0.06480
808.66773,0.00527
807.17794,0.03004
805.68815,0.06151
804.19836,0.25802
802.70857,0.22774
801.21879,0.19751
799.72900,0.17733
798.23921,0.29823
796.74942,0.49902
795.25963,0.54553
793.76984,0.59209
792.28006,0.55223
790.79027,0.67209
789.30048,0.73479
787.81069,0.84545
786.32090,0.88033
784.83111,0.91526
783.34132,1.08330
781.85154,1.11702
780.36175,1.04701
778.87196,0.96110
777.38217,0.87524
775.89238,0.94910
774.40259,0.99108
772.91281,1.22206
771.42302,1.18832
769.93323,1.15463
768.44344,1.16225
766.95365,1.18191
765.46386,1.12312
763.97407,1.22138
762.48429,1.10083
760.99450,0.98034
759.50471,0.79272
758.01492,0.66503
756.52513,0.70371
755.03534,0.62070
753.54556,0.53775
752.05577,0.31449
750.56598,0.24030
749.07619,0.24600
747.58640,0.20253
746.09661,0.15912
744.60683,0.08117
743.11704,0.04319
741.62725,0.05716
740.13746,0.05256
738.64767,0.04801
737.15788,0.05417
735.66809,0.10163
734.17831,0.04936
732.68852,0.07365
731.19873,0.09800
729.70894,0.06985
728.21915,0.14421
726.72936,0.05896
725.23958,0.12545
723.74979,0.16804
722.26000,0.21070
720.77021,0.17224
719.28042,0.24162
717.79063,0.12079
716.30084,0.09116
714.81106,0.06158
713.32127,0.00745
711.83148,0.12489
710.34169,0.08007
708.85190,0.06657
707.36211,0.05312
705.87233,0.13620
704.38254,0.11688
702.89275,0.08299
701.40296,0.10969
699.91317,0.13645
698.42338,0.04551
696.93360,0.13691
695.44381,0.14189
693.95402,0.09969
692.46423,0.05755
690.97444,0.21969
689.48465,0.21425
687.99486,0.30201
686.50508,0.33527
685.01529,0.36858
683.52550,0.28620
682.03571,0.21718
680.54592,0.19213
679.05613,0.20970
677.56635,0.22734
676.07656,0.23306
674.58677,0.01930
673.09698,0.16864
671.60719,0.16903
670.11740,0.16947
668.62761,0.16199
667.13783,0.14525
665.64804,0.11992
664.15825,0.09465
662.66846,0.03284
661.17867,0.03363
659.68888,0.20211
658.19910,0.21100
656.70931,0.21994
655.21952,0.27683
653.72973,0.32048
652.23994,0.19920
650.75015,0.23099
649.26037,0.26283
647.77058,0.20825
646.28079,0.10849
644.79100,0.00745
643.30121,0.03960
641.81142,0.07180
640.32163,0.11004
638.83185,0.09114
637.34206,0.06031
635.85227,0.08343
634.36248,0.10660
632.87269,0.03204
631.38290,0.13450
629.89312,0.17979
628.40333,0.12403
626.91354,0.06833
625.42375,0.08053
623.93396,0.16598
622.44417,0.16898
620.95438,0.17205
619.46460,0.19247
617.97481,0.13045
616.48502,0.19888
614.99523,0.24742
613.50544,0.29600
612.01565,0.18366
610.52587,0.08999
609.03608,0.04695
607.54629,0.05984
606.05650,0.07279
604.56671,0.23082
603.07692,0.18933
601.58714,0.17185
600.09735,0.15443
598.60756,0.07054
597.11777,0.07718
595.62798,0.07988
594.13819,0.08331
592.64840,0.08679
591.15862,0.05774
589.66883,0.00745
588.17904,0.12659
586.68925,0.09410
585.19946,0.06167
583.70967,0.11180
582.21989,0.17661
580.73010,0.22352
579.24031,0.27049
577.75052,0.22105
576.26073,0.14639
574.77094,0.16492
573.28115,0.26400
571.79137,0.36314
570.30158,0.32464
568.81179,0.37666
567.32200,0.43073
565.83221,0.48487
564.34242,0.47186
562.85264,0.56669
561.36285,0.54582
559.87306,0.57890
558.38327,0.61203
556.89348,0.76163
555.40369,0.90198
553.91391,0.86011
552.42412,0.81830
550.93433,0.72598
549.44454,0.74016
547.95475,0.96994
546.46496,0.98290
544.97517,0.99592
543.48539,1.06222
541.99560,1.04741
540.50581,1.02668
539.01602,1.00600
537.52623,1.13373
536.03644,0.95284
534.54666,0.96093
533.05687,0.93915
531.56708,0.91743
530.07729,0.95098
528.58750,0.85818
527.09771,0.83996
525.60792,0.82179
524.11814,0.69723
522.62835,0.62330
521.13856,0.69178
519.64877,0.61064
518.15898,0.52956
516.66919,0.55697
515.17941,0.57113
513.68962,0.49221
512.19983,0.41335
510.71004,0.47559
509.22025,0.46603
507.73046,0.56164
506.24068,0.55219
504.75089,0.54280
503.26110,0.50420
501.77131,0.44570
500.28152,0.44513
498.79173,0.44462
497.30194,0.43020
495.81216,0.40918
494.32237,0.40551
492.83258,0.40190
491.34279,0.41565
489.85300,0.34430
488.36321,0.27700
486.87343,0.24035
485.38364,0.20377
483.89385,0.30162
482.40406,0.14540
480.91427,0.16287
479.42448,0.18040
477.93469,0.06826
476.44491,0.05463
474.95512,0.05703
473.46533,0.05949
471.97554,0.00745
470.48575,0.06173
468.99596,0.12538
467.50618,0.13253
466.01639,0.13975
464.52660,-0.00000
463.03681,0.02130
461.54702,0.09122
460.05723,0.16120
458.56745,0.21993
457.07766,0.13368
455.58787,0.12134
454.09808,0.10905
452.60829,0.34896
451.11850,0.17646
449.62871,0.27278
448.13893,0.36916
446.64914,0.51217
445.15935,0.87343
443.66956,0.85423
442.17977,0.80781
440.68998,0.76144
439.20020,0.77434
437.71041,0.84983
436.22062,1.00189
434.73083,1.15400
433.24104,1.29752
431.75125,1.53157
430.26146,1.62797
428.77168,1.72442
427.28189,1.90942
425.79210,2.00000
424.30231,1.94229
422.81252,1.88463
421.32273,1.65074
419.83295,1.49142
418.34316,1.50445
416.85337,1.51754
415.36358,1.35306
413.87379,1.27513
412.38400,1.24182
410.89422,1.20857
409.40443,1.20133
407.91464,1.23405
406.42485,1.10584
404.93506,0.96372
403.44527,0.82165
401.95548,0.70027
400.46570,0.73860
398.97591,0.76169
397.48612,0.78484
395.99633,0.83398
394.50654,0.99096
393.01675,0.97636
391.52697,0.96181
390.03718,0.71848
388.54739,0.48451
387.05760,0.56128
385.56781,0.63810
384.07802,0.77153
382.58824,1.01545
381.09845,0.89287
379.60866,0.77034
378.11887,0.77893
376.62908,0.54276
375.13929,0.51487
373.64950,0.48704
372.15972,0.45993
370.66993,0.39296
369.18014,0.35932
367.69035,0.32573
366.20056,0.29087
364.71077,0.39310
363.22099,0.42887
361.73120,0.46470
360.24141,0.37950
358.75162,0.49528
357.26183,0.43215
355.77204,0.36908
354.28225,0.32403
352.79247,0.23646
351.30268,0.18487
349.81289,0.13334
348.32310,0.14863
346.83331,0.20389
345.34352,0.19068
343.85374,0.17754
342.36395,0.44319
340.87416,0.29112
339.38437,0.30209
337.89458,0.31312
336.40479,0.22109
334.91501,0.16239
333.42522,0.20618
331.93543,0.25004
330.44564,0.29661
328.95585,0.36054
327.46606,0.32807
325.97627,0.29565
324.48649,0.20008
322.99670,0.25157
321.50691,0.25256
320.01712,0.25361
318.52733,0.48755
317.03754,0.49935
315.54776,0.48859
314.05797,0.47789
312.56818,0.46059
311.07839,0.38614
309.58860,0.33236
308.09881,0.27865
306.60902,0.00745
305.11924,0.12736
303.62945,0.15620
302.13966,0.17131
300.64987,0.10997
299.16008,0.00745
