1778.52000,0.02442
1777.03021,0.01858
1775.54042,0.00219
1774.05063,0.01876
1772.56085,0.01831
1771.07106,0.00730
1769.58127,0.01925
1768.09148,0.02300
1766.60169,0.04912
1765.11190,0.03176
1763.62212,0.01854
1762.13233,0.02947
1760.64254,0.02454
1759.15275,0.03317
1757.66296,0.02772
1756.17317,0.00700
1754.68339,0.00219
1753.19360,0.01470
1751.70381,0.00547
1750.21402,0.02686
1748.72423,0.01945
1747.23444,0.03972
1745.74465,0.02238
1744.25487,0.02624
1742.76508,0.02366
1741.27529,0.04110
1739.78550,0.02800
1738.29571,0.02433
1736.80592,0.01598
1735.31614,0.01708
1733.82635,0.01291
1732.33656,0.02818
1730.84677,0.01583
1729.35698,0.03057
1727.86719,0.03475
1726.37740,0.01191
1724.88762,0.01027
1723.39783,0.00219
1721.90804,0.02919
1720.41825,0.01800
1718.92846,0.03624
1717.43867,0.02628
1715.94889,0.04223
1714.45910,0.02939
1712.96931,0.04716
1711.47952,0.03849
1709.98973,0.04926
1708.49994,0.02948
1707.01016,0.04002
1705.52037,0.05058
1704.03058,0.06500
1702.54079,0.08532
1701.05100,0.06922
1699.56121,0.06725
1698.07142,0.07473
1696.58164,0.08576
1695.09185,0.09095
1693.60206,0.12791
1692.11227,0.13668
1690.62248,0.12960
1689.13269,0.13079
1687.64291,0.14964
1686.15312,0.16676
1684.66333,0.16098
1683.17354,0.15992
1681.68375,0.15008
1680.19396,0.15144
1678.70417,0.15930
1677.21439,0.14954
1675.72460,0.14922
1674.23481,0.17010
1672.74502,0.14750
1671.25523,0.15021
1669.76544,0.15824
1668.27566,0.16454
1666.78587,0.14558
1665.29608,0.12077
1663.80629,0.11598
1662.31650,0.12769
1660.82671,0.12002
1659.33693,0.12826
1657.84714,0.13006
1656.35735,0.13718
1654.86756,0.11316
1653.37777,0.10505
1651.88798,0.09873
1650.39819,0.12126
1648.90841,0.12205
1647.41862,0.08818
1645.92883,0.10139
1644.43904,0.11462
1642.94925,0.08908
1641.45946,0.10943
1639.96968,0.11746
1638.47989,0.11611
1636.99010,0.11361
1635.50031,0.10820
1634.01052,0.08342
1632.52073,0.09630
1631.03094,0.10451
1629.54116,0.10274
1628.05137,0.11101
1626.56158,0.10872
1625.07179,0.12939
1623.58200,0.14362
1622.09221,0.13495
1620.60243,0.13983
1619.11264,0.16062
1617.62285,0.16498
1616.13306,0.12643
1614.64327,0.13613
1613.15348,0.14704
1611.66370,0.11505
1610.17391,0.13249
1608.68412,0.12761
1607.19433,0.12217
1605.70454,0.13029
1604.21475,0.11520
1602.72496,0.10015
1601.23518,0.13481
1599.74539,0.09953
1598.25560,0.10838
1596.76581,0.09021
1595.27602,0.09853
1593.78623,0.08159
1592.29645,0.09115
1590.80666,0.09779
1589.31687,0.05213
1587.82708,0.07530
1586.33729,0.06204
1584.84750,0.06409
1583.35771,0.04207
1581.86793,0.00831
1580.37814,0.01516
1578.88835,0.04792
1577.39856,0.06952
1575.90877,0.02942
1574.41898,0.01521
1572.92920,0.00751
1571.43941,0.02923
1569.94962,0.01923
1568.45983,0.00926
1566.97004,0.03519
1565.48025,0.00646
1563.99047,0.02599
1562.50068,0.00849
1561.01089,0.00219
1559.52110,0.02469
1558.03131,0.02899
1556.54152,0.00686
1555.05173,0.03650
1553.56195,0.04560
1552.07216,0.03531
1550.58237,0.03270
1549.09258,0.01542
1547.60279,0.01110
1546.11300,0.03446
1544.62322,0.02608
1543.13343,0.01480
1541.64364,0.00413
1540.15385,0.01701
1538.66406,0.02993
1537.17427,0.00700
1535.68448,0.02997
1534.19470,0.03003
1532.70491,0.01660
1531.21512,0.01731
1529.72533,0.00394
1528.23554,0.00000
1526.74575,0.02780
1525.25597,0.02152
1523.76618,0.00762
1522.27639,0.00728
1520.78660,0.00344
1519.29681,0.01272
1517.80702,0.02497
1516.31724,0.02138
1514.82745,0.01076
1513.33766,0.01104
1511.84787,0.01136
1510.35808,0.01788
1508.86829,0.02208
1507.37850,0.00219
1505.88872,0.02067
1504.39893,0.01094
1502.90914,0.03418
1501.41935,0.02922
1499.92956,0.01782
1498.43977,0.05761
1496.94999,0.08331
1495.46020,0.11140
1493.97041,0.15069
1492.48062,0.22529
1490.99083,0.25170
1489.50104,0.28226
1488.01125,0.31755
1486.52147,0.35287
1485.03168,0.42821
1483.54189,0.49240
1482.05210,0.56898
1480.56231,0.66557
1479.07252,0.70339
1477.58274,0.75947
1476.09295,0.90202
1474.60316,0.95051
1473.11337,1.01021
1471.62358,1.02406
1470.13379,1.01854
1468.64401,0.97306
1467.15422,0.93113
1465.66443,0.89806
1464.17464,0.86502
1462.68485,0.82494
1461.19506,0.79019
1459.70527,0.70667
1458.21549,0.66198
1456.72570,0.62555
1455.23591,0.56269
1453.74612,0.50927
1452.25633,0.48117
1450.76654,0.40369
1449.27676,0.38270
1447.78697,0.38585
1446.29718,0.36727
1444.80739,0.33637
1443.31760,0.30550
1441.82781,0.27114
1440.33802,0.22504
1438.84824,0.17132
1437.35845,0.13645
1435.86866,0.13160
1434.37887,0.15618
1432.88908,0.13493
1431.39929,0.16251
1429.90951,0.15190
1428.41972,0.13779
1426.92993,0.16252
1425.44014,0.16670
1423.95035,0.15385
1422.46056,0.14103
1420.97078,0.17940
1419.48099,0.20369
1417.99120,0.19037
1416.50141,0.20884
1415.01162,0.19558
1413.52183,0.25527
1412.03204,0.23148
1410.54226,0.20890
1409.05247,0.18341
1407.56268,0.21381
1406.07289,0.21073
1404.58310,0.22737
1403.09331,0.24404
1401.60353,0.28985
1400.11374,0.33451
1398.62395,0.35627
1397.13416,0.34160
1395.64437,0.39223
1394.15458,0.45524
1392.66479,0.45360
1391.17501,0.48903
1389.68522,0.52566
1388.19543,0.53116
1386.70564,0.51698
1385.21585,0.50284
1383.72606,0.53665
1382.23628,0.47582
1380.74649,0.50263
1379.25670,0.46832
1377.76691,0.43579
1376.27712,0.47210
1374.78733,0.54079
1373.29755,0.63008
1371.80776,0.69706
1370.31797,0.89756
1368.82818,0.97812
1367.33839,1.05871
1365.84860,1.29928
1364.35881,1.48755
1362.86903,1.61233
1361.37924,1.64835
1359.88945,1.71968
1358.39966,1.78868
1356.90987,1.84361
1355.42008,1.82975
1353.93030,1.64363
1352.44051,1.55486
1350.95072,1.46611
1349.46093,1.41945
1347.97114,1.20110
1346.48135,1.02100
1344.99156,0.95736
1343.50178,0.87024
1342.01199,0.71846
1340.52220,0.64550
1339.03241,0.60492
1337.54262,0.58083
1336.05283,0.54737
1334.56305,0.51393
1333.07326,0.47170
1331.58347,0.38952
1330.09368,0.40615
1328.60389,0.33814
1327.11410,0.29367
1325.62432,0.27512
1324.13453,0.28834
1322.64474,0.29924
1321.15495,0.35193
1319.66516,0.30379
1318.17537,0.25568
1316.68558,0.27317
1315.19580,0.24364
1313.70601,0.22414
1312.21622,0.19937
1310.72643,0.22404
1309.23664,0.20286
1307.74685,0.20700
1306.25707,0.20940
1304.76728,0.20184
1303.27749,0.19430
1301.78770,0.19973
1300.29791,0.22519
1298.80812,0.21833
1297.31834,0.19033
1295.82855,0.20352
1294.33876,0.24144
1292.84897,0.17884
1291.35918,0.23034
1289.86939,0.20749
1288.37960,0.18466
1286.88982,0.25919
1285.40003,0.24906
1283.91024,0.25426
1282.42045,0.31947
1280.93066,0.29296
1279.44087,0.28531
1277.95109,0.26357
1276.46130,0.27479
1274.97151,0.27340
1273.48172,0.27204
1271.99193,0.30864
1270.50214,0.35526
1269.01235,0.41308
1267.52257,0.38038
1266.03278,0.37769
1264.54299,0.42561
1263.05320,0.43004
1261.56341,0.44302
1260.07362,0.45604
1258.58384,0.46349
1257.09405,0.47274
1255.60426,0.44027
1254.11447,0.47722
1252.62468,0.47891
1251.13489,0.48064
1249.64511,0.44946
1248.15532,0.33186
1246.66553,0.29427
1245.17574,0.25671
1243.68595,0.31033
1242.19616,0.27224
1240.70637,0.28887
1239.21659,0.25202
1237.72680,0.23460
1236.23701,0.19721
1234.74722,0.19690
1233.25743,0.19251
1231.76764,0.18814
1230.27786,0.16440
1228.78807,0.18009
1227.29828,0.14876
1225.80849,0.17686
1224.31870,0.09149
1222.82891,0.07848
1221.33912,0.09431
1219.84934,0.09224
1218.35955,0.09019
1216.86976,0.09965
1215.37997,0.10149
1213.89018,0.15099
1212.40039,0.08702
1210.91061,0.08953
1209.42082,0.09443
1207.93103,0.08583
1206.44124,0.07725
1204.95145,0.06224
1203.46166,0.05961
1201.97188,0.04054
1200.48209,0.07913
1198.99230,0.08482
1197.50251,0.05643
1196.01272,0.04748
1194.52293,0.04825
1193.03314,0.04906
1191.54336,0.04137
1190.05357,0.06135
1188.56378,0.00138
1187.07399,0.01441
1185.58420,0.00219
1184.09441,0.06540
1182.60463,0.06513
1181.11484,0.06488
1179.62505,0.05114
1178.13526,0.05978
1176.64547,0.04315
1175.15568,0.07537
1173.66589,0.09232
1172.17611,0.06638
1170.68632,0.06222
1169.19653,0.05810
1167.70674,0.03812
1166.21695,0.01935
1164.72716,0.01531
1163.23738,0.06423
1161.74759,0.02732
1160.25780,0.01807
1158.76801,0.02562
1157.27822,0.03319
1155.78843,0.02169
1154.29865,0.02785
1152.80886,0.04874
1151.31907,0.01909
1149.82928,0.04828
1148.33949,0.09514
1146.84970,0.08027
1145.35991,0.06544
1143.87013,0.05652
1142.38034,0.03763
1140.89055,0.07287
1139.40076,0.14460
1137.91097,0.15168
1136.42118,0.16407
1134.93140,0.18179
1133.44161,0.19954
1131.95182,0.21378
1130.46203,0.29098
1128.97224,0.25354
1127.48245,0.29845
1125.99266,0.32340
1124.50288,0.34779
1123.01309,0.34781
1121.52330,0.34785
1120.03351,0.38233
1118.54372,0.41095
1117.05393,0.40962
1115.56415,0.40419
1114.07436,0.42761
1112.58457,0.39608
1111.09478,0.36457
1109.60499,0.42983
1108.11520,0.48630
1106.62542,0.49222
1105.13563,0.51464
1103.64584,0.58943
1102.15605,0.68482
1100.66626,0.71645
1099.17647,0.74810
1097.68668,0.74302
1096.19690,0.78091
1094.70711,0.81941
1093.21732,0.80443
1091.72753,0.80829
1090.23774,0.81983
1088.74795,0.83140
1087.25817,0.86475
1085.76838,0.89579
1084.27859,0.94096
1082.78880,0.98381
1081.29901,1.06904
1079.80922,1.07019
1078.31943,1.08344
1076.82965,1.09671
1075.33986,1.19852
1073.85007,1.19862
1072.36028,1.20345
1070.87049,1.22595
1069.38070,1.27554
1067.89092,1.30428
1066.40113,1.33304
1064.91134,1.29627
1063.42155,1.12133
1061.93176,1.04992
1060.44197,1.01912
1058.95219,0.91601
1057.46240,0.89585
1055.97261,0.87572
1054.48282,0.80152
1052.99303,0.73205
1051.50324,0.71377
1050.01345,0.59496
1048.52367,0.57086
1047.03388,0.54326
1045.54409,0.51569
1044.05430,0.51049
1042.56451,0.42594
1041.07472,0.39552
1039.58494,0.35336
1038.09515,0.29300
1036.60536,0.27208
1035.11557,0.25118
1033.62578,0.25266
1032.13599,0.26534
1030.64620,0.28040
1029.15642,0.30490
1027.66663,0.33590
1026.17684,0.36693
1024.68705,0.37740
1023.19726,0.51258
1021.70747,0.67542
1020.21769,0.92532
1018.72790,1.11939
1017.23811,1.22528
1015.74832,1.33119
1014.25853,1.55416
1012.76874,1.66661
1011.27896,1.82025
1009.78917,1.84219
1008.29938,2.00000
1006.80959,1.95525
1005.31980,1.91054
1003.83001,1.82498
1002.34022,1.72887
1000.85044,1.70100
999.36065,1.56613
997.87086,1.49098
996.38107,1.41587
994.89128,1.45221
993.40149,1.43213
991.91171,1.37386
990.42192,1.40618
988.93213,1.38090
987.44234,1.36006
985.95255,1.33924
984.46276,1.31346
982.97297,1.18892
981.48319,1.10968
979.99340,1.06575
978.50361,1.04538
977.01382,1.02504
975.52403,1.05824
974.03424,0.99561
972.54446,0.85422
971.05467,0.89515
969.56488,0.81909
968.07509,0.77304
966.58530,0.72703
965.09551,0.64518
963.60573,0.65626
962.11594,0.65150
960.62615,0.60031
959.13636,0.59179
957.64657,0.58329
956.15678,0.50162
954.66699,0.45054
953.17721,0.48007
951.68742,0.50021
950.19763,0.48863
948.70784,0.47707
947.21805,0.45731
945.72826,0.45523
944.23848,0.49198
942.74869,0.47467
941.25890,0.51266
939.76911,0.54185
938.27932,0.57108
936.78953,0.65914
935.29974,0.60786
933.80996,0.58308
932.32017,0.63477
930.83038,0.64180
929.34059,0.64885
927.85080,0.61771
926.36101,0.67188
924.87123,0.65079
923.38144,0.55858
921.89165,0.54344
920.40186,0.52833
918.91207,0.53206
917.42228,0.51230
915.93250,0.53726
914.44271,0.56461
912.95292,0.54023
911.46313,0.51588
909.97334,0.51273
908.48355,0.56548
906.99376,0.62649
905.50398,0.55992
904.01419,0.54013
902.52440,0.52037
901.03461,0.60972
899.54482,0.59502
898.05503,0.57564
896.56525,0.53394
895.07546,0.54285
893.58567,0.55179
892.09588,0.63249
890.60609,0.65678
889.11630,0.59288
887.62651,0.65251
886.13673,0.66159
884.64694,0.67070
883.15715,0.64867
881.66736,0.66431
880.17757,0.71291
878.68778,0.71979
877.19800,0.72669
875.70821,0.73833
874.21842,0.82175
872.72863,0.89343
871.23884,0.96278
869.74905,0.98130
868.25927,0.99985
866.76948,0.93345
865.27969,0.96588
863.78990,0.94717
862.30011,0.99554
860.81032,1.00982
859.32053,1.02413
857.83075,0.97026
856.34096,0.92348
854.85117,0.87731
853.36138,0.81294
851.87159,0.76624
850.38180,0.71957
848.89202,0.65000
847.40223,0.50518
845.91244,0.40920
844.42265,0.40587
842.93286,0.40257
841.44307,0.34079
839.95329,0.37136
838.46350,0.32845
836.97371,0.31145
835.48392,0.30065
833.99413,0.28988
832.50434,0.28297
831.01455,0.29019
829.52477,0.29568
828.03498,0.26945
826.54519,0.26470
825.05540,0.25999
823.56561,0.23972
822.07582,0.19890
820.58604,0.23809
819.09625,0.19645
817.60646,0.15483
816.11667,0.09943
814.62688,0.07345
813.13709,0.07750
811.64730,0.00219
810.15752,0.01892
808.66773,0.03567
807.17794,0.04746
805.68815,0.08456
804.19836,0.10993
802.70857,0.13209
801.21879,0.15429
799.72900,0.15563
798.23921,0.22405
796.74942,0.33131
795.25963,0.36479
793.76984,0.39830
792.28006,0.42214
790.79027,0.47247
789.30048,0.55459
787.81069,0.61380
786.32090,0.59336
784.83111,0.57295
783.34132,0.64224
781.85154,0.65923
780.36175,0.66743
778.87196,0.65625
777.38217,0.64510
775.89238,0.68043
774.40259,0.79048
772.91281,0.84351
771.42302,0.84071
769.93323,0.83794
768.44344,0.81050
766.95365,0.76368
765.46386,0.75512
763.97407,0.75187
762.48429,0.69338
760.99450,0.63492
759.50471,0.51474
758.01492,0.43693
756.52513,0.37150
755.03534,0.34050
753.54556,0.30953
752.05577,0.20714
750.56598,0.17358
749.07619,0.15064
747.58640,0.14066
746.09661,0.13071
744.60683,0.05669
743.11704,0.05680
741.62725,0.03635
740.13746,0.04563
738.64767,0.05494
737.15788,0.04694
735.66809,0.00426
734.17831,0.00219
732.68852,0.01969
731.19873,0.03721
729.70894,0.04447
728.21915,0.01412
726.72936,0.01145
725.23958,0.05349
723.74979,0.06910
722.26000,0.08474
720.77021,0.07924
719.28042,0.07612
717.79063,0.04892
716.30084,0.04233
714.81106,0.03577
713.32127,0.00219
711.83148,0.02111
710.34169,0.04183
708.85190,0.04082
707.36211,0.03983
705.87233,0.06122
704.38254,0.03678
702.89275,0.06117
701.40296,0.05942
699.91317,0.05770
698.42338,0.06159
696.93360,0.08551
695.44381,0.11593
693.95402,0.12374
692.46423,0.13157
690.97444,0.18207
689.48465,0.17320
687.99486,0.23670
686.50508,0.23965
685.01529,0.24264
683.52550,0.24918
682.03571,0.24928
680.54592,0.20001
679.05613,0.21194
677.56635,0.22389
676.07656,0.21117
674.58677,0.19495
673.09698,0.13113
671.60719,0.12379
670.11740,0.11648
668.62761,0.10685
667.13783,0.08960
665.64804,0.09062
664.15825,0.09166
662.66846,0.08920
661.17867,0.03384
659.68888,0.03380
658.19910,0.04525
656.70931,0.05672
655.21952,0.07500
653.72973,0.10153
652.23994,0.13338
650.75015,0.13057
649.26037,0.12779
647.77058,0.11092
646.28079,0.04234
644.79100,0.06022
643.30121,0.04991
641.81142,0.03963
640.32163,0.02938
638.83185,0.03562
637.34206,0.06130
635.85227,0.03173
634.36248,0.00219
632.87269,0.02682
631.38290,0.06383
629.89312,0.07381
628.40333,0.07118
626.91354,0.06858
625.42375,0.04396
623.93396,0.05112
622.44417,0.05625
620.95438,0.06141
619.46460,0.05926
617.97481,0.04713
616.48502,0.13559
614.99523,0.12911
613.50544,0.12265
612.01565,0.14593
610.52587,0.12336
609.03608,0.11023
607.54629,0.11654
606.05650,0.12288
604.56671,0.17100
603.07692,0.15681
601.58714,0.15441
600.09735,0.15205
598.60756,0.09502
597.11777,0.11741
595.62798,0.09984
594.13819,0.10171
592.64840,0.10360
591.15862,0.11023
589.66883,0.08925
588.17904,0.09124
586.68925,0.09560
585.19946,0.09999
583.70967,0.05032
582.21989,0.12240
580.73010,0.13982
579.24031,0.15727
577.75052,0.13652
576.26073,0.15520
574.77094,0.15392
573.28115,0.17208
571.79137,0.19026
570.30158,0.25081
568.81179,0.27258
567.32200,0.29056
565.83221,0.30857
564.34242,0.33454
562.85264,0.31468
561.36285,0.37894
559.87306,0.40206
558.38327,0.42521
556.89348,0.49838
555.40369,0.53688
553.91391,0.54894
552.42412,0.56104
550.93433,0.54670
549.44454,0.54592
547.95475,0.55986
546.46496,0.57884
544.97517,0.59784
543.48539,0.68480
541.99560,0.69945
540.50581,0.71737
539.01602,0.73531
537.52623,0.67772
536.03644,0.65427
534.54666,0.61732
533.05687,0.61186
531.56708,0.60643
530.07729,0.57074
528.58750,0.53803
527.09771,0.51357
525.60792,0.48915
524.11814,0.47475
522.62835,0.44920
521.13856,0.44310
519.64877,0.41938
518.15898,0.39569
516.66919,0.32086
515.17941,0.32957
513.68962,0.31509
512.19983,0.30063
510.71004,0.33177
509.22025,0.35883
507.73046,0.37651
506.24068,0.38716
504.75089,0.39784
503.26110,0.39561
501.77131,0.43928
500.28152,0.42183
498.79173,0.40440
497.30194,0.37229
495.81216,0.39432
494.32237,0.39433
492.83258,0.39437
491.34279,0.41295
489.85300,0.36983
488.36321,0.30203
486.87343,0.29336
485.38364,0.28472
483.89385,0.27170
482.40406,0.18461
480.91427,0.17283
479.42448,0.16107
477.93469,0.10877
476.44491,0.07649
474.95512,0.05776
473.46533,0.03907
471.97554,0.01158
470.48575,0.04469
468.99596,0.07489
467.50618,0.05249
466.01639,0.03012
464.52660,0.00219
463.03681,0.06760
461.54702,0.06894
460.05723,0.07030
458.56745,0.08346
457.07766,0.07313
455.58787,0.07870
454.09808,0.08430
452.60829,0.14462
451.11850,0.11323
449.62871,0.15038
448.13893,0.18755
446.64914,0.23447
445.15935,0.36432
443.66956,0.40012
442.17977,0.42330
440.68998,0.44651
439.20020,0.52003
437.71041,0.63298
436.22062,0.66951
434.73083,0.70607
433.24104,0.79383
431.75125,0.94159
430.26146,0.97853
428.77168,1.01550
427.28189,1.16041
425.79210,1.18715
424.30231,1.14717
422.81252,1.10723
421.32273,1.07466
419.83295,0.96391
418.34316,0.95551
416.85337,0.94714
415.36358,0.80061
413.87379,0.75584
412.38400,0.69757
410.89422,0.63933
409.40443,0.61347
407.91464,0.59881
406.42485,0.57006
404.93506,0.53223
403.44527,0.49442
401.95548,0.44871
400.46570,0.42479
398.97591,0.46323
397.48612,0.50169
395.99633,0.38494
394.50654,0.44817
393.01675,0.47232
391.52697,0.49650
390.03718,0.45102
388.54739,0.33559
387.05760,0.31899
385.56781,0.30241
384.07802,0.37349
382.58824,0.38285
381.09845,0.35518
379.60866,0.32755
378.11887,0.21939
376.62908,0.24062
375.13929,0.20867
373.64950,0.17675
372.15972,0.15514
370.66993,0.13592
369.18014,0.10849
367.69035,0.08110
366.20056,0.10430
364.71077,0.03874
363.22099,0.07965
361.73120,0.12058
360.24141,0.14273
358.75162,0.13080
357.26183,0.11507
355.77204,0.09938
354.28225,0.06107
352.79247,0.03749
351.30268,0.01983
349.81289,0.00219
348.32310,0.05109
346.83331,0.04710
345.34352,0.05078
343.85374,0.05449
342.36395,0.07352
340.87416,0.09845
339.38437,0.06991
337.89458,0.04139
336.40479,0.13110
334.91501,0.05560
333.42522,0.06951
331.93543,0.08345
330.44564,0.08390
328.95585,0.03144
327.46606,0.03371
325.97627,0.03601
324.48649,0.01893
322.99670,0.02785
321.50691,0.02211
320.01712,0.01639
318.52733,0.10303
317.03754,0.11502
315.54776,0.10645
314.05797,0.09791
312.56818,0.12939
311.07839,0.10915
309.58860,0.07277
308.09881,0.03641
306.60902,0.02273
305.11924,0.04789
303.62945,0.03808
302.13966,0.00219
300.64987,0.02335
299.16008,0.00219
