1778.52000,0.00242
1777.03021,0.01399
1775.54042,0.02834
1774.05063,0.00762
1772.56085,0.01446
1771.07106,-0.00000
1769.58127,0.04131
1768.09148,0.02966
1766.60169,0.01598
1765.11190,0.02779
1763.62212,0.01416
1762.13233,0.02948
1760.64254,0.00490
1759.15275,0.03128
1757.66296,0.01847
1756.17317,0.02633
1754.68339,0.00738
1753.19360,0.00773
1751.70381,0.01706
1750.21402,0.00233
1748.72423,0.01770
1747.23444,0.02554
1745.74465,0.03891
1744.25487,0.03580
1742.76508,0.02790
1741.27529,0.02553
1739.78550,0.04109
1738.29571,0.01951
1736.80592,0.04752
1735.31614,0.01017
1733.82635,0.02998
1732.33656,0.02986
1730.84677,0.04491
1729.35698,0.05242
1727.86719,0.02211
1726.37740,0.00490
1724.88762,0.03473
1723.39783,0.01779
1721.90804,0.02152
1720.41825,0.03767
1718.92846,0.04491
1717.43867,0.01708
1715.94889,0.02231
1714.45910,0.03789
1712.96931,0.04732
1711.47952,0.05470
1709.98973,0.03803
1708.49994,0.05374
1707.01016,0.05743
1705.52037,0.06115
1704.03058,0.07213
1702.54079,0.09897
1701.05100,0.13822
1699.56121,0.12314
1698.07142,0.11290
1696.58164,0.12885
1695.09185,0.17167
1693.60206,0.19180
1692.11227,0.18926
1690.62248,0.17849
1689.13269,0.20628
1687.64291,0.18731
1686.15312,0.18833
1684.66333,0.22034
1683.17354,0.20008
1681.68375,0.22046
1680.19396,0.19545
1678.70417,0.21244
1677.21439,0.19781
1675.72460,0.22381
1674.23481,0.22300
1672.74502,0.18231
1671.25523,0.20771
1669.76544,0.22902
1668.27566,0.21044
1666.78587,0.21047
1665.29608,0.16993
1663.80629,0.19273
1662.31650,0.18872
1660.82671,0.19025
1659.33693,0.22415
1657.84714,0.18513
1656.35735,0.14752
1654.86756,0.15124
1653.37777,0.15842
1651.88798,0.19592
1650.39819,0.13503
1648.90841,0.16983
1647.41862,0.11726
1645.92883,0.11702
1644.43904,0.11682
1642.94925,0.12834
1641.45946,0.17431
1639.96968,0.16180
1638.47989,0.16998
1636.99010,0.14859
1635.50031,0.16370
1634.01052,0.13549
1632.52073,0.13759
1631.03094,0.14316
1629.54116,0.14119
1628.05137,0.12893
1626.56158,0.16074
1625.07179,0.17951
1623.58200,0.17146
1622.09221,0.18479
1620.60243,0.20777
1619.11264,0.19225
1617.62285,0.19327
1616.13306,0.15510
1614.64327,0.13829
1613.15348,0.15867
1611.66370,0.20868
1610.17391,0.15755
1608.68412,0.16908
1607.19433,0.15793
1605.70454,0.13579
1604.21475,0.14087
1602.72496,0.14598
1601.23518,0.17074
1599.74539,0.12945
1598.25560,0.14807
1596.76581,0.13231
1595.27602,0.13998
1593.78623,0.13529
1592.29645,0.12375
1590.80666,0.15009
1589.31687,0.12278
1587.82708,0.11065
1586.33729,0.11024
1584.84750,0.07751
1583.35771,0.06271
1581.86793,0.02867
1580.37814,0.09720
1578.88835,0.09626
1577.39856,0.07676
1575.90877,0.05178
1574.41898,0.04817
1572.92920,0.07488
1571.43941,0.03003
1569.94962,0.04510
1568.45983,0.06019
1566.97004,0.06912
1565.48025,0.06225
1563.99047,0.02582
1562.50068,0.06099
1561.01089,0.04320
1559.52110,0.06673
1558.03131,0.06896
1556.54152,0.07879
1555.05173,0.08865
1553.56195,0.08064
1552.07216,0.07129
1550.58237,0.05096
1549.09258,0.03547
1547.60279,0.06269
1546.11300,0.01147
1544.62322,0.07591
1543.13343,0.03164
1541.64364,0.03695
1540.15385,0.02612
1538.66406,0.01532
1537.17427,0.04550
1535.68448,0.03510
1534.19470,0.04676
1532.70491,0.00820
1531.21512,0.05846
1529.72533,0.06539
1528.23554,0.00490
1526.74575,0.02983
1525.25597,0.03552
1523.76618,0.02060
1522.27639,0.02429
1520.78660,0.04659
1519.29681,0.03726
1517.80702,0.05549
1516.31724,0.03177
1514.82745,0.02941
1513.33766,0.02950
1511.84787,0.02961
1510.35808,0.05212
1508.86829,0.03956
1507.37850,0.06626
1505.88872,0.00490
1504.39893,0.02954
1502.90914,0.09343
1501.41935,0.08509
1499.92956,0.07059
1498.43977,0.09810
1496.94999,0.12771
1495.46020,0.20552
1493.97041,0.24895
1492.48062,0.29516
1490.99083,0.32007
1489.50104,0.40144
1488.01125,0.44637
1486.52147,0.49133
1485.03168,0.55076
1483.54189,0.57789
1482.05210,0.67730
1480.56231,0.76574
1479.07252,0.84526
1477.58274,0.98331
1476.09295,1.06564
1474.60316,1.13217
1473.11337,1.18910
1471.62358,1.24262
1470.13379,1.24867
1468.64401,1.23067
1467.15422,1.10465
1465.66443,1.09566
1464.17464,1.08670
1462.68485,1.02684
1461.19506,0.95600
1459.70527,0.91409
1458.21549,0.85707
1456.72570,0.78150
1455.23591,0.75758
1453.74612,0.68826
1452.25633,0.60865
1450.76654,0.58345
1449.27676,0.58786
1447.78697,0.55583
1446.29718,0.53553
1444.80739,0.48085
1443.31760,0.42619
1441.82781,0.38396
1440.33802,0.34726
1438.84824,0.27068
1437.35845,0.20238
1435.86866,0.20982
1434.37887,0.24275
1432.88908,0.19451
1431.39929,0.21786
1429.90951,0.22267
1428.41972,0.26467
1426.92993,0.26747
1425.44014,0.21112
1423.95035,0.24013
1422.46056,0.26918
1420.97078,0.30169
1419.48099,0.33424
1417.99120,0.30143
1416.50141,0.30445
1415.01162,0.32057
1413.52183,0.29886
1412.03204,0.24897
1410.54226,0.25968
1409.05247,0.25389
1407.56268,0.29012
1406.07289,0.30160
1404.58310,0.31208
1403.09331,0.32259
1401.60353,0.33898
1400.11374,0.38568
1398.62395,0.38217
1397.13416,0.39453
1395.64437,0.35735
1394.15458,0.43171
1392.66479,0.45585
1391.17501,0.44423
1389.68522,0.50560
1388.19543,0.44104
1386.70564,0.44328
1385.21585,0.44555
1383.72606,0.45886
1382.23628,0.44398
1380.74649,0.42088
1379.25670,0.41569
1377.76691,0.41605
1376.27712,0.44947
1374.78733,0.48842
1373.29755,0.55907
1371.80776,0.61942
1370.31797,0.76170
1368.82818,0.81041
1367.33839,0.85915
1365.84860,1.05451
1364.35881,1.21274
1362.86903,1.26501
1361.37924,1.30974
1359.88945,1.38272
1358.39966,1.46330
1356.90987,1.51914
1355.42008,1.50618
1353.93030,1.40309
1352.44051,1.35578
1350.95072,1.30850
1349.46093,1.25436
1347.97114,1.15140
1346.48135,0.97344
1344.99156,0.86228
1343.50178,0.83098
1342.01199,0.70886
1340.52220,0.63770
1339.03241,0.62714
1337.54262,0.57875
1336.05283,0.55758
1334.56305,0.53644
1333.07326,0.50466
1331.58347,0.44607
1330.09368,0.40610
1328.60389,0.38748
1327.11410,0.36477
1325.62432,0.32833
1324.13453,0.35316
1322.64474,0.35188
1321.15495,0.34512
1319.66516,0.32703
1318.17537,0.30897
1316.68558,0.31125
1315.19580,0.29084
1313.70601,0.27666
1312.21622,0.26802
1310.72643,0.28555
1309.23664,0.28798
1307.74685,0.30420
1306.25707,0.26884
1304.76728,0.24898
1303.27749,0.22916
1301.78770,0.26065
1300.29791,0.26188
1298.80812,0.26314
1297.31834,0.26168
1295.82855,0.24304
1294.33876,0.27398
1292.84897,0.28775
1291.35918,0.26920
1289.86939,0.27202
1288.37960,0.27487
1286.88982,0.30046
1285.40003,0.33021
1283.91024,0.31594
1282.42045,0.35814
1280.93066,0.34393
1279.44087,0.33457
1277.95109,0.37617
1276.46130,0.32695
1274.97151,0.32147
1273.48172,0.31601
1271.99193,0.38526
1270.50214,0.41875
1269.01235,0.50527
1267.52257,0.46586
1266.03278,0.41548
1264.54299,0.50828
1263.05320,0.49099
1261.56341,0.50643
1260.07362,0.52189
1258.58384,0.55424
1257.09405,0.53983
1255.60426,0.56605
1254.11447,0.52141
1252.62468,0.51879
1251.13489,0.55680
1249.64511,0.51432
1248.15532,0.39341
1246.66553,0.37026
1245.17574,0.34714
1243.68595,0.39907
1242.19616,0.33402
1240.70637,0.36261
1239.21659,0.28318
1237.72680,0.28223
1236.23701,0.28200
1234.74722,0.25221
1233.25743,0.20937
1231.76764,0.16656
1230.27786,0.19605
1228.78807,0.21730
1227.29828,0.17183
1225.80849,0.15667
1224.31870,0.11126
1222.82891,0.10511
1221.33912,0.13409
1219.84934,0.14796
1218.35955,0.16185
1216.86976,0.14963
1215.37997,0.18354
1213.89018,0.15761
1212.40039,0.12552
1210.91061,0.09415
1209.42082,0.09239
1207.93103,0.08723
1206.44124,0.08210
1204.95145,0.08801
1203.46166,0.07812
1201.97188,0.05931
1200.48209,0.07082
1198.99230,0.04932
1197.50251,0.07602
1196.01272,0.04977
1194.52293,0.04694
1193.03314,0.04414
1191.54336,0.00490
1190.05357,0.02108
1188.56378,0.07033
1187.07399,0.03909
1185.58420,0.03059
1184.09441,0.05721
1182.60463,0.05015
1181.11484,0.04311
1179.62505,0.04643
1178.13526,0.05253
1176.64547,0.06417
1175.15568,0.02491
1173.66589,0.04280
1172.17611,0.04833
1170.68632,0.04770
1169.19653,0.04710
1167.70674,0.03758
1166.21695,0.03567
1164.72716,0.02001
1163.23738,0.04018
1161.74759,0.00601
1160.25780,0.00490
1158.76801,0.01271
1157.27822,0.02055
1155.78843,0.07109
1154.29865,0.10171
1152.80886,0.08899
1151.31907,0.06667
1149.82928,0.03887
1148.33949,0.06754
1146.84970,0.07215
1145.35991,0.07679
1143.87013,0.04430
1142.38034,0.07860
1140.89055,0.12875
1139.40076,0.13833
1137.91097,0.16446
1136.42118,0.17272
1134.93140,0.17688
1133.44161,0.18108
1131.95182,0.25825
1130.46203,0.31619
1128.97224,0.31496
1127.48245,0.32616
1125.99266,0.35803
1124.50288,0.38649
1123.01309,0.38883
1121.52330,0.39120
1120.03351,0.40806
1118.54372,0.39328
1117.05393,0.45630
1115.56415,0.42507
1114.07436,0.45099
1112.58457,0.45182
1111.09478,0.45268
1109.60499,0.47456
1108.11520,0.54602
1106.62542,0.54663
1105.13563,0.64362
1103.64584,0.70760
1102.15605,0.77781
1100.66626,0.78025
1099.17647,0.78273
1097.68668,0.83582
1096.19690,0.87174
1094.70711,0.84505
1093.21732,0.88034
1091.72753,0.93011
1090.23774,0.95101
1088.74795,0.97193
1087.25817,1.01078
1085.76838,1.03108
1084.27859,1.07412
1082.78880,1.10274
1081.29901,1.13345
1079.80922,1.14973
1078.31943,1.16330
1076.82965,1.17690
1075.33986,1.24145
1073.85007,1.31636
1072.36028,1.23094
1070.87049,1.28733
1069.38070,1.28800
1067.89092,1.30005
1066.40113,1.31214
1064.91134,1.31083
1063.42155,1.18361
1061.93176,1.15346
1060.44197,1.14261
1058.95219,1.09807
1057.46240,1.02190
1055.97261,0.94576
1054.48282,0.85932
1052.99303,0.83073
1051.50324,0.74023
1050.01345,0.68692
1048.52367,0.67837
1047.03388,0.63063
1045.54409,0.58292
1044.05430,0.58891
1042.56451,0.53232
1041.07472,0.43101
1039.58494,0.36621
1038.09515,0.35031
1036.60536,0.32411
1035.11557,0.29794
1033.62578,0.31035
1032.13599,0.31246
1030.64620,0.36002
1029.15642,0.41656
1027.66663,0.43631
1026.17684,0.45609
1024.68705,0.48588
1023.19726,0.61412
1021.70747,0.73894
1020.21769,0.93400
1018.72790,1.17176
1017.23811,1.25985
1015.74832,1.34798
1014.25853,1.59477
1012.76874,1.70739
1011.27896,1.89712
1009.78917,1.87077
1008.29938,2.00000
1006.80959,1.96683
1005.31980,1.93370
1003.83001,1.81456
1002.34022,1.73056
1000.85044,1.65966
999.36065,1.54337
997.87086,1.49180
996.38107,1.44026
994.89128,1.53948
993.40149,1.51897
991.91171,1.44481
990.42192,1.49938
988.93213,1.47415
987.44234,1.50331
985.95255,1.53251
984.46276,1.42202
982.97297,1.33428
981.48319,1.29130
979.99340,1.21876
978.50361,1.21094
977.01382,1.20316
975.52403,1.21742
974.03424,1.13674
972.54446,1.06710
971.05467,1.05944
969.56488,1.00913
968.07509,0.96745
966.58530,0.92581
965.09551,0.89417
963.60573,0.88459
962.11594,0.92528
960.62615,0.73888
959.13636,0.72974
957.64657,0.72062
956.15678,0.70775
954.66699,0.69009
953.17721,0.65319
951.68742,0.61632
950.19763,0.63213
948.70784,0.64796
947.21805,0.60706
945.72826,0.61917
944.23848,0.60103
942.74869,0.64968
941.25890,0.67634
939.76911,0.71851
938.27932,0.76072
936.78953,0.79022
935.29974,0.72959
933.80996,0.69170
932.32017,0.70959
930.83038,0.74954
929.34059,0.78951
927.85080,0.81162
926.36101,0.82000
924.87123,0.73687
923.38144,0.69369
921.89165,0.66775
920.40186,0.64183
918.91207,0.65036
917.42228,0.68851
915.93250,0.66819
914.44271,0.67543
912.95292,0.66618
911.46313,0.65697
909.97334,0.69802
908.48355,0.73498
906.99376,0.73824
905.50398,0.70505
904.01419,0.69530
902.52440,0.68557
901.03461,0.78944
899.54482,0.81212
898.05503,0.74743
896.56525,0.79908
895.07546,0.78675
893.58567,0.77445
892.09588,0.77733
890.60609,0.86832
889.11630,0.82996
887.62651,0.75241
886.13673,0.79429
884.64694,0.83620
883.15715,0.80828
881.66736,0.80861
880.17757,0.83444
878.68778,0.83586
877.19800,0.83732
875.70821,0.81712
874.21842,0.91258
872.72863,0.94269
871.23884,0.97283
869.74905,0.99473
868.25927,1.01667
866.76948,1.01042
865.27969,0.93813
863.78990,1.00971
862.30011,1.04485
860.81032,1.02840
859.32053,1.01197
857.83075,0.93777
856.34096,0.91384
854.85117,0.79909
853.36138,0.80206
851.87159,0.72763
850.38180,0.65323
848.89202,0.56269
847.40223,0.45910
845.91244,0.42024
844.42265,0.41479
842.93286,0.40936
841.44307,0.37954
839.95329,0.36144
838.46350,0.32411
836.97371,0.34530
835.48392,0.31250
833.99413,0.27972
832.50434,0.30514
831.01455,0.28034
829.52477,0.33128
828.03498,0.28934
826.54519,0.24777
825.05540,0.20623
823.56561,0.22632
822.07582,0.17830
820.58604,0.18468
819.09625,0.15806
817.60646,0.13147
816.11667,0.10147
814.62688,0.07906
813.13709,0.10556
811.64730,0.03642
810.15752,0.02064
808.66773,0.00490
807.17794,0.02574
805.68815,0.03629
804.19836,0.06545
802.70857,0.09396
801.21879,0.12249
799.72900,0.15381
798.23921,0.25467
796.74942,0.34867
795.25963,0.37870
793.76984,0.40876
792.28006,0.44436
790.79027,0.50545
789.30048,0.58929
787.81069,0.64355
786.32090,0.64692
784.83111,0.65033
783.34132,0.65444
781.85154,0.68681
780.36175,0.63318
778.87196,0.64874
777.38217,0.66434
775.89238,0.79249
774.40259,0.78853
772.91281,0.84516
771.42302,0.84230
769.93323,0.83946
768.44344,0.87416
766.95365,0.84007
765.46386,0.88997
763.97407,0.87040
762.48429,0.77996
760.99450,0.68955
759.50471,0.53449
758.01492,0.47442
756.52513,0.42402
755.03534,0.36024
753.54556,0.29648
752.05577,0.26338
750.56598,0.21723
749.07619,0.11949
747.58640,0.12055
746.09661,0.12163
744.60683,0.08042
743.11704,0.08054
741.62725,0.05935
740.13746,0.03991
738.64767,0.02049
737.15788,0.00490
735.66809,0.03951
734.17831,0.02048
732.68852,0.03244
731.19873,0.04443
729.70894,0.04131
728.21915,0.01689
726.72936,0.05031
725.23958,0.04865
723.74979,0.07766
722.26000,0.10669
720.77021,0.06659
719.28042,0.08433
717.79063,0.05186
716.30084,0.02836
714.81106,0.00490
713.32127,0.01440
711.83148,0.00397
710.34169,0.07393
708.85190,0.05926
707.36211,0.04462
705.87233,0.06236
704.38254,0.02920
702.89275,0.06902
701.40296,0.07033
699.91317,0.07167
698.42338,0.09094
696.93360,0.10060
695.44381,0.15227
693.95402,0.13825
692.46423,0.12426
690.97444,0.13128
689.48465,0.16243
687.99486,0.16883
686.50508,0.18318
685.01529,0.19755
683.52550,0.20404
682.03571,0.18991
680.54592,0.19784
679.05613,0.19135
677.56635,0.18488
676.07656,0.18464
674.58677,0.13143
673.09698,0.11198
671.60719,0.10667
670.11740,0.10138
668.62761,0.10542
667.13783,0.09297
665.64804,0.08296
664.15825,0.07298
662.66846,0.03034
661.17867,0.07170
659.68888,0.04907
658.19910,0.06571
656.70931,0.08238
655.21952,0.09013
653.72973,0.11098
652.23994,0.12774
650.75015,0.12870
649.26037,0.12969
647.77058,0.11832
646.28079,0.06500
644.79100,0.05644
643.30121,0.03277
641.81142,0.00913
640.32163,0.02682
638.83185,0.04178
637.34206,0.02512
635.85227,0.02844
634.36248,0.03180
632.87269,0.00490
631.38290,0.06399
629.89312,0.06255
628.40333,0.04737
626.91354,0.03223
625.42375,0.03707
623.93396,0.04676
622.44417,0.04168
620.95438,0.03664
619.46460,0.05880
617.97481,0.10647
616.48502,0.08878
614.99523,0.10244
613.50544,0.11612
612.01565,0.07925
610.52587,0.07270
609.03608,0.13499
607.54629,0.12609
606.05650,0.11721
604.56671,0.13968
603.07692,0.18489
601.58714,0.15477
600.09735,0.12468
598.60756,0.09634
597.11777,0.07285
595.62798,0.13817
594.13819,0.12713
592.64840,0.11612
591.15862,0.06797
589.66883,0.03843
588.17904,0.05711
586.68925,0.08028
585.19946,0.10348
583.70967,0.10229
582.21989,0.09906
580.73010,0.12682
579.24031,0.15462
577.75052,0.15699
576.26073,0.21582
574.77094,0.20861
573.28115,0.21037
571.79137,0.21217
570.30158,0.28557
568.81179,0.27641
567.32200,0.29379
565.83221,0.31119
564.34242,0.31658
562.85264,0.34608
561.36285,0.44375
559.87306,0.45302
558.38327,0.46231
556.89348,0.56076
555.40369,0.55188
553.91391,0.56505
552.42412,0.57824
550.93433,0.54536
549.44454,0.60886
547.95475,0.64211
546.46496,0.66266
544.97517,0.68323
543.48539,0.73653
541.99560,0.72448
540.50581,0.74067
539.01602,0.75689
537.52623,0.68092
536.03644,0.64628
534.54666,0.68737
533.05687,0.68960
531.56708,0.69186
530.07729,0.68487
528.58750,0.60013
527.09771,0.56291
525.60792,0.52573
524.11814,0.49132
522.62835,0.49067
521.13856,0.50037
519.64877,0.48120
518.15898,0.46205
516.66919,0.43124
515.17941,0.38050
513.68962,0.36420
512.19983,0.34793
510.71004,0.35853
509.22025,0.28588
507.73046,0.36812
506.24068,0.38535
504.75089,0.40261
503.26110,0.44433
501.77131,0.36633
500.28152,0.39916
498.79173,0.43203
497.30194,0.39748
495.81216,0.36502
494.32237,0.38008
492.83258,0.39517
491.34279,0.40892
489.85300,0.34699
488.36321,0.32982
486.87343,0.29479
485.38364,0.25979
483.89385,0.25992
482.40406,0.20640
480.91427,0.20487
479.42448,0.20337
477.93469,0.14031
476.44491,0.11375
474.95512,0.10615
473.46533,0.09857
471.97554,0.07830
470.48575,0.03121
468.99596,0.07294
467.50618,0.08269
466.01639,0.09247
464.52660,0.00490
463.03681,0.02914
461.54702,0.06821
460.05723,0.10732
458.56745,0.08416
457.07766,0.13674
455.58787,0.14496
454.09808,0.15321
452.60829,0.24925
451.11850,0.21317
449.62871,0.22564
448.13893,0.23814
446.64914,0.34530
445.15935,0.42909
443.66956,0.54801
442.17977,0.53173
440.68998,0.51548
439.20020,0.61591
437.71041,0.71430
436.22062,0.76317
434.73083,0.81208
433.24104,1.02825
431.75125,1.08960
430.26146,1.16819
428.77168,1.24681
427.28189,1.27384
425.79210,1.34357
424.30231,1.31388
422.81252,1.28422
421.32273,1.18818
419.83295,1.12314
418.34316,1.09082
416.85337,1.05853
415.36358,0.91030
413.87379,0.82061
412.38400,0.80836
410.89422,0.79615
409.40443,0.72238
407.91464,0.72020
406.42485,0.59280
404.93506,0.58656
403.44527,0.58035
401.95548,0.57279
400.46570,0.50814
398.97591,0.52267
397.48612,0.53723
395.99633,0.50432
394.50654,0.60290
393.01675,0.56628
391.52697,0.52968
390.03718,0.43358
388.54739,0.39326
387.05760,0.41663
385.56781,0.44003
384.07802,0.50441
382.58824,0.49793
381.09845,0.45570
379.60866,0.41349
378.11887,0.31901
376.62908,0.26379
375.13929,0.27467
373.64950,0.28558
372.15972,0.20154
370.66993,0.18567
369.18014,0.15158
367.69035,0.11753
366.20056,0.17264
364.71077,0.11422
363.22099,0.13910
361.73120,0.16401
360.24141,0.14904
358.75162,0.10244
357.26183,0.10198
355.77204,0.10155
354.28225,0.07775
352.79247,0.03333
351.30268,0.03978
349.81289,0.04626
348.32310,0.05690
346.83331,0.05793
345.34352,0.09065
343.85374,0.12340
342.36395,0.11627
340.87416,0.06099
339.38437,0.05116
337.89458,0.04136
336.40479,0.02265
334.91501,0.03975
333.42522,0.07443
331.93543,0.10914
330.44564,0.05889
328.95585,0.09676
327.46606,0.09268
325.97627,0.08863
324.48649,0.06327
322.99670,0.11251
321.50691,0.09571
320.01712,0.07894
318.52733,0.11106
317.03754,0.15836
315.54776,0.13067
314.05797,0.10300
312.56818,0.10565
311.07839,0.02230
309.58860,0.02657
308.09881,0.03086
306.60902,0.00490
305.11924,0.03594
303.62945,0.03948
302.13966,0.01921
300.64987,0.05815
299.16008,0.00490
