1778.52000,0.03995
1777.03021,0.04174
1775.54042,0.04561
1774.05063,0.03424
1772.56085,0.02087
1771.07106,0.04520
1769.58127,0.02580
1768.09148,0.05428
1766.60169,0.04207
1765.11190,0.04721
1763.62212,0.05747
1762.13233,0.08100
1760.64254,0.06588
1759.15275,0.00295
1757.66296,0.02557
1756.17317,0.04110
1754.68339,0.02816
1753.19360,0.02035
1751.70381,0.01257
1750.21402,0.08118
1748.72423,0.02054
1747.23444,0.03934
1745.74465,0.01746
1744.25487,0.02717
1742.76508,0.09901
1741.27529,0.07621
1739.78550,0.03615
1738.29571,0.05822
1736.80592,0.00295
1735.31614,0.04355
1733.82635,0.04244
1732.33656,0.02304
1730.84677,0.08003
1729.35698,0.09736
1727.86719,0.05974
1726.37740,0.01606
1724.88762,0.00295
1723.39783,0.05977
1721.90804,0.04231
1720.41825,0.03710
1718.92846,0.02887
1717.43867,0.03290
1715.94889,0.05121
1714.45910,0.09399
1712.96931,0.03093
1711.47952,0.08193
1709.98973,0.07392
1708.49994,0.04965
1707.01016,0.08193
1705.52037,0.11423
1704.03058,0.13996
1702.54079,0.15961
1701.05100,0.18134
1699.56121,0.17358
1698.07142,0.19028
1696.58164,0.21517
1695.09185,0.21973
1693.60206,0.24367
1692.11227,0.24220
1690.62248,0.22346
1689.13269,0.25259
1687.64291,0.32554
1686.15312,0.29876
1684.66333,0.32190
1683.17354,0.32370
1681.68375,0.32044
1680.19396,0.29176
1678.70417,0.35067
1677.21439,0.35567
1675.72460,0.40549
1674.23481,0.28941
1672.74502,0.32810
1671.25523,0.32713
1669.76544,0.31907
1668.27566,0.32020
1666.78587,0.29491
1665.29608,0.23503
1663.80629,0.26682
1662.31650,0.32918
1660.82671,0.29995
1659.33693,0.24735
1657.84714,0.19987
1656.35735,0.21962
1654.86756,0.23431
1653.37777,0.26125
1651.88798,0.24140
1650.39819,0.23279
1648.90841,0.23236
1647.41862,0.20549
1645.92883,0.18833
1644.43904,0.17120
1642.94925,0.16990
1641.45946,0.20425
1639.96968,0.17247
1638.47989,0.15193
1636.99010,0.21490
1635.50031,0.16287
1634.01052,0.14854
1632.52073,0.16275
1631.03094,0.15053
1629.54116,0.15973
1628.05137,0.14249
1626.56158,0.15379
1625.07179,0.24046
1623.58200,0.23656
1622.09221,0.22659
1620.60243,0.25942
1619.11264,0.22814
1617.62285,0.22133
1616.13306,0.19725
1614.64327,0.15387
1613.15348,0.18280
1611.66370,0.17105
1610.17391,0.19394
1608.68412,0.14561
1607.19433,0.16043
1605.70454,0.15289
1604.21475,0.14895
1602.72496,0.14504
1601.23518,0.17630
1599.74539,0.13938
1598.25560,0.13507
1596.76581,0.10230
1595.27602,0.10825
1593.78623,0.16513
1592.29645,0.07545
1590.80666,0.08863
1589.31687,0.05604
1587.82708,0.11408
1586.33729,0.11719
1584.84750,0.09895
1583.35771,0.11231
1581.86793,0.06157
1580.37814,0.09842
1578.88835,0.08541
1577.39856,0.06125
1575.90877,0.04425
1574.41898,0.01914
1572.92920,0.08263
1571.43941,0.00058
1569.94962,0.01172
1568.45983,0.02289
1566.97004,0.03054
1565.48025,0.05247
1563.99047,0.08869
1562.50068,0.00686
1561.01089,0.09507
1559.52110,0.10289
1558.03131,0.11279
1556.54152,0.11051
1555.05173,0.12964
1553.56195,0.13455
1552.07216,0.12830
1550.58237,0.06304
1549.09258,0.07214
1547.60279,0.05887
1546.11300,0.10875
1544.62322,0.07622
1543.13343,0.08952
1541.64364,0.03975
1540.15385,0.02310
1538.66406,0.00649
1537.17427,0.08814
1535.68448,0.03037
1534.19470,0.04797
1532.70491,0.02997
1531.21512,0.03847
1529.72533,0.01342
1528.23554,0.00673
1526.74575,0.07337
1525.25597,0.02602
1523.76618,0.04285
1522.27639,0.04343
1520.78660,0.06135
1519.29681,0.00295
1517.80702,0.05679
1516.31724,0.03534
1514.82745,0.04344
1513.33766,0.05718
1511.84787,0.07095
1510.35808,0.02114
1508.86829,0.04160
1507.37850,0.04785
1505.88872,0.00730
1504.39893,0.00446
1502.90914,0.02506
1501.41935,0.00295
1499.92956,0.02364
1498.43977,0.06474
1496.94999,0.07430
1495.46020,0.17553
1493.97041,0.21673
1492.48062,0.29868
1490.99083,0.29414
1489.50104,0.32730
1488.01125,0.37424
1486.52147,0.42122
1485.03168,0.55323
1483.54189,0.58857
1482.05210,0.62497
1480.56231,0.74386
1479.07252,0.84650
1477.58274,1.05504
1476.09295,1.04984
1474.60316,1.08438
1473.11337,1.22992
1471.62358,1.27878
1470.13379,1.31241
1468.64401,1.18319
1467.15422,1.20264
1465.66443,1.14169
1464.17464,1.08079
1462.68485,1.09322
1461.19506,1.08532
1459.70527,1.00518
1458.21549,0.99532
1456.72570,0.90711
1455.23591,0.85456
1453.74612,0.81936
1452.25633,0.74754
1450.76654,0.69816
1449.27676,0.68444
1447.78697,0.67992
1446.29718,0.67034
1444.80739,0.60482
1443.31760,0.53932
1441.82781,0.48710
1440.33802,0.40030
1438.84824,0.34509
1437.35845,0.32657
1435.86866,0.36204
1434.37887,0.31916
1432.88908,0.31500
1431.39929,0.28033
1429.90951,0.28337
1428.41972,0.27422
1426.92993,0.27428
1425.44014,0.32120
1423.95035,0.35746
1422.46056,0.39376
1420.97078,0.39600
1419.48099,0.37180
1417.99120,0.31506
1416.50141,0.35303
1415.01162,0.32792
1413.52183,0.34051
1412.03204,0.33991
1410.54226,0.30778
1409.05247,0.32862
1407.56268,0.33118
1406.07289,0.31138
1404.58310,0.31502
1403.09331,0.31870
1401.60353,0.29697
1400.11374,0.32007
1398.62395,0.33404
1397.13416,0.31750
1395.64437,0.30609
1394.15458,0.26825
1392.66479,0.33428
1391.17501,0.35250
1389.68522,0.32291
1388.19543,0.26485
1386.70564,0.26282
1385.21585,0.26082
1383.72606,0.22934
1382.23628,0.22538
1380.74649,0.23469
1379.25670,0.22367
1377.76691,0.26869
1376.27712,0.30661
1374.78733,0.25396
1373.29755,0.34082
1371.80776,0.34016
1370.31797,0.38943
1368.82818,0.42498
1367.33839,0.46057
1365.84860,0.61378
1364.35881,0.65199
1362.86903,0.65868
1361.37924,0.69797
1359.88945,0.71695
1358.39966,0.76650
1356.90987,0.82321
1355.42008,0.85451
1353.93030,0.81865
1352.44051,0.85714
1350.95072,0.89568
1349.46093,0.84160
1347.97114,0.74888
1346.48135,0.64398
1344.99156,0.60935
1343.50178,0.55339
1342.01199,0.61046
1340.52220,0.51181
1339.03241,0.52212
1337.54262,0.52229
1336.05283,0.54693
1334.56305,0.57160
1333.07326,0.46702
1331.58347,0.46529
1330.09368,0.48193
1328.60389,0.35608
1327.11410,0.38602
1325.62432,0.43840
1324.13453,0.41446
1322.64474,0.43738
1321.15495,0.39824
1319.66516,0.43447
1318.17537,0.47073
1316.68558,0.38793
1315.19580,0.44564
1313.70601,0.37716
1312.21622,0.37387
1310.72643,0.36552
1309.23664,0.34397
1307.74685,0.40288
1306.25707,0.31727
1304.76728,0.31976
1303.27749,0.32228
1301.78770,0.32331
1300.29791,0.25616
1298.80812,0.26846
1297.31834,0.34188
1295.82855,0.38581
1294.33876,0.39109
1292.84897,0.35874
1291.35918,0.33049
1289.86939,0.30840
1288.37960,0.28633
1286.88982,0.32233
1285.40003,0.33495
1283.91024,0.41378
1282.42045,0.45396
1280.93066,0.42699
1279.44087,0.42143
1277.95109,0.40064
1276.46130,0.39820
1274.97151,0.40853
1273.48172,0.41889
1271.99193,0.52651
1270.50214,0.62195
1269.01235,0.55760
1267.52257,0.59814
1266.03278,0.53283
1264.54299,0.60806
1263.05320,0.62631
1261.56341,0.62983
1260.07362,0.63339
1258.58384,0.68229
1257.09405,0.69050
1255.60426,0.70384
1254.11447,0.69991
1252.62468,0.67972
1251.13489,0.63514
1249.64511,0.59670
1248.15532,0.55932
1246.66553,0.52808
1245.17574,0.49688
1243.68595,0.45756
1242.19616,0.41931
1240.70637,0.45642
1239.21659,0.47422
1237.72680,0.38313
1236.23701,0.38167
1234.74722,0.30083
1233.25743,0.28162
1231.76764,0.26245
1230.27786,0.25705
1228.78807,0.29751
1227.29828,0.28200
1225.80849,0.20749
1224.31870,0.19918
1222.82891,0.25912
1221.33912,0.11753
1219.84934,0.14496
1218.35955,0.17243
1216.86976,0.25592
1215.37997,0.30077
1213.89018,0.24080
1212.40039,0.28979
1210.91061,0.14234
1209.42082,0.14457
1207.93103,0.18400
1206.44124,0.22346
1204.95145,0.20849
1203.46166,0.10092
1201.97188,0.20819
1200.48209,0.21675
1198.99230,0.16630
1197.50251,0.07210
1196.01272,0.07568
1194.52293,0.05689
1193.03314,0.03814
1191.54336,0.07033
1190.05357,0.07404
1188.56378,0.06558
1187.07399,0.01338
1185.58420,0.00295
1184.09441,0.08579
1182.60463,0.10097
1181.11484,0.11618
1179.62505,0.12278
1178.13526,0.16708
1176.64547,0.19411
1175.15568,0.13158
1173.66589,0.12305
1172.17611,0.07282
1170.68632,0.04858
1169.19653,0.02438
1167.70674,0.03839
1166.21695,0.00866
1164.72716,0.06041
1163.23738,0.05416
1161.74759,0.05712
1160.25780,0.06520
1158.76801,0.05550
1157.27822,0.04583
1155.78843,0.09983
1154.29865,0.08973
1152.80886,0.03996
1151.31907,0.13581
1149.82928,0.12480
1148.33949,0.19017
1146.84970,0.15633
1145.35991,0.12252
1143.87013,0.09027
1142.38034,0.08555
1140.89055,0.14398
1139.40076,0.19735
1137.91097,0.23550
1136.42118,0.28589
1134.93140,0.24266
1133.44161,0.19947
1131.95182,0.32530
1130.46203,0.40129
1128.97224,0.38569
1127.48245,0.35078
1125.99266,0.34950
1124.50288,0.32689
1123.01309,0.40305
1121.52330,0.47925
1120.03351,0.45369
1118.54372,0.43121
1117.05393,0.42303
1115.56415,0.41997
1114.07436,0.45868
1112.58457,0.50507
1111.09478,0.55149
1109.60499,0.52312
1108.11520,0.56808
1106.62542,0.61410
1105.13563,0.64591
1103.64584,0.79075
1102.15605,0.88777
1100.66626,0.88304
1099.17647,0.87833
1097.68668,0.82277
1096.19690,0.97695
1094.70711,0.96828
1093.21732,0.99630
1091.72753,1.10579
1090.23774,1.10283
1088.74795,1.09991
1087.25817,1.18508
1085.76838,1.17764
1084.27859,1.22318
1082.78880,1.24025
1081.29901,1.28892
1079.80922,1.26228
1078.31943,1.27641
1076.82965,1.29057
1075.33986,1.30171
1073.85007,1.41774
1072.36028,1.35464
1070.87049,1.36080
1069.38070,1.43826
1067.89092,1.45976
1066.40113,1.48129
1064.91134,1.42346
1063.42155,1.29847
1061.93176,1.21424
1060.44197,1.26850
1058.95219,1.07338
1057.46240,1.04830
1055.97261,1.02326
1054.48282,0.99927
1052.99303,0.91322
1051.50324,0.83433
1050.01345,0.72290
1048.52367,0.71636
1047.03388,0.74091
1045.54409,0.76550
1044.05430,0.79062
1042.56451,0.63153
1041.07472,0.58037
1039.58494,0.49261
1038.09515,0.41608
1036.60536,0.43935
1035.11557,0.46266
1033.62578,0.46768
1032.13599,0.43710
1030.64620,0.49208
1029.15642,0.51145
1027.66663,0.50135
1026.17684,0.49127
1024.68705,0.57693
1023.19726,0.71251
1021.70747,0.83896
1020.21769,0.97053
1018.72790,1.18766
1017.23811,1.29335
1015.74832,1.39907
1014.25853,1.47887
1012.76874,1.62183
1011.27896,1.70679
1009.78917,1.84269
1008.29938,2.00000
1006.80959,1.93237
1005.31980,1.86477
1003.83001,1.69235
1002.34022,1.63093
1000.85044,1.56141
999.36065,1.49599
997.87086,1.48304
996.38107,1.47012
994.89128,1.51272
993.40149,1.57164
991.91171,1.42700
990.42192,1.45647
988.93213,1.54909
987.44234,1.52010
985.95255,1.49115
984.46276,1.45052
982.97297,1.42723
981.48319,1.49255
979.99340,1.32885
978.50361,1.34741
977.01382,1.36601
975.52403,1.30931
974.03424,1.28115
972.54446,1.26423
971.05467,1.21883
969.56488,1.20096
968.07509,1.19636
966.58530,1.19179
965.09551,1.12720
963.60573,1.16240
962.11594,1.05207
960.62615,0.93465
959.13636,0.90837
957.64657,0.88213
956.15678,0.84524
954.66699,0.93564
953.17721,0.93140
951.68742,0.89359
950.19763,0.90316
948.70784,0.91277
947.21805,0.90562
945.72826,0.82215
944.23848,0.78758
942.74869,0.83143
941.25890,0.92622
939.76911,0.93197
938.27932,0.93776
936.78953,1.03571
935.29974,0.91584
933.80996,1.04746
932.32017,1.08037
930.83038,1.08277
929.34059,1.08521
927.85080,1.09684
926.36101,1.05354
924.87123,0.94003
923.38144,0.89069
921.89165,0.93607
920.40186,0.98148
918.91207,0.94243
917.42228,0.98689
915.93250,1.04463
914.44271,1.06269
912.95292,1.08996
911.46313,1.11726
909.97334,1.13747
908.48355,1.20352
906.99376,1.07518
905.50398,1.08735
904.01419,1.05629
902.52440,1.02527
901.03461,1.13528
899.54482,1.20766
898.05503,1.20576
896.56525,1.34439
895.07546,1.33441
893.58567,1.32448
892.09588,1.16900
890.60609,1.28028
889.11630,1.24093
887.62651,1.19245
886.13673,1.18626
884.64694,1.18010
883.15715,1.15209
881.66736,1.07423
880.17757,1.08600
878.68778,1.11205
877.19800,1.13814
875.70821,1.12558
874.21842,1.09270
872.72863,1.14332
871.23884,1.11866
869.74905,1.11540
868.25927,1.11218
866.76948,1.14870
865.27969,1.15166
863.78990,1.20149
862.30011,1.13937
860.81032,1.11444
859.32053,1.08955
857.83075,1.06215
856.34096,0.99407
854.85117,0.97183
853.36138,0.84171
851.87159,0.80377
850.38180,0.76586
848.89202,0.70915
847.40223,0.55678
845.91244,0.48691
844.42265,0.46696
842.93286,0.44705
841.44307,0.45364
839.95329,0.42870
838.46350,0.38039
836.97371,0.38505
835.48392,0.39229
833.99413,0.39957
832.50434,0.48069
831.01455,0.45088
829.52477,0.43230
828.03498,0.38933
826.54519,0.34996
825.05540,0.31062
823.56561,0.27285
822.07582,0.28499
820.58604,0.24118
819.09625,0.22489
817.60646,0.20864
816.11667,0.16188
814.62688,0.19660
813.13709,0.10818
811.64730,0.00757
810.15752,0.00524
808.66773,0.00295
807.17794,0.08839
805.68815,0.12093
804.19836,0.19932
802.70857,0.19223
801.21879,0.18518
799.72900,0.24128
798.23921,0.32694
796.74942,0.37598
795.25963,0.38842
793.76984,0.40088
792.28006,0.49585
790.79027,0.60713
789.30048,0.72660
787.81069,0.72700
786.32090,0.75593
784.83111,0.78490
783.34132,0.82715
781.85154,0.79816
780.36175,0.86389
778.87196,0.83447
777.38217,0.80508
775.89238,0.91775
774.40259,0.91134
772.91281,0.97521
771.42302,0.98923
769.93323,1.00329
768.44344,1.02553
766.95365,1.07428
765.46386,1.07114
763.97407,1.06091
762.48429,0.93110
760.99450,0.80132
759.50471,0.71688
758.01492,0.64775
756.52513,0.56950
755.03534,0.50909
753.54556,0.44872
752.05577,0.29931
750.56598,0.22526
749.07619,0.21132
747.58640,0.15924
746.09661,0.10719
744.60683,0.14018
743.11704,0.13962
741.62725,0.08717
740.13746,0.07650
738.64767,0.06586
737.15788,0.07256
735.66809,0.00295
734.17831,0.01745
732.68852,0.03912
731.19873,0.06082
729.70894,0.11310
728.21915,0.06463
726.72936,0.05896
725.23958,0.06248
723.74979,0.09047
722.26000,0.11849
720.77021,0.07529
719.28042,0.13597
717.79063,0.05924
716.30084,0.06451
714.81106,0.06981
713.32127,0.03493
711.83148,0.03063
710.34169,0.00295
708.85190,0.05125
707.36211,0.09959
705.87233,0.07110
704.38254,0.00295
702.89275,0.04481
701.40296,0.09739
699.91317,0.15000
698.42338,0.08202
696.93360,0.20139
695.44381,0.16198
693.95402,0.17707
692.46423,0.19220
690.97444,0.11014
689.48465,0.13196
687.99486,0.22813
686.50508,0.21235
685.01529,0.19661
683.52550,0.17581
682.03571,0.20188
680.54592,0.12720
679.05613,0.17930
677.56635,0.23144
676.07656,0.18537
674.58677,0.12712
673.09698,0.12083
671.60719,0.14257
670.11740,0.16434
668.62761,0.10522
667.13783,0.05530
665.64804,0.03442
664.15825,0.01358
662.66846,0.11240
661.17867,0.07381
659.68888,0.05868
658.19910,0.10568
656.70931,0.15272
655.21952,0.10512
653.72973,0.16343
652.23994,0.18716
650.75015,0.18904
649.26037,0.19096
647.77058,0.07838
646.28079,0.11956
644.79100,0.03862
643.30121,0.03304
641.81142,0.02750
640.32163,0.11667
638.83185,0.07964
637.34206,0.00295
635.85227,0.01492
634.36248,0.02693
632.87269,0.03644
631.38290,0.03987
629.89312,0.04231
628.40333,0.03614
626.91354,0.03001
625.42375,0.00915
623.93396,0.05348
622.44417,0.03727
620.95438,0.02110
619.46460,0.09404
617.97481,0.05401
616.48502,0.12601
614.99523,0.09777
613.50544,0.06956
612.01565,0.07345
610.52587,0.02546
609.03608,0.05183
607.54629,0.06906
606.05650,0.08634
604.56671,0.14945
603.07692,0.16883
601.58714,0.10935
600.09735,0.04991
598.60756,0.05209
597.11777,0.01766
595.62798,0.04740
594.13819,0.03849
592.64840,0.02962
591.15862,0.08899
589.66883,0.05372
588.17904,0.05106
586.68925,0.05964
585.19946,0.06825
583.70967,0.11965
582.21989,0.09576
580.73010,0.10244
579.24031,0.10916
577.75052,0.18107
576.26073,0.15121
574.77094,0.13972
573.28115,0.14760
571.79137,0.15551
570.30158,0.23778
568.81179,0.29158
567.32200,0.29706
565.83221,0.30258
564.34242,0.34325
562.85264,0.40330
561.36285,0.43895
559.87306,0.51842
558.38327,0.59792
556.89348,0.64284
555.40369,0.64403
553.91391,0.63507
552.42412,0.62615
550.93433,0.71702
549.44454,0.69494
547.95475,0.80319
546.46496,0.78373
544.97517,0.76429
543.48539,0.87062
541.99560,0.85380
540.50581,0.84466
539.01602,0.83555
537.52623,0.79440
536.03644,0.76348
534.54666,0.75397
533.05687,0.77300
531.56708,0.79206
530.07729,0.63097
528.58750,0.74682
527.09771,0.68455
525.60792,0.62232
524.11814,0.65276
522.62835,0.61401
521.13856,0.56410
519.64877,0.53052
518.15898,0.49697
516.66919,0.50316
515.17941,0.48495
513.68962,0.45761
512.19983,0.43032
510.71004,0.48653
509.22025,0.48577
507.73046,0.43415
506.24068,0.42328
504.75089,0.41245
503.26110,0.43933
501.77131,0.42144
500.28152,0.39748
498.79173,0.37356
497.30194,0.29470
495.81216,0.27900
494.32237,0.35088
492.83258,0.42279
491.34279,0.46318
489.85300,0.32342
488.36321,0.29161
486.87343,0.25779
485.38364,0.22402
483.89385,0.11697
482.40406,0.17998
480.91427,0.13053
479.42448,0.08111
477.93469,0.09740
476.44491,0.04245
474.95512,0.05270
473.46533,0.06298
471.97554,0.05294
470.48575,0.08162
468.99596,0.05841
467.50618,0.03066
466.01639,0.00295
464.52660,0.05592
463.03681,0.09366
461.54702,0.09632
460.05723,0.09900
458.56745,0.02589
457.07766,0.08820
455.58787,0.10372
454.09808,0.11928
452.60829,0.22242
451.11850,0.20344
449.62871,0.22674
448.13893,0.25008
446.64914,0.37780
445.15935,0.54016
443.66956,0.57328
442.17977,0.56164
440.68998,0.55003
439.20020,0.64128
437.71041,0.79466
436.22062,0.83356
434.73083,0.87249
433.24104,1.08910
431.75125,1.23448
430.26146,1.23992
428.77168,1.24540
427.28189,1.44688
425.79210,1.42851
424.30231,1.41526
422.81252,1.40205
421.32273,1.39701
419.83295,1.29327
418.34316,1.27355
416.85337,1.25386
415.36358,1.11867
413.87379,0.96315
412.38400,0.90488
410.89422,0.84666
409.40443,0.77065
407.91464,0.76085
406.42485,0.62180
404.93506,0.57186
403.44527,0.52195
401.95548,0.54589
400.46570,0.67065
398.97591,0.68906
397.48612,0.70751
395.99633,0.70105
394.50654,0.65899
393.01675,0.62563
391.52697,0.59230
390.03718,0.46077
388.54739,0.38526
387.05760,0.46759
385.56781,0.54994
384.07802,0.59060
382.58824,0.51117
381.09845,0.46791
379.60866,0.42469
378.11887,0.41255
376.62908,0.33733
375.13929,0.28556
373.64950,0.23383
372.15972,0.28496
370.66993,0.22515
369.18014,0.19948
367.69035,0.17386
366.20056,0.16302
364.71077,0.20109
363.22099,0.21985
361.73120,0.23865
360.24141,0.21066
358.75162,0.11958
357.26183,0.14561
355.77204,0.17168
354.28225,0.07562
352.79247,0.04475
351.30268,0.04395
349.81289,0.04318
348.32310,0.14985
346.83331,0.09164
345.34352,0.08436
343.85374,0.07712
342.36395,0.14932
340.87416,0.10652
339.38437,0.08666
337.89458,0.06684
336.40479,0.01397
334.91501,0.00389
333.42522,0.04201
331.93543,0.08017
330.44564,0.13313
328.95585,0.03443
327.46606,0.04674
325.97627,0.05908
324.48649,0.01038
322.99670,0.00890
321.50691,0.04969
320.01712,0.09053
318.52733,0.17568
317.03754,0.19673
315.54776,0.12213
314.05797,0.04756
312.56818,0.10639
311.07839,0.00237
309.58860,0.00935
308.09881,0.01636
306.60902,0.00000
305.11924,0.05460
303.62945,0.03288
302.13966,0.01120
300.64987,0.07577
299.16008,0.00295
