1778.52000,0.02046
1777.03021,0.03186
1775.54042,0.02265
1774.05063,0.02035
1772.56085,0.00318
1771.07106,0.01641
1769.58127,0.01018
1768.09148,0.03665
1766.60169,0.02189
1765.11190,0.02434
1763.62212,0.02225
1762.13233,0.02877
1760.64254,0.03418
1759.15275,0.01670
1757.66296,0.01758
1756.17317,0.01105
1754.68339,0.01485
1753.19360,0.01239
1751.70381,0.00250
1750.21402,0.02129
1748.72423,0.01261
1747.23444,0.02573
1745.74465,0.03372
1744.25487,0.03715
1742.76508,0.02572
1741.27529,0.03495
1739.78550,0.03790
1738.29571,0.01337
1736.80592,0.00722
1735.31614,0.02775
1733.82635,0.02139
1732.33656,0.02537
1730.84677,0.01448
1729.35698,0.02711
1727.86719,0.00883
1726.37740,0.00318
1724.88762,0.01174
1723.39783,0.01861
1721.90804,0.00774
1720.41825,0.01582
1718.92846,0.01189
1717.43867,0.02002
1715.94889,0.01042
1714.45910,0.01287
1712.96931,0.03312
1711.47952,0.03621
1709.98973,0.06512
1708.49994,0.02357
1707.01016,0.02503
1705.52037,0.02652
1704.03058,0.05038
1702.54079,0.02901
1701.05100,0.07814
1699.56121,0.06714
1698.07142,0.06476
1696.58164,0.10367
1695.09185,0.09905
1693.60206,0.13630
1692.11227,0.11914
1690.62248,0.13123
1689.13269,0.11642
1687.64291,0.15435
1686.15312,0.15450
1684.66333,0.15869
1683.17354,0.15030
1681.68375,0.16772
1680.19396,0.13761
1678.70417,0.12301
1677.21439,0.14396
1675.72460,0.10935
1674.23481,0.14411
1672.74502,0.14452
1671.25523,0.11803
1669.76544,0.16146
1668.27566,0.15566
1666.78587,0.14644
1665.29608,0.12809
1663.80629,0.10518
1662.31650,0.11324
1660.82671,0.12247
1659.33693,0.11569
1657.84714,0.10550
1656.35735,0.11081
1654.86756,0.10011
1653.37777,0.09058
1651.88798,0.11890
1650.39819,0.08823
1648.90841,0.10744
1647.41862,0.09058
1645.92883,0.08750
1644.43904,0.08444
1642.94925,0.08543
1641.45946,0.09447
1639.96968,0.10297
1638.47989,0.11321
1636.99010,0.10171
1635.50031,0.10284
1634.01052,0.11088
1632.52073,0.11207
1631.03094,0.08121
1629.54116,0.09506
1628.05137,0.09520
1626.56158,0.11197
1625.07179,0.12076
1623.58200,0.14447
1622.09221,0.17681
1620.60243,0.14443
1619.11264,0.12640
1617.62285,0.13705
1616.13306,0.13226
1614.64327,0.13323
1613.15348,0.12219
1611.66370,0.11978
1610.17391,0.11854
1608.68412,0.12421
1607.19433,0.12417
1605.70454,0.10068
1604.21475,0.10815
1602.72496,0.11565
1601.23518,0.13121
1599.74539,0.12502
1598.25560,0.10224
1596.76581,0.05256
1595.27602,0.09860
1593.78623,0.09481
1592.29645,0.08247
1590.80666,0.06900
1589.31687,0.07677
1587.82708,0.07023
1586.33729,0.07634
1584.84750,0.04695
1583.35771,0.04738
1581.86793,0.05299
1580.37814,0.03572
1578.88835,0.04770
1577.39856,0.03679
1575.90877,0.02820
1574.41898,0.02307
1572.92920,0.02084
1571.43941,0.01119
1569.94962,0.01361
1568.45983,0.01605
1566.97004,0.01336
1565.48025,0.02102
1563.99047,0.04016
1562.50068,0.01464
1561.01089,0.01665
1559.52110,0.03646
1558.03131,0.01962
1556.54152,0.02802
1555.05173,0.03932
1553.56195,0.03747
1552.07216,0.04481
1550.58237,0.04359
1549.09258,0.02578
1547.60279,0.02290
1546.11300,0.03953
1544.62322,0.04530
1543.13343,0.01099
1541.64364,0.00364
1540.15385,0.01208
1538.66406,0.02054
1537.17427,0.02417
1535.68448,0.00318
1534.19470,0.00455
1532.70491,0.00996
1531.21512,0.01941
1529.72533,0.00367
1528.23554,-0.00000
1526.74575,0.02042
1525.25597,0.02196
1523.76618,0.02067
1522.27639,0.02055
1520.78660,0.01130
1519.29681,0.01009
1517.80702,0.01865
1516.31724,0.00318
1514.82745,0.03064
1513.33766,0.02661
1511.84787,0.02261
1510.35808,0.03296
1508.86829,0.03761
1507.37850,0.01708
1505.88872,0.02122
1504.39893,0.00591
1502.90914,0.01984
1501.41935,0.03954
1499.92956,0.02145
1498.43977,0.03375
1496.94999,0.05640
1495.46020,0.10887
1493.97041,0.15048
1492.48062,0.17837
1490.99083,0.23895
1489.50104,0.27263
1488.01125,0.30318
1486.52147,0.33377
1485.03168,0.45176
1483.54189,0.51306
1482.05210,0.56865
1480.56231,0.66668
1479.07252,0.75900
1477.58274,0.74536
1476.09295,0.85550
1474.60316,0.91697
1473.11337,0.94811
1471.62358,0.96494
1470.13379,0.97150
1468.64401,0.97693
1467.15422,0.86666
1465.66443,0.85468
1464.17464,0.84273
1462.68485,0.76520
1461.19506,0.78453
1459.70527,0.70306
1458.21549,0.64739
1456.72570,0.57914
1455.23591,0.56765
1453.74612,0.53098
1452.25633,0.47257
1450.76654,0.40043
1449.27676,0.38676
1447.78697,0.33989
1446.29718,0.31712
1444.80739,0.30296
1443.31760,0.28884
1441.82781,0.22490
1440.33802,0.19250
1438.84824,0.16643
1437.35845,0.12206
1435.86866,0.13501
1434.37887,0.12106
1432.88908,0.11459
1431.39929,0.12304
1429.90951,0.11777
1428.41972,0.11196
1426.92993,0.15488
1425.44014,0.14225
1423.95035,0.14770
1422.46056,0.15318
1420.97078,0.14465
1419.48099,0.18886
1417.99120,0.19242
1416.50141,0.18799
1415.01162,0.22025
1413.52183,0.20499
1412.03204,0.19205
1410.54226,0.17914
1409.05247,0.17714
1407.56268,0.20268
1406.07289,0.20590
1404.58310,0.20972
1403.09331,0.21357
1401.60353,0.23578
1400.11374,0.28266
1398.62395,0.37369
1397.13416,0.34672
1395.64437,0.39540
1394.15458,0.42349
1392.66479,0.44015
1391.17501,0.44939
1389.68522,0.46267
1388.19543,0.50290
1386.70564,0.50937
1385.21585,0.51586
1383.72606,0.51779
1382.23628,0.47564
1380.74649,0.50170
1379.25670,0.50544
1377.76691,0.49488
1376.27712,0.49410
1374.78733,0.57127
1373.29755,0.63300
1371.80776,0.71366
1370.31797,0.86082
1368.82818,0.96618
1367.33839,1.07157
1365.84860,1.30132
1364.35881,1.46922
1362.86903,1.64173
1361.37924,1.68077
1359.88945,1.68375
1358.39966,1.78874
1356.90987,1.82786
1355.42008,1.82405
1353.93030,1.67874
1352.44051,1.58703
1350.95072,1.49536
1349.46093,1.37019
1347.97114,1.18088
1346.48135,1.05691
1344.99156,0.91980
1343.50178,0.80678
1342.01199,0.72530
1340.52220,0.59000
1339.03241,0.50915
1337.54262,0.52402
1336.05283,0.51027
1334.56305,0.49655
1333.07326,0.45994
1331.58347,0.43882
1330.09368,0.36847
1328.60389,0.30043
1327.11410,0.27310
1325.62432,0.24580
1324.13453,0.25635
1322.64474,0.23656
1321.15495,0.25461
1319.66516,0.22914
1318.17537,0.20371
1316.68558,0.19435
1315.19580,0.18788
1313.70601,0.15852
1312.21622,0.17732
1310.72643,0.14344
1309.23664,0.17776
1307.74685,0.19149
1306.25707,0.16916
1304.76728,0.19240
1303.27749,0.21567
1301.78770,0.18655
1300.29791,0.17063
1298.80812,0.19771
1297.31834,0.19102
1295.82855,0.20154
1294.33876,0.16053
1292.84897,0.19747
1291.35918,0.20407
1289.86939,0.18721
1288.37960,0.17038
1286.88982,0.21431
1285.40003,0.20842
1283.91024,0.25355
1282.42045,0.26090
1280.93066,0.28203
1279.44087,0.25907
1277.95109,0.22411
1276.46130,0.25506
1274.97151,0.25969
1273.48172,0.26435
1271.99193,0.28451
1270.50214,0.32246
1269.01235,0.33064
1267.52257,0.39099
1266.03278,0.35912
1264.54299,0.37541
1263.05320,0.43700
1261.56341,0.44246
1260.07362,0.44796
1258.58384,0.42311
1257.09405,0.43725
1255.60426,0.44627
1254.11447,0.44672
1252.62468,0.44835
1251.13489,0.41276
1249.64511,0.37377
1248.15532,0.29928
1246.66553,0.30045
1245.17574,0.30165
1243.68595,0.24730
1242.19616,0.25715
1240.70637,0.26932
1239.21659,0.20589
1237.72680,0.19234
1236.23701,0.17366
1234.74722,0.13782
1233.25743,0.12894
1231.76764,0.12008
1230.27786,0.14850
1228.78807,0.15059
1227.29828,0.13896
1225.80849,0.10158
1224.31870,0.07625
1222.82891,0.08648
1221.33912,0.07726
1219.84934,0.07924
1218.35955,0.08125
1216.86976,0.08987
1215.37997,0.10426
1213.89018,0.11008
1212.40039,0.07811
1210.91061,0.07482
1209.42082,0.03432
1207.93103,0.03911
1206.44124,0.04393
1204.95145,0.02586
1203.46166,0.02672
1201.97188,0.03335
1200.48209,0.04573
1198.99230,0.04955
1197.50251,0.01501
1196.01272,0.02576
1194.52293,0.03311
1193.03314,0.04048
1191.54336,0.03126
1190.05357,0.00604
1188.56378,0.00318
1187.07399,0.00509
1185.58420,0.05057
1184.09441,0.00383
1182.60463,0.01822
1181.11484,0.03263
1179.62505,0.04192
1178.13526,0.05124
1176.64547,0.03939
1175.15568,0.06080
1173.66589,0.05187
1172.17611,0.04526
1170.68632,0.04871
1169.19653,0.05219
1167.70674,0.03249
1166.21695,0.03631
1164.72716,0.03386
1163.23738,0.00622
1161.74759,0.03534
1160.25780,0.00318
1158.76801,0.01430
1157.27822,0.02544
1155.78843,0.01771
1154.29865,0.06042
1152.80886,0.00863
1151.31907,0.03765
1149.82928,0.05295
1148.33949,0.06140
1146.84970,0.07819
1145.35991,0.09501
1143.87013,0.04397
1142.38034,0.05827
1140.89055,0.08692
1139.40076,0.14425
1137.91097,0.12483
1136.42118,0.14727
1134.93140,0.17088
1133.44161,0.19452
1131.95182,0.24168
1130.46203,0.28830
1128.97224,0.27536
1127.48245,0.30886
1125.99266,0.34468
1124.50288,0.33068
1123.01309,0.34535
1121.52330,0.36006
1120.03351,0.34328
1118.54372,0.38555
1117.05393,0.45649
1115.56415,0.41803
1114.07436,0.37788
1112.58457,0.39018
1111.09478,0.40251
1109.60499,0.43120
1108.11520,0.49773
1106.62542,0.50471
1105.13563,0.54265
1103.64584,0.62188
1102.15605,0.71603
1100.66626,0.70164
1099.17647,0.68727
1097.68668,0.70703
1096.19690,0.76635
1094.70711,0.77470
1093.21732,0.83121
1091.72753,0.84306
1090.23774,0.85236
1088.74795,0.86169
1087.25817,0.87133
1085.76838,0.89820
1084.27859,0.95030
1082.78880,1.05514
1081.29901,1.05803
1079.80922,1.05636
1078.31943,1.08394
1076.82965,1.11155
1075.33986,1.17013
1073.85007,1.23962
1072.36028,1.18997
1070.87049,1.26239
1069.38070,1.33082
1067.89092,1.36663
1066.40113,1.40246
1064.91134,1.25154
1063.42155,1.10981
1061.93176,1.07125
1060.44197,1.06652
1058.95219,0.93978
1057.46240,0.89127
1055.97261,0.84280
1054.48282,0.77573
1052.99303,0.71729
1051.50324,0.66690
1050.01345,0.60106
1048.52367,0.54958
1047.03388,0.54110
1045.54409,0.53265
1044.05430,0.49386
1042.56451,0.46771
1041.07472,0.39288
1039.58494,0.34903
1038.09515,0.27025
1036.60536,0.27057
1035.11557,0.27091
1033.62578,0.26212
1032.13599,0.27170
1030.64620,0.25552
1029.15642,0.31614
1027.66663,0.32637
1026.17684,0.33664
1024.68705,0.37328
1023.19726,0.54002
1021.70747,0.67127
1020.21769,0.88333
1018.72790,1.12808
1017.23811,1.24595
1015.74832,1.36385
1014.25853,1.57660
1012.76874,1.72693
1011.27896,1.76212
1009.78917,1.87927
1008.29938,1.97869
1006.80959,1.98933
1005.31980,2.00000
1003.83001,1.82506
1002.34022,1.77792
1000.85044,1.71762
999.36065,1.51469
997.87086,1.47337
996.38107,1.43207
994.89128,1.47904
993.40149,1.47734
991.91171,1.39086
990.42192,1.36630
988.93213,1.32973
987.44234,1.35737
985.95255,1.38503
984.46276,1.32620
982.97297,1.30751
981.48319,1.19546
979.99340,1.07140
978.50361,1.05452
977.01382,1.03766
975.52403,1.03516
974.03424,0.96107
972.54446,0.94201
971.05467,0.81985
969.56488,0.81345
968.07509,0.77815
966.58530,0.74288
965.09551,0.69245
963.60573,0.66153
962.11594,0.65700
960.62615,0.63245
959.13636,0.57927
957.64657,0.52612
956.15678,0.52343
954.66699,0.48581
953.17721,0.47114
951.68742,0.45822
950.19763,0.46939
948.70784,0.48059
947.21805,0.47119
945.72826,0.48302
944.23848,0.46222
942.74869,0.52740
941.25890,0.52212
939.76911,0.52290
938.27932,0.52370
936.78953,0.60733
935.29974,0.56207
933.80996,0.58501
932.32017,0.59138
930.83038,0.62871
929.34059,0.66607
927.85080,0.63470
926.36101,0.60910
924.87123,0.59670
923.38144,0.57688
921.89165,0.57370
920.40186,0.57056
918.91207,0.51129
917.42228,0.48987
915.93250,0.50858
914.44271,0.51071
912.95292,0.51917
911.46313,0.52766
909.97334,0.54305
908.48355,0.55446
906.99376,0.55731
905.50398,0.50976
904.01419,0.51639
902.52440,0.52305
901.03461,0.59018
899.54482,0.61609
898.05503,0.57499
896.56525,0.56429
895.07546,0.55505
893.58567,0.54584
892.09588,0.57590
890.60609,0.64725
889.11630,0.63899
887.62651,0.64622
886.13673,0.65520
884.64694,0.66421
883.15715,0.65950
881.66736,0.63362
880.17757,0.69199
878.68778,0.70341
877.19800,0.71486
875.70821,0.74124
874.21842,0.75561
872.72863,0.82730
871.23884,0.91736
869.74905,0.92380
868.25927,0.93027
866.76948,0.97400
865.27969,0.92667
863.78990,0.96932
862.30011,0.91803
860.81032,0.91719
859.32053,0.91638
857.83075,0.91446
856.34096,0.92975
854.85117,0.89293
853.36138,0.72035
851.87159,0.70536
850.38180,0.69041
848.89202,0.54083
847.40223,0.46519
845.91244,0.42970
844.42265,0.38936
842.93286,0.34905
841.44307,0.31822
839.95329,0.28284
838.46350,0.26868
836.97371,0.24138
835.48392,0.26338
833.99413,0.28542
832.50434,0.28055
831.01455,0.29003
829.52477,0.28980
828.03498,0.28674
826.54519,0.25849
825.05540,0.23028
823.56561,0.23704
822.07582,0.20831
820.58604,0.15096
819.09625,0.15523
817.60646,0.15954
816.11667,0.10628
814.62688,0.07713
813.13709,0.03253
811.64730,0.01718
810.15752,0.01016
808.66773,0.00318
807.17794,0.01358
805.68815,0.03605
804.19836,0.06713
802.70857,0.10570
801.21879,0.14429
799.72900,0.14166
798.23921,0.21812
796.74942,0.33358
795.25963,0.34135
793.76984,0.34915
792.28006,0.42573
790.79027,0.46739
789.30048,0.50622
787.81069,0.52674
786.32090,0.53840
784.83111,0.55010
783.34132,0.62399
781.85154,0.65781
780.36175,0.68993
778.87196,0.66880
777.38217,0.64769
775.89238,0.65699
774.40259,0.79179
772.91281,0.75988
771.42302,0.74205
769.93323,0.72424
768.44344,0.78983
766.95365,0.73455
765.46386,0.71253
763.97407,0.70086
762.48429,0.65025
760.99450,0.59967
759.50471,0.50042
758.01492,0.36854
756.52513,0.35529
755.03534,0.30741
753.54556,0.25955
752.05577,0.19998
750.56598,0.13586
749.07619,0.11187
747.58640,0.09822
746.09661,0.08460
744.60683,0.05955
743.11704,0.06146
741.62725,0.02960
740.13746,0.03357
738.64767,0.03757
737.15788,0.00522
735.66809,0.03077
734.17831,0.02540
732.68852,0.03296
731.19873,0.04054
729.70894,0.00318
728.21915,0.03267
726.72936,0.01521
725.23958,0.03616
723.74979,0.03366
722.26000,0.03118
720.77021,0.03847
719.28042,0.08590
717.79063,0.02277
716.30084,0.02528
714.81106,0.02781
713.32127,0.00889
711.83148,0.00318
710.34169,0.03306
708.85190,0.04550
707.36211,0.05796
705.87233,0.04839
704.38254,0.03771
702.89275,0.03565
701.40296,0.05539
699.91317,0.07516
698.42338,0.08694
696.93360,0.09588
695.44381,0.08652
693.95402,0.10669
692.46423,0.12690
690.97444,0.16632
689.48465,0.17828
687.99486,0.22406
686.50508,0.21316
685.01529,0.20228
683.52550,0.23440
682.03571,0.20696
680.54592,0.22711
679.05613,0.19945
677.56635,0.17181
676.07656,0.18574
674.58677,0.13840
673.09698,0.09165
671.60719,0.09823
670.11740,0.10483
668.62761,0.10286
667.13783,0.08546
665.64804,0.05805
664.15825,0.03068
662.66846,0.05977
661.17867,0.04248
659.68888,0.07278
658.19910,0.05297
656.70931,0.03318
655.21952,0.06586
653.72973,0.09283
652.23994,0.10265
650.75015,0.09673
649.26037,0.09085
647.77058,0.08299
646.28079,0.04192
644.79100,0.00318
643.30121,0.00605
641.81142,0.00894
640.32163,0.01387
638.83185,0.00564
637.34206,0.00318
635.85227,0.00515
634.36248,0.00714
632.87269,0.00114
631.38290,0.01097
629.89312,0.00765
628.40333,0.01238
626.91354,0.01715
625.42375,0.02480
623.93396,0.02389
622.44417,0.04536
620.95438,0.06685
619.46460,0.01790
617.97481,0.04976
616.48502,0.04613
614.99523,0.06602
613.50544,0.08594
612.01565,0.09386
610.52587,0.07373
609.03608,0.10291
607.54629,0.09344
606.05650,0.08399
604.56671,0.14992
603.07692,0.19125
601.58714,0.16155
600.09735,0.13189
598.60756,0.10511
597.11777,0.09613
595.62798,0.09921
594.13819,0.10146
592.64840,0.10374
591.15862,0.09717
589.66883,0.09864
588.17904,0.08468
586.68925,0.07103
585.19946,0.05741
583.70967,0.08593
582.21989,0.06063
580.73010,0.07660
579.24031,0.09261
577.75052,0.12010
576.26073,0.09949
574.77094,0.12819
573.28115,0.14775
571.79137,0.16733
570.30158,0.19153
568.81179,0.21634
567.32200,0.23630
565.83221,0.25629
564.34242,0.30982
562.85264,0.35365
561.36285,0.37172
559.87306,0.37321
558.38327,0.37472
556.89348,0.44216
555.40369,0.49587
553.91391,0.53328
552.42412,0.57072
550.93433,0.56493
549.44454,0.56891
547.95475,0.57464
546.46496,0.59071
544.97517,0.60681
543.48539,0.66133
541.99560,0.66087
540.50581,0.67849
539.01602,0.69613
537.52623,0.65795
536.03644,0.60260
534.54666,0.59255
533.05687,0.60258
531.56708,0.61263
530.07729,0.53964
528.58750,0.50736
527.09771,0.50347
525.60792,0.49960
524.11814,0.45423
522.62835,0.44040
521.13856,0.40597
519.64877,0.37500
518.15898,0.34407
516.66919,0.32921
515.17941,0.26968
513.68962,0.28496
512.19983,0.30027
510.71004,0.28438
509.22025,0.34128
507.73046,0.32316
506.24068,0.35204
504.75089,0.38096
503.26110,0.39099
501.77131,0.38731
500.28152,0.39168
498.79173,0.39607
497.30194,0.39190
495.81216,0.40838
494.32237,0.41401
492.83258,0.41967
491.34279,0.41848
489.85300,0.40414
488.36321,0.31764
486.87343,0.28960
485.38364,0.26160
483.89385,0.25426
482.40406,0.23490
480.91427,0.20355
479.42448,0.17223
477.93469,0.14322
476.44491,0.08102
474.95512,0.08186
473.46533,0.08274
471.97554,0.06474
470.48575,0.04333
468.99596,0.08612
467.50618,0.06792
466.01639,0.04975
464.52660,0.01986
463.03681,0.00318
461.54702,0.02468
460.05723,0.04621
458.56745,0.08094
457.07766,0.06242
455.58787,0.08890
454.09808,0.11542
452.60829,0.15313
451.11850,0.16280
449.62871,0.15961
448.13893,0.15644
446.64914,0.26074
445.15935,0.35589
443.66956,0.41957
442.17977,0.42769
440.68998,0.43585
439.20020,0.53628
437.71041,0.61955
436.22062,0.65242
434.73083,0.68533
433.24104,0.81510
431.75125,0.93573
430.26146,0.96987
428.77168,1.00404
427.28189,1.06860
425.79210,1.15325
424.30231,1.17547
422.81252,1.19773
421.32273,1.05156
419.83295,0.99652
418.34316,0.94122
416.85337,0.88596
415.36358,0.78459
413.87379,0.73311
412.38400,0.68452
410.89422,0.63595
409.40443,0.65790
407.91464,0.59965
406.42485,0.50247
404.93506,0.48898
403.44527,0.47551
401.95548,0.45291
400.46570,0.38049
398.97591,0.43071
397.48612,0.48096
395.99633,0.42810
394.50654,0.41424
393.01675,0.44939
391.52697,0.48457
390.03718,0.41292
388.54739,0.31151
387.05760,0.30066
385.56781,0.28983
384.07802,0.38904
382.58824,0.35536
381.09845,0.33975
379.60866,0.32417
378.11887,0.25104
376.62908,0.23351
375.13929,0.21315
373.64950,0.19281
372.15972,0.13813
370.66993,0.10525
369.18014,0.08472
367.69035,0.06421
366.20056,0.06179
364.71077,0.08231
363.22099,0.10343
361.73120,0.12458
360.24141,0.10680
358.75162,0.04264
357.26183,0.06904
355.77204,0.09546
354.28225,0.09097
352.79247,0.01948
351.30268,0.02307
349.81289,0.02670
348.32310,0.08421
346.83331,0.03231
345.34352,0.02141
343.85374,0.01054
342.36395,0.02252
340.87416,0.10215
339.38437,0.06749
337.89458,0.03287
336.40479,0.06617
334.91501,0.04564
333.42522,0.06869
331.93543,0.09177
330.44564,0.07419
328.95585,0.07956
327.46606,0.07264
325.97627,0.06575
324.48649,0.04485
322.99670,0.02800
321.50691,0.04469
320.01712,0.06142
318.52733,0.06615
317.03754,0.12476
315.54776,0.08571
314.05797,0.04669
312.56818,0.08476
311.07839,0.05697
309.58860,0.05356
308.09881,0.05018
306.60902,0.00586
305.11924,0.04599
303.62945,0.03171
302.13966,0.00920
300.64987,0.00318
299.16008,0.00318
