1778.52000,0.05368
1777.03021,0.00000
1775.54042,0.03605
1774.05063,0.05465
1772.56085,0.03368
1771.07106,0.01740
1769.58127,0.05241
1768.09148,0.05017
1766.60169,0.05145
1765.11190,0.06208
1763.62212,0.02964
1762.13233,0.06480
1760.64254,0.04407
1759.15275,0.05249
1757.66296,0.05978
1756.17317,0.03682
1754.68339,0.05698
1753.19360,0.07368
1751.70381,0.04148
1750.21402,0.00000
1748.72423,0.03128
1747.23444,0.02998
1745.74465,0.05782
1744.25487,0.04609
1742.76508,0.07051
1741.27529,0.02389
1739.78550,0.04953
1738.29571,0.08568
1736.80592,0.06245
1735.31614,0.06139
1733.82635,0.04754
1732.33656,0.01392
1730.84677,0.06654
1729.35698,0.00502
1727.86719,0.02507
1726.37740,0.05448
1724.88762,0.01752
1723.39783,0.01204
1721.90804,0.05551
1720.41825,0.00000
1718.92846,0.03561
1717.43867,0.01417
1715.94889,0.05101
1714.45910,0.05293
1712.96931,0.03624
1711.47952,0.03007
1709.98973,0.05887
1708.49994,0.07489
1707.01016,0.09094
1705.52037,0.10702
1704.03058,0.09167
1702.54079,0.07287
1701.05100,0.09952
1699.56121,0.08194
1698.07142,0.15875
1696.58164,0.10162
1695.09185,0.10510
1693.60206,0.11909
1692.11227,0.16457
1690.62248,0.16464
1689.13269,0.16591
1687.64291,0.19167
1686.15312,0.23494
1684.66333,0.20135
1683.17354,0.17362
1681.68375,0.17504
1680.19396,0.14038
1678.70417,0.12672
1677.21439,0.20045
1675.72460,0.17753
1674.23481,0.16862
1672.74502,0.13061
1671.25523,0.18583
1669.76544,0.15954
1668.27566,0.17288
1666.78587,0.18159
1665.29608,0.13209
1663.80629,0.16067
1662.31650,0.15666
1660.82671,0.17248
1659.33693,0.15222
1657.84714,0.13200
1656.35735,0.12345
1654.86756,0.11027
1653.37777,0.13090
1651.88798,0.10264
1650.39819,0.08490
1648.90841,0.14057
1647.41862,0.09492
1645.92883,0.09765
1644.43904,0.10041
1642.94925,0.08631
1641.45946,0.10952
1639.96968,0.12577
1638.47989,0.12806
1636.99010,0.13622
1635.50031,0.12693
1634.01052,0.09088
1632.52073,0.11543
1631.03094,0.09808
1629.54116,0.13900
1628.05137,0.13568
1626.56158,0.12424
1625.07179,0.20253
1623.58200,0.18067
1622.09221,0.16467
1620.60243,0.15801
1619.11264,0.16536
1617.62285,0.14245
1616.13306,0.15453
1614.64327,0.12586
1613.15348,0.12634
1611.66370,0.14083
1610.17391,0.14953
1608.68412,0.12681
1607.19433,0.09247
1605.70454,0.13620
1604.21475,0.13687
1602.72496,0.13756
1601.23518,0.13014
1599.74539,0.15069
1598.25560,0.13750
1596.76581,0.08473
1595.27602,0.16130
1593.78623,0.13189
1592.29645,0.13745
1590.80666,0.11742
1589.31687,0.07413
1587.82708,0.07862
1586.33729,0.08897
1584.84750,0.07605
1583.35771,0.08646
1581.86793,0.02351
1580.37814,0.04795
1578.88835,0.10738
1577.39856,0.06665
1575.90877,0.02363
1574.41898,0.04237
1572.92920,0.07163
1571.43941,0.05199
1569.94962,0.04229
1568.45983,0.03261
1566.97004,0.07946
1565.48025,0.05412
1563.99047,0.05794
1562.50068,0.01751
1561.01089,0.00508
1559.52110,0.05325
1558.03131,0.03505
1556.54152,0.10075
1555.05173,0.09426
1553.56195,0.09479
1552.07216,0.03361
1550.58237,0.03420
1549.09258,0.04880
1547.60279,0.05644
1546.11300,0.15148
1544.62322,0.13588
1543.13343,0.09818
1541.64364,0.09080
1540.15385,0.07180
1538.66406,0.05283
1537.17427,0.06883
1535.68448,0.00799
1534.19470,0.07531
1532.70491,0.02734
1531.21512,0.03764
1529.72533,0.04215
1528.23554,0.01640
1526.74575,0.00000
1525.25597,0.04981
1523.76618,0.05655
1522.27639,0.03070
1520.78660,0.04566
1519.29681,0.05016
1517.80702,0.05003
1516.31724,0.06158
1514.82745,0.04870
1513.33766,0.05740
1511.84787,0.06613
1510.35808,0.06731
1508.86829,0.05572
1507.37850,0.01852
1505.88872,0.00000
1504.39893,0.02663
1502.90914,0.01484
1501.41935,0.01591
1499.92956,0.06709
1498.43977,0.10083
1496.94999,0.05072
1495.46020,0.13578
1493.97041,0.18591
1492.48062,0.15687
1490.99083,0.21289
1489.50104,0.27826
1488.01125,0.30348
1486.52147,0.32872
1485.03168,0.43845
1483.54189,0.46667
1482.05210,0.56830
1480.56231,0.58842
1479.07252,0.67963
1477.58274,0.79301
1476.09295,0.88311
1474.60316,0.94413
1473.11337,1.02381
1471.62358,1.01267
1470.13379,0.94913
1468.64401,0.96134
1467.15422,0.85127
1465.66443,0.85131
1464.17464,0.85138
1462.68485,0.80081
1461.19506,0.74444
1459.70527,0.69976
1458.21549,0.65394
1456.72570,0.63261
1455.23591,0.56588
1453.74612,0.53180
1452.25633,0.45464
1450.76654,0.47654
1449.27676,0.39595
1447.78697,0.34685
1446.29718,0.39097
1444.80739,0.36697
1443.31760,0.34300
1441.82781,0.27771
1440.33802,0.20313
1438.84824,0.18333
1437.35845,0.15540
1435.86866,0.21022
1434.37887,0.20216
1432.88908,0.13705
1431.39929,0.15118
1429.90951,0.20844
1428.41972,0.16789
1426.92993,0.15648
1425.44014,0.19520
1423.95035,0.18211
1422.46056,0.16905
1420.97078,0.26610
1419.48099,0.22456
1417.99120,0.24362
1416.50141,0.22777
1415.01162,0.24457
1413.52183,0.23810
1412.03204,0.20719
1410.54226,0.26834
1409.05247,0.23401
1407.56268,0.25561
1406.07289,0.27142
1404.58310,0.28727
1403.09331,0.30314
1401.60353,0.28876
1400.11374,0.29188
1398.62395,0.39287
1397.13416,0.39023
1395.64437,0.42722
1394.15458,0.44561
1392.66479,0.48499
1391.17501,0.49761
1389.68522,0.44386
1388.19543,0.49731
1386.70564,0.47508
1385.21585,0.45287
1383.72606,0.40973
1382.23628,0.46913
1380.74649,0.47031
1379.25670,0.43192
1377.76691,0.45180
1376.27712,0.48103
1374.78733,0.51495
1373.29755,0.64093
1371.80776,0.66792
1370.31797,0.85803
1368.82818,0.90314
1367.33839,0.94828
1365.84860,1.13032
1364.35881,1.27745
1362.86903,1.42111
1361.37924,1.48908
1359.88945,1.44526
1358.39966,1.54824
1356.90987,1.56738
1355.42008,1.50734
1353.93030,1.48577
1352.44051,1.44851
1350.95072,1.41128
1349.46093,1.29428
1347.97114,1.10975
1346.48135,0.92874
1344.99156,0.83629
1343.50178,0.79746
1342.01199,0.69343
1340.52220,0.61622
1339.03241,0.57282
1337.54262,0.52362
1336.05283,0.51814
1334.56305,0.51269
1333.07326,0.47291
1331.58347,0.44947
1330.09368,0.36781
1328.60389,0.29084
1327.11410,0.31641
1325.62432,0.28493
1324.13453,0.32454
1322.64474,0.27449
1321.15495,0.34328
1319.66516,0.31483
1318.17537,0.28642
1316.68558,0.28308
1315.19580,0.31705
1313.70601,0.20194
1312.21622,0.28373
1310.72643,0.21994
1309.23664,0.26567
1307.74685,0.20893
1306.25707,0.20697
1304.76728,0.19397
1303.27749,0.18100
1301.78770,0.20126
1300.29791,0.19942
1298.80812,0.17664
1297.31834,0.19467
1295.82855,0.27213
1294.33876,0.20517
1292.84897,0.25241
1291.35918,0.25191
1289.86939,0.23398
1288.37960,0.21607
1286.88982,0.28905
1285.40003,0.20481
1283.91024,0.27669
1282.42045,0.25308
1280.93066,0.23881
1279.44087,0.32476
1277.95109,0.24882
1276.46130,0.28474
1274.97151,0.27876
1273.48172,0.27280
1271.99193,0.32395
1270.50214,0.39261
1269.01235,0.36228
1267.52257,0.37043
1266.03278,0.40772
1264.54299,0.41826
1263.05320,0.44396
1261.56341,0.43301
1260.07362,0.42208
1258.58384,0.38964
1257.09405,0.43061
1255.60426,0.46229
1254.11447,0.46722
1252.62468,0.36966
1251.13489,0.32921
1249.64511,0.39596
1248.15532,0.29267
1246.66553,0.25872
1245.17574,0.22480
1243.68595,0.33011
1242.19616,0.29800
1240.70637,0.27873
1239.21659,0.21523
1237.72680,0.22398
1236.23701,0.18383
1234.74722,0.20079
1233.25743,0.17469
1231.76764,0.14861
1230.27786,0.17732
1228.78807,0.14082
1227.29828,0.16143
1225.80849,0.12382
1224.31870,0.06878
1222.82891,0.09530
1221.33912,0.07876
1219.84934,0.08263
1218.35955,0.08653
1216.86976,0.12133
1215.37997,0.12121
1213.89018,0.12229
1212.40039,0.10593
1210.91061,0.10474
1209.42082,0.06048
1207.93103,0.08672
1206.44124,0.11300
1204.95145,0.07815
1203.46166,0.07595
1201.97188,0.10406
1200.48209,0.07396
1198.99230,0.05088
1197.50251,0.04414
1196.01272,0.11664
1194.52293,0.08957
1193.03314,0.06254
1191.54336,0.00000
1190.05357,0.02528
1188.56378,0.02963
1187.07399,0.06429
1185.58420,0.01394
1184.09441,0.03585
1182.60463,0.04556
1181.11484,0.05529
1179.62505,0.08079
1178.13526,0.08534
1176.64547,0.05498
1175.15568,0.10270
1173.66589,0.08638
1172.17611,0.08290
1170.68632,0.06722
1169.19653,0.05158
1167.70674,0.05867
1166.21695,0.04833
1164.72716,0.07179
1163.23738,0.04520
1161.74759,0.00000
1160.25780,0.08201
1158.76801,0.04348
1157.27822,0.00499
1155.78843,0.04050
1154.29865,0.02944
1152.80886,0.07432
1151.31907,0.02954
1149.82928,0.12225
1148.33949,0.08335
1146.84970,0.08933
1145.35991,0.09535
1143.87013,0.07401
1142.38034,0.10513
1140.89055,0.12114
1139.40076,0.13834
1137.91097,0.12878
1136.42118,0.16584
1134.93140,0.15809
1133.44161,0.15036
1131.95182,0.19101
1130.46203,0.30974
1128.97224,0.28638
1127.48245,0.30382
1125.99266,0.29567
1124.50288,0.34812
1123.01309,0.33478
1121.52330,0.32148
1120.03351,0.39149
1118.54372,0.36368
1117.05393,0.39765
1115.56415,0.37107
1114.07436,0.39460
1112.58457,0.38323
1111.09478,0.37188
1109.60499,0.38852
1108.11520,0.50188
1106.62542,0.53489
1105.13563,0.50037
1103.64584,0.60449
1102.15605,0.70865
1100.66626,0.70159
1099.17647,0.69457
1097.68668,0.68000
1096.19690,0.65265
1094.70711,0.70337
1093.21732,0.77393
1091.72753,0.81889
1090.23774,0.83534
1088.74795,0.85183
1087.25817,0.87475
1085.76838,0.91284
1084.27859,0.96145
1082.78880,0.94835
1081.29901,0.97954
1079.80922,0.92922
1078.31943,1.03270
1076.82965,1.13621
1075.33986,1.11394
1073.85007,1.24430
1072.36028,1.15453
1070.87049,1.19991
1069.38070,1.19524
1067.89092,1.19933
1066.40113,1.20346
1064.91134,1.11151
1063.42155,1.10695
1061.93176,1.01157
1060.44197,0.93369
1058.95219,0.91641
1057.46240,0.86538
1055.97261,0.81439
1054.48282,0.68071
1052.99303,0.69967
1051.50324,0.63828
1050.01345,0.49421
1048.52367,0.48763
1047.03388,0.50030
1045.54409,0.51300
1044.05430,0.48671
1042.56451,0.40220
1041.07472,0.41325
1039.58494,0.34977
1038.09515,0.26419
1036.60536,0.28581
1035.11557,0.30746
1033.62578,0.21498
1032.13599,0.27513
1030.64620,0.22814
1029.15642,0.28835
1027.66663,0.32297
1026.17684,0.35761
1024.68705,0.44121
1023.19726,0.50038
1021.70747,0.68306
1020.21769,0.83664
1018.72790,0.99258
1017.23811,1.15030
1015.74832,1.30806
1014.25853,1.44429
1012.76874,1.56308
1011.27896,1.70752
1009.78917,1.79492
1008.29938,2.00000
1006.80959,1.93952
1005.31980,1.87907
1003.83001,1.70915
1002.34022,1.68254
1000.85044,1.66062
999.36065,1.38711
997.87086,1.36467
996.38107,1.34226
994.89128,1.34492
993.40149,1.33713
991.91171,1.24783
990.42192,1.27272
988.93213,1.24638
987.44234,1.20144
985.95255,1.15652
984.46276,1.13377
982.97297,1.10056
981.48319,1.06972
979.99340,1.01560
978.50361,1.02326
977.01382,1.03095
975.52403,0.94897
974.03424,0.81111
972.54446,0.79442
971.05467,0.79174
969.56488,0.78793
968.07509,0.77600
966.58530,0.76409
965.09551,0.69980
963.60573,0.61573
962.11594,0.69478
960.62615,0.56185
959.13636,0.54660
957.64657,0.53138
956.15678,0.52202
954.66699,0.47658
953.17721,0.50338
951.68742,0.50576
950.19763,0.50351
948.70784,0.50129
947.21805,0.50142
945.72826,0.50742
944.23848,0.46568
942.74869,0.53813
941.25890,0.49412
939.76911,0.55382
938.27932,0.61355
936.78953,0.57895
935.29974,0.56186
933.80996,0.54596
932.32017,0.68269
930.83038,0.67152
929.34059,0.66037
927.85080,0.58052
926.36101,0.53216
924.87123,0.58517
923.38144,0.53454
921.89165,0.55791
920.40186,0.58130
918.91207,0.56571
917.42228,0.56296
915.93250,0.57421
914.44271,0.54706
912.95292,0.55139
911.46313,0.55575
909.97334,0.50073
908.48355,0.51214
906.99376,0.55852
905.50398,0.52922
904.01419,0.51684
902.52440,0.50449
901.03461,0.52537
899.54482,0.52997
898.05503,0.57188
896.56525,0.60100
895.07546,0.62375
893.58567,0.64653
892.09588,0.59537
890.60609,0.60481
889.11630,0.62710
887.62651,0.66921
886.13673,0.65254
884.64694,0.63589
883.15715,0.62918
881.66736,0.57473
880.17757,0.63564
878.68778,0.64533
877.19800,0.65504
875.70821,0.71138
874.21842,0.74329
872.72863,0.76008
871.23884,0.83166
869.74905,0.81648
868.25927,0.80133
866.76948,0.80077
865.27969,0.80957
863.78990,0.92439
862.30011,0.82142
860.81032,0.80001
859.32053,0.77864
857.83075,0.76778
856.34096,0.71268
854.85117,0.84517
853.36138,0.62122
851.87159,0.63378
850.38180,0.64637
848.89202,0.51455
847.40223,0.37926
845.91244,0.28477
844.42265,0.32427
842.93286,0.36380
841.44307,0.29387
839.95329,0.28803
838.46350,0.23680
836.97371,0.29043
835.48392,0.27595
833.99413,0.26149
832.50434,0.26396
831.01455,0.26180
829.52477,0.24220
828.03498,0.22496
826.54519,0.21240
825.05540,0.19988
823.56561,0.16875
822.07582,0.18191
820.58604,0.18229
819.09625,0.12446
817.60646,0.06666
816.11667,0.04849
814.62688,0.06181
813.13709,0.06584
811.64730,0.00000
810.15752,0.02502
808.66773,0.05008
807.17794,0.01983
805.68815,0.09095
804.19836,0.05610
802.70857,0.11972
801.21879,0.18336
799.72900,0.12764
798.23921,0.20125
796.74942,0.32497
795.25963,0.34913
793.76984,0.37332
792.28006,0.33522
790.79027,0.42296
789.30048,0.56198
787.81069,0.56125
786.32090,0.54132
784.83111,0.52143
783.34132,0.54059
781.85154,0.57842
780.36175,0.66986
778.87196,0.66465
777.38217,0.65947
775.89238,0.67063
774.40259,0.71094
772.91281,0.70468
771.42302,0.71185
769.93323,0.71905
768.44344,0.72454
766.95365,0.73704
765.46386,0.69949
763.97407,0.70157
762.48429,0.64835
760.99450,0.59516
759.50471,0.46104
758.01492,0.42829
756.52513,0.38276
755.03534,0.35124
753.54556,0.31976
752.05577,0.23122
750.56598,0.18115
749.07619,0.09966
747.58640,0.11605
746.09661,0.13248
744.60683,0.07088
743.11704,0.00000
741.62725,0.06269
740.13746,0.05319
738.64767,0.04372
737.15788,0.04476
735.66809,0.02836
734.17831,0.03995
732.68852,0.04691
731.19873,0.05390
729.70894,0.01316
728.21915,0.01788
726.72936,0.10184
725.23958,0.00994
723.74979,0.04445
722.26000,0.07900
720.77021,0.08387
719.28042,0.08994
717.79063,0.04594
716.30084,0.04333
714.81106,0.04075
713.32127,0.01083
711.83148,0.09393
710.34169,0.00000
708.85190,0.01785
707.36211,0.03573
705.87233,0.03792
704.38254,0.05179
702.89275,0.04937
701.40296,0.07029
699.91317,0.09124
698.42338,0.12969
696.93360,0.17516
695.44381,0.15542
693.95402,0.18522
692.46423,0.21506
690.97444,0.20706
689.48465,0.17930
687.99486,0.15855
686.50508,0.19142
685.01529,0.22431
683.52550,0.28753
682.03571,0.22963
680.54592,0.21835
679.05613,0.23273
677.56635,0.24714
676.07656,0.21848
674.58677,0.13860
673.09698,0.19503
671.60719,0.18044
670.11740,0.16588
668.62761,0.14087
667.13783,0.12987
665.64804,0.12646
664.15825,0.12309
662.66846,0.10985
661.17867,0.08498
659.68888,0.11257
658.19910,0.10874
656.70931,0.10493
655.21952,0.14426
653.72973,0.19527
652.23994,0.12166
650.75015,0.13604
649.26037,0.15044
647.77058,0.14216
646.28079,0.08382
644.79100,0.13384
643.30121,0.13555
641.81142,0.13729
640.32163,0.16178
638.83185,0.10126
637.34206,0.00000
635.85227,0.02327
634.36248,0.04658
632.87269,0.08797
631.38290,0.03853
629.89312,0.07183
628.40333,0.06846
626.91354,0.06512
625.42375,0.08220
623.93396,0.17503
622.44417,0.14441
620.95438,0.11382
619.46460,0.00521
617.97481,0.14941
616.48502,0.18997
614.99523,0.16766
613.50544,0.14537
612.01565,0.10448
610.52587,0.10905
609.03608,0.08452
607.54629,0.12585
606.05650,0.16720
604.56671,0.20101
603.07692,0.17078
601.58714,0.16971
600.09735,0.16867
598.60756,0.14435
597.11777,0.15968
595.62798,0.13776
594.13819,0.11761
592.64840,0.09750
591.15862,0.13158
589.66883,0.13890
588.17904,0.13228
586.68925,0.13791
585.19946,0.14358
583.70967,0.13122
582.21989,0.17946
580.73010,0.17357
579.24031,0.16771
577.75052,0.19507
576.26073,0.18054
574.77094,0.18467
573.28115,0.22028
571.79137,0.25592
570.30158,0.22519
568.81179,0.33545
567.32200,0.31294
565.83221,0.29046
564.34242,0.32392
562.85264,0.36790
561.36285,0.43753
559.87306,0.44896
558.38327,0.46041
556.89348,0.58023
555.40369,0.53932
553.91391,0.53980
552.42412,0.54030
550.93433,0.62762
549.44454,0.61363
547.95475,0.60433
546.46496,0.61427
544.97517,0.62425
543.48539,0.69075
541.99560,0.78758
540.50581,0.75979
539.01602,0.73203
537.52623,0.68799
536.03644,0.63932
534.54666,0.60350
533.05687,0.64808
531.56708,0.69269
530.07729,0.62434
528.58750,0.60029
527.09771,0.55413
525.60792,0.50801
524.11814,0.44211
522.62835,0.37275
521.13856,0.40126
519.64877,0.39137
518.15898,0.38151
516.66919,0.36469
515.17941,0.30596
513.68962,0.34162
512.19983,0.37730
510.71004,0.30818
509.22025,0.31015
507.73046,0.33778
506.24068,0.34388
504.75089,0.35002
503.26110,0.39753
501.77131,0.36471
500.28152,0.32434
498.79173,0.28400
497.30194,0.27572
495.81216,0.28845
494.32237,0.33848
492.83258,0.38854
491.34279,0.37573
489.85300,0.34430
488.36321,0.36883
486.87343,0.30543
485.38364,0.24207
483.89385,0.27484
482.40406,0.25522
480.91427,0.19136
479.42448,0.12754
477.93469,0.13363
476.44491,0.14908
474.95512,0.11447
473.46533,0.07989
471.97554,0.14085
470.48575,0.05624
468.99596,0.11378
467.50618,0.10844
466.01639,0.10313
464.52660,0.00000
463.03681,0.09129
461.54702,0.12728
460.05723,0.16330
458.56745,0.11838
457.07766,0.08981
455.58787,0.13932
454.09808,0.18885
452.60829,0.12659
451.11850,0.14590
449.62871,0.20077
448.13893,0.25566
446.64914,0.25759
445.15935,0.43544
443.66956,0.44908
442.17977,0.42722
440.68998,0.40538
439.20020,0.52745
437.71041,0.61343
436.22062,0.63245
434.73083,0.65151
433.24104,0.79699
431.75125,0.91455
430.26146,0.95292
428.77168,0.99132
427.28189,1.01228
425.79210,1.10432
424.30231,1.10728
422.81252,1.11028
421.32273,1.24552
419.83295,1.17576
418.34316,1.13167
416.85337,1.08761
415.36358,0.87467
413.87379,0.72699
412.38400,0.64691
410.89422,0.56685
409.40443,0.58701
407.91464,0.63515
406.42485,0.56334
404.93506,0.54049
403.44527,0.51767
401.95548,0.44246
400.46570,0.52453
398.97591,0.49073
397.48612,0.45697
395.99633,0.48322
394.50654,0.44777
393.01675,0.45719
391.52697,0.46664
390.03718,0.39284
388.54739,0.37032
387.05760,0.40491
385.56781,0.43952
384.07802,0.42525
382.58824,0.44945
381.09845,0.39330
379.60866,0.33717
378.11887,0.28691
376.62908,0.26696
375.13929,0.27267
373.64950,0.27841
372.15972,0.22244
370.66993,0.25270
369.18014,0.21427
367.69035,0.17586
366.20056,0.19690
364.71077,0.23078
363.22099,0.20761
361.73120,0.18447
360.24141,0.18116
358.75162,0.17322
357.26183,0.17289
355.77204,0.17259
354.28225,0.12746
352.79247,0.17556
351.30268,0.10662
349.81289,0.03771
348.32310,0.13791
346.83331,0.18105
345.34352,0.16599
343.85374,0.15095
342.36395,0.15225
340.87416,0.14194
339.38437,0.09612
337.89458,0.05034
336.40479,0.15555
334.91501,0.16410
333.42522,0.16045
331.93543,0.15683
330.44564,0.15382
328.95585,0.21025
327.46606,0.13742
325.97627,0.06461
324.48649,0.14992
322.99670,0.08382
321.50691,0.11910
320.01712,0.15441
318.52733,0.20141
317.03754,0.22629
315.54776,0.23432
314.05797,0.24238
312.56818,0.16718
311.07839,0.09550
309.58860,0.04774
308.09881,0.00000
306.60902,0.09302
305.11924,0.06143
303.62945,0.04442
302.13966,0.01638
300.64987,0.05070
299.16008,0.00000
