1778.52000,0.03295
1777.03021,0.03048
1775.54042,0.06000
1774.05063,0.00718
1772.56085,0.02824
1771.07106,0.02234
1769.58127,0.03565
1768.09148,0.03621
1766.60169,0.03680
1765.11190,0.03103
1763.62212,0.02955
1762.13233,0.05650
1760.64254,0.04514
1759.15275,0.02529
1757.66296,0.03458
1756.17317,0.03041
1754.68339,0.00781
1753.19360,0.03565
1751.70381,0.01382
1750.21402,0.02966
1748.72423,0.00718
1747.23444,0.03952
1745.74465,0.02289
1744.25487,0.01552
1742.76508,0.05505
1741.27529,0.03922
1739.78550,0.05112
1738.29571,0.02612
1736.80592,0.02743
1735.31614,0.01811
1733.82635,0.01451
1732.33656,0.03579
1730.84677,0.02301
1729.35698,0.00956
1727.86719,0.03164
1726.37740,0.03387
1724.88762,0.03187
1723.39783,0.00718
1721.90804,0.02025
1720.41825,0.02767
1718.92846,0.01097
1717.43867,0.03256
1715.94889,0.04210
1714.45910,0.03179
1712.96931,0.06198
1711.47952,0.03327
1709.98973,0.04577
1708.49994,0.00718
1707.01016,0.03679
1705.52037,0.06643
1704.03058,0.03468
1702.54079,0.03775
1701.05100,0.05364
1699.56121,0.07381
1698.07142,0.10467
1696.58164,0.09012
1695.09185,0.10754
1693.60206,0.13210
1692.11227,0.10698
1690.62248,0.10391
1689.13269,0.11152
1687.64291,0.13194
1686.15312,0.15239
1684.66333,0.15228
1683.17354,0.16072
1681.68375,0.13794
1680.19396,0.13863
1678.70417,0.14361
1677.21439,0.10886
1675.72460,0.17355
1674.23481,0.13460
1672.74502,0.13757
1671.25523,0.15265
1669.76544,0.16349
1668.27566,0.16016
1666.78587,0.14479
1665.29608,0.10886
1663.80629,0.12054
1662.31650,0.13509
1660.82671,0.10848
1659.33693,0.11599
1657.84714,0.15193
1656.35735,0.14033
1654.86756,0.10106
1653.37777,0.11579
1651.88798,0.08297
1650.39819,0.10629
1648.90841,0.11685
1647.41862,0.08270
1645.92883,0.07877
1644.43904,0.07486
1642.94925,0.08910
1641.45946,0.08206
1639.96968,0.10559
1638.47989,0.11778
1636.99010,0.16126
1635.50031,0.10676
1634.01052,0.10413
1632.52073,0.12710
1631.03094,0.13164
1629.54116,0.10212
1628.05137,0.08613
1626.56158,0.13549
1625.07179,0.16075
1623.58200,0.17112
1622.09221,0.14317
1620.60243,0.17278
1619.11264,0.14205
1617.62285,0.14260
1616.13306,0.15668
1614.64327,0.10900
1613.15348,0.13947
1611.66370,0.13233
1610.17391,0.13303
1608.68412,0.12027
1607.19433,0.12743
1605.70454,0.12609
1604.21475,0.14076
1602.72496,0.15547
1601.23518,0.14144
1599.74539,0.14804
1598.25560,0.11348
1596.76581,0.12440
1595.27602,0.07357
1593.78623,0.10230
1592.29645,0.08988
1590.80666,0.08814
1589.31687,0.07506
1587.82708,0.05776
1586.33729,0.09517
1584.84750,0.08716
1583.35771,0.04865
1581.86793,0.04993
1580.37814,0.08107
1578.88835,0.07744
1577.39856,0.08095
1575.90877,0.03832
1574.41898,0.02626
1572.92920,0.05258
1571.43941,0.03278
1569.94962,0.03146
1568.45983,0.03018
1566.97004,0.02112
1565.48025,0.03694
1563.99047,0.05492
1562.50068,0.04027
1561.01089,0.00718
1559.52110,0.04719
1558.03131,0.06593
1556.54152,0.00942
1555.05173,0.05423
1553.56195,0.10049
1552.07216,0.07080
1550.58237,0.07096
1549.09258,0.05056
1547.60279,0.04794
1546.11300,0.05529
1544.62322,0.09676
1543.13343,0.05944
1541.64364,0.05694
1540.15385,0.04915
1538.66406,0.04139
1537.17427,0.01981
1535.68448,0.02667
1534.19470,0.03640
1532.70491,0.00000
1531.21512,0.01062
1529.72533,0.01560
1528.23554,0.00995
1526.74575,0.02138
1525.25597,0.02715
1523.76618,0.02230
1522.27639,0.03950
1520.78660,0.01270
1519.29681,0.02144
1517.80702,0.03163
1516.31724,0.03191
1514.82745,0.02724
1513.33766,0.01729
1511.84787,0.00736
1510.35808,0.01069
1508.86829,0.05169
1507.37850,0.04727
1505.88872,0.01519
1504.39893,0.02290
1502.90914,0.03775
1501.41935,0.00718
1499.92956,0.02589
1498.43977,0.06025
1496.94999,0.10174
1495.46020,0.10066
1493.97041,0.16351
1492.48062,0.20581
1490.99083,0.23890
1489.50104,0.33097
1488.01125,0.34672
1486.52147,0.36251
1485.03168,0.41987
1483.54189,0.48365
1482.05210,0.57729
1480.56231,0.68516
1479.07252,0.74762
1477.58274,0.78099
1476.09295,0.88966
1474.60316,0.89610
1473.11337,0.95158
1471.62358,0.98294
1470.13379,1.01788
1468.64401,0.97828
1467.15422,0.90819
1465.66443,0.89848
1464.17464,0.88880
1462.68485,0.82093
1461.19506,0.79143
1459.70527,0.72148
1458.21549,0.67926
1456.72570,0.62571
1455.23591,0.60272
1453.74612,0.50023
1452.25633,0.48228
1450.76654,0.39050
1449.27676,0.34704
1447.78697,0.36753
1446.29718,0.35609
1444.80739,0.33118
1443.31760,0.30631
1441.82781,0.25520
1440.33802,0.25950
1438.84824,0.19069
1437.35845,0.18228
1435.86866,0.14264
1434.37887,0.13074
1432.88908,0.15224
1431.39929,0.15033
1429.90951,0.12076
1428.41972,0.11466
1426.92993,0.16327
1425.44014,0.15510
1423.95035,0.17465
1422.46056,0.19423
1420.97078,0.14070
1419.48099,0.20509
1417.99120,0.19920
1416.50141,0.23524
1415.01162,0.22231
1413.52183,0.22432
1412.03204,0.19086
1410.54226,0.17589
1409.05247,0.19717
1407.56268,0.20356
1406.07289,0.20715
1404.58310,0.18911
1403.09331,0.17109
1401.60353,0.23655
1400.11374,0.31341
1398.62395,0.34200
1397.13416,0.35287
1395.64437,0.36448
1394.15458,0.41021
1392.66479,0.40768
1391.17501,0.35547
1389.68522,0.44674
1388.19543,0.46773
1386.70564,0.45254
1385.21585,0.43738
1383.72606,0.50534
1382.23628,0.43627
1380.74649,0.43469
1379.25670,0.43102
1377.76691,0.42382
1376.27712,0.45997
1374.78733,0.51959
1373.29755,0.58350
1371.80776,0.68224
1370.31797,0.86125
1368.82818,0.90536
1367.33839,0.94951
1365.84860,1.20886
1364.35881,1.34468
1362.86903,1.51106
1361.37924,1.59581
1359.88945,1.58685
1358.39966,1.59283
1356.90987,1.71318
1355.42008,1.60915
1353.93030,1.61451
1352.44051,1.49954
1350.95072,1.38459
1349.46093,1.22601
1347.97114,1.13278
1346.48135,0.97923
1344.99156,0.84630
1343.50178,0.85187
1342.01199,0.66148
1340.52220,0.60321
1339.03241,0.47040
1337.54262,0.47681
1336.05283,0.45911
1334.56305,0.44143
1333.07326,0.44083
1331.58347,0.41896
1330.09368,0.39285
1328.60389,0.32701
1327.11410,0.24487
1325.62432,0.25223
1324.13453,0.22625
1322.64474,0.27060
1321.15495,0.26740
1319.66516,0.24719
1318.17537,0.22701
1316.68558,0.20900
1315.19580,0.22154
1313.70601,0.18086
1312.21622,0.16152
1310.72643,0.16279
1309.23664,0.19464
1307.74685,0.18319
1306.25707,0.18598
1304.76728,0.17709
1303.27749,0.16822
1301.78770,0.16968
1300.29791,0.18821
1298.80812,0.19968
1297.31834,0.19200
1295.82855,0.18009
1294.33876,0.20514
1292.84897,0.22666
1291.35918,0.20419
1289.86939,0.22223
1288.37960,0.24030
1286.88982,0.21508
1285.40003,0.26161
1283.91024,0.26912
1282.42045,0.27311
1280.93066,0.27855
1279.44087,0.26839
1277.95109,0.28170
1276.46130,0.27587
1274.97151,0.27859
1273.48172,0.28134
1271.99193,0.28838
1270.50214,0.34588
1269.01235,0.35511
1267.52257,0.38923
1266.03278,0.40704
1264.54299,0.41637
1263.05320,0.44845
1261.56341,0.46636
1260.07362,0.48429
1258.58384,0.45965
1257.09405,0.43646
1255.60426,0.48716
1254.11447,0.45977
1252.62468,0.45798
1251.13489,0.39230
1249.64511,0.36926
1248.15532,0.34768
1246.66553,0.32754
1245.17574,0.30744
1243.68595,0.27955
1242.19616,0.26732
1240.70637,0.26293
1239.21659,0.22733
1237.72680,0.21234
1236.23701,0.21941
1234.74722,0.16969
1233.25743,0.17930
1231.76764,0.18894
1230.27786,0.18192
1228.78807,0.12026
1227.29828,0.14881
1225.80849,0.13478
1224.31870,0.08031
1222.82891,0.09404
1221.33912,0.10424
1219.84934,0.11306
1218.35955,0.12191
1216.86976,0.07824
1215.37997,0.12479
1213.89018,0.10604
1212.40039,0.08874
1210.91061,0.07359
1209.42082,0.09754
1207.93103,0.08068
1206.44124,0.06386
1204.95145,0.05523
1203.46166,0.06012
1201.97188,0.07428
1200.48209,0.10054
1198.99230,0.12257
1197.50251,0.09066
1196.01272,0.07866
1194.52293,0.04290
1193.03314,0.00718
1191.54336,0.07909
1190.05357,0.02391
1188.56378,0.02841
1187.07399,0.00881
1185.58420,0.01677
1184.09441,0.00913
1182.60463,0.03516
1181.11484,0.06122
1179.62505,0.02162
1178.13526,0.06940
1176.64547,0.05613
1175.15568,0.05497
1173.66589,0.08935
1172.17611,0.11097
1170.68632,0.07972
1169.19653,0.04850
1167.70674,0.03826
1166.21695,0.05930
1164.72716,0.04912
1163.23738,0.01625
1161.74759,0.02530
1160.25780,0.00740
1158.76801,0.01038
1157.27822,0.01338
1155.78843,0.00718
1154.29865,0.06473
1152.80886,0.06053
1151.31907,0.07624
1149.82928,0.05648
1148.33949,0.11132
1146.84970,0.13138
1145.35991,0.15148
1143.87013,0.11764
1142.38034,0.09448
1140.89055,0.08839
1139.40076,0.16755
1137.91097,0.16508
1136.42118,0.21944
1134.93140,0.23585
1133.44161,0.25228
1131.95182,0.24567
1130.46203,0.31862
1128.97224,0.28793
1127.48245,0.31194
1125.99266,0.31823
1124.50288,0.35154
1123.01309,0.36570
1121.52330,0.37989
1120.03351,0.37353
1118.54372,0.45453
1117.05393,0.48444
1115.56415,0.45473
1114.07436,0.44351
1112.58457,0.43161
1111.09478,0.41974
1109.60499,0.48531
1108.11520,0.56938
1106.62542,0.54411
1105.13563,0.53307
1103.64584,0.65770
1102.15605,0.75325
1100.66626,0.74408
1099.17647,0.73494
1097.68668,0.79010
1096.19690,0.80695
1094.70711,0.82879
1093.21732,0.82226
1091.72753,0.90950
1090.23774,0.92220
1088.74795,0.93494
1087.25817,0.95267
1085.76838,0.96476
1084.27859,0.96267
1082.78880,1.11756
1081.29901,1.14749
1079.80922,1.12916
1078.31943,1.11867
1076.82965,1.10822
1075.33986,1.22988
1073.85007,1.31393
1072.36028,1.28866
1070.87049,1.28471
1069.38070,1.39087
1067.89092,1.38983
1066.40113,1.38882
1064.91134,1.30689
1063.42155,1.17385
1061.93176,1.10689
1060.44197,1.07191
1058.95219,1.00075
1057.46240,0.95767
1055.97261,0.91462
1054.48282,0.84355
1052.99303,0.76683
1051.50324,0.71215
1050.01345,0.62555
1048.52367,0.57519
1047.03388,0.58843
1045.54409,0.60169
1044.05430,0.54078
1042.56451,0.52392
1041.07472,0.41833
1039.58494,0.36319
1038.09515,0.34287
1036.60536,0.31052
1035.11557,0.27819
1033.62578,0.24163
1032.13599,0.27328
1030.64620,0.30851
1029.15642,0.38425
1027.66663,0.37622
1026.17684,0.36822
1024.68705,0.41990
1023.19726,0.52417
1021.70747,0.66752
1020.21769,0.95719
1018.72790,1.10629
1017.23811,1.23908
1015.74832,1.37190
1014.25853,1.59423
1012.76874,1.75695
1011.27896,1.84015
1009.78917,1.97523
1008.29938,1.96120
1006.80959,1.98059
1005.31980,2.00000
1003.83001,1.91647
1002.34022,1.72220
1000.85044,1.77792
999.36065,1.63696
997.87086,1.58019
996.38107,1.52345
994.89128,1.55231
993.40149,1.50237
991.91171,1.46170
990.42192,1.46863
988.93213,1.47844
987.44234,1.47443
985.95255,1.47045
984.46276,1.47609
982.97297,1.43844
981.48319,1.37668
979.99340,1.27091
978.50361,1.22838
977.01382,1.18589
975.52403,1.19526
974.03424,1.15140
972.54446,1.06709
971.05467,0.99418
969.56488,1.00225
968.07509,0.94361
966.58530,0.88499
965.09551,0.84628
963.60573,0.82678
962.11594,0.81726
960.62615,0.78077
959.13636,0.74823
957.64657,0.71571
956.15678,0.67080
954.66699,0.56840
953.17721,0.59030
951.68742,0.59803
950.19763,0.58448
948.70784,0.57097
947.21805,0.58660
945.72826,0.55327
944.23848,0.62151
942.74869,0.62871
941.25890,0.59121
939.76911,0.63043
938.27932,0.66968
936.78953,0.69902
935.29974,0.69714
933.80996,0.72441
932.32017,0.73325
930.83038,0.74424
929.34059,0.75527
927.85080,0.69745
926.36101,0.75398
924.87123,0.71042
923.38144,0.63919
921.89165,0.65996
920.40186,0.68076
918.91207,0.57909
917.42228,0.65853
915.93250,0.60521
914.44271,0.63430
912.95292,0.64495
911.46313,0.65564
909.97334,0.59960
908.48355,0.70479
906.99376,0.67367
905.50398,0.65110
904.01419,0.65448
902.52440,0.65789
901.03461,0.70713
899.54482,0.69747
898.05503,0.64380
896.56525,0.65550
895.07546,0.65303
893.58567,0.65058
892.09588,0.67942
890.60609,0.75160
889.11630,0.72439
887.62651,0.71923
886.13673,0.73221
884.64694,0.74522
883.15715,0.73731
881.66736,0.69676
880.17757,0.71732
878.68778,0.77767
877.19800,0.83806
875.70821,0.73798
874.21842,0.83109
872.72863,0.87666
871.23884,0.97835
869.74905,1.00622
868.25927,1.03412
866.76948,1.02158
865.27969,0.94586
863.78990,0.98238
862.30011,1.03241
860.81032,1.00082
859.32053,0.96925
857.83075,0.97890
856.34096,0.96586
854.85117,0.92515
853.36138,0.78434
851.87159,0.75683
850.38180,0.72936
848.89202,0.65255
847.40223,0.46287
845.91244,0.39820
844.42265,0.38682
842.93286,0.37547
841.44307,0.31871
839.95329,0.33370
838.46350,0.30256
836.97371,0.28423
835.48392,0.30321
833.99413,0.32223
832.50434,0.28340
831.01455,0.27514
829.52477,0.28253
828.03498,0.26580
826.54519,0.25089
825.05540,0.23600
823.56561,0.20303
822.07582,0.20987
820.58604,0.18193
819.09625,0.15687
817.60646,0.13184
816.11667,0.04292
814.62688,0.06624
813.13709,0.03136
811.64730,0.03557
810.15752,0.02773
808.66773,0.01992
807.17794,0.00718
805.68815,0.03626
804.19836,0.08952
802.70857,0.10091
801.21879,0.11233
799.72900,0.15503
798.23921,0.21551
796.74942,0.39178
795.25963,0.41539
793.76984,0.43904
792.28006,0.47621
790.79027,0.54607
789.30048,0.50519
787.81069,0.55878
786.32090,0.57513
784.83111,0.59150
783.34132,0.65086
781.85154,0.69109
780.36175,0.72353
778.87196,0.70416
777.38217,0.68483
775.89238,0.70458
774.40259,0.79111
772.91281,0.84004
771.42302,0.84746
769.93323,0.85490
768.44344,0.83220
766.95365,0.77188
765.46386,0.76273
763.97407,0.75219
762.48429,0.72322
760.99450,0.69428
759.50471,0.58086
758.01492,0.44758
756.52513,0.41092
755.03534,0.38139
753.54556,0.35189
752.05577,0.23862
750.56598,0.21202
749.07619,0.13645
747.58640,0.13051
746.09661,0.12459
744.60683,0.07042
743.11704,0.03900
741.62725,0.07792
740.13746,0.07816
738.64767,0.07844
737.15788,0.08052
735.66809,0.05778
734.17831,0.03293
732.68852,0.05144
731.19873,0.06997
729.70894,0.05729
728.21915,0.04678
726.72936,0.03700
725.23958,0.09471
723.74979,0.08003
722.26000,0.06537
720.77021,0.08838
719.28042,0.14053
717.79063,0.13236
716.30084,0.10930
714.81106,0.08628
713.32127,0.00718
711.83148,0.04120
710.34169,0.07383
708.85190,0.03939
707.36211,0.00497
705.87233,0.05905
704.38254,0.11032
702.89275,0.08705
701.40296,0.11778
699.91317,0.14854
698.42338,0.17649
696.93360,0.16613
695.44381,0.18846
693.95402,0.19662
692.46423,0.20481
690.97444,0.18108
689.48465,0.20211
687.99486,0.21749
686.50508,0.23859
685.01529,0.25971
683.52550,0.29436
682.03571,0.30490
680.54592,0.22456
679.05613,0.23729
677.56635,0.25005
676.07656,0.24224
674.58677,0.17197
673.09698,0.12730
671.60719,0.14586
670.11740,0.16445
668.62761,0.12909
667.13783,0.13425
665.64804,0.11601
664.15825,0.09779
662.66846,0.12009
661.17867,0.08986
659.68888,0.05966
658.19910,0.06252
656.70931,0.06540
655.21952,0.11484
653.72973,0.10252
652.23994,0.15343
650.75015,0.15395
649.26037,0.15450
647.77058,0.18278
646.28079,0.13369
644.79100,0.04983
643.30121,0.02849
641.81142,0.00718
640.32163,0.03062
638.83185,0.02426
637.34206,0.05060
635.85227,0.04218
634.36248,0.03378
632.87269,0.03678
631.38290,0.05898
629.89312,0.04997
628.40333,0.02856
626.91354,0.00718
625.42375,0.04214
623.93396,0.02032
622.44417,0.07168
620.95438,0.12307
619.46460,0.04737
617.97481,0.10024
616.48502,0.10414
614.99523,0.10807
613.50544,0.11203
612.01565,0.14300
610.52587,0.10228
609.03608,0.16244
607.54629,0.14379
606.05650,0.12518
604.56671,0.15702
603.07692,0.18179
601.58714,0.17179
600.09735,0.16182
598.60756,0.11709
597.11777,0.09724
595.62798,0.10441
594.13819,0.10237
592.64840,0.10037
591.15862,0.11970
589.66883,0.11491
588.17904,0.12791
586.68925,0.11254
585.19946,0.09720
583.70967,0.09893
582.21989,0.15750
580.73010,0.15609
579.24031,0.15472
577.75052,0.19421
576.26073,0.18686
574.77094,0.19658
573.28115,0.20953
571.79137,0.22251
570.30158,0.26144
568.81179,0.28975
567.32200,0.32555
565.83221,0.36138
564.34242,0.36635
562.85264,0.41750
561.36285,0.48076
559.87306,0.47233
558.38327,0.46392
556.89348,0.52870
555.40369,0.58355
553.91391,0.59619
552.42412,0.60886
550.93433,0.63398
549.44454,0.66056
547.95475,0.66657
546.46496,0.66480
544.97517,0.66307
543.48539,0.69332
541.99560,0.71081
540.50581,0.72585
539.01602,0.74093
537.52623,0.68892
536.03644,0.68666
534.54666,0.63116
533.05687,0.63783
531.56708,0.64454
530.07729,0.58132
528.58750,0.57921
527.09771,0.56683
525.60792,0.55448
524.11814,0.50701
522.62835,0.45389
521.13856,0.41571
519.64877,0.39674
518.15898,0.37780
516.66919,0.39652
515.17941,0.30166
513.68962,0.29701
512.19983,0.29239
510.71004,0.32899
509.22025,0.31520
507.73046,0.34902
506.24068,0.36761
504.75089,0.38622
503.26110,0.40664
501.77131,0.40082
500.28152,0.40887
498.79173,0.41696
497.30194,0.39134
495.81216,0.38919
494.32237,0.40234
492.83258,0.41551
491.34279,0.38008
489.85300,0.37734
488.36321,0.26598
486.87343,0.26791
485.38364,0.26988
483.89385,0.23531
482.40406,0.18443
480.91427,0.16980
479.42448,0.15520
477.93469,0.09874
476.44491,0.06786
474.95512,0.07644
473.46533,0.08504
471.97554,0.02372
470.48575,0.00718
468.99596,0.07248
467.50618,0.07211
466.01639,0.07178
464.52660,0.00366
463.03681,0.00309
461.54702,0.02812
460.05723,0.05318
458.56745,0.08395
457.07766,0.06290
455.58787,0.10616
454.09808,0.14945
452.60829,0.17537
451.11850,0.12888
449.62871,0.15486
448.13893,0.18087
446.64914,0.25236
445.15935,0.38496
443.66956,0.43023
442.17977,0.45104
440.68998,0.47188
439.20020,0.56554
437.71041,0.66348
436.22062,0.69222
434.73083,0.72100
433.24104,0.86093
431.75125,0.95261
430.26146,1.01769
428.77168,1.08280
427.28189,1.17599
425.79210,1.25785
424.30231,1.23109
422.81252,1.20436
421.32273,1.18263
419.83295,1.10270
418.34316,1.03949
416.85337,0.97631
415.36358,0.83682
413.87379,0.79749
412.38400,0.73795
410.89422,0.67844
409.40443,0.69317
407.91464,0.64331
406.42485,0.61194
404.93506,0.56889
403.44527,0.52587
401.95548,0.46547
400.46570,0.42855
398.97591,0.44704
397.48612,0.46557
395.99633,0.44649
394.50654,0.43028
393.01675,0.46488
391.52697,0.49950
390.03718,0.42231
388.54739,0.34302
387.05760,0.31560
385.56781,0.28822
384.07802,0.32974
382.58824,0.43379
381.09845,0.36388
379.60866,0.29401
378.11887,0.27032
376.62908,0.22039
375.13929,0.23512
373.64950,0.24987
372.15972,0.16452
370.66993,0.08489
369.18014,0.06387
367.69035,0.04289
366.20056,0.04430
364.71077,0.06705
363.22099,0.08308
361.73120,0.09914
360.24141,0.13476
358.75162,0.06461
357.26183,0.09212
355.77204,0.11967
354.28225,0.08724
352.79247,0.02928
351.30268,0.01821
349.81289,0.00718
348.32310,0.00745
346.83331,0.05007
345.34352,0.06078
343.85374,0.07151
342.36395,0.06381
340.87416,0.07744
339.38437,0.05559
337.89458,0.03378
336.40479,0.08443
334.91501,0.06197
333.42522,0.06688
331.93543,0.07182
330.44564,0.07430
328.95585,0.05906
327.46606,0.08504
325.97627,0.11105
324.48649,0.01779
322.99670,0.03180
321.50691,0.04833
320.01712,0.06488
318.52733,0.06762
317.03754,0.07749
315.54776,0.11509
314.05797,0.15272
312.56818,0.13569
311.07839,0.04556
309.58860,0.03072
308.09881,0.01592
306.60902,0.01252
305.11924,0.00630
303.62945,0.02374
302.13966,0.03476
300.64987,0.03409
299.16008,0.00718
