1778.52000,0.02460
1777.03021,0.02048
1775.54042,0.02013
1774.05063,0.00112
1772.56085,0.03170
1771.07106,0.03519
1769.58127,0.04151
1768.09148,0.01141
1766.60169,0.01499
1765.11190,0.03264
1763.62212,0.03348
1762.13233,0.03810
1760.64254,0.03713
1759.15275,0.01937
1757.66296,0.03904
1756.17317,0.02976
1754.68339,0.01771
1753.19360,0.03186
1751.70381,0.00397
1750.21402,0.00697
1748.72423,0.04180
1747.23444,0.02149
1745.74465,0.03767
1744.25487,0.02584
1742.76508,0.02806
1741.27529,0.01442
1739.78550,0.05692
1738.29571,0.05175
1736.80592,0.03353
1735.31614,0.03872
1733.82635,0.03179
1732.33656,0.04826
1730.84677,0.07318
1729.35698,0.04576
1727.86719,0.08197
1726.37740,0.04527
1724.88762,0.00112
1723.39783,0.03668
1721.90804,0.01336
1720.41825,0.03870
1718.92846,0.03788
1717.43867,0.02588
1715.94889,0.06815
1714.45910,0.05621
1712.96931,0.05272
1711.47952,0.08011
1709.98973,0.02432
1708.49994,0.05178
1707.01016,0.05263
1705.52037,0.05350
1704.03058,0.06516
1702.54079,0.08994
1701.05100,0.11569
1699.56121,0.11155
1698.07142,0.14111
1696.58164,0.14264
1695.09185,0.19657
1693.60206,0.16544
1692.11227,0.20541
1690.62248,0.19023
1689.13269,0.15733
1687.64291,0.19365
1686.15312,0.19915
1684.66333,0.19439
1683.17354,0.22426
1681.68375,0.20741
1680.19396,0.19059
1678.70417,0.14949
1677.21439,0.19258
1675.72460,0.21419
1674.23481,0.20124
1672.74502,0.22385
1671.25523,0.21938
1669.76544,0.22990
1668.27566,0.22923
1666.78587,0.20148
1665.29608,0.14384
1663.80629,0.14700
1662.31650,0.16049
1660.82671,0.15904
1659.33693,0.18849
1657.84714,0.19926
1656.35735,0.16425
1654.86756,0.11524
1653.37777,0.17287
1651.88798,0.17535
1650.39819,0.10961
1648.90841,0.13928
1647.41862,0.11754
1645.92883,0.11501
1644.43904,0.11252
1642.94925,0.11987
1641.45946,0.17494
1639.96968,0.16552
1638.47989,0.15801
1636.99010,0.16081
1635.50031,0.14588
1634.01052,0.10573
1632.52073,0.14136
1631.03094,0.14616
1629.54116,0.13229
1628.05137,0.14277
1626.56158,0.09810
1625.07179,0.16288
1623.58200,0.19308
1622.09221,0.19994
1620.60243,0.20123
1619.11264,0.20254
1617.62285,0.18986
1616.13306,0.18563
1614.64327,0.19078
1613.15348,0.16136
1611.66370,0.18153
1610.17391,0.15405
1608.68412,0.12754
1607.19433,0.20578
1605.70454,0.14193
1604.21475,0.14777
1602.72496,0.15364
1601.23518,0.17029
1599.74539,0.14397
1598.25560,0.14105
1596.76581,0.11759
1595.27602,0.09137
1593.78623,0.12595
1592.29645,0.07266
1590.80666,0.09983
1589.31687,0.10178
1587.82708,0.09441
1586.33729,0.10203
1584.84750,0.08724
1583.35771,0.02854
1581.86793,0.07553
1580.37814,0.07393
1578.88835,0.08826
1577.39856,0.09233
1575.90877,0.04594
1574.41898,0.06130
1572.92920,0.04957
1571.43941,0.04536
1569.94962,0.03042
1568.45983,0.01552
1566.97004,0.03945
1565.48025,0.05313
1563.99047,0.07525
1562.50068,0.05720
1561.01089,0.04853
1559.52110,0.01933
1558.03131,0.09394
1556.54152,0.06106
1555.05173,0.11891
1553.56195,0.08608
1552.07216,0.09350
1550.58237,0.08225
1549.09258,0.08880
1547.60279,0.00000
1546.11300,0.03560
1544.62322,0.07216
1543.13343,0.04985
1541.64364,0.00793
1540.15385,0.03477
1538.66406,0.06164
1537.17427,0.00112
1535.68448,0.03236
1534.19470,0.04866
1532.70491,0.03882
1531.21512,0.05332
1529.72533,0.03419
1528.23554,0.02631
1526.74575,0.00164
1525.25597,0.05289
1523.76618,0.06022
1522.27639,0.03019
1520.78660,0.00112
1519.29681,0.04380
1517.80702,0.02573
1516.31724,0.02733
1514.82745,0.00932
1513.33766,0.01706
1511.84787,0.02483
1510.35808,0.03965
1508.86829,0.03393
1507.37850,0.00112
1505.88872,0.03131
1504.39893,0.02600
1502.90914,0.01324
1501.41935,0.00893
1499.92956,0.01961
1498.43977,0.03220
1496.94999,0.10653
1495.46020,0.12572
1493.97041,0.16084
1492.48062,0.20908
1490.99083,0.26484
1489.50104,0.32343
1488.01125,0.36569
1486.52147,0.40798
1485.03168,0.45358
1483.54189,0.50949
1482.05210,0.60845
1480.56231,0.66256
1479.07252,0.74101
1477.58274,0.84287
1476.09295,0.90268
1474.60316,1.02050
1473.11337,1.00183
1471.62358,1.08605
1470.13379,1.02631
1468.64401,1.07038
1467.15422,1.02098
1465.66443,0.97348
1464.17464,0.92602
1462.68485,0.86830
1461.19506,0.90786
1459.70527,0.77353
1458.21549,0.76546
1456.72570,0.75088
1455.23591,0.70548
1453.74612,0.61429
1452.25633,0.57268
1450.76654,0.56384
1449.27676,0.51108
1447.78697,0.50885
1446.29718,0.48421
1444.80739,0.44884
1443.31760,0.41351
1441.82781,0.33473
1440.33802,0.31956
1438.84824,0.27357
1437.35845,0.22668
1435.86866,0.21161
1434.37887,0.20405
1432.88908,0.20401
1431.39929,0.24046
1429.90951,0.17783
1428.41972,0.18255
1426.92993,0.26679
1425.44014,0.24633
1423.95035,0.24227
1422.46056,0.23824
1420.97078,0.22068
1419.48099,0.27796
1417.99120,0.29694
1416.50141,0.27106
1415.01162,0.30319
1413.52183,0.28672
1412.03204,0.23195
1410.54226,0.21462
1409.05247,0.24033
1407.56268,0.25859
1406.07289,0.22919
1404.58310,0.22788
1403.09331,0.22660
1401.60353,0.31792
1400.11374,0.35504
1398.62395,0.33328
1397.13416,0.34148
1395.64437,0.37402
1394.15458,0.43558
1392.66479,0.28772
1391.17501,0.36617
1389.68522,0.36331
1388.19543,0.41751
1386.70564,0.41191
1385.21585,0.40633
1383.72606,0.39611
1382.23628,0.32515
1380.74649,0.31032
1379.25670,0.36284
1377.76691,0.35930
1376.27712,0.38197
1374.78733,0.41682
1373.29755,0.49753
1371.80776,0.54741
1370.31797,0.63192
1368.82818,0.70944
1367.33839,0.78700
1365.84860,0.94548
1364.35881,1.11801
1362.86903,1.21296
1361.37924,1.22005
1359.88945,1.26271
1358.39966,1.38394
1356.90987,1.45845
1355.42008,1.41797
1353.93030,1.39156
1352.44051,1.28149
1350.95072,1.17145
1349.46093,1.13671
1347.97114,1.04965
1346.48135,0.87004
1344.99156,0.81389
1343.50178,0.81856
1342.01199,0.67645
1340.52220,0.54372
1339.03241,0.49986
1337.54262,0.53457
1336.05283,0.50994
1334.56305,0.48534
1333.07326,0.53324
1331.58347,0.46710
1330.09368,0.45054
1328.60389,0.38539
1327.11410,0.36236
1325.62432,0.38610
1324.13453,0.39492
1322.64474,0.29998
1321.15495,0.35374
1319.66516,0.34489
1318.17537,0.33607
1316.68558,0.28146
1315.19580,0.27364
1313.70601,0.22938
1312.21622,0.24780
1310.72643,0.26813
1309.23664,0.24734
1307.74685,0.26212
1306.25707,0.22176
1304.76728,0.23894
1303.27749,0.25615
1301.78770,0.29536
1300.29791,0.26729
1298.80812,0.25140
1297.31834,0.25985
1295.82855,0.21878
1294.33876,0.25161
1292.84897,0.23959
1291.35918,0.29212
1289.86939,0.26613
1288.37960,0.24018
1286.88982,0.28252
1285.40003,0.35014
1283.91024,0.25415
1282.42045,0.33118
1280.93066,0.33531
1279.44087,0.32825
1277.95109,0.29971
1276.46130,0.31890
1274.97151,0.34700
1273.48172,0.37513
1271.99193,0.39534
1270.50214,0.39315
1269.01235,0.43400
1267.52257,0.47301
1266.03278,0.42696
1264.54299,0.46510
1263.05320,0.47709
1261.56341,0.51530
1260.07362,0.55353
1258.58384,0.51325
1257.09405,0.50480
1255.60426,0.48703
1254.11447,0.53941
1252.62468,0.53666
1251.13489,0.43951
1249.64511,0.45739
1248.15532,0.42575
1246.66553,0.41144
1245.17574,0.39716
1243.68595,0.36562
1242.19616,0.37431
1240.70637,0.31665
1239.21659,0.29361
1237.72680,0.24817
1236.23701,0.28598
1234.74722,0.21722
1233.25743,0.19525
1231.76764,0.17331
1230.27786,0.18973
1228.78807,0.13980
1227.29828,0.18715
1225.80849,0.15786
1224.31870,0.12766
1222.82891,0.10965
1221.33912,0.05988
1219.84934,0.09851
1218.35955,0.13716
1216.86976,0.14172
1215.37997,0.20522
1213.89018,0.15467
1212.40039,0.11445
1210.91061,0.07425
1209.42082,0.06400
1207.93103,0.08886
1206.44124,0.11374
1204.95145,0.11481
1203.46166,0.05981
1201.97188,0.10022
1200.48209,0.09017
1198.99230,0.10446
1197.50251,0.09354
1196.01272,0.07142
1194.52293,0.04186
1193.03314,0.01233
1191.54336,0.08849
1190.05357,0.01508
1188.56378,0.03239
1187.07399,0.00112
1185.58420,0.05112
1184.09441,0.01233
1182.60463,0.02546
1181.11484,0.03863
1179.62505,0.04855
1178.13526,0.09030
1176.64547,0.04325
1175.15568,0.06916
1173.66589,0.09324
1172.17611,0.03600
1170.68632,0.03863
1169.19653,0.04130
1167.70674,0.06457
1166.21695,0.03831
1164.72716,0.08034
1163.23738,0.06537
1161.74759,0.07848
1160.25780,0.01401
1158.76801,0.00755
1157.27822,0.00112
1155.78843,0.03069
1154.29865,0.07339
1152.80886,0.07871
1151.31907,0.10464
1149.82928,0.10067
1148.33949,0.13788
1146.84970,0.11809
1145.35991,0.09832
1143.87013,0.05428
1142.38034,0.03645
1140.89055,0.09532
1139.40076,0.19631
1137.91097,0.19728
1136.42118,0.29084
1134.93140,0.25400
1133.44161,0.21719
1131.95182,0.29683
1130.46203,0.28393
1128.97224,0.32717
1127.48245,0.24513
1125.99266,0.31368
1124.50288,0.37384
1123.01309,0.36717
1121.52330,0.36054
1120.03351,0.36750
1118.54372,0.46332
1117.05393,0.44135
1115.56415,0.43718
1114.07436,0.36853
1112.58457,0.40837
1111.09478,0.44824
1109.60499,0.49470
1108.11520,0.56549
1106.62542,0.54655
1105.13563,0.62396
1103.64584,0.67147
1102.15605,0.75455
1100.66626,0.79137
1099.17647,0.82823
1097.68668,0.85998
1096.19690,0.85435
1094.70711,0.80294
1093.21732,0.85067
1091.72753,0.91434
1090.23774,0.94951
1088.74795,0.98472
1087.25817,1.00734
1085.76838,0.96079
1084.27859,1.07979
1082.78880,1.14925
1081.29901,1.17199
1079.80922,1.15082
1078.31943,1.11332
1076.82965,1.07584
1075.33986,1.13986
1073.85007,1.19175
1072.36028,1.20627
1070.87049,1.25074
1069.38070,1.31207
1067.89092,1.36269
1066.40113,1.41333
1064.91134,1.32235
1063.42155,1.23514
1061.93176,1.14982
1060.44197,1.04771
1058.95219,1.03353
1057.46240,0.98759
1055.97261,0.94168
1054.48282,0.82660
1052.99303,0.83873
1051.50324,0.68351
1050.01345,0.63398
1048.52367,0.55924
1047.03388,0.57758
1045.54409,0.59594
1044.05430,0.64940
1042.56451,0.54393
1041.07472,0.51236
1039.58494,0.41630
1038.09515,0.32963
1036.60536,0.31265
1035.11557,0.29570
1033.62578,0.33723
1032.13599,0.32736
1030.64620,0.36614
1029.15642,0.37971
1027.66663,0.38116
1026.17684,0.38263
1024.68705,0.42248
1023.19726,0.45955
1021.70747,0.71359
1020.21769,0.90315
1018.72790,1.12172
1017.23811,1.24120
1015.74832,1.36072
1014.25853,1.66822
1012.76874,1.79715
1011.27896,1.82232
1009.78917,1.94290
1008.29938,1.97094
1006.80959,1.98545
1005.31980,2.00000
1003.83001,1.88787
1002.34022,1.80944
1000.85044,1.70673
999.36065,1.72748
997.87086,1.60146
996.38107,1.47547
994.89128,1.49631
993.40149,1.51906
991.91171,1.39597
990.42192,1.46179
988.93213,1.45004
987.44234,1.43691
985.95255,1.42381
984.46276,1.42244
982.97297,1.33694
981.48319,1.32535
979.99340,1.25955
978.50361,1.23352
977.01382,1.20752
975.52403,1.17922
974.03424,1.19771
972.54446,1.11337
971.05467,0.99259
969.56488,0.95787
968.07509,0.91243
966.58530,0.86702
965.09551,0.88009
963.60573,0.89412
962.11594,0.84740
960.62615,0.78950
959.13636,0.71900
957.64657,0.64853
956.15678,0.63000
954.66699,0.62552
953.17721,0.66782
951.68742,0.64751
950.19763,0.64406
948.70784,0.64064
947.21805,0.64193
945.72826,0.66570
944.23848,0.63432
942.74869,0.66002
941.25890,0.62964
939.76911,0.66943
938.27932,0.70925
936.78953,0.69673
935.29974,0.71511
933.80996,0.70079
932.32017,0.71923
930.83038,0.75359
929.34059,0.78799
927.85080,0.83832
926.36101,0.73719
924.87123,0.67911
923.38144,0.63135
921.89165,0.61121
920.40186,0.59109
918.91207,0.61543
917.42228,0.57060
915.93250,0.60715
914.44271,0.56894
912.95292,0.60696
911.46313,0.64501
909.97334,0.72844
908.48355,0.85399
906.99376,0.77011
905.50398,0.59836
904.01419,0.61647
902.52440,0.63461
901.03461,0.77060
899.54482,0.76075
898.05503,0.77617
896.56525,0.71776
895.07546,0.71783
893.58567,0.71792
892.09588,0.76807
890.60609,0.76870
889.11630,0.74505
887.62651,0.72984
886.13673,0.77264
884.64694,0.81547
883.15715,0.72929
881.66736,0.74414
880.17757,0.67205
878.68778,0.71174
877.19800,0.75145
875.70821,0.73650
874.21842,0.77768
872.72863,0.84134
871.23884,0.95459
869.74905,0.93789
868.25927,0.92123
866.76948,0.91020
865.27969,0.87210
863.78990,0.92005
862.30011,0.94278
860.81032,0.92254
859.32053,0.90233
857.83075,0.81575
856.34096,0.86760
854.85117,0.79325
853.36138,0.66750
851.87159,0.64604
850.38180,0.62462
848.89202,0.53263
847.40223,0.39765
845.91244,0.33939
844.42265,0.32931
842.93286,0.31926
841.44307,0.35086
839.95329,0.30862
838.46350,0.30849
836.97371,0.27846
835.48392,0.25408
833.99413,0.22973
832.50434,0.22505
831.01455,0.23162
829.52477,0.30836
828.03498,0.25982
826.54519,0.25340
825.05540,0.24701
823.56561,0.21727
822.07582,0.20346
820.58604,0.14947
819.09625,0.13339
817.60646,0.11734
816.11667,0.07560
814.62688,0.06476
813.13709,0.02589
811.64730,0.00763
810.15752,0.00436
808.66773,0.00112
807.17794,0.08731
805.68815,0.08096
804.19836,0.15692
802.70857,0.14409
801.21879,0.13128
799.72900,0.12132
798.23921,0.20396
796.74942,0.33992
795.25963,0.36325
793.76984,0.38661
792.28006,0.47966
790.79027,0.47736
789.30048,0.50689
787.81069,0.48128
786.32090,0.51882
784.83111,0.55640
783.34132,0.64309
781.85154,0.58956
780.36175,0.62302
778.87196,0.60602
777.38217,0.58905
775.89238,0.70489
774.40259,0.77494
772.91281,0.78986
771.42302,0.76507
769.93323,0.74031
768.44344,0.71699
766.95365,0.77411
765.46386,0.77049
763.97407,0.69489
762.48429,0.68338
760.99450,0.67190
759.50471,0.56648
758.01492,0.49382
756.52513,0.46888
755.03534,0.38647
753.54556,0.30408
752.05577,0.23435
750.56598,0.14782
749.07619,0.11276
747.58640,0.09268
746.09661,0.07264
744.60683,0.06291
743.11704,0.02797
741.62725,0.01457
740.13746,0.02878
738.64767,0.04303
737.15788,0.02972
735.66809,0.05478
734.17831,0.09203
732.68852,0.04656
731.19873,0.00112
729.70894,0.03373
728.21915,0.03738
726.72936,0.07192
725.23958,0.06254
723.74979,0.06161
722.26000,0.06071
720.77021,0.03647
719.28042,0.08613
717.79063,0.11619
716.30084,0.11074
714.81106,0.10533
713.32127,0.02233
711.83148,0.03007
710.34169,0.03971
708.85190,0.02040
707.36211,0.00112
705.87233,0.06281
704.38254,0.10116
702.89275,0.05351
701.40296,0.06480
699.91317,0.07612
698.42338,0.07719
696.93360,0.06240
695.44381,0.12805
693.95402,0.15587
692.46423,0.18371
690.97444,0.14099
689.48465,0.18994
687.99486,0.20526
686.50508,0.21921
685.01529,0.23319
683.52550,0.22709
682.03571,0.22290
680.54592,0.18041
679.05613,0.18329
677.56635,0.18621
676.07656,0.18682
674.58677,0.14071
673.09698,0.10866
671.60719,0.13461
670.11740,0.16059
668.62761,0.13425
667.13783,0.08736
665.64804,0.09474
664.15825,0.10215
662.66846,0.11707
661.17867,0.04133
659.68888,0.08717
658.19910,0.11201
656.70931,0.13688
655.21952,0.09772
653.72973,0.15585
652.23994,0.18876
650.75015,0.18617
649.26037,0.18361
647.77058,0.20353
646.28079,0.14493
644.79100,0.08075
643.30121,0.04092
641.81142,0.00112
640.32163,0.06915
638.83185,0.13160
637.34206,0.10712
635.85227,0.07005
634.36248,0.03301
632.87269,0.07595
631.38290,0.10583
629.89312,0.05720
628.40333,0.05488
626.91354,0.05260
625.42375,0.04147
623.93396,0.10517
622.44417,0.10766
620.95438,0.11018
619.46460,0.13470
617.97481,0.13401
616.48502,0.11278
614.99523,0.10982
613.50544,0.10689
612.01565,0.17271
610.52587,0.10112
609.03608,0.09594
607.54629,0.09968
606.05650,0.10345
604.56671,0.21058
603.07692,0.20180
601.58714,0.18229
600.09735,0.16281
598.60756,0.16253
597.11777,0.08000
595.62798,0.11251
594.13819,0.12168
592.64840,0.13088
591.15862,0.12796
589.66883,0.11385
588.17904,0.10164
586.68925,0.12405
585.19946,0.14650
583.70967,0.09044
582.21989,0.14662
580.73010,0.14859
579.24031,0.15060
577.75052,0.17788
576.26073,0.13974
574.77094,0.13062
573.28115,0.14070
571.79137,0.15082
570.30158,0.16330
568.81179,0.32355
567.32200,0.34264
565.83221,0.36177
564.34242,0.34258
562.85264,0.30006
561.36285,0.37631
559.87306,0.41052
558.38327,0.44477
556.89348,0.43416
555.40369,0.52363
553.91391,0.55423
552.42412,0.58486
550.93433,0.57905
549.44454,0.60787
547.95475,0.63766
546.46496,0.63990
544.97517,0.64217
543.48539,0.65709
541.99560,0.64026
540.50581,0.62906
539.01602,0.61790
537.52623,0.58620
536.03644,0.63494
534.54666,0.52008
533.05687,0.53523
531.56708,0.55041
530.07729,0.54037
528.58750,0.47800
527.09771,0.49467
525.60792,0.51138
524.11814,0.45004
522.62835,0.49253
521.13856,0.45182
519.64877,0.40694
518.15898,0.36210
516.66919,0.29717
515.17941,0.29961
513.68962,0.30629
512.19983,0.31299
510.71004,0.29682
509.22025,0.30874
507.73046,0.35528
506.24068,0.36211
504.75089,0.36898
503.26110,0.40814
501.77131,0.33886
500.28152,0.34208
498.79173,0.34533
497.30194,0.31355
495.81216,0.23412
494.32237,0.27580
492.83258,0.31752
491.34279,0.37002
489.85300,0.36832
488.36321,0.23762
486.87343,0.19811
485.38364,0.15864
483.89385,0.18231
482.40406,0.15833
480.91427,0.14186
479.42448,0.12542
477.93469,0.07067
476.44491,0.14594
474.95512,0.12913
473.46533,0.11235
471.97554,0.04370
470.48575,0.06486
468.99596,0.07295
467.50618,0.08015
466.01639,0.08737
464.52660,0.00112
463.03681,0.06286
461.54702,0.05824
460.05723,0.05365
458.56745,0.00514
457.07766,0.03241
455.58787,0.07560
454.09808,0.11883
452.60829,0.16302
451.11850,0.19229
449.62871,0.19727
448.13893,0.20229
446.64914,0.28027
445.15935,0.38540
443.66956,0.41669
442.17977,0.44661
440.68998,0.47657
439.20020,0.53414
437.71041,0.54312
436.22062,0.60028
434.73083,0.65748
433.24104,0.74229
431.75125,0.83742
430.26146,0.91950
428.77168,1.00160
427.28189,0.96779
425.79210,0.99946
424.30231,1.01340
422.81252,1.02737
421.32273,1.01800
419.83295,0.92450
418.34316,0.87031
416.85337,0.81614
415.36358,0.72929
413.87379,0.66397
412.38400,0.65151
410.89422,0.63909
409.40443,0.56919
407.91464,0.59002
406.42485,0.51644
404.93506,0.48919
403.44527,0.46196
401.95548,0.31180
400.46570,0.34028
398.97591,0.36130
397.48612,0.38236
395.99633,0.42963
394.50654,0.46103
393.01675,0.47330
391.52697,0.48560
390.03718,0.35346
388.54739,0.28682
387.05760,0.29968
385.56781,0.31257
384.07802,0.35168
382.58824,0.39363
381.09845,0.37108
379.60866,0.34857
378.11887,0.26251
376.62908,0.20546
375.13929,0.20689
373.64950,0.20835
372.15972,0.16075
370.66993,0.09074
369.18014,0.13765
367.69035,0.18459
366.20056,0.08662
364.71077,0.05508
363.22099,0.07266
361.73120,0.09027
360.24141,0.10464
358.75162,0.07042
357.26183,0.09934
355.77204,0.12830
354.28225,0.09137
352.79247,0.04418
351.30268,0.02601
349.81289,0.00788
348.32310,0.00848
346.83331,0.01982
345.34352,0.01624
343.85374,0.01269
342.36395,0.02600
340.87416,0.13005
339.38437,0.10836
337.89458,0.08670
336.40479,0.12446
334.91501,0.00608
333.42522,0.04530
331.93543,0.08455
330.44564,0.14393
328.95585,0.14538
327.46606,0.10150
325.97627,0.05766
324.48649,0.06013
322.99670,0.03178
321.50691,0.05854
320.01712,0.08534
318.52733,0.12853
317.03754,0.09227
315.54776,0.10373
314.05797,0.11523
312.56818,0.09309
311.07839,0.10839
309.58860,0.08304
308.09881,0.05773
306.60902,0.00112
305.11924,0.03360
303.62945,0.05395
302.13966,0.07433
300.64987,0.06109
299.16008,0.00112
