1778.52000,0.01260
1777.03021,0.05260
1775.54042,0.00251
1774.05063,0.00026
1772.56085,0.02125
1771.07106,0.04502
1769.58127,0.06609
1768.09148,0.02575
1766.60169,0.06738
1765.11190,0.05988
1763.62212,0.08793
1762.13233,0.08461
1760.64254,0.03762
1759.15275,0.04802
1757.66296,0.08578
1756.17317,0.05802
1754.68339,0.00026
1753.19360,0.03587
1751.70381,0.01826
1750.21402,0.03756
1748.72423,0.06509
1747.23444,0.00936
1745.74465,0.08613
1744.25487,0.02637
1742.76508,0.06497
1741.27529,0.05855
1739.78550,0.03304
1738.29571,0.12365
1736.80592,0.05179
1735.31614,0.05917
1733.82635,0.02971
1732.33656,0.00986
1730.84677,0.01188
1729.35698,0.04536
1727.86719,0.03381
1726.37740,0.05234
1724.88762,0.07363
1723.39783,0.08131
1721.90804,0.00026
1720.41825,0.06424
1718.92846,0.03539
1717.43867,0.04619
1715.94889,0.05838
1714.45910,0.02555
1712.96931,0.05967
1711.47952,0.08291
1709.98973,0.08569
1708.49994,0.08442
1707.01016,0.07840
1705.52037,0.07242
1704.03058,0.13135
1702.54079,0.13023
1701.05100,0.10046
1699.56121,0.14447
1698.07142,0.18170
1696.58164,0.13019
1695.09185,0.18115
1693.60206,0.18024
1692.11227,0.21079
1690.62248,0.17992
1689.13269,0.21873
1687.64291,0.26440
1686.15312,0.26642
1684.66333,0.28213
1683.17354,0.32518
1681.68375,0.26995
1680.19396,0.22568
1678.70417,0.25520
1677.21439,0.22602
1675.72460,0.26380
1674.23481,0.27977
1672.74502,0.24661
1671.25523,0.26675
1669.76544,0.28010
1668.27566,0.25525
1666.78587,0.25364
1665.29608,0.18107
1663.80629,0.20276
1662.31650,0.15893
1660.82671,0.18616
1659.33693,0.21479
1657.84714,0.23526
1656.35735,0.17929
1654.86756,0.12063
1653.37777,0.18492
1651.88798,0.17823
1650.39819,0.14562
1648.90841,0.21275
1647.41862,0.11877
1645.92883,0.09925
1644.43904,0.07977
1642.94925,0.10062
1641.45946,0.18295
1639.96968,0.09871
1638.47989,0.13606
1636.99010,0.15568
1635.50031,0.17944
1634.01052,0.14042
1632.52073,0.14650
1631.03094,0.07751
1629.54116,0.08776
1628.05137,0.13902
1626.56158,0.15617
1625.07179,0.20614
1623.58200,0.16601
1622.09221,0.19830
1620.60243,0.22380
1619.11264,0.18924
1617.62285,0.15882
1616.13306,0.16531
1614.64327,0.19096
1613.15348,0.18250
1611.66370,0.14403
1610.17391,0.13838
1608.68412,0.19558
1607.19433,0.18727
1605.70454,0.15578
1604.21475,0.15984
1602.72496,0.16393
1601.23518,0.17625
1599.74539,0.14901
1598.25560,0.14092
1596.76581,0.06869
1595.27602,0.09891
1593.78623,0.12917
1592.29645,0.07890
1590.80666,0.12289
1589.31687,0.07406
1587.82708,0.07579
1586.33729,0.06253
1584.84750,0.12579
1583.35771,0.05526
1581.86793,0.04075
1580.37814,0.08773
1578.88835,0.12793
1577.39856,0.04934
1575.90877,0.05820
1574.41898,0.08758
1572.92920,0.05144
1571.43941,0.06997
1569.94962,0.04005
1568.45983,0.01018
1566.97004,0.05749
1565.48025,0.04339
1563.99047,0.04982
1562.50068,0.03033
1561.01089,0.08735
1559.52110,0.05019
1558.03131,0.04993
1556.54152,0.09204
1555.05173,0.09869
1553.56195,0.08488
1552.07216,0.13121
1550.58237,0.11201
1549.09258,0.10788
1547.60279,0.03687
1546.11300,0.02872
1544.62322,0.06840
1543.13343,0.04666
1541.64364,0.06320
1540.15385,0.06475
1538.66406,0.06634
1537.17427,0.05977
1535.68448,0.03822
1534.19470,0.06860
1532.70491,0.07990
1531.21512,0.10762
1529.72533,0.01657
1528.23554,0.00477
1526.74575,0.04079
1525.25597,0.05091
1523.76618,0.10204
1522.27639,0.03302
1520.78660,0.06647
1519.29681,0.00026
1517.80702,0.08802
1516.31724,0.08160
1514.82745,0.06565
1513.33766,0.08388
1511.84787,0.10214
1510.35808,0.06309
1508.86829,0.06368
1507.37850,0.01924
1505.88872,0.03492
1504.39893,0.01787
1502.90914,0.08688
1501.41935,0.00026
1499.92956,0.03364
1498.43977,0.15720
1496.94999,0.14422
1495.46020,0.15997
1493.97041,0.18530
1492.48062,0.26121
1490.99083,0.32896
1489.50104,0.32983
1488.01125,0.34575
1486.52147,0.36172
1485.03168,0.44191
1483.54189,0.50984
1482.05210,0.58327
1480.56231,0.56388
1479.07252,0.76576
1477.58274,0.84067
1476.09295,0.86782
1474.60316,0.98650
1473.11337,1.01373
1471.62358,1.06011
1470.13379,1.09833
1468.64401,1.01095
1467.15422,0.90859
1465.66443,0.91005
1464.17464,0.91155
1462.68485,0.93903
1461.19506,0.84774
1459.70527,0.81521
1458.21549,0.75404
1456.72570,0.75709
1455.23591,0.77247
1453.74612,0.65679
1452.25633,0.74462
1450.76654,0.65359
1449.27676,0.64044
1447.78697,0.66010
1446.29718,0.56645
1444.80739,0.50493
1443.31760,0.44344
1441.82781,0.40589
1440.33802,0.34107
1438.84824,0.29540
1437.35845,0.27709
1435.86866,0.24652
1434.37887,0.23647
1432.88908,0.24421
1431.39929,0.19599
1429.90951,0.21610
1428.41972,0.21166
1426.92993,0.28920
1425.44014,0.21655
1423.95035,0.27095
1422.46056,0.32538
1420.97078,0.29109
1419.48099,0.34559
1417.99120,0.27040
1416.50141,0.31269
1415.01162,0.31951
1413.52183,0.36870
1412.03204,0.29776
1410.54226,0.22002
1409.05247,0.27206
1407.56268,0.20668
1406.07289,0.25196
1404.58310,0.25017
1403.09331,0.24841
1401.60353,0.29517
1400.11374,0.27231
1398.62395,0.27271
1397.13416,0.27588
1395.64437,0.30640
1394.15458,0.40251
1392.66479,0.31429
1391.17501,0.32171
1389.68522,0.34555
1388.19543,0.25061
1386.70564,0.27999
1385.21585,0.30940
1383.72606,0.32792
1382.23628,0.33829
1380.74649,0.18209
1379.25670,0.31134
1377.76691,0.28222
1376.27712,0.27362
1374.78733,0.24457
1373.29755,0.33027
1371.80776,0.39143
1370.31797,0.49222
1368.82818,0.54116
1367.33839,0.59014
1365.84860,0.68832
1364.35881,0.83160
1362.86903,0.89434
1361.37924,0.89840
1359.88945,0.88475
1358.39966,0.93941
1356.90987,1.11019
1355.42008,1.03792
1353.93030,0.96842
1352.44051,0.94198
1350.95072,0.91557
1349.46093,0.85984
1347.97114,0.90656
1346.48135,0.74165
1344.99156,0.63004
1343.50178,0.66049
1342.01199,0.58719
1340.52220,0.55627
1339.03241,0.51582
1337.54262,0.53003
1336.05283,0.53472
1334.56305,0.53945
1333.07326,0.44998
1331.58347,0.45205
1330.09368,0.47328
1328.60389,0.43992
1327.11410,0.31236
1325.62432,0.38832
1324.13453,0.34005
1322.64474,0.44886
1321.15495,0.44300
1319.66516,0.37845
1318.17537,0.31394
1316.68558,0.30819
1315.19580,0.37485
1313.70601,0.31318
1312.21622,0.22970
1310.72643,0.30193
1309.23664,0.29227
1307.74685,0.33317
1306.25707,0.31539
1304.76728,0.27101
1303.27749,0.22667
1301.78770,0.28001
1300.29791,0.26374
1298.80812,0.28302
1297.31834,0.26819
1295.82855,0.36538
1294.33876,0.26322
1292.84897,0.30996
1291.35918,0.28708
1289.86939,0.27517
1288.37960,0.26329
1286.88982,0.30335
1285.40003,0.36392
1283.91024,0.39723
1282.42045,0.31995
1280.93066,0.39566
1279.44087,0.37035
1277.95109,0.44477
1276.46130,0.35944
1274.97151,0.35132
1273.48172,0.34323
1271.99193,0.37546
1270.50214,0.53746
1269.01235,0.49876
1267.52257,0.51608
1266.03278,0.45423
1264.54299,0.55766
1263.05320,0.56554
1261.56341,0.56047
1260.07362,0.55545
1258.58384,0.62489
1257.09405,0.54278
1255.60426,0.64643
1254.11447,0.66545
1252.62468,0.52337
1251.13489,0.61484
1249.64511,0.56433
1248.15532,0.53160
1246.66553,0.42039
1245.17574,0.30921
1243.68595,0.39814
1242.19616,0.42975
1240.70637,0.46686
1239.21659,0.39612
1237.72680,0.38414
1236.23701,0.28070
1234.74722,0.22919
1233.25743,0.25761
1231.76764,0.28606
1230.27786,0.29339
1228.78807,0.19286
1227.29828,0.22484
1225.80849,0.21043
1224.31870,0.19605
1222.82891,0.19673
1221.33912,0.17970
1219.84934,0.19548
1218.35955,0.21129
1216.86976,0.21485
1215.37997,0.29220
1213.89018,0.28764
1212.40039,0.14655
1210.91061,0.14207
1209.42082,0.17722
1207.93103,0.17077
1206.44124,0.16434
1204.95145,0.25287
1203.46166,0.15161
1201.97188,0.16511
1200.48209,0.21414
1198.99230,0.11572
1197.50251,0.11567
1196.01272,0.14297
1194.52293,0.11294
1193.03314,0.08296
1191.54336,0.05574
1190.05357,0.11323
1188.56378,0.01507
1187.07399,0.00026
1185.58420,0.00638
1184.09441,0.06034
1182.60463,0.11365
1181.11484,0.16700
1179.62505,0.10499
1178.13526,0.16319
1176.64547,0.19412
1175.15568,0.08852
1173.66589,0.08675
1172.17611,0.13281
1170.68632,0.12086
1169.19653,0.10896
1167.70674,0.11553
1166.21695,0.13306
1164.72716,0.11239
1163.23738,0.00026
1161.74759,0.00643
1160.25780,0.04951
1158.76801,0.04757
1157.27822,0.04566
1155.78843,0.12436
1154.29865,0.13481
1152.80886,0.09614
1151.31907,0.07253
1149.82928,0.09129
1148.33949,0.18110
1146.84970,0.15828
1145.35991,0.13550
1143.87013,0.11481
1142.38034,0.09415
1140.89055,0.18005
1139.40076,0.24823
1137.91097,0.17716
1136.42118,0.23176
1134.93140,0.26250
1133.44161,0.29328
1131.95182,0.31385
1130.46203,0.29076
1128.97224,0.32915
1127.48245,0.30204
1125.99266,0.27906
1124.50288,0.37356
1123.01309,0.39504
1121.52330,0.41655
1120.03351,0.43605
1118.54372,0.42691
1117.05393,0.45742
1115.56415,0.51800
1114.07436,0.45571
1112.58457,0.45901
1111.09478,0.46235
1109.60499,0.44934
1108.11520,0.45958
1106.62542,0.55316
1105.13563,0.58259
1103.64584,0.67351
1102.15605,0.76175
1100.66626,0.77627
1099.17647,0.79083
1097.68668,0.78767
1096.19690,0.75724
1094.70711,0.81697
1093.21732,0.83851
1091.72753,0.89832
1090.23774,0.89330
1088.74795,0.88832
1087.25817,0.92229
1085.76838,0.93992
1084.27859,0.97670
1082.78880,1.02854
1081.29901,1.19513
1079.80922,1.08590
1078.31943,1.06479
1076.82965,1.04371
1075.33986,1.16402
1073.85007,1.22564
1072.36028,1.11660
1070.87049,1.17420
1069.38070,1.15809
1067.89092,1.23010
1066.40113,1.30215
1064.91134,1.25611
1063.42155,1.11178
1061.93176,1.09585
1060.44197,0.98301
1058.95219,0.94531
1057.46240,0.91857
1055.97261,0.89187
1054.48282,0.81605
1052.99303,0.83859
1051.50324,0.68772
1050.01345,0.68985
1048.52367,0.64422
1047.03388,0.57677
1045.54409,0.50936
1044.05430,0.62089
1042.56451,0.65461
1041.07472,0.53542
1039.58494,0.47089
1038.09515,0.31217
1036.60536,0.29483
1035.11557,0.27752
1033.62578,0.38795
1032.13599,0.29492
1030.64620,0.34806
1029.15642,0.41626
1027.66663,0.39914
1026.17684,0.38206
1024.68705,0.45037
1023.19726,0.51052
1021.70747,0.78375
1020.21769,1.04746
1018.72790,1.11865
1017.23811,1.28751
1015.74832,1.45642
1014.25853,1.63151
1012.76874,1.68100
1011.27896,1.92581
1009.78917,1.91391
1008.29938,1.97990
1006.80959,1.98993
1005.31980,2.00000
1003.83001,1.77795
1002.34022,1.62285
1000.85044,1.64941
999.36065,1.45478
997.87086,1.41519
996.38107,1.37564
994.89128,1.42284
993.40149,1.56977
991.91171,1.44087
990.42192,1.39942
988.93213,1.45223
987.44234,1.42724
985.95255,1.40228
984.46276,1.37054
982.97297,1.27601
981.48319,1.27574
979.99340,1.11437
978.50361,1.13672
977.01382,1.15910
975.52403,1.22044
974.03424,1.18075
972.54446,1.09605
971.05467,0.98679
969.56488,1.01823
968.07509,0.98826
966.58530,0.95832
965.09551,0.83966
963.60573,0.89993
962.11594,0.81548
960.62615,0.89221
959.13636,0.77096
957.64657,0.64975
956.15678,0.71430
954.66699,0.71607
953.17721,0.75612
951.68742,0.71426
950.19763,0.73048
948.70784,0.74674
947.21805,0.66130
945.72826,0.65100
944.23848,0.63664
942.74869,0.70699
941.25890,0.75007
939.76911,0.76859
938.27932,0.78716
936.78953,0.87951
935.29974,0.77797
933.80996,0.76797
932.32017,0.77849
930.83038,0.81432
929.34059,0.85017
927.85080,0.83622
926.36101,0.81958
924.87123,0.70601
923.38144,0.73588
921.89165,0.67496
920.40186,0.61408
918.91207,0.61538
917.42228,0.73825
915.93250,0.65359
914.44271,0.72464
912.95292,0.70355
911.46313,0.68250
909.97334,0.72089
908.48355,0.88905
906.99376,0.79095
905.50398,0.77073
904.01419,0.75669
902.52440,0.74269
901.03461,0.83729
899.54482,0.83224
898.05503,0.81357
896.56525,0.69662
895.07546,0.79000
893.58567,0.88343
892.09588,0.79662
890.60609,0.88193
889.11630,0.94132
887.62651,0.80547
886.13673,0.84991
884.64694,0.89440
883.15715,0.86517
881.66736,0.75405
880.17757,0.83824
878.68778,0.81118
877.19800,0.78415
875.70821,0.84388
874.21842,0.90638
872.72863,0.99213
871.23884,0.91131
869.74905,0.95889
868.25927,1.00651
866.76948,0.95585
865.27969,1.03086
863.78990,1.03762
862.30011,1.14139
860.81032,1.09633
859.32053,1.05131
857.83075,1.02545
856.34096,0.92042
854.85117,0.87414
853.36138,0.79240
851.87159,0.78171
850.38180,0.77106
848.89202,0.59793
847.40223,0.46580
845.91244,0.38834
844.42265,0.39764
842.93286,0.40697
841.44307,0.37742
839.95329,0.41209
838.46350,0.47275
836.97371,0.29719
835.48392,0.34221
833.99413,0.38727
832.50434,0.34019
831.01455,0.33275
829.52477,0.33491
828.03498,0.34529
826.54519,0.31475
825.05540,0.28424
823.56561,0.21007
822.07582,0.26157
820.58604,0.19567
819.09625,0.12092
817.60646,0.04622
816.11667,0.06919
814.62688,0.10722
813.13709,0.07565
811.64730,0.00314
810.15752,0.00168
808.66773,0.00026
807.17794,0.03359
805.68815,0.01917
804.19836,0.13315
802.70857,0.10856
801.21879,0.08400
799.72900,0.10250
798.23921,0.20297
796.74942,0.38679
795.25963,0.41769
793.76984,0.44863
792.28006,0.36762
790.79027,0.55841
789.30048,0.60721
787.81069,0.59596
786.32090,0.62163
784.83111,0.64732
783.34132,0.79460
781.85154,0.76711
780.36175,0.66045
778.87196,0.64874
777.38217,0.63707
775.89238,0.80639
774.40259,0.85010
772.91281,0.79552
771.42302,0.84477
769.93323,0.89405
768.44344,0.92972
766.95365,0.89441
765.46386,0.92605
763.97407,0.91539
762.48429,0.85698
760.99450,0.79860
759.50471,0.68017
758.01492,0.47847
756.52513,0.50214
755.03534,0.44733
753.54556,0.39255
752.05577,0.27977
750.56598,0.23394
749.07619,0.17313
747.58640,0.18746
746.09661,0.20183
744.60683,0.13294
743.11704,0.03813
741.62725,0.01847
740.13746,0.06782
738.64767,0.11720
737.15788,0.05668
735.66809,0.07131
734.17831,0.09827
732.68852,0.09864
731.19873,0.09904
729.70894,0.03188
728.21915,0.06582
726.72936,0.09979
725.23958,0.10103
723.74979,0.13712
722.26000,0.17326
720.77021,0.18689
719.28042,0.18418
717.79063,0.12824
716.30084,0.11673
714.81106,0.10525
713.32127,0.00026
711.83148,0.04231
710.34169,0.06392
708.85190,0.12448
707.36211,0.18509
705.87233,0.10028
704.38254,0.12204
702.89275,0.03595
701.40296,0.13903
699.91317,0.24215
698.42338,0.17802
696.93360,0.21089
695.44381,0.23696
693.95402,0.21937
692.46423,0.20182
690.97444,0.18431
689.48465,0.13679
687.99486,0.17534
686.50508,0.20164
685.01529,0.22797
683.52550,0.27756
682.03571,0.32309
680.54592,0.24028
679.05613,0.26267
677.56635,0.28509
676.07656,0.12729
674.58677,0.09243
673.09698,0.14910
671.60719,0.14436
670.11740,0.13966
668.62761,0.12270
667.13783,0.13582
665.64804,0.10870
664.15825,0.08161
662.66846,0.06616
661.17867,0.08900
659.68888,0.09957
658.19910,0.08697
656.70931,0.07441
655.21952,0.07963
653.72973,0.15181
652.23994,0.19262
650.75015,0.16177
649.26037,0.13095
647.77058,0.26201
646.28079,0.17596
644.79100,0.10087
643.30121,0.10844
641.81142,0.11605
640.32163,0.04790
638.83185,0.02486
637.34206,0.01961
635.85227,0.04853
634.36248,0.07749
632.87269,0.03957
631.38290,0.09319
629.89312,0.05262
628.40333,0.02642
626.91354,0.00026
625.42375,0.10321
623.93396,0.10924
622.44417,0.12077
620.95438,0.13234
619.46460,0.10707
617.97481,0.05726
616.48502,0.07440
614.99523,0.08953
613.50544,0.10470
612.01565,0.12878
610.52587,0.11466
609.03608,0.10604
607.54629,0.07561
606.05650,0.04521
604.56671,0.11728
603.07692,0.16343
601.58714,0.12086
600.09735,0.07832
598.60756,0.06723
597.11777,0.13948
595.62798,0.06427
594.13819,0.06968
592.64840,0.07513
591.15862,0.02871
589.66883,0.04106
588.17904,0.04252
586.68925,0.05562
585.19946,0.06876
583.70967,0.08263
582.21989,0.05965
580.73010,0.07768
579.24031,0.09575
577.75052,0.13298
576.26073,0.14566
574.77094,0.15428
573.28115,0.17591
571.79137,0.19758
570.30158,0.25548
568.81179,0.30248
567.32200,0.34407
565.83221,0.38568
564.34242,0.40686
562.85264,0.31472
561.36285,0.38376
559.87306,0.41119
558.38327,0.43865
556.89348,0.50235
555.40369,0.62343
553.91391,0.60663
552.42412,0.58986
550.93433,0.55537
549.44454,0.63837
547.95475,0.65175
546.46496,0.67337
544.97517,0.69502
543.48539,0.76451
541.99560,0.67426
540.50581,0.72197
539.01602,0.76972
537.52623,0.81614
536.03644,0.73969
534.54666,0.71517
533.05687,0.68250
531.56708,0.64986
530.07729,0.63365
528.58750,0.59425
527.09771,0.58631
525.60792,0.57840
524.11814,0.58282
522.62835,0.42067
521.13856,0.46067
519.64877,0.43652
518.15898,0.41241
516.66919,0.39380
515.17941,0.34518
513.68962,0.30685
512.19983,0.26854
510.71004,0.32110
509.22025,0.38051
507.73046,0.37578
506.24068,0.37587
504.75089,0.37599
503.26110,0.43692
501.77131,0.31489
500.28152,0.35132
498.79173,0.38778
497.30194,0.36692
495.81216,0.29830
494.32237,0.36423
492.83258,0.43020
491.34279,0.47367
489.85300,0.41613
488.36321,0.29034
486.87343,0.27452
485.38364,0.25873
483.89385,0.32288
482.40406,0.18631
480.91427,0.16244
479.42448,0.13862
477.93469,0.23978
476.44491,0.10336
474.95512,0.09808
473.46533,0.09284
471.97554,0.05349
470.48575,0.20537
468.99596,0.12376
467.50618,0.06199
466.01639,0.00026
464.52660,0.11096
463.03681,0.11517
461.54702,0.11942
460.05723,0.12371
458.56745,0.07751
457.07766,0.06002
455.58787,0.11769
454.09808,0.17538
452.60829,0.19898
451.11850,0.22124
449.62871,0.20872
448.13893,0.19624
446.64914,0.28143
445.15935,0.50733
443.66956,0.60079
442.17977,0.56797
440.68998,0.53519
439.20020,0.58506
437.71041,0.61996
436.22062,0.63303
434.73083,0.64615
433.24104,0.85458
431.75125,1.03575
430.26146,1.07219
428.77168,1.10867
427.28189,1.32818
425.79210,1.32513
424.30231,1.28797
422.81252,1.25086
421.32273,1.30664
419.83295,1.20268
418.34316,1.11719
416.85337,1.03174
415.36358,0.87736
413.87379,0.77355
412.38400,0.75172
410.89422,0.72992
409.40443,0.67128
407.91464,0.80114
406.42485,0.63333
404.93506,0.55228
403.44527,0.47126
401.95548,0.42783
400.46570,0.40083
398.97591,0.48516
397.48612,0.56954
395.99633,0.49075
394.50654,0.57588
393.01675,0.55521
391.52697,0.53458
390.03718,0.39312
388.54739,0.24078
387.05760,0.28990
385.56781,0.33906
384.07802,0.37802
382.58824,0.50442
381.09845,0.42395
379.60866,0.34353
378.11887,0.35669
376.62908,0.25653
375.13929,0.27386
373.64950,0.29123
372.15972,0.17753
370.66993,0.14581
369.18014,0.10866
367.69035,0.07155
366.20056,0.15739
364.71077,0.13401
363.22099,0.16802
361.73120,0.20207
360.24141,0.15559
358.75162,0.09138
357.26183,0.10711
355.77204,0.12287
354.28225,0.21174
352.79247,0.08077
351.30268,0.08708
349.81289,0.09343
348.32310,0.02676
346.83331,0.04180
345.34352,0.08350
343.85374,0.12524
342.36395,0.15950
340.87416,0.11460
339.38437,0.09704
337.89458,0.07952
336.40479,0.13442
334.91501,0.01865
333.42522,0.00943
331.93543,0.00026
330.44564,0.15496
328.95585,0.05431
327.46606,0.12100
325.97627,0.18773
324.48649,0.04896
322.99670,0.11511
321.50691,0.12531
320.01712,0.13554
318.52733,0.10758
317.03754,0.20939
315.54776,0.20266
314.05797,0.19597
312.56818,0.07939
311.07839,0.03932
309.58860,0.01977
308.09881,0.00026
306.60902,0.00000
305.11924,0.03529
303.62945,0.05354
302.13966,0.03883
300.64987,0.00026
299.16008,0.00026
