1778.52000,0.02030
1777.03021,0.00141
1775.54042,0.00372
1774.05063,0.00782
1772.56085,0.02783
1771.07106,0.00289
1769.58127,0.03883
1768.09148,0.00425
1766.60169,0.00851
1765.11190,0.02779
1763.62212,0.03387
1762.13233,0.03469
1760.64254,0.02407
1759.15275,0.04877
1757.66296,0.03998
1756.17317,0.05768
1754.68339,0.04190
1753.19360,0.03761
1751.70381,0.00425
1750.21402,0.02899
1748.72423,0.03964
1747.23444,0.03710
1745.74465,0.03812
1744.25487,0.06033
1742.76508,0.04377
1741.27529,0.06604
1739.78550,0.05572
1738.29571,0.04013
1736.80592,0.02986
1735.31614,0.03903
1733.82635,0.00413
1732.33656,0.02306
1730.84677,0.00851
1729.35698,0.05044
1727.86719,0.01742
1726.37740,0.04971
1724.88762,0.00000
1723.39783,0.03343
1721.90804,0.03514
1720.41825,0.01306
1718.92846,0.00425
1717.43867,0.02164
1715.94889,0.04612
1714.45910,0.05211
1712.96931,0.05901
1711.47952,0.06418
1709.98973,0.02175
1708.49994,0.02433
1707.01016,0.03312
1705.52037,0.04194
1704.03058,0.04461
1702.54079,0.06496
1701.05100,0.06769
1699.56121,0.06958
1698.07142,0.08561
1696.58164,0.06109
1695.09185,0.11952
1693.60206,0.10389
1692.11227,0.09799
1690.62248,0.11153
1689.13269,0.09687
1687.64291,0.09107
1686.15312,0.12057
1684.66333,0.11836
1683.17354,0.13381
1681.68375,0.14753
1680.19396,0.11277
1678.70417,0.09304
1677.21439,0.10156
1675.72460,0.11893
1674.23481,0.10459
1672.74502,0.10879
1671.25523,0.09538
1669.76544,0.15698
1668.27566,0.14276
1666.78587,0.11798
1665.29608,0.10911
1663.80629,0.08439
1662.31650,0.08528
1660.82671,0.08267
1659.33693,0.11450
1657.84714,0.10137
1656.35735,0.08474
1654.86756,0.07962
1653.37777,0.05864
1651.88798,0.05710
1650.39819,0.09088
1648.90841,0.10351
1647.41862,0.07649
1645.92883,0.07331
1644.43904,0.07016
1642.94925,0.04411
1641.45946,0.11952
1639.96968,0.12352
1638.47989,0.10462
1636.99010,0.08840
1635.50031,0.07485
1634.01052,0.10102
1632.52073,0.07519
1631.03094,0.08731
1629.54116,0.11005
1628.05137,0.06402
1626.56158,0.09917
1625.07179,0.09201
1623.58200,0.12105
1622.09221,0.11748
1620.60243,0.10600
1619.11264,0.09985
1617.62285,0.15635
1616.13306,0.10528
1614.64327,0.14508
1613.15348,0.11436
1611.66370,0.09601
1610.17391,0.09181
1608.68412,0.11674
1607.19433,0.11701
1605.70454,0.08732
1604.21475,0.09603
1602.72496,0.10477
1601.23518,0.13427
1599.74539,0.09500
1598.25560,0.09192
1596.76581,0.07917
1595.27602,0.07351
1593.78623,0.10052
1592.29645,0.08610
1590.80666,0.08494
1589.31687,0.09264
1587.82708,0.04921
1586.33729,0.07460
1584.84750,0.08592
1583.35771,0.09726
1581.86793,0.00809
1580.37814,0.07065
1578.88835,0.05916
1577.39856,0.05651
1575.90877,0.06096
1574.41898,0.04955
1572.92920,0.04788
1571.43941,0.02772
1569.94962,0.01597
1568.45983,0.00425
1566.97004,0.01327
1565.48025,0.01085
1563.99047,0.03669
1562.50068,0.02551
1561.01089,0.05935
1559.52110,0.02707
1558.03131,0.02392
1556.54152,0.01287
1555.05173,0.06977
1553.56195,0.05436
1552.07216,0.03105
1550.58237,0.04041
1549.09258,0.06127
1547.60279,0.01071
1546.11300,0.03251
1544.62322,0.04551
1543.13343,0.01092
1541.64364,0.07339
1540.15385,0.06620
1538.66406,0.05905
1537.17427,0.04663
1535.68448,0.04042
1534.19470,0.00425
1532.70491,0.01029
1531.21512,0.04899
1529.72533,0.02157
1528.23554,0.02681
1526.74575,0.04797
1525.25597,0.09032
1523.76618,0.04715
1522.27639,0.04722
1520.78660,0.01999
1519.29681,0.00425
1517.80702,0.01055
1516.31724,0.00894
1514.82745,0.03383
1513.33766,0.03669
1511.84787,0.03959
1510.35808,0.05574
1508.86829,0.06046
1507.37850,0.02288
1505.88872,0.05941
1504.39893,0.00425
1502.90914,0.05130
1501.41935,0.07457
1499.92956,0.03348
1498.43977,0.07004
1496.94999,0.13221
1495.46020,0.16089
1493.97041,0.14197
1492.48062,0.21305
1490.99083,0.22419
1489.50104,0.30239
1488.01125,0.31182
1486.52147,0.32128
1485.03168,0.41633
1483.54189,0.46467
1482.05210,0.51920
1480.56231,0.58259
1479.07252,0.68747
1477.58274,0.70153
1476.09295,0.76766
1474.60316,0.81176
1473.11337,0.91059
1471.62358,0.87273
1470.13379,0.91870
1468.64401,0.92853
1467.15422,0.80520
1465.66443,0.78511
1464.17464,0.76504
1462.68485,0.64534
1461.19506,0.69325
1459.70527,0.64859
1458.21549,0.54926
1456.72570,0.50113
1455.23591,0.55357
1453.74612,0.44023
1452.25633,0.44158
1450.76654,0.36799
1449.27676,0.35088
1447.78697,0.32586
1446.29718,0.31499
1444.80739,0.30370
1443.31760,0.29245
1441.82781,0.20316
1440.33802,0.20564
1438.84824,0.16141
1437.35845,0.07133
1435.86866,0.11801
1434.37887,0.13031
1432.88908,0.14706
1431.39929,0.09857
1429.90951,0.11008
1428.41972,0.17984
1426.92993,0.12086
1425.44014,0.13687
1423.95035,0.13308
1422.46056,0.12931
1420.97078,0.11543
1419.48099,0.17568
1417.99120,0.18567
1416.50141,0.17806
1415.01162,0.18812
1413.52183,0.20791
1412.03204,0.18805
1410.54226,0.16468
1409.05247,0.20221
1407.56268,0.15509
1406.07289,0.17592
1404.58310,0.16546
1403.09331,0.15504
1401.60353,0.24829
1400.11374,0.28424
1398.62395,0.35109
1397.13416,0.29713
1395.64437,0.33140
1394.15458,0.37806
1392.66479,0.38417
1391.17501,0.36561
1389.68522,0.39207
1388.19543,0.40974
1386.70564,0.44024
1385.21585,0.47076
1383.72606,0.46559
1382.23628,0.40929
1380.74649,0.39183
1379.25670,0.42292
1377.76691,0.37377
1376.27712,0.41374
1374.78733,0.52430
1373.29755,0.58109
1371.80776,0.61233
1370.31797,0.77590
1368.82818,0.86057
1367.33839,0.94527
1365.84860,1.10629
1364.35881,1.27616
1362.86903,1.41431
1361.37924,1.44489
1359.88945,1.39170
1358.39966,1.49730
1356.90987,1.58001
1355.42008,1.50398
1353.93030,1.41034
1352.44051,1.31982
1350.95072,1.22933
1349.46093,1.18871
1347.97114,1.04315
1346.48135,0.89674
1344.99156,0.82446
1343.50178,0.71869
1342.01199,0.60060
1340.52220,0.45431
1339.03241,0.46771
1337.54262,0.50583
1336.05283,0.46328
1334.56305,0.42076
1333.07326,0.38047
1331.58347,0.37550
1330.09368,0.33263
1328.60389,0.23863
1327.11410,0.27873
1325.62432,0.22184
1324.13453,0.18615
1322.64474,0.22635
1321.15495,0.24805
1319.66516,0.22701
1318.17537,0.20599
1316.68558,0.20309
1315.19580,0.25932
1313.70601,0.16563
1312.21622,0.16194
1310.72643,0.13181
1309.23664,0.16258
1307.74685,0.18016
1306.25707,0.16600
1304.76728,0.14174
1303.27749,0.11750
1301.78770,0.14314
1300.29791,0.16263
1298.80812,0.19890
1297.31834,0.18494
1295.82855,0.18158
1294.33876,0.18356
1292.84897,0.16527
1291.35918,0.16730
1289.86939,0.18568
1288.37960,0.20410
1286.88982,0.17182
1285.40003,0.27718
1283.91024,0.23703
1282.42045,0.19955
1280.93066,0.27325
1279.44087,0.27905
1277.95109,0.25755
1276.46130,0.25460
1274.97151,0.23404
1273.48172,0.21351
1271.99193,0.26004
1270.50214,0.28897
1269.01235,0.37349
1267.52257,0.36455
1266.03278,0.32036
1264.54299,0.35558
1263.05320,0.37937
1261.56341,0.38819
1260.07362,0.39705
1258.58384,0.44386
1257.09405,0.39544
1255.60426,0.40262
1254.11447,0.41513
1252.62468,0.42061
1251.13489,0.46581
1249.64511,0.34875
1248.15532,0.28464
1246.66553,0.28010
1245.17574,0.27559
1243.68595,0.25391
1242.19616,0.21374
1240.70637,0.23182
1239.21659,0.22964
1237.72680,0.17721
1236.23701,0.17862
1234.74722,0.10509
1233.25743,0.12023
1231.76764,0.13540
1230.27786,0.19074
1228.78807,0.14908
1227.29828,0.13745
1225.80849,0.10026
1224.31870,0.04635
1222.82891,0.06744
1221.33912,0.09562
1219.84934,0.09736
1218.35955,0.09914
1216.86976,0.07449
1215.37997,0.12661
1213.89018,0.13377
1212.40039,0.10657
1210.91061,0.05205
1209.42082,0.07430
1207.93103,0.07100
1206.44124,0.06773
1204.95145,0.09008
1203.46166,0.09040
1201.97188,0.08105
1200.48209,0.06291
1198.99230,0.10831
1197.50251,0.09553
1196.01272,0.04396
1194.52293,0.04712
1193.03314,0.05030
1191.54336,0.03676
1190.05357,0.06646
1188.56378,0.02476
1187.07399,0.00425
1185.58420,0.00468
1184.09441,0.01671
1182.60463,0.03802
1181.11484,0.05937
1179.62505,0.08736
1178.13526,0.11010
1176.64547,0.04289
1175.15568,0.09744
1173.66589,0.15643
1172.17611,0.10960
1170.68632,0.08927
1169.19653,0.06897
1167.70674,0.13072
1166.21695,0.06726
1164.72716,0.11232
1163.23738,0.06216
1161.74759,0.07023
1160.25780,0.00425
1158.76801,0.03222
1157.27822,0.06022
1155.78843,0.08738
1154.29865,0.07046
1152.80886,0.04739
1151.31907,0.08346
1149.82928,0.10456
1148.33949,0.16009
1146.84970,0.14288
1145.35991,0.12571
1143.87013,0.11165
1142.38034,0.10909
1140.89055,0.11097
1139.40076,0.15698
1137.91097,0.18980
1136.42118,0.14855
1134.93140,0.19995
1133.44161,0.25138
1131.95182,0.24638
1130.46203,0.28376
1128.97224,0.32117
1127.48245,0.29687
1125.99266,0.39167
1124.50288,0.36831
1123.01309,0.36703
1121.52330,0.36579
1120.03351,0.41749
1118.54372,0.47893
1117.05393,0.40104
1115.56415,0.41844
1114.07436,0.42881
1112.58457,0.44495
1111.09478,0.46112
1109.60499,0.49628
1108.11520,0.52442
1106.62542,0.50672
1105.13563,0.54374
1103.64584,0.58167
1102.15605,0.63728
1100.66626,0.67527
1099.17647,0.71330
1097.68668,0.78222
1096.19690,0.82737
1094.70711,0.82491
1093.21732,0.89481
1091.72753,0.83067
1090.23774,0.83757
1088.74795,0.84450
1087.25817,0.84308
1085.76838,0.86903
1084.27859,0.92677
1082.78880,1.09744
1081.29901,1.12172
1079.80922,1.05518
1078.31943,1.07997
1076.82965,1.10478
1075.33986,1.24562
1073.85007,1.19332
1072.36028,1.21249
1070.87049,1.22111
1069.38070,1.32943
1067.89092,1.34297
1066.40113,1.35653
1064.91134,1.33441
1063.42155,1.16413
1061.93176,1.06797
1060.44197,1.05476
1058.95219,0.93750
1057.46240,0.91111
1055.97261,0.88476
1054.48282,0.83462
1052.99303,0.79598
1051.50324,0.67976
1050.01345,0.65000
1048.52367,0.58058
1047.03388,0.54471
1045.54409,0.50887
1044.05430,0.56568
1042.56451,0.51138
1041.07472,0.48181
1039.58494,0.36142
1038.09515,0.27457
1036.60536,0.29008
1035.11557,0.30561
1033.62578,0.26385
1032.13599,0.26797
1030.64620,0.28625
1029.15642,0.37071
1027.66663,0.39213
1026.17684,0.41358
1024.68705,0.49372
1023.19726,0.57213
1021.70747,0.72024
1020.21769,0.85163
1018.72790,1.09860
1017.23811,1.24857
1015.74832,1.39858
1014.25853,1.60947
1012.76874,1.76836
1011.27896,1.75969
1009.78917,1.78545
1008.29938,2.00000
1006.80959,1.98481
1005.31980,1.96965
1003.83001,1.80589
1002.34022,1.78859
1000.85044,1.69723
999.36065,1.52739
997.87086,1.47446
996.38107,1.42155
994.89128,1.39999
993.40149,1.54340
991.91171,1.51926
990.42192,1.43957
988.93213,1.42519
987.44234,1.42540
985.95255,1.42563
984.46276,1.41840
982.97297,1.31417
981.48319,1.16499
979.99340,1.11375
978.50361,1.14501
977.01382,1.17630
975.52403,1.16837
974.03424,1.10491
972.54446,1.00178
971.05467,1.02569
969.56488,0.91557
968.07509,0.89457
966.58530,0.87359
965.09551,0.69653
963.60573,0.76029
962.11594,0.77998
960.62615,0.74942
959.13636,0.68671
957.64657,0.62402
956.15678,0.60502
954.66699,0.54725
953.17721,0.63504
951.68742,0.54910
950.19763,0.57654
948.70784,0.60400
947.21805,0.51199
945.72826,0.53466
944.23848,0.49122
942.74869,0.55453
941.25890,0.58347
939.76911,0.58775
938.27932,0.59205
936.78953,0.62285
935.29974,0.62810
933.80996,0.71277
932.32017,0.71632
930.83038,0.71593
929.34059,0.71557
927.85080,0.69275
926.36101,0.73170
924.87123,0.66749
923.38144,0.57331
921.89165,0.57134
920.40186,0.56941
918.91207,0.49738
917.42228,0.53916
915.93250,0.65595
914.44271,0.55491
912.95292,0.55180
911.46313,0.54872
909.97334,0.58272
908.48355,0.62028
906.99376,0.64288
905.50398,0.57818
904.01419,0.57217
902.52440,0.56619
901.03461,0.67447
899.54482,0.73603
898.05503,0.65296
896.56525,0.67401
895.07546,0.66863
893.58567,0.66327
892.09588,0.66324
890.60609,0.67207
889.11630,0.69062
887.62651,0.68363
886.13673,0.68416
884.64694,0.68473
883.15715,0.74045
881.66736,0.70006
880.17757,0.74085
878.68778,0.74022
877.19800,0.73961
875.70821,0.76903
874.21842,0.82229
872.72863,0.92322
871.23884,1.00741
869.74905,1.00696
868.25927,1.00654
866.76948,0.96646
865.27969,0.96699
863.78990,0.99401
862.30011,0.99900
860.81032,0.96213
859.32053,0.92529
857.83075,0.84835
856.34096,0.92933
854.85117,0.87274
853.36138,0.77560
851.87159,0.72657
850.38180,0.67757
848.89202,0.67490
847.40223,0.50998
845.91244,0.48091
844.42265,0.44526
842.93286,0.40965
841.44307,0.36568
839.95329,0.32528
838.46350,0.28754
836.97371,0.32041
835.48392,0.32199
833.99413,0.32360
832.50434,0.24895
831.01455,0.30664
829.52477,0.28409
828.03498,0.27832
826.54519,0.24569
825.05540,0.21309
823.56561,0.23124
822.07582,0.19649
820.58604,0.21117
819.09625,0.19192
817.60646,0.17271
816.11667,0.08605
814.62688,0.08056
813.13709,0.03189
811.64730,0.07674
810.15752,0.04048
808.66773,0.00425
807.17794,0.01811
805.68815,0.03641
804.19836,0.12883
802.70857,0.12911
801.21879,0.12942
799.72900,0.13461
798.23921,0.22362
796.74942,0.37441
795.25963,0.38058
793.76984,0.38678
792.28006,0.45386
790.79027,0.51657
789.30048,0.57667
787.81069,0.59974
786.32090,0.61800
784.83111,0.63629
783.34132,0.71768
781.85154,0.71618
780.36175,0.71560
778.87196,0.67712
777.38217,0.63867
775.89238,0.66553
774.40259,0.79385
772.91281,0.78283
771.42302,0.81110
769.93323,0.83940
768.44344,0.78615
766.95365,0.76820
765.46386,0.75470
763.97407,0.79150
762.48429,0.72072
760.99450,0.64998
759.50471,0.56603
758.01492,0.41950
756.52513,0.40882
755.03534,0.36555
753.54556,0.32230
752.05577,0.23763
750.56598,0.21737
749.07619,0.13188
747.58640,0.13198
746.09661,0.13210
744.60683,0.11639
743.11704,0.07159
741.62725,0.09915
740.13746,0.05927
738.64767,0.01942
737.15788,0.07441
735.66809,0.07476
734.17831,0.02838
732.68852,0.04510
731.19873,0.06186
729.70894,0.06320
728.21915,0.05312
726.72936,0.00425
725.23958,0.04350
723.74979,0.05984
722.26000,0.07621
720.77021,0.09174
719.28042,0.09406
717.79063,0.08495
716.30084,0.04456
714.81106,0.00419
713.32127,0.00088
711.83148,0.02525
710.34169,0.02319
708.85190,0.04234
707.36211,0.06151
705.87233,0.04190
704.38254,0.02321
702.89275,0.08393
701.40296,0.08206
699.91317,0.08022
698.42338,0.07047
696.93360,0.09956
695.44381,0.14280
693.95402,0.14196
692.46423,0.14116
690.97444,0.14479
689.48465,0.17580
687.99486,0.24742
686.50508,0.23747
685.01529,0.22756
683.52550,0.23135
682.03571,0.22900
680.54592,0.17463
679.05613,0.17499
677.56635,0.17537
676.07656,0.21195
674.58677,0.11802
673.09698,0.11673
671.60719,0.09960
670.11740,0.08250
668.62761,0.11218
667.13783,0.10484
665.64804,0.08607
664.15825,0.06732
662.66846,0.03362
661.17867,0.03346
659.68888,0.07038
658.19910,0.10821
656.70931,0.14607
655.21952,0.09841
653.72973,0.08517
652.23994,0.13724
650.75015,0.09672
649.26037,0.05624
647.77058,0.11192
646.28079,0.04857
644.79100,0.02934
643.30121,0.02515
641.81142,0.02098
640.32163,0.06447
638.83185,0.01979
637.34206,0.00425
635.85227,0.01683
634.36248,0.02945
632.87269,0.05885
631.38290,0.07241
629.89312,0.04631
628.40333,0.03435
626.91354,0.02242
625.42375,0.07844
623.93396,0.06658
622.44417,0.09399
620.95438,0.12144
619.46460,0.06291
617.97481,0.05911
616.48502,0.11972
614.99523,0.13009
613.50544,0.14049
612.01565,0.16945
610.52587,0.06965
609.03608,0.11014
607.54629,0.10170
606.05650,0.09329
604.56671,0.14709
603.07692,0.15683
601.58714,0.16483
600.09735,0.17286
598.60756,0.06449
597.11777,0.06376
595.62798,0.10188
594.13819,0.09901
592.64840,0.09617
591.15862,0.12290
589.66883,0.04648
588.17904,0.13855
586.68925,0.11422
585.19946,0.08993
583.70967,0.08771
582.21989,0.12081
580.73010,0.10543
579.24031,0.09007
577.75052,0.17354
576.26073,0.14237
574.77094,0.15622
573.28115,0.18554
571.79137,0.21488
570.30158,0.22529
568.81179,0.32217
567.32200,0.32912
565.83221,0.33609
564.34242,0.35369
562.85264,0.39160
561.36285,0.38808
559.87306,0.38283
558.38327,0.37761
556.89348,0.47033
555.40369,0.59219
553.91391,0.59103
552.42412,0.58990
550.93433,0.59366
549.44454,0.55687
547.95475,0.63831
546.46496,0.63246
544.97517,0.62663
543.48539,0.80607
541.99560,0.76855
540.50581,0.73283
539.01602,0.69714
537.52623,0.72146
536.03644,0.64262
534.54666,0.57703
533.05687,0.58733
531.56708,0.59766
530.07729,0.60097
528.58750,0.58578
527.09771,0.54549
525.60792,0.50523
524.11814,0.45661
522.62835,0.50858
521.13856,0.44680
519.64877,0.41857
518.15898,0.39037
516.66919,0.31457
515.17941,0.28467
513.68962,0.30066
512.19983,0.31668
510.71004,0.36096
509.22025,0.33912
507.73046,0.37905
506.24068,0.38417
504.75089,0.38933
503.26110,0.46287
501.77131,0.33974
500.28152,0.38380
498.79173,0.42788
497.30194,0.32250
495.81216,0.37061
494.32237,0.40200
492.83258,0.43342
491.34279,0.35991
489.85300,0.35081
488.36321,0.29324
486.87343,0.27495
485.38364,0.25668
483.89385,0.22478
482.40406,0.19820
480.91427,0.20517
479.42448,0.21217
477.93469,0.13276
476.44491,0.07455
474.95512,0.08517
473.46533,0.09582
471.97554,0.06681
470.48575,0.10310
468.99596,0.13148
467.50618,0.11315
466.01639,0.09485
464.52660,0.00425
463.03681,0.02737
461.54702,0.04258
460.05723,0.05781
458.56745,0.07838
457.07766,0.10426
455.58787,0.11519
454.09808,0.12614
452.60829,0.16535
451.11850,0.16930
449.62871,0.17770
448.13893,0.18613
446.64914,0.34983
445.15935,0.43241
443.66956,0.44094
442.17977,0.44199
440.68998,0.44308
439.20020,0.52137
437.71041,0.67026
436.22062,0.74068
434.73083,0.81113
433.24104,0.80752
431.75125,0.94595
430.26146,1.03105
428.77168,1.11617
427.28189,1.17619
425.79210,1.20449
424.30231,1.20150
422.81252,1.19855
421.32273,1.05671
419.83295,1.01545
418.34316,0.98480
416.85337,0.95419
415.36358,0.81776
413.87379,0.76780
412.38400,0.72272
410.89422,0.67768
409.40443,0.65957
407.91464,0.66530
406.42485,0.62520
404.93506,0.55602
403.44527,0.48688
401.95548,0.46186
400.46570,0.43600
398.97591,0.44059
397.48612,0.44522
395.99633,0.47942
394.50654,0.48896
393.01675,0.49059
391.52697,0.49226
390.03718,0.44279
388.54739,0.33162
387.05760,0.32984
385.56781,0.32810
384.07802,0.35461
382.58824,0.41820
381.09845,0.36981
379.60866,0.32144
378.11887,0.28986
376.62908,0.18687
375.13929,0.18358
373.64950,0.18032
372.15972,0.12417
370.66993,0.05658
369.18014,0.09575
367.69035,0.13495
366.20056,0.09833
364.71077,0.09878
363.22099,0.09882
361.73120,0.09890
360.24141,0.09415
358.75162,0.09914
357.26183,0.10239
355.77204,0.10568
354.28225,0.12046
352.79247,0.00649
351.30268,0.00536
349.81289,0.00425
348.32310,0.04829
346.83331,0.07207
345.34352,0.09236
343.85374,0.11268
342.36395,0.07216
340.87416,0.09872
339.38437,0.07502
337.89458,0.05136
336.40479,0.06654
334.91501,0.09057
333.42522,0.07758
331.93543,0.06463
330.44564,0.14785
328.95585,0.08115
327.46606,0.11460
325.97627,0.14807
324.48649,0.05942
322.99670,0.03430
321.50691,0.04692
320.01712,0.05957
318.52733,0.17765
317.03754,0.18551
315.54776,0.15636
314.05797,0.12723
312.56818,0.11049
311.07839,0.09906
309.58860,0.08900
308.09881,0.07896
306.60902,0.06410
305.11924,0.03163
303.62945,0.03845
302.13966,0.00425
300.64987,0.02496
299.16008,0.00425
