1778.52000,0.00666
1777.03021,0.04050
1775.54042,0.00021
1774.05063,0.00735
1772.56085,0.00000
1771.07106,0.00796
1769.58127,0.01902
1768.09148,0.00411
1766.60169,0.00299
1765.11190,0.02942
1763.62212,0.02759
1762.13233,0.01586
1760.64254,0.01868
1759.15275,0.02001
1757.66296,0.03588
1756.17317,0.01968
1754.68339,0.00046
1753.19360,0.00731
1751.70381,0.00885
1750.21402,0.00736
1748.72423,0.02654
1747.23444,0.01746
1745.74465,0.02447
1744.25487,0.00704
1742.76508,0.01951
1741.27529,0.03735
1739.78550,0.03153
1738.29571,0.03033
1736.80592,0.04215
1735.31614,0.03489
1733.82635,0.00319
1732.33656,0.01510
1730.84677,0.03316
1729.35698,0.03366
1727.86719,0.02426
1726.37740,0.01870
1724.88762,0.02923
1723.39783,0.02298
1721.90804,0.00299
1720.41825,0.03136
1718.92846,0.04219
1717.43867,0.03469
1715.94889,0.02417
1714.45910,0.02821
1712.96931,0.02386
1711.47952,0.03636
1709.98973,0.03666
1708.49994,0.03623
1707.01016,0.03850
1705.52037,0.04080
1704.03058,0.04733
1702.54079,0.04014
1701.05100,0.07884
1699.56121,0.08623
1698.07142,0.06690
1696.58164,0.07587
1695.09185,0.10629
1693.60206,0.10997
1692.11227,0.08158
1690.62248,0.13120
1689.13269,0.14338
1687.64291,0.12731
1686.15312,0.13726
1684.66333,0.11819
1683.17354,0.14885
1681.68375,0.14666
1680.19396,0.11927
1678.70417,0.11179
1677.21439,0.12192
1675.72460,0.17489
1674.23481,0.13309
1672.74502,0.12497
1671.25523,0.14057
1669.76544,0.16614
1668.27566,0.12523
1666.78587,0.11952
1665.29608,0.10848
1663.80629,0.08754
1662.31650,0.09338
1660.82671,0.07708
1659.33693,0.06846
1657.84714,0.08127
1656.35735,0.08494
1654.86756,0.11692
1653.37777,0.09007
1651.88798,0.08084
1650.39819,0.11673
1648.90841,0.09685
1647.41862,0.10529
1645.92883,0.08508
1644.43904,0.06491
1642.94925,0.12083
1641.45946,0.12709
1639.96968,0.11886
1638.47989,0.09154
1636.99010,0.09789
1635.50031,0.14708
1634.01052,0.09921
1632.52073,0.10718
1631.03094,0.07237
1629.54116,0.11327
1628.05137,0.10222
1626.56158,0.10037
1625.07179,0.10772
1623.58200,0.14492
1622.09221,0.15844
1620.60243,0.15748
1619.11264,0.16571
1617.62285,0.13347
1616.13306,0.12800
1614.64327,0.09581
1613.15348,0.12175
1611.66370,0.10873
1610.17391,0.13626
1608.68412,0.14776
1607.19433,0.13484
1605.70454,0.13723
1604.21475,0.12665
1602.72496,0.11610
1601.23518,0.15298
1599.74539,0.11804
1598.25560,0.11905
1596.76581,0.07651
1595.27602,0.10281
1593.78623,0.09779
1592.29645,0.08746
1590.80666,0.06415
1589.31687,0.05999
1587.82708,0.07115
1586.33729,0.06705
1584.84750,0.05915
1583.35771,0.03524
1581.86793,0.02129
1580.37814,0.04024
1578.88835,0.05769
1577.39856,0.06370
1575.90877,0.04529
1574.41898,0.04678
1572.92920,0.03530
1571.43941,0.00015
1569.94962,0.01358
1568.45983,0.02703
1566.97004,0.01568
1565.48025,0.03110
1563.99047,0.00299
1562.50068,0.00573
1561.01089,0.02761
1559.52110,0.02659
1558.03131,0.01184
1556.54152,0.04375
1555.05173,0.06346
1553.56195,0.01669
1552.07216,0.02499
1550.58237,0.02950
1549.09258,0.03021
1547.60279,0.04319
1546.11300,0.04703
1544.62322,0.03713
1543.13343,0.01885
1541.64364,0.02660
1540.15385,0.05463
1538.66406,0.08270
1537.17427,0.04467
1535.68448,0.01049
1534.19470,0.01380
1532.70491,0.02401
1531.21512,0.03197
1529.72533,0.03078
1528.23554,0.00134
1526.74575,0.05208
1525.25597,0.00423
1523.76618,0.03057
1522.27639,0.02636
1520.78660,0.00460
1519.29681,0.01090
1517.80702,0.00883
1516.31724,0.04272
1514.82745,0.02694
1513.33766,0.03069
1511.84787,0.03447
1510.35808,0.03255
1508.86829,0.01384
1507.37850,0.03185
1505.88872,0.01091
1504.39893,0.00299
1502.90914,0.01593
1501.41935,0.02737
1499.92956,0.01897
1498.43977,0.08169
1496.94999,0.08481
1495.46020,0.11396
1493.97041,0.13931
1492.48062,0.20980
1490.99083,0.21227
1489.50104,0.28893
1488.01125,0.33619
1486.52147,0.38348
1485.03168,0.39984
1483.54189,0.50720
1482.05210,0.53967
1480.56231,0.61498
1479.07252,0.69414
1477.58274,0.78939
1476.09295,0.81663
1474.60316,0.87218
1473.11337,0.95681
1471.62358,0.96503
1470.13379,0.96716
1468.64401,0.93569
1467.15422,0.86067
1465.66443,0.84111
1464.17464,0.82157
1462.68485,0.73135
1461.19506,0.69238
1459.70527,0.67714
1458.21549,0.58549
1456.72570,0.56877
1455.23591,0.51769
1453.74612,0.45518
1452.25633,0.41791
1450.76654,0.38068
1449.27676,0.38094
1447.78697,0.34759
1446.29718,0.36702
1444.80739,0.33182
1443.31760,0.29665
1441.82781,0.22290
1440.33802,0.18894
1438.84824,0.16800
1437.35845,0.11192
1435.86866,0.08034
1434.37887,0.10918
1432.88908,0.12735
1431.39929,0.12414
1429.90951,0.11408
1428.41972,0.12928
1426.92993,0.15063
1425.44014,0.10855
1423.95035,0.13302
1422.46056,0.15751
1420.97078,0.18738
1419.48099,0.19435
1417.99120,0.19829
1416.50141,0.19920
1415.01162,0.21391
1413.52183,0.21412
1412.03204,0.20671
1410.54226,0.16340
1409.05247,0.20040
1407.56268,0.20378
1406.07289,0.23090
1404.58310,0.22287
1403.09331,0.21488
1401.60353,0.22374
1400.11374,0.25021
1398.62395,0.29964
1397.13416,0.28259
1395.64437,0.33438
1394.15458,0.43588
1392.66479,0.44798
1391.17501,0.41500
1389.68522,0.42027
1388.19543,0.44239
1386.70564,0.43702
1385.21585,0.43168
1383.72606,0.46765
1382.23628,0.41803
1380.74649,0.38526
1379.25670,0.44808
1377.76691,0.43142
1376.27712,0.40256
1374.78733,0.47235
1373.29755,0.53528
1371.80776,0.61124
1370.31797,0.77668
1368.82818,0.87448
1367.33839,0.97232
1365.84860,1.11185
1364.35881,1.27281
1362.86903,1.42081
1361.37924,1.47328
1359.88945,1.51279
1358.39966,1.62036
1356.90987,1.59571
1355.42008,1.53516
1353.93030,1.52434
1352.44051,1.44283
1350.95072,1.36135
1349.46093,1.27187
1347.97114,1.07005
1346.48135,0.87208
1344.99156,0.79263
1343.50178,0.72162
1342.01199,0.65981
1340.52220,0.57280
1339.03241,0.52482
1337.54262,0.48985
1336.05283,0.46562
1334.56305,0.44142
1333.07326,0.41114
1331.58347,0.37629
1330.09368,0.34530
1328.60389,0.31511
1327.11410,0.25818
1325.62432,0.25557
1324.13453,0.23081
1322.64474,0.29858
1321.15495,0.26930
1319.66516,0.23813
1318.17537,0.20700
1316.68558,0.19615
1315.19580,0.20292
1313.70601,0.22424
1312.21622,0.15462
1310.72643,0.14924
1309.23664,0.20047
1307.74685,0.22267
1306.25707,0.21968
1304.76728,0.18996
1303.27749,0.16027
1301.78770,0.14437
1300.29791,0.17207
1298.80812,0.16159
1297.31834,0.13507
1295.82855,0.18274
1294.33876,0.19528
1292.84897,0.17039
1291.35918,0.20362
1289.86939,0.19331
1288.37960,0.18303
1286.88982,0.22323
1285.40003,0.24512
1283.91024,0.20053
1282.42045,0.19955
1280.93066,0.22534
1279.44087,0.20760
1277.95109,0.21970
1276.46130,0.24559
1274.97151,0.25239
1273.48172,0.25923
1271.99193,0.31502
1270.50214,0.29211
1269.01235,0.30744
1267.52257,0.32586
1266.03278,0.35120
1264.54299,0.35974
1263.05320,0.34462
1261.56341,0.33220
1260.07362,0.31981
1258.58384,0.40187
1257.09405,0.41438
1255.60426,0.45904
1254.11447,0.41504
1252.62468,0.42612
1251.13489,0.38983
1249.64511,0.39791
1248.15532,0.32957
1246.66553,0.27732
1245.17574,0.22510
1243.68595,0.26923
1242.19616,0.24993
1240.70637,0.21309
1239.21659,0.21526
1237.72680,0.20523
1236.23701,0.18147
1234.74722,0.15469
1233.25743,0.14054
1231.76764,0.12643
1230.27786,0.14484
1228.78807,0.13422
1227.29828,0.11064
1225.80849,0.06798
1224.31870,0.07351
1222.82891,0.07677
1221.33912,0.06784
1219.84934,0.06658
1218.35955,0.06534
1216.86976,0.05191
1215.37997,0.13406
1213.89018,0.09393
1212.40039,0.09588
1210.91061,0.08257
1209.42082,0.08304
1207.93103,0.06520
1206.44124,0.04739
1204.95145,0.06248
1203.46166,0.05696
1201.97188,0.07058
1200.48209,0.06665
1198.99230,0.07269
1197.50251,0.03442
1196.01272,0.03210
1194.52293,0.04664
1193.03314,0.06120
1191.54336,0.06509
1190.05357,0.06290
1188.56378,0.01181
1187.07399,0.02420
1185.58420,0.00299
1184.09441,0.06146
1182.60463,0.06836
1181.11484,0.07529
1179.62505,0.06964
1178.13526,0.07166
1176.64547,0.06301
1175.15568,0.05974
1173.66589,0.07408
1172.17611,0.07393
1170.68632,0.05660
1169.19653,0.03931
1167.70674,0.04383
1166.21695,0.06597
1164.72716,0.02545
1163.23738,0.06905
1161.74759,0.02553
1160.25780,0.01721
1158.76801,0.02038
1157.27822,0.02359
1155.78843,0.06963
1154.29865,0.05454
1152.80886,0.07083
1151.31907,0.04281
1149.82928,0.07904
1148.33949,0.09465
1146.84970,0.09654
1145.35991,0.09845
1143.87013,0.05911
1142.38034,0.00299
1140.89055,0.03909
1139.40076,0.11114
1137.91097,0.11596
1136.42118,0.13915
1134.93140,0.16314
1133.44161,0.18716
1131.95182,0.24637
1130.46203,0.26739
1128.97224,0.21887
1127.48245,0.25600
1125.99266,0.28017
1124.50288,0.30207
1123.01309,0.29954
1121.52330,0.29704
1120.03351,0.34044
1118.54372,0.35328
1117.05393,0.37763
1115.56415,0.41653
1114.07436,0.43405
1112.58457,0.43288
1111.09478,0.43173
1109.60499,0.42718
1108.11520,0.44100
1106.62542,0.39370
1105.13563,0.46568
1103.64584,0.54762
1102.15605,0.68158
1100.66626,0.69441
1099.17647,0.70726
1097.68668,0.72741
1096.19690,0.80798
1094.70711,0.75480
1093.21732,0.79644
1091.72753,0.74943
1090.23774,0.79419
1088.74795,0.83898
1087.25817,0.81652
1085.76838,0.84226
1084.27859,0.95900
1082.78880,0.99167
1081.29901,1.03355
1079.80922,1.06246
1078.31943,1.06007
1076.82965,1.05770
1075.33986,1.16620
1073.85007,1.21740
1072.36028,1.14556
1070.87049,1.16472
1069.38070,1.17320
1067.89092,1.23369
1066.40113,1.29422
1064.91134,1.21411
1063.42155,1.11493
1061.93176,0.99207
1060.44197,0.93193
1058.95219,0.94139
1057.46240,0.87749
1055.97261,0.81362
1054.48282,0.73907
1052.99303,0.74865
1051.50324,0.61301
1050.01345,0.57601
1048.52367,0.55739
1047.03388,0.53460
1045.54409,0.51183
1044.05430,0.44896
1042.56451,0.43123
1041.07472,0.41887
1039.58494,0.32705
1038.09515,0.27118
1036.60536,0.25088
1035.11557,0.23062
1033.62578,0.19778
1032.13599,0.18178
1030.64620,0.24302
1029.15642,0.35016
1027.66663,0.36865
1026.17684,0.38717
1024.68705,0.44471
1023.19726,0.58102
1021.70747,0.69595
1020.21769,0.93016
1018.72790,1.11396
1017.23811,1.21178
1015.74832,1.30963
1014.25853,1.56460
1012.76874,1.68507
1011.27896,1.79791
1009.78917,1.86110
1008.29938,2.00000
1006.80959,1.95966
1005.31980,1.91936
1003.83001,1.76939
1002.34022,1.73334
1000.85044,1.66523
999.36065,1.60555
997.87086,1.50347
996.38107,1.40142
994.89128,1.38617
993.40149,1.40459
991.91171,1.39933
990.42192,1.33983
988.93213,1.24290
987.44234,1.27214
985.95255,1.30140
984.46276,1.29859
982.97297,1.21784
981.48319,1.13023
979.99340,1.05794
978.50361,1.05946
977.01382,1.06100
975.52403,1.03008
974.03424,0.98543
972.54446,0.92935
971.05467,0.86565
969.56488,0.80122
968.07509,0.77427
966.58530,0.74735
965.09551,0.62644
963.60573,0.70049
962.11594,0.64920
960.62615,0.66292
959.13636,0.61322
957.64657,0.56355
956.15678,0.51009
954.66699,0.49794
953.17721,0.48505
951.68742,0.48978
950.19763,0.47313
948.70784,0.45651
947.21805,0.46362
945.72826,0.40807
944.23848,0.41753
942.74869,0.43237
941.25890,0.43196
939.76911,0.50228
938.27932,0.57263
936.78953,0.67398
935.29974,0.63317
933.80996,0.60767
932.32017,0.59597
930.83038,0.60608
929.34059,0.61622
927.85080,0.61989
926.36101,0.60907
924.87123,0.55242
923.38144,0.48814
921.89165,0.52213
920.40186,0.55615
918.91207,0.51108
917.42228,0.50273
915.93250,0.53493
914.44271,0.49148
912.95292,0.50271
911.46313,0.51397
909.97334,0.53177
908.48355,0.51290
906.99376,0.55139
905.50398,0.52646
904.01419,0.50386
902.52440,0.48128
901.03461,0.58946
899.54482,0.60364
898.05503,0.53605
896.56525,0.61909
895.07546,0.57220
893.58567,0.52534
892.09588,0.56184
890.60609,0.64882
889.11630,0.60129
887.62651,0.60730
886.13673,0.61066
884.64694,0.61405
883.15715,0.59493
881.66736,0.60411
880.17757,0.62327
878.68778,0.63060
877.19800,0.63797
875.70821,0.59223
874.21842,0.73076
872.72863,0.75312
871.23884,0.85578
869.74905,0.87055
868.25927,0.88536
866.76948,0.85356
865.27969,0.75835
863.78990,0.83593
862.30011,0.84168
860.81032,0.83064
859.32053,0.81964
857.83075,0.80102
856.34096,0.81530
854.85117,0.79062
853.36138,0.65971
851.87159,0.64465
850.38180,0.62962
848.89202,0.51639
847.40223,0.40013
845.91244,0.36416
844.42265,0.32937
842.93286,0.29462
841.44307,0.28626
839.95329,0.28329
838.46350,0.27576
836.97371,0.25373
835.48392,0.25811
833.99413,0.26252
832.50434,0.24440
831.01455,0.20262
829.52477,0.23044
828.03498,0.23840
826.54519,0.22003
825.05540,0.20168
823.56561,0.11036
822.07582,0.17654
820.58604,0.13956
819.09625,0.13203
817.60646,0.12454
816.11667,0.08000
814.62688,0.02708
813.13709,0.04605
811.64730,0.03600
810.15752,0.01948
808.66773,0.00299
807.17794,0.05446
805.68815,0.01652
804.19836,0.10704
802.70857,0.10433
801.21879,0.10164
799.72900,0.14715
798.23921,0.17357
796.74942,0.34604
795.25963,0.37711
793.76984,0.40821
792.28006,0.49820
790.79027,0.50414
789.30048,0.51239
787.81069,0.53826
786.32090,0.53740
784.83111,0.53658
783.34132,0.59770
781.85154,0.55718
780.36175,0.58320
778.87196,0.61154
777.38217,0.63991
775.89238,0.64156
774.40259,0.79459
772.91281,0.76419
771.42302,0.77969
769.93323,0.79521
768.44344,0.76796
766.95365,0.74914
765.46386,0.66232
763.97407,0.66803
762.48429,0.63822
760.99450,0.60844
759.50471,0.48275
758.01492,0.37314
756.52513,0.35836
755.03534,0.33558
753.54556,0.31282
752.05577,0.19569
750.56598,0.15962
749.07619,0.13199
747.58640,0.12809
746.09661,0.12422
744.60683,0.05922
743.11704,0.06916
741.62725,0.03862
740.13746,0.04863
738.64767,0.05867
737.15788,0.03892
735.66809,0.00621
734.17831,0.07137
732.68852,0.06395
731.19873,0.05655
729.70894,0.00637
728.21915,0.03955
726.72936,0.05288
725.23958,0.03567
723.74979,0.05403
722.26000,0.07242
720.77021,0.09352
719.28042,0.09630
717.79063,0.03872
716.30084,0.05952
714.81106,0.08036
713.32127,0.00299
711.83148,0.07888
710.34169,0.06384
708.85190,0.07061
707.36211,0.07741
705.87233,0.10985
704.38254,0.08422
702.89275,0.08003
701.40296,0.08848
699.91317,0.09696
698.42338,0.07986
696.93360,0.14382
695.44381,0.13442
693.95402,0.15525
692.46423,0.17611
690.97444,0.19204
689.48465,0.22022
687.99486,0.21326
686.50508,0.22087
685.01529,0.22850
683.52550,0.25298
682.03571,0.24079
680.54592,0.21946
679.05613,0.20734
677.56635,0.19524
676.07656,0.24204
674.58677,0.17802
673.09698,0.11174
671.60719,0.10206
670.11740,0.09241
668.62761,0.10725
667.13783,0.11447
665.64804,0.11370
664.15825,0.11296
662.66846,0.13556
661.17867,0.09781
659.68888,0.05320
658.19910,0.08277
656.70931,0.11237
655.21952,0.11754
653.72973,0.09828
652.23994,0.16085
650.75015,0.16611
649.26037,0.17140
647.77058,0.09033
646.28079,0.09798
644.79100,0.08348
643.30121,0.08239
641.81142,0.08133
640.32163,0.06081
638.83185,0.06860
637.34206,0.06037
635.85227,0.07778
634.36248,0.09522
632.87269,0.00299
631.38290,0.06453
629.89312,0.09095
628.40333,0.07535
626.91354,0.05977
625.42375,0.06793
623.93396,0.10822
622.44417,0.09236
620.95438,0.07652
619.46460,0.08480
617.97481,0.13285
616.48502,0.10908
614.99523,0.13044
613.50544,0.15183
612.01565,0.13503
610.52587,0.13584
609.03608,0.15120
607.54629,0.15742
606.05650,0.16367
604.56671,0.16384
603.07692,0.19384
601.58714,0.18298
600.09735,0.17215
598.60756,0.13727
597.11777,0.10624
595.62798,0.11423
594.13819,0.12989
592.64840,0.14559
591.15862,0.14984
589.66883,0.09373
588.17904,0.07970
586.68925,0.09972
585.19946,0.11977
583.70967,0.09283
582.21989,0.14772
580.73010,0.14989
579.24031,0.15209
577.75052,0.11304
576.26073,0.17187
574.77094,0.17875
573.28115,0.19750
571.79137,0.21629
570.30158,0.25077
568.81179,0.29064
567.32200,0.30226
565.83221,0.31390
564.34242,0.34392
562.85264,0.32963
561.36285,0.40252
559.87306,0.42460
558.38327,0.44671
556.89348,0.47382
555.40369,0.49561
553.91391,0.51246
552.42412,0.52934
550.93433,0.55122
549.44454,0.52727
547.95475,0.46970
546.46496,0.51613
544.97517,0.56259
543.48539,0.62743
541.99560,0.67395
540.50581,0.69375
539.01602,0.71357
537.52623,0.69368
536.03644,0.66693
534.54666,0.56759
533.05687,0.60435
531.56708,0.64114
530.07729,0.57782
528.58750,0.57110
527.09771,0.53001
525.60792,0.48895
524.11814,0.40510
522.62835,0.38168
521.13856,0.43397
519.64877,0.39341
518.15898,0.35288
516.66919,0.31888
515.17941,0.34912
513.68962,0.32741
512.19983,0.30572
510.71004,0.29095
509.22025,0.30679
507.73046,0.29360
506.24068,0.30147
504.75089,0.30937
503.26110,0.34290
501.77131,0.29391
500.28152,0.33057
498.79173,0.36725
497.30194,0.32752
495.81216,0.34056
494.32237,0.36434
492.83258,0.38815
491.34279,0.36230
489.85300,0.24627
488.36321,0.26253
486.87343,0.24288
485.38364,0.22326
483.89385,0.20521
482.40406,0.16501
480.91427,0.16001
479.42448,0.15503
477.93469,0.12563
476.44491,0.05956
474.95512,0.04856
473.46533,0.03759
471.97554,0.05876
470.48575,0.04632
468.99596,0.01404
467.50618,0.02116
466.01639,0.02830
464.52660,0.00299
463.03681,0.03938
461.54702,0.06318
460.05723,0.08702
458.56745,0.09215
457.07766,0.06980
455.58787,0.08073
454.09808,0.09168
452.60829,0.18027
451.11850,0.16491
449.62871,0.17061
448.13893,0.17633
446.64914,0.19318
445.15935,0.37058
443.66956,0.38519
442.17977,0.38263
440.68998,0.38009
439.20020,0.47659
437.71041,0.60827
436.22062,0.67119
434.73083,0.73414
433.24104,0.76730
431.75125,0.94268
430.26146,0.94304
428.77168,0.94342
427.28189,1.08831
425.79210,1.11551
424.30231,1.10145
422.81252,1.08743
421.32273,0.97941
419.83295,0.89664
418.34316,0.89188
416.85337,0.88715
415.36358,0.77543
413.87379,0.65150
412.38400,0.63463
410.89422,0.61779
409.40443,0.60480
407.91464,0.61554
406.42485,0.53457
404.93506,0.52090
403.44527,0.50727
401.95548,0.35989
400.46570,0.41664
398.97591,0.40615
397.48612,0.39569
395.99633,0.44336
394.50654,0.43602
393.01675,0.43215
391.52697,0.42831
390.03718,0.40195
388.54739,0.33128
387.05760,0.29313
385.56781,0.25500
384.07802,0.38853
382.58824,0.39672
381.09845,0.34837
379.60866,0.30004
378.11887,0.23035
376.62908,0.23942
375.13929,0.20991
373.64950,0.18044
372.15972,0.14679
370.66993,0.09559
369.18014,0.09831
367.69035,0.10106
366.20056,0.03619
364.71077,0.12653
363.22099,0.12479
361.73120,0.12307
360.24141,0.12483
358.75162,0.09909
357.26183,0.10244
355.77204,0.10581
354.28225,0.09622
352.79247,0.07977
351.30268,0.04731
349.81289,0.01487
348.32310,0.03521
346.83331,0.09877
345.34352,0.08133
343.85374,0.06392
342.36395,0.09241
340.87416,0.10411
339.38437,0.05353
337.89458,0.00299
336.40479,0.08786
334.91501,0.06879
333.42522,0.05244
331.93543,0.03611
330.44564,0.04312
328.95585,0.05705
327.46606,0.08133
325.97627,0.10563
324.48649,0.08143
322.99670,0.04655
321.50691,0.04287
320.01712,0.03921
318.52733,0.08490
317.03754,0.07940
315.54776,0.10527
314.05797,0.13117
312.56818,0.12652
311.07839,0.13719
309.58860,0.10240
308.09881,0.06765
306.60902,0.04019
305.11924,0.05862
303.62945,0.05033
302.13966,0.01155
300.64987,0.00299
299.16008,0.00299
