1778.52000,0.02681
1777.03021,0.06693
1775.54042,0.01768
1774.05063,0.03233
1772.56085,0.03956
1771.07106,0.00000
1769.58127,0.05626
1768.09148,0.00613
1766.60169,0.01670
1765.11190,0.04434
1763.62212,0.00496
1762.13233,0.03160
1760.64254,0.00613
1759.15275,0.01156
1757.66296,0.04044
1756.17317,0.04275
1754.68339,0.00785
1753.19360,0.03152
1751.70381,0.05097
1750.21402,0.00340
1748.72423,0.04421
1747.23444,0.02012
1745.74465,0.06633
1744.25487,0.00613
1742.76508,0.05143
1741.27529,0.11593
1739.78550,0.05381
1738.29571,0.03323
1736.80592,0.03930
1735.31614,0.03689
1733.82635,0.01748
1732.33656,0.03856
1730.84677,0.02455
1729.35698,0.02548
1727.86719,0.03283
1726.37740,0.00722
1724.88762,0.03592
1723.39783,0.00613
1721.90804,0.02046
1720.41825,0.02099
1718.92846,0.01517
1717.43867,0.04770
1715.94889,0.03877
1714.45910,0.07563
1712.96931,0.08698
1711.47952,0.06112
1709.98973,0.02359
1708.49994,0.01270
1707.01016,0.02580
1705.52037,0.03893
1704.03058,0.04731
1702.54079,0.05466
1701.05100,0.03544
1699.56121,0.11524
1698.07142,0.08439
1696.58164,0.08124
1695.09185,0.10899
1693.60206,0.11231
1692.11227,0.13268
1690.62248,0.10946
1689.13269,0.16929
1687.64291,0.11740
1686.15312,0.15176
1684.66333,0.12975
1683.17354,0.18121
1681.68375,0.15714
1680.19396,0.09479
1678.70417,0.11762
1677.21439,0.11601
1675.72460,0.16978
1674.23481,0.08948
1672.74502,0.11459
1671.25523,0.15357
1669.76544,0.16704
1668.27566,0.16990
1666.78587,0.10150
1665.29608,0.13530
1663.80629,0.08293
1662.31650,0.13490
1660.82671,0.14326
1659.33693,0.11867
1657.84714,0.10476
1656.35735,0.07599
1654.86756,0.12920
1653.37777,0.13882
1651.88798,0.12186
1650.39819,0.11558
1648.90841,0.10721
1647.41862,0.02863
1645.92883,0.06237
1644.43904,0.09615
1642.94925,0.08899
1641.45946,0.11698
1639.96968,0.10564
1638.47989,0.10497
1636.99010,0.11179
1635.50031,0.08352
1634.01052,0.08722
1632.52073,0.09841
1631.03094,0.08728
1629.54116,0.10173
1628.05137,0.13537
1626.56158,0.10945
1625.07179,0.15594
1623.58200,0.14819
1622.09221,0.15750
1620.60243,0.17110
1619.11264,0.15601
1617.62285,0.15585
1616.13306,0.14189
1614.64327,0.11307
1613.15348,0.06406
1611.66370,0.14387
1610.17391,0.14602
1608.68412,0.12799
1607.19433,0.15256
1605.70454,0.17398
1604.21475,0.16084
1602.72496,0.14774
1601.23518,0.13415
1599.74539,0.13336
1598.25560,0.07194
1596.76581,0.08187
1595.27602,0.09183
1593.78623,0.11780
1592.29645,0.10761
1590.80666,0.05915
1589.31687,0.09799
1587.82708,0.08153
1586.33729,0.12684
1584.84750,0.09448
1583.35771,0.08026
1581.86793,0.04691
1580.37814,0.06682
1578.88835,0.08569
1577.39856,0.11951
1575.90877,0.05864
1574.41898,0.08294
1572.92920,0.05194
1571.43941,0.01459
1569.94962,0.03156
1568.45983,0.04856
1566.97004,0.08050
1565.48025,0.02733
1563.99047,0.00613
1562.50068,0.06836
1561.01089,0.05506
1559.52110,0.01412
1558.03131,0.10413
1556.54152,0.08242
1555.05173,0.06608
1553.56195,0.11043
1552.07216,0.07074
1550.58237,0.06514
1549.09258,0.05745
1547.60279,0.03596
1546.11300,0.03367
1544.62322,0.05589
1543.13343,0.07388
1541.64364,0.03551
1540.15385,0.05944
1538.66406,0.08340
1537.17427,0.05258
1535.68448,0.05054
1534.19470,0.04534
1532.70491,0.02209
1531.21512,0.02122
1529.72533,0.01933
1528.23554,0.01747
1526.74575,0.05928
1525.25597,0.04578
1523.76618,0.03020
1522.27639,0.00613
1520.78660,0.01401
1519.29681,0.00916
1517.80702,0.01498
1516.31724,0.04319
1514.82745,0.07570
1513.33766,0.07684
1511.84787,0.07802
1510.35808,0.01484
1508.86829,0.05494
1507.37850,0.02484
1505.88872,0.00541
1504.39893,0.00613
1502.90914,0.03523
1501.41935,0.02392
1499.92956,0.01690
1498.43977,0.08016
1496.94999,0.09344
1495.46020,0.13762
1493.97041,0.22015
1492.48062,0.24418
1490.99083,0.29060
1489.50104,0.29128
1488.01125,0.30478
1486.52147,0.31831
1485.03168,0.41276
1483.54189,0.44233
1482.05210,0.43682
1480.56231,0.58140
1479.07252,0.64514
1477.58274,0.76851
1476.09295,0.83125
1474.60316,0.85785
1473.11337,0.97175
1471.62358,0.96117
1470.13379,0.91762
1468.64401,0.92414
1467.15422,0.82533
1465.66443,0.79147
1464.17464,0.75765
1462.68485,0.73238
1461.19506,0.68693
1459.70527,0.62981
1458.21549,0.59507
1456.72570,0.57208
1455.23591,0.60233
1453.74612,0.43786
1452.25633,0.43519
1450.76654,0.37510
1449.27676,0.33632
1447.78697,0.35612
1446.29718,0.38553
1444.80739,0.31174
1443.31760,0.23798
1441.82781,0.16107
1440.33802,0.18424
1438.84824,0.15317
1437.35845,0.10723
1435.86866,0.03047
1434.37887,0.07187
1432.88908,0.10374
1431.39929,0.09839
1429.90951,0.15800
1428.41972,0.13783
1426.92993,0.14536
1425.44014,0.10078
1423.95035,0.12328
1422.46056,0.14583
1420.97078,0.12902
1419.48099,0.17399
1417.99120,0.25943
1416.50141,0.21720
1415.01162,0.15690
1413.52183,0.19137
1412.03204,0.15137
1410.54226,0.15824
1409.05247,0.12151
1407.56268,0.17953
1406.07289,0.17480
1404.58310,0.19831
1403.09331,0.22186
1401.60353,0.22681
1400.11374,0.27332
1398.62395,0.27941
1397.13416,0.30576
1395.64437,0.26723
1394.15458,0.36922
1392.66479,0.34352
1391.17501,0.38811
1389.68522,0.38698
1388.19543,0.37736
1386.70564,0.41141
1385.21585,0.44551
1383.72606,0.43068
1382.23628,0.33925
1380.74649,0.30002
1379.25670,0.37682
1377.76691,0.33340
1376.27712,0.43902
1374.78733,0.46060
1373.29755,0.50349
1371.80776,0.63476
1370.31797,0.72350
1368.82818,0.82557
1367.33839,0.92769
1365.84860,1.07613
1364.35881,1.19162
1362.86903,1.25286
1361.37924,1.28434
1359.88945,1.24987
1358.39966,1.44426
1356.90987,1.45350
1355.42008,1.45000
1353.93030,1.27838
1352.44051,1.29039
1350.95072,1.30243
1349.46093,1.21287
1347.97114,1.04352
1346.48135,0.93275
1344.99156,0.72941
1343.50178,0.64745
1342.01199,0.61022
1340.52220,0.48043
1339.03241,0.49542
1337.54262,0.53706
1336.05283,0.50956
1334.56305,0.48209
1333.07326,0.39931
1331.58347,0.36021
1330.09368,0.32859
1328.60389,0.24486
1327.11410,0.26547
1325.62432,0.17542
1324.13453,0.21845
1322.64474,0.23810
1321.15495,0.23118
1319.66516,0.17747
1318.17537,0.12379
1316.68558,0.17233
1315.19580,0.22302
1313.70601,0.17797
1312.21622,0.24470
1310.72643,0.13480
1309.23664,0.16861
1307.74685,0.14499
1306.25707,0.12141
1304.76728,0.11861
1303.27749,0.11585
1301.78770,0.21477
1300.29791,0.17430
1298.80812,0.13174
1297.31834,0.15520
1295.82855,0.14676
1294.33876,0.19584
1292.84897,0.22580
1291.35918,0.16213
1289.86939,0.14107
1288.37960,0.12005
1286.88982,0.14270
1285.40003,0.22712
1283.91024,0.19024
1282.42045,0.25131
1280.93066,0.26240
1279.44087,0.26608
1277.95109,0.25382
1276.46130,0.28099
1274.97151,0.26082
1273.48172,0.24070
1271.99193,0.29883
1270.50214,0.35062
1269.01235,0.36732
1267.52257,0.39363
1266.03278,0.37848
1264.54299,0.33675
1263.05320,0.35253
1261.56341,0.36995
1260.07362,0.38740
1258.58384,0.44905
1257.09405,0.43305
1255.60426,0.49158
1254.11447,0.47352
1252.62468,0.48317
1251.13489,0.44603
1249.64511,0.40254
1248.15532,0.28245
1246.66553,0.24648
1245.17574,0.21054
1243.68595,0.26618
1242.19616,0.23776
1240.70637,0.29453
1239.21659,0.22575
1237.72680,0.23683
1236.23701,0.18514
1234.74722,0.19736
1233.25743,0.20854
1231.76764,0.21977
1230.27786,0.14375
1228.78807,0.17207
1227.29828,0.12806
1225.80849,0.13091
1224.31870,0.10187
1222.82891,0.05584
1221.33912,0.07051
1219.84934,0.09000
1218.35955,0.10953
1216.86976,0.12005
1215.37997,0.20617
1213.89018,0.18058
1212.40039,0.13267
1210.91061,0.09544
1209.42082,0.13275
1207.93103,0.12008
1206.44124,0.10744
1204.95145,0.13847
1203.46166,0.13335
1201.97188,0.14530
1200.48209,0.17325
1198.99230,0.12567
1197.50251,0.04193
1196.01272,0.00613
1194.52293,0.01219
1193.03314,0.01828
1191.54336,0.02814
1190.05357,0.05080
1188.56378,0.01177
1187.07399,0.03664
1185.58420,0.00939
1184.09441,0.04284
1182.60463,0.05078
1181.11484,0.05876
1179.62505,0.10510
1178.13526,0.05461
1176.64547,0.11166
1175.15568,0.06338
1173.66589,0.04493
1172.17611,0.05633
1170.68632,0.04540
1169.19653,0.03452
1167.70674,0.07688
1166.21695,0.09587
1164.72716,0.04784
1163.23738,0.07116
1161.74759,0.06365
1160.25780,0.04446
1158.76801,0.05565
1157.27822,0.06687
1155.78843,0.02438
1154.29865,0.05111
1152.80886,0.12044
1151.31907,0.03123
1149.82928,0.10809
1148.33949,0.16370
1146.84970,0.13154
1145.35991,0.09942
1143.87013,0.00613
1142.38034,0.07291
1140.89055,0.08226
1139.40076,0.16188
1137.91097,0.09786
1136.42118,0.21693
1134.93140,0.19609
1133.44161,0.17528
1131.95182,0.25402
1130.46203,0.26894
1128.97224,0.24984
1127.48245,0.30847
1125.99266,0.32243
1124.50288,0.31302
1123.01309,0.32067
1121.52330,0.32835
1120.03351,0.44570
1118.54372,0.41408
1117.05393,0.38782
1115.56415,0.42226
1114.07436,0.43545
1112.58457,0.43005
1111.09478,0.42468
1109.60499,0.44969
1108.11520,0.44600
1106.62542,0.45298
1105.13563,0.55898
1103.64584,0.65438
1102.15605,0.81367
1100.66626,0.78461
1099.17647,0.75559
1097.68668,0.77344
1096.19690,0.75726
1094.70711,0.77412
1093.21732,0.83145
1091.72753,0.80261
1090.23774,0.85576
1088.74795,0.90895
1087.25817,0.85255
1085.76838,1.01117
1084.27859,1.03892
1082.78880,1.06458
1081.29901,1.13817
1079.80922,1.08089
1078.31943,1.14497
1076.82965,1.20909
1075.33986,1.23280
1073.85007,1.22888
1072.36028,1.22073
1070.87049,1.28074
1069.38070,1.35355
1067.89092,1.34339
1066.40113,1.33326
1064.91134,1.24973
1063.42155,1.15134
1061.93176,1.07214
1060.44197,1.08131
1058.95219,0.99154
1057.46240,0.94065
1055.97261,0.88980
1054.48282,0.80440
1052.99303,0.71477
1051.50324,0.70288
1050.01345,0.65590
1048.52367,0.58767
1047.03388,0.57535
1045.54409,0.56307
1044.05430,0.64076
1042.56451,0.43325
1041.07472,0.38862
1039.58494,0.32805
1038.09515,0.26221
1036.60536,0.25334
1035.11557,0.24450
1033.62578,0.34692
1032.13599,0.26951
1030.64620,0.33263
1029.15642,0.44474
1027.66663,0.42810
1026.17684,0.41151
1024.68705,0.34811
1023.19726,0.58489
1021.70747,0.79297
1020.21769,0.94787
1018.72790,1.21031
1017.23811,1.32643
1015.74832,1.44259
1014.25853,1.67746
1012.76874,1.73250
1011.27896,1.87591
1009.78917,1.90867
1008.29938,2.00000
1006.80959,1.99984
1005.31980,1.99971
1003.83001,1.88148
1002.34022,1.80906
1000.85044,1.83777
999.36065,1.60897
997.87086,1.55847
996.38107,1.50800
994.89128,1.61137
993.40149,1.61686
991.91171,1.51169
990.42192,1.54173
988.93213,1.45685
987.44234,1.44812
985.95255,1.43942
984.46276,1.45363
982.97297,1.19436
981.48319,1.04475
979.99340,1.02927
978.50361,1.06705
977.01382,1.10486
975.52403,1.15016
974.03424,1.09439
972.54446,1.00034
971.05467,1.00743
969.56488,0.87301
968.07509,0.84080
966.58530,0.80862
965.09551,0.77861
963.60573,0.78695
962.11594,0.74530
960.62615,0.71966
959.13636,0.64136
957.64657,0.56311
956.15678,0.62485
954.66699,0.61105
953.17721,0.64306
951.68742,0.61125
950.19763,0.58692
948.70784,0.56263
947.21805,0.60330
945.72826,0.46307
944.23848,0.45166
942.74869,0.47434
941.25890,0.50771
939.76911,0.55814
938.27932,0.60860
936.78953,0.75276
935.29974,0.63088
933.80996,0.59950
932.32017,0.76186
930.83038,0.71832
929.34059,0.67481
927.85080,0.64890
926.36101,0.68688
924.87123,0.63231
923.38144,0.54584
921.89165,0.54774
920.40186,0.54969
918.91207,0.52719
917.42228,0.59200
915.93250,0.55892
914.44271,0.57059
912.95292,0.61529
911.46313,0.66002
909.97334,0.58133
908.48355,0.66977
906.99376,0.75825
905.50398,0.62432
904.01419,0.65007
902.52440,0.67587
901.03461,0.78578
899.54482,0.69031
898.05503,0.62468
896.56525,0.62507
895.07546,0.66063
893.58567,0.69622
892.09588,0.65202
890.60609,0.83243
889.11630,0.69783
887.62651,0.76124
886.13673,0.76136
884.64694,0.76151
883.15715,0.72604
881.66736,0.65336
880.17757,0.70631
878.68778,0.73800
877.19800,0.76973
875.70821,0.82491
874.21842,0.89077
872.72863,1.00244
871.23884,0.95981
869.74905,0.96458
868.25927,0.96939
866.76948,0.88430
865.27969,0.99508
863.78990,1.02607
862.30011,1.00495
860.81032,1.01633
859.32053,1.02774
857.83075,0.90668
856.34096,0.96979
854.85117,0.88286
853.36138,0.75233
851.87159,0.71071
850.38180,0.66912
848.89202,0.58128
847.40223,0.42216
845.91244,0.39930
844.42265,0.42598
842.93286,0.45269
841.44307,0.34374
839.95329,0.37318
838.46350,0.30049
836.97371,0.30447
835.48392,0.32284
833.99413,0.34126
832.50434,0.22188
831.01455,0.29837
829.52477,0.25676
828.03498,0.28331
826.54519,0.25827
825.05540,0.23326
823.56561,0.18648
822.07582,0.20571
820.58604,0.23882
819.09625,0.17831
817.60646,0.11783
816.11667,0.04462
814.62688,0.06297
813.13709,0.02602
811.64730,0.00613
810.15752,0.02885
808.66773,0.05161
807.17794,0.01533
805.68815,0.11746
804.19836,0.17491
802.70857,0.18185
801.21879,0.18882
799.72900,0.15486
798.23921,0.24758
796.74942,0.38824
795.25963,0.40068
793.76984,0.41315
792.28006,0.43259
790.79027,0.53720
789.30048,0.57054
787.81069,0.70183
786.32090,0.71555
784.83111,0.72931
783.34132,0.71490
781.85154,0.66860
780.36175,0.65214
778.87196,0.68094
777.38217,0.70978
775.89238,0.83179
774.40259,0.89955
772.91281,0.88965
771.42302,0.86116
769.93323,0.83271
768.44344,0.85485
766.95365,0.87597
765.46386,0.87477
763.97407,0.85338
762.48429,0.79744
760.99450,0.74153
759.50471,0.56167
758.01492,0.43081
756.52513,0.45111
755.03534,0.43898
753.54556,0.42690
752.05577,0.30256
750.56598,0.23786
749.07619,0.16682
747.58640,0.14796
746.09661,0.12914
744.60683,0.07523
743.11704,0.07563
741.62725,0.03989
740.13746,0.04516
738.64767,0.05046
737.15788,0.01696
735.66809,0.00797
734.17831,0.04052
732.68852,0.06460
731.19873,0.08871
729.70894,0.04687
728.21915,0.00613
726.72936,0.06164
725.23958,0.13528
723.74979,0.12647
722.26000,0.11770
720.77021,0.11588
719.28042,0.07046
717.79063,0.00804
716.30084,0.00474
714.81106,0.00147
713.32127,0.01883
711.83148,0.00431
710.34169,0.05048
708.85190,0.09030
707.36211,0.13017
705.87233,0.06789
704.38254,0.01842
702.89275,0.03941
701.40296,0.06682
699.91317,0.09427
698.42338,0.12388
696.93360,0.12693
695.44381,0.13958
693.95402,0.14536
692.46423,0.15117
690.97444,0.20438
689.48465,0.26188
687.99486,0.25343
686.50508,0.31101
685.01529,0.36862
683.52550,0.22618
682.03571,0.18063
680.54592,0.22026
679.05613,0.25832
677.56635,0.29643
676.07656,0.23931
674.58677,0.09496
673.09698,0.08262
671.60719,0.10330
670.11740,0.12403
668.62761,0.07986
667.13783,0.10385
665.64804,0.05497
664.15825,0.00613
662.66846,0.04597
661.17867,0.13480
659.68888,0.14171
658.19910,0.11673
656.70931,0.09179
655.21952,0.14777
653.72973,0.13141
652.23994,0.20450
650.75015,0.19620
649.26037,0.18793
647.77058,0.08551
646.28079,0.06082
644.79100,0.07129
643.30121,0.03869
641.81142,0.00613
640.32163,0.06992
638.83185,0.02412
637.34206,0.03050
635.85227,0.01830
634.36248,0.00613
632.87269,0.02086
631.38290,0.10586
629.89312,0.10044
628.40333,0.07057
626.91354,0.04074
625.42375,0.11206
623.93396,0.15787
622.44417,0.15955
620.95438,0.16126
619.46460,0.10606
617.97481,0.06474
616.48502,0.17672
614.99523,0.17485
613.50544,0.17302
612.01565,0.12546
610.52587,0.11093
609.03608,0.04854
607.54629,0.14956
606.05650,0.25062
604.56671,0.23836
603.07692,0.16973
601.58714,0.13201
600.09735,0.09431
598.60756,0.15032
597.11777,0.06055
595.62798,0.09853
594.13819,0.10994
592.64840,0.12139
591.15862,0.10946
589.66883,0.15717
588.17904,0.16873
586.68925,0.12285
585.19946,0.07700
583.70967,0.10783
582.21989,0.18871
580.73010,0.21588
579.24031,0.24309
577.75052,0.21126
576.26073,0.16457
574.77094,0.16901
573.28115,0.19583
571.79137,0.22269
570.30158,0.26554
568.81179,0.35420
567.32200,0.31837
565.83221,0.28258
564.34242,0.20638
562.85264,0.33350
561.36285,0.39254
559.87306,0.45641
558.38327,0.52031
556.89348,0.57839
555.40369,0.60033
553.91391,0.57653
552.42412,0.55277
550.93433,0.55779
549.44454,0.58306
547.95475,0.72012
546.46496,0.72578
544.97517,0.73147
543.48539,0.78775
541.99560,0.74935
540.50581,0.75727
539.01602,0.76524
537.52623,0.69289
536.03644,0.65143
534.54666,0.69197
533.05687,0.68997
531.56708,0.68800
530.07729,0.67863
528.58750,0.54795
527.09771,0.57643
525.60792,0.60494
524.11814,0.53717
522.62835,0.53011
521.13856,0.53585
519.64877,0.50011
518.15898,0.46442
516.66919,0.41705
515.17941,0.35908
513.68962,0.35755
512.19983,0.35606
510.71004,0.41101
509.22025,0.42023
507.73046,0.35286
506.24068,0.34619
504.75089,0.33956
503.26110,0.33083
501.77131,0.35940
500.28152,0.36351
498.79173,0.36767
497.30194,0.31120
495.81216,0.37396
494.32237,0.40590
492.83258,0.43787
491.34279,0.37303
489.85300,0.38379
488.36321,0.29134
486.87343,0.27078
485.38364,0.25025
483.89385,0.22071
482.40406,0.23165
480.91427,0.21017
479.42448,0.18872
477.93469,0.12314
476.44491,0.05866
474.95512,0.08202
473.46533,0.10542
471.97554,0.07191
470.48575,0.09910
468.99596,0.07206
467.50618,0.05303
466.01639,0.03403
464.52660,0.01454
463.03681,0.04192
461.54702,0.05869
460.05723,0.07550
458.56745,0.00613
457.07766,0.04503
455.58787,0.10045
454.09808,0.15592
452.60829,0.25771
451.11850,0.17542
449.62871,0.19800
448.13893,0.22062
446.64914,0.32256
445.15935,0.58312
443.66956,0.54145
442.17977,0.53654
440.68998,0.53167
439.20020,0.52097
437.71041,0.69551
436.22062,0.77429
434.73083,0.85311
433.24104,0.89152
431.75125,1.13857
430.26146,1.21164
428.77168,1.28475
427.28189,1.35524
425.79210,1.36829
424.30231,1.32390
422.81252,1.27955
421.32273,1.25439
419.83295,1.05578
418.34316,1.05677
416.85337,1.05780
415.36358,0.89443
413.87379,0.87903
412.38400,0.81152
410.89422,0.74404
409.40443,0.79687
407.91464,0.80609
406.42485,0.66103
404.93506,0.60488
403.44527,0.54876
401.95548,0.53791
400.46570,0.61649
398.97591,0.59614
397.48612,0.57582
395.99633,0.52148
394.50654,0.60234
393.01675,0.58319
391.52697,0.56408
390.03718,0.44177
388.54739,0.24180
387.05760,0.31645
385.56781,0.39115
384.07802,0.58402
382.58824,0.52787
381.09845,0.47283
379.60866,0.41782
378.11887,0.31815
376.62908,0.31111
375.13929,0.25728
373.64950,0.20348
372.15972,0.27424
370.66993,0.19923
369.18014,0.15087
367.69035,0.10253
366.20056,0.21495
364.71077,0.14754
363.22099,0.20734
361.73120,0.26718
360.24141,0.26480
358.75162,0.19753
357.26183,0.19894
355.77204,0.20039
354.28225,0.08959
352.79247,0.01928
351.30268,0.02941
349.81289,0.03958
348.32310,0.15197
346.83331,0.18669
345.34352,0.16611
343.85374,0.14556
342.36395,0.13356
340.87416,0.13438
339.38437,0.14055
337.89458,0.14675
336.40479,0.08168
334.91501,0.04326
333.42522,0.04745
331.93543,0.05167
330.44564,0.07828
328.95585,0.14856
327.46606,0.11937
325.97627,0.09021
324.48649,0.05204
322.99670,0.03636
321.50691,0.10321
320.01712,0.17009
318.52733,0.15133
317.03754,0.22627
315.54776,0.22142
314.05797,0.21660
312.56818,0.13732
311.07839,0.07830
309.58860,0.04220
308.09881,0.00613
306.60902,0.07573
305.11924,0.10493
303.62945,0.06711
302.13966,0.02932
300.64987,0.03421
299.16008,0.00613
