1778.52000,0.03578
1777.03021,0.03906
1775.54042,0.00602
1774.05063,0.03191
1772.56085,0.01056
1771.07106,0.02488
1769.58127,0.05087
1768.09148,0.00852
1766.60169,0.00475
1765.11190,0.02646
1763.62212,0.01694
1762.13233,0.02271
1760.64254,0.01979
1759.15275,0.02126
1757.66296,0.01913
1756.17317,0.01194
1754.68339,0.01714
1753.19360,0.00274
1751.70381,-0.00000
1750.21402,0.00311
1748.72423,0.02735
1747.23444,0.02398
1745.74465,0.01918
1744.25487,0.02241
1742.76508,0.03223
1741.27529,0.04498
1739.78550,0.01776
1738.29571,0.01239
1736.80592,0.00560
1735.31614,0.03229
1733.82635,0.00737
1732.33656,0.04140
1730.84677,0.02164
1729.35698,0.03464
1727.86719,0.02148
1726.37740,0.04763
1724.88762,0.02872
1723.39783,0.00475
1721.90804,0.02758
1720.41825,0.04243
1718.92846,0.02314
1717.43867,0.04533
1715.94889,0.04210
1714.45910,0.05927
1712.96931,0.04737
1711.47952,0.08641
1709.98973,0.06948
1708.49994,0.04968
1707.01016,0.05681
1705.52037,0.06398
1704.03058,0.07117
1702.54079,0.08276
1701.05100,0.12711
1699.56121,0.09731
1698.07142,0.13881
1696.58164,0.14325
1695.09185,0.18409
1693.60206,0.15950
1692.11227,0.17930
1690.62248,0.21587
1689.13269,0.20592
1687.64291,0.20909
1686.15312,0.24138
1684.66333,0.22425
1683.17354,0.22678
1681.68375,0.20025
1680.19396,0.21594
1678.70417,0.20111
1677.21439,0.27723
1675.72460,0.26173
1674.23481,0.20845
1672.74502,0.21702
1671.25523,0.19507
1669.76544,0.22552
1668.27566,0.24145
1666.78587,0.21669
1665.29608,0.15777
1663.80629,0.19561
1662.31650,0.18985
1660.82671,0.19939
1659.33693,0.17696
1657.84714,0.21129
1656.35735,0.17438
1654.86756,0.14331
1653.37777,0.15155
1651.88798,0.16201
1650.39819,0.15067
1648.90841,0.14155
1647.41862,0.14846
1645.92883,0.13430
1644.43904,0.12018
1642.94925,0.13664
1641.45946,0.16330
1639.96968,0.13109
1638.47989,0.13891
1636.99010,0.15040
1635.50031,0.14373
1634.01052,0.13710
1632.52073,0.13413
1631.03094,0.12901
1629.54116,0.12247
1628.05137,0.10941
1626.56158,0.16985
1625.07179,0.16412
1623.58200,0.17225
1622.09221,0.18841
1620.60243,0.18569
1619.11264,0.18663
1617.62285,0.18034
1616.13306,0.17262
1614.64327,0.14820
1613.15348,0.19218
1611.66370,0.15909
1610.17391,0.14786
1608.68412,0.14684
1607.19433,0.17349
1605.70454,0.14343
1604.21475,0.16032
1602.72496,0.17725
1601.23518,0.14801
1599.74539,0.12827
1598.25560,0.12964
1596.76581,0.11941
1595.27602,0.10630
1593.78623,0.11577
1592.29645,0.11072
1590.80666,0.10352
1589.31687,0.08908
1587.82708,0.08122
1586.33729,0.05666
1584.84750,0.08740
1583.35771,0.08181
1581.86793,0.03698
1580.37814,0.09618
1578.88835,0.07832
1577.39856,0.07721
1575.90877,0.00923
1574.41898,0.03801
1572.92920,0.05663
1571.43941,0.04765
1569.94962,0.02997
1568.45983,0.01233
1566.97004,0.04635
1565.48025,0.06658
1563.99047,0.03157
1562.50068,0.02496
1561.01089,0.03292
1559.52110,0.05982
1558.03131,0.07512
1556.54152,0.05699
1555.05173,0.07744
1553.56195,0.07392
1552.07216,0.05152
1550.58237,0.01242
1549.09258,0.01335
1547.60279,0.05505
1546.11300,0.05531
1544.62322,0.09343
1543.13343,0.05885
1541.64364,0.03667
1540.15385,0.03379
1538.66406,0.03094
1537.17427,0.01902
1535.68448,0.00642
1534.19470,0.00475
1532.70491,0.02279
1531.21512,0.03069
1529.72533,0.02406
1528.23554,0.01820
1526.74575,0.01455
1525.25597,0.01893
1523.76618,0.02988
1522.27639,0.03723
1520.78660,0.03807
1519.29681,0.00475
1517.80702,0.02556
1516.31724,0.05367
1514.82745,0.04181
1513.33766,0.02561
1511.84787,0.00945
1510.35808,0.02241
1508.86829,0.02522
1507.37850,0.03824
1505.88872,0.00475
1504.39893,0.02222
1502.90914,0.01862
1501.41935,0.04852
1499.92956,0.02462
1498.43977,0.04294
1496.94999,0.08674
1495.46020,0.11603
1493.97041,0.18899
1492.48062,0.23580
1490.99083,0.27754
1489.50104,0.32732
1488.01125,0.34731
1486.52147,0.36733
1485.03168,0.47902
1483.54189,0.52892
1482.05210,0.61667
1480.56231,0.70081
1479.07252,0.80681
1477.58274,0.84592
1476.09295,1.00289
1474.60316,0.96497
1473.11337,1.06817
1471.62358,1.10886
1470.13379,1.09795
1468.64401,1.03760
1467.15422,1.04057
1465.66443,1.01156
1464.17464,0.98258
1462.68485,0.91145
1461.19506,0.84471
1459.70527,0.82965
1458.21549,0.83061
1456.72570,0.75742
1455.23591,0.66826
1453.74612,0.61259
1452.25633,0.55549
1450.76654,0.53333
1449.27676,0.52794
1447.78697,0.52112
1446.29718,0.50196
1444.80739,0.46975
1443.31760,0.43756
1441.82781,0.36541
1440.33802,0.29256
1438.84824,0.24519
1437.35845,0.19349
1435.86866,0.18110
1434.37887,0.19346
1432.88908,0.19131
1431.39929,0.16665
1429.90951,0.15147
1428.41972,0.20469
1426.92993,0.20993
1425.44014,0.22975
1423.95035,0.21615
1422.46056,0.20258
1420.97078,0.22686
1419.48099,0.26135
1417.99120,0.26387
1416.50141,0.23733
1415.01162,0.26973
1413.52183,0.28762
1412.03204,0.22699
1410.54226,0.23766
1409.05247,0.23019
1407.56268,0.19219
1406.07289,0.22623
1404.58310,0.24249
1403.09331,0.25877
1401.60353,0.28054
1400.11374,0.33289
1398.62395,0.31690
1397.13416,0.33367
1395.64437,0.36065
1394.15458,0.34912
1392.66479,0.35943
1391.17501,0.36178
1389.68522,0.39543
1388.19543,0.39566
1386.70564,0.39591
1385.21585,0.39620
1383.72606,0.38124
1382.23628,0.36123
1380.74649,0.36597
1379.25670,0.35693
1377.76691,0.38573
1376.27712,0.41821
1374.78733,0.38962
1373.29755,0.49634
1371.80776,0.51799
1370.31797,0.69241
1368.82818,0.74395
1367.33839,0.79552
1365.84860,0.93657
1364.35881,1.08784
1362.86903,1.18678
1361.37924,1.23701
1359.88945,1.25019
1358.39966,1.32958
1356.90987,1.43518
1355.42008,1.36262
1353.93030,1.35919
1352.44051,1.33979
1350.95072,1.32042
1349.46093,1.17817
1347.97114,1.08031
1346.48135,0.91702
1344.99156,0.81413
1343.50178,0.74473
1342.01199,0.67027
1340.52220,0.56311
1339.03241,0.50762
1337.54262,0.51834
1336.05283,0.48582
1334.56305,0.45334
1333.07326,0.47652
1331.58347,0.42554
1330.09368,0.36733
1328.60389,0.34478
1327.11410,0.29390
1325.62432,0.31142
1324.13453,0.31660
1322.64474,0.31454
1321.15495,0.33578
1319.66516,0.31306
1318.17537,0.29036
1316.68558,0.24042
1315.19580,0.23925
1313.70601,0.21191
1312.21622,0.24280
1310.72643,0.27080
1309.23664,0.22611
1307.74685,0.23018
1306.25707,0.21027
1304.76728,0.20167
1303.27749,0.19310
1301.78770,0.20602
1300.29791,0.24879
1298.80812,0.19558
1297.31834,0.20786
1295.82855,0.23399
1294.33876,0.22670
1292.84897,0.25653
1291.35918,0.25875
1289.86939,0.23227
1288.37960,0.20583
1286.88982,0.24305
1285.40003,0.29703
1283.91024,0.29650
1282.42045,0.33018
1280.93066,0.33189
1279.44087,0.33509
1277.95109,0.34922
1276.46130,0.31538
1274.97151,0.31431
1273.48172,0.31326
1271.99193,0.31152
1270.50214,0.41308
1269.01235,0.44268
1267.52257,0.46357
1266.03278,0.42632
1264.54299,0.48437
1263.05320,0.48208
1261.56341,0.48273
1260.07362,0.48342
1258.58384,0.54377
1257.09405,0.50161
1255.60426,0.49875
1254.11447,0.59629
1252.62468,0.47421
1251.13489,0.45253
1249.64511,0.43598
1248.15532,0.38091
1246.66553,0.37241
1245.17574,0.36395
1243.68595,0.30897
1242.19616,0.30348
1240.70637,0.30020
1239.21659,0.29113
1237.72680,0.27191
1236.23701,0.21999
1234.74722,0.19356
1233.25743,0.20426
1231.76764,0.21498
1230.27786,0.17264
1228.78807,0.17251
1227.29828,0.22551
1225.80849,0.12726
1224.31870,0.07559
1222.82891,0.10468
1221.33912,0.08944
1219.84934,0.10732
1218.35955,0.12522
1216.86976,0.10862
1215.37997,0.13277
1213.89018,0.11404
1212.40039,0.09171
1210.91061,0.06868
1209.42082,0.06022
1207.93103,0.06962
1206.44124,0.07905
1204.95145,0.07214
1203.46166,0.10236
1201.97188,0.04315
1200.48209,0.09524
1198.99230,0.09864
1197.50251,0.05407
1196.01272,0.04007
1194.52293,0.04829
1193.03314,0.05654
1191.54336,0.03973
1190.05357,0.03240
1188.56378,0.03529
1187.07399,0.00475
1185.58420,0.00761
1184.09441,0.05050
1182.60463,0.04979
1181.11484,0.04911
1179.62505,0.04555
1178.13526,0.04202
1176.64547,0.09815
1175.15568,0.06777
1173.66589,0.08543
1172.17611,0.05075
1170.68632,0.02773
1169.19653,0.00475
1167.70674,0.06510
1166.21695,0.04039
1164.72716,0.08554
1163.23738,0.03398
1161.74759,0.02027
1160.25780,0.03059
1158.76801,0.04568
1157.27822,0.06079
1155.78843,0.05302
1154.29865,0.07220
1152.80886,0.06304
1151.31907,0.05682
1149.82928,0.08554
1148.33949,0.05320
1146.84970,0.08198
1145.35991,0.11080
1143.87013,0.09091
1142.38034,0.07906
1140.89055,0.12978
1139.40076,0.16381
1137.91097,0.19496
1136.42118,0.23778
1134.93140,0.22171
1133.44161,0.20568
1131.95182,0.26023
1130.46203,0.30317
1128.97224,0.31122
1127.48245,0.37895
1125.99266,0.34416
1124.50288,0.39959
1123.01309,0.38777
1121.52330,0.37599
1120.03351,0.45623
1118.54372,0.39978
1117.05393,0.43936
1115.56415,0.44624
1114.07436,0.45533
1112.58457,0.43427
1111.09478,0.41325
1109.60499,0.45516
1108.11520,0.54293
1106.62542,0.53327
1105.13563,0.59273
1103.64584,0.69150
1102.15605,0.74811
1100.66626,0.73530
1099.17647,0.72252
1097.68668,0.79595
1096.19690,0.78214
1094.70711,0.84982
1093.21732,0.89862
1091.72753,0.97581
1090.23774,0.95703
1088.74795,0.93828
1087.25817,1.00393
1085.76838,1.02525
1084.27859,0.99423
1082.78880,1.06579
1081.29901,1.16792
1079.80922,1.07736
1078.31943,1.10101
1076.82965,1.12469
1075.33986,1.22767
1073.85007,1.31542
1072.36028,1.22137
1070.87049,1.27354
1069.38070,1.31337
1067.89092,1.31360
1066.40113,1.31386
1064.91134,1.27524
1063.42155,1.18791
1061.93176,1.12608
1060.44197,1.06428
1058.95219,0.99014
1057.46240,0.97749
1055.97261,0.96487
1054.48282,0.80355
1052.99303,0.80808
1051.50324,0.66137
1050.01345,0.62087
1048.52367,0.60368
1047.03388,0.60397
1045.54409,0.60430
1044.05430,0.61120
1042.56451,0.57231
1041.07472,0.47017
1039.58494,0.41171
1038.09515,0.30236
1036.60536,0.31742
1035.11557,0.33250
1033.62578,0.34908
1032.13599,0.34386
1030.64620,0.37576
1029.15642,0.38952
1027.66663,0.39930
1026.17684,0.40912
1024.68705,0.47969
1023.19726,0.60994
1021.70747,0.70094
1020.21769,0.92070
1018.72790,1.17105
1017.23811,1.28833
1015.74832,1.40563
1014.25853,1.58552
1012.76874,1.72180
1011.27896,1.85665
1009.78917,1.89554
1008.29938,1.98245
1006.80959,1.99121
1005.31980,2.00000
1003.83001,1.85790
1002.34022,1.80093
1000.85044,1.68799
999.36065,1.53217
997.87086,1.48620
996.38107,1.44026
994.89128,1.50345
993.40149,1.46049
991.91171,1.45028
990.42192,1.43356
988.93213,1.47723
987.44234,1.46166
985.95255,1.44612
984.46276,1.39898
982.97297,1.27477
981.48319,1.26696
979.99340,1.19372
978.50361,1.18706
977.01382,1.18044
975.52403,1.16838
974.03424,1.13745
972.54446,1.02364
971.05467,1.01459
969.56488,0.92193
968.07509,0.90785
966.58530,0.89380
965.09551,0.84706
963.60573,0.84907
962.11594,0.80747
960.62615,0.76082
959.13636,0.74256
957.64657,0.72433
956.15678,0.65886
954.66699,0.63196
953.17721,0.67419
951.68742,0.59718
950.19763,0.63001
948.70784,0.66288
947.21805,0.59323
945.72826,0.57233
944.23848,0.59438
942.74869,0.66665
941.25890,0.67130
939.76911,0.70545
938.27932,0.73962
936.78953,0.74146
935.29974,0.74915
933.80996,0.70595
932.32017,0.78425
930.83038,0.77385
929.34059,0.76348
927.85080,0.77204
926.36101,0.67737
924.87123,0.67727
923.38144,0.67647
921.89165,0.62989
920.40186,0.58334
918.91207,0.64373
917.42228,0.67724
915.93250,0.65914
914.44271,0.65344
912.95292,0.65905
911.46313,0.66468
909.97334,0.68962
908.48355,0.69640
906.99376,0.73595
905.50398,0.67225
904.01419,0.67258
902.52440,0.67294
901.03461,0.71479
899.54482,0.76467
898.05503,0.74622
896.56525,0.68634
895.07546,0.75304
893.58567,0.81977
892.09588,0.74689
890.60609,0.74314
889.11630,0.81142
887.62651,0.73572
886.13673,0.76915
884.64694,0.80261
883.15715,0.76555
881.66736,0.77507
880.17757,0.71844
878.68778,0.77457
877.19800,0.83073
875.70821,0.88183
874.21842,0.90823
872.72863,0.95939
871.23884,0.93785
869.74905,0.94835
868.25927,0.95887
866.76948,1.00070
865.27969,0.94946
863.78990,1.01026
862.30011,1.00273
860.81032,1.00686
859.32053,1.01102
857.83075,0.96358
856.34096,0.95325
854.85117,0.84769
853.36138,0.76397
851.87159,0.72974
850.38180,0.69554
848.89202,0.57118
847.40223,0.52468
845.91244,0.45493
844.42265,0.43067
842.93286,0.40644
841.44307,0.41025
839.95329,0.36026
838.46350,0.35176
836.97371,0.35275
835.48392,0.34249
833.99413,0.33227
832.50434,0.33553
831.01455,0.31627
829.52477,0.35960
828.03498,0.33022
826.54519,0.31251
825.05540,0.29483
823.56561,0.29537
822.07582,0.25084
820.58604,0.22453
819.09625,0.20079
817.60646,0.17709
816.11667,0.11305
814.62688,0.11449
813.13709,0.09124
811.64730,0.00475
810.15752,0.02686
808.66773,0.04901
807.17794,0.05336
805.68815,0.07593
804.19836,0.11890
802.70857,0.13680
801.21879,0.15474
799.72900,0.17452
798.23921,0.29325
796.74942,0.36619
795.25963,0.38643
793.76984,0.40670
792.28006,0.41863
790.79027,0.50551
789.30048,0.53933
787.81069,0.63937
786.32090,0.63579
784.83111,0.63224
783.34132,0.66109
781.85154,0.65360
780.36175,0.68833
778.87196,0.68818
777.38217,0.68806
775.89238,0.69234
774.40259,0.76573
772.91281,0.76643
771.42302,0.79480
769.93323,0.82320
768.44344,0.86981
766.95365,0.81827
765.46386,0.83803
763.97407,0.81782
762.48429,0.73655
760.99450,0.65531
759.50471,0.57046
758.01492,0.51328
756.52513,0.45468
755.03534,0.40920
753.54556,0.36375
752.05577,0.24342
750.56598,0.18130
749.07619,0.12213
747.58640,0.12007
746.09661,0.11805
744.60683,0.02988
743.11704,0.07046
741.62725,0.02017
740.13746,0.03245
738.64767,0.04477
737.15788,0.00475
735.66809,0.00628
734.17831,0.04130
732.68852,0.03089
731.19873,0.02051
729.70894,0.05344
728.21915,0.01730
726.72936,0.06847
725.23958,0.03967
723.74979,0.04218
722.26000,0.04471
720.77021,0.04582
719.28042,0.06005
717.79063,0.04595
716.30084,0.02533
714.81106,0.00475
713.32127,0.03082
711.83148,0.02056
710.34169,0.02125
708.85190,0.04269
707.36211,0.06416
705.87233,0.04166
704.38254,0.02064
702.89275,0.00475
701.40296,0.02950
699.91317,0.05428
698.42338,0.05727
696.93360,0.14830
695.44381,0.20372
693.95402,0.20862
692.46423,0.21355
690.97444,0.19051
689.48465,0.15805
687.99486,0.16635
686.50508,0.19686
685.01529,0.22740
683.52550,0.24452
682.03571,0.23548
680.54592,0.22357
679.05613,0.19460
677.56635,0.16565
676.07656,0.16911
674.58677,0.08895
673.09698,0.09392
671.60719,0.09637
670.11740,0.09885
668.62761,0.09228
667.13783,0.07046
665.64804,0.09449
664.15825,0.11855
662.66846,0.05101
661.17867,0.01040
659.68888,0.04983
658.19910,0.07401
656.70931,0.09823
655.21952,0.12684
653.72973,0.11766
652.23994,0.12088
650.75015,0.13103
649.26037,0.14122
647.77058,0.09580
646.28079,0.05550
644.79100,0.07851
643.30121,0.08045
641.81142,0.08243
640.32163,0.05389
638.83185,0.06102
637.34206,0.06382
635.85227,0.04991
634.36248,0.03604
632.87269,0.00475
631.38290,0.08781
629.89312,0.05382
628.40333,0.03294
626.91354,0.01209
625.42375,0.02691
623.93396,0.07595
622.44417,0.08611
620.95438,0.09629
619.46460,0.03269
617.97481,0.08621
616.48502,0.09322
614.99523,0.09807
613.50544,0.10296
612.01565,0.11515
610.52587,0.12010
609.03608,0.08944
607.54629,0.09772
606.05650,0.10603
604.56671,0.14092
603.07692,0.17002
601.58714,0.15806
600.09735,0.14613
598.60756,0.06332
597.11777,0.13473
595.62798,0.11671
594.13819,0.10927
592.64840,0.10185
591.15862,0.02792
589.66883,0.07767
588.17904,0.10635
586.68925,0.09797
585.19946,0.08962
583.70967,0.07330
582.21989,0.09047
580.73010,0.11712
579.24031,0.14380
577.75052,0.13706
576.26073,0.13544
574.77094,0.13313
573.28115,0.15993
571.79137,0.18677
570.30158,0.21655
568.81179,0.26527
567.32200,0.26638
565.83221,0.26752
564.34242,0.26978
562.85264,0.31935
561.36285,0.43877
559.87306,0.41967
558.38327,0.40060
556.89348,0.52447
555.40369,0.58147
553.91391,0.53340
552.42412,0.48536
550.93433,0.58099
549.44454,0.58429
547.95475,0.63853
546.46496,0.67752
544.97517,0.71655
543.48539,0.66542
541.99560,0.69069
540.50581,0.70836
539.01602,0.72605
537.52623,0.64886
536.03644,0.62189
534.54666,0.56585
533.05687,0.59931
531.56708,0.63279
530.07729,0.55648
528.58750,0.47221
527.09771,0.49524
525.60792,0.51830
524.11814,0.51121
522.62835,0.45615
521.13856,0.38148
519.64877,0.37702
518.15898,0.37260
516.66919,0.32566
515.17941,0.28385
513.68962,0.30170
512.19983,0.31958
510.71004,0.31931
509.22025,0.32853
507.73046,0.29559
506.24068,0.30815
504.75089,0.32073
503.26110,0.36862
501.77131,0.34380
500.28152,0.33648
498.79173,0.32918
497.30194,0.33792
495.81216,0.29941
494.32237,0.33548
492.83258,0.37158
491.34279,0.36298
489.85300,0.35442
488.36321,0.29642
486.87343,0.24755
485.38364,0.19871
483.89385,0.18154
482.40406,0.21168
480.91427,0.19457
479.42448,0.17749
477.93469,0.11462
476.44491,0.14488
474.95512,0.10789
473.46533,0.07093
471.97554,0.01982
470.48575,0.02765
468.99596,0.04279
467.50618,0.04378
466.01639,0.04479
464.52660,0.00475
463.03681,0.06813
461.54702,0.08427
460.05723,0.10044
458.56745,0.05336
457.07766,0.07832
455.58787,0.11094
454.09808,0.14360
452.60829,0.18101
451.11850,0.18937
449.62871,0.16684
448.13893,0.14434
446.64914,0.24225
445.15935,0.37145
443.66956,0.52688
442.17977,0.51941
440.68998,0.51198
439.20020,0.52276
437.71041,0.63176
436.22062,0.68005
434.73083,0.72838
433.24104,0.82802
431.75125,1.02223
430.26146,1.08338
428.77168,1.14456
427.28189,1.25741
425.79210,1.24374
424.30231,1.24391
422.81252,1.24412
421.32273,1.28800
419.83295,1.22208
418.34316,1.15438
416.85337,1.08671
415.36358,0.91252
413.87379,0.78199
412.38400,0.75078
410.89422,0.71960
409.40443,0.69972
407.91464,0.67623
406.42485,0.62368
404.93506,0.59189
403.44527,0.56014
401.95548,0.52368
400.46570,0.52508
398.97591,0.55196
397.48612,0.57887
395.99633,0.53818
394.50654,0.56006
393.01675,0.55688
391.52697,0.55374
390.03718,0.45134
388.54739,0.31625
387.05760,0.33974
385.56781,0.36326
384.07802,0.48500
382.58824,0.49913
381.09845,0.47584
379.60866,0.45257
378.11887,0.33442
376.62908,0.24612
375.13929,0.25677
373.64950,0.26745
372.15972,0.28615
370.66993,0.24452
369.18014,0.21893
367.69035,0.19336
366.20056,0.17874
364.71077,0.22596
363.22099,0.23685
361.73120,0.24778
360.24141,0.22382
358.75162,0.16716
357.26183,0.17890
355.77204,0.19068
354.28225,0.14139
352.79247,0.09503
351.30268,0.08799
349.81289,0.08097
348.32310,0.16949
346.83331,0.16712
345.34352,0.14841
343.85374,0.12974
342.36395,0.13982
340.87416,0.16303
339.38437,0.14336
337.89458,0.12372
336.40479,0.11865
334.91501,0.13616
333.42522,0.10061
331.93543,0.06509
330.44564,0.21288
328.95585,0.08069
327.46606,0.09909
325.97627,0.11751
324.48649,0.10371
322.99670,0.12777
321.50691,0.10967
320.01712,0.09160
318.52733,0.18702
317.03754,0.21266
315.54776,0.18559
314.05797,0.15855
312.56818,0.15882
311.07839,0.09366
309.58860,0.05144
308.09881,0.00926
306.60902,0.00475
305.11924,0.10132
303.62945,0.09355
302.13966,0.05246
300.64987,0.00594
299.16008,0.00475
