1778.52000,0.03412
1777.03021,0.03634
1775.54042,0.04656
1774.05063,0.04544
1772.56085,0.00454
1771.07106,0.05471
1769.58127,0.04575
1768.09148,0.06301
1766.60169,0.07006
1765.11190,0.03961
1763.62212,0.03992
1762.13233,0.05393
1760.64254,0.03953
1759.15275,0.06272
1757.66296,0.03475
1756.17317,0.00000
1754.68339,0.02765
1753.19360,0.04965
1751.70381,0.03870
1750.21402,0.02665
1748.72423,0.04082
1747.23444,0.04364
1745.74465,0.03968
1744.25487,0.04601
1742.76508,0.04782
1741.27529,0.05422
1739.78550,0.04133
1738.29571,0.01368
1736.80592,0.05548
1735.31614,0.01654
1733.82635,0.01928
1732.33656,0.05391
1730.84677,0.01122
1729.35698,0.00498
1727.86719,0.01357
1726.37740,0.02903
1724.88762,0.02291
1723.39783,0.01797
1721.90804,0.03697
1720.41825,0.04122
1718.92846,0.00454
1717.43867,0.02358
1715.94889,0.03582
1714.45910,0.04242
1712.96931,0.06158
1711.47952,0.08077
1709.98973,0.05450
1708.49994,0.05444
1707.01016,0.05783
1705.52037,0.06126
1704.03058,0.04767
1702.54079,0.06256
1701.05100,0.14918
1699.56121,0.09703
1698.07142,0.14049
1696.58164,0.14758
1695.09185,0.15131
1693.60206,0.18920
1692.11227,0.18618
1690.62248,0.17524
1689.13269,0.19164
1687.64291,0.19216
1686.15312,0.21661
1684.66333,0.23655
1683.17354,0.24402
1681.68375,0.27997
1680.19396,0.19878
1678.70417,0.19499
1677.21439,0.23675
1675.72460,0.26377
1674.23481,0.20777
1672.74502,0.23942
1671.25523,0.28590
1669.76544,0.26416
1668.27566,0.24132
1666.78587,0.21511
1665.29608,0.24924
1663.80629,0.19012
1662.31650,0.17769
1660.82671,0.22673
1659.33693,0.23031
1657.84714,0.18842
1656.35735,0.16136
1654.86756,0.15141
1653.37777,0.20976
1651.88798,0.14870
1650.39819,0.11270
1648.90841,0.14387
1647.41862,0.15689
1645.92883,0.13182
1644.43904,0.10680
1642.94925,0.12221
1641.45946,0.14108
1639.96968,0.16795
1638.47989,0.18348
1636.99010,0.16037
1635.50031,0.14072
1634.01052,0.11087
1632.52073,0.13112
1631.03094,0.10363
1629.54116,0.13420
1628.05137,0.10679
1626.56158,0.11924
1625.07179,0.16701
1623.58200,0.22278
1622.09221,0.13978
1620.60243,0.18653
1619.11264,0.21626
1617.62285,0.14704
1616.13306,0.16433
1614.64327,0.15663
1613.15348,0.16718
1611.66370,0.10268
1610.17391,0.13265
1608.68412,0.13991
1607.19433,0.12446
1605.70454,0.12270
1604.21475,0.13975
1602.72496,0.15685
1601.23518,0.15180
1599.74539,0.14338
1598.25560,0.12818
1596.76581,0.09594
1595.27602,0.05351
1593.78623,0.06688
1592.29645,0.12124
1590.80666,0.09600
1589.31687,0.09128
1587.82708,0.12643
1586.33729,0.09676
1584.84750,0.09444
1583.35771,0.08648
1581.86793,0.04670
1580.37814,0.04792
1578.88835,0.08786
1577.39856,0.08234
1575.90877,0.04727
1574.41898,0.05207
1572.92920,0.05691
1571.43941,0.01969
1569.94962,0.01210
1568.45983,0.00454
1566.97004,0.04572
1565.48025,0.05850
1563.99047,0.07017
1562.50068,0.02842
1561.01089,0.05156
1559.52110,0.05653
1558.03131,0.05813
1556.54152,0.07343
1555.05173,0.10015
1553.56195,0.10415
1552.07216,0.08317
1550.58237,0.06563
1549.09258,0.08683
1547.60279,0.04321
1546.11300,0.03263
1544.62322,0.07898
1543.13343,0.07189
1541.64364,0.00454
1540.15385,0.02102
1538.66406,0.03753
1537.17427,0.05181
1535.68448,0.03200
1534.19470,0.04637
1532.70491,0.02891
1531.21512,0.01719
1529.72533,0.03054
1528.23554,0.02687
1526.74575,0.00048
1525.25597,0.04126
1523.76618,0.01609
1522.27639,0.02509
1520.78660,0.03300
1519.29681,0.00454
1517.80702,0.04350
1516.31724,0.04836
1514.82745,0.03051
1513.33766,0.02862
1511.84787,0.02678
1510.35808,0.07163
1508.86829,0.00274
1507.37850,0.00558
1505.88872,0.01301
1504.39893,0.00454
1502.90914,0.03918
1501.41935,0.02834
1499.92956,0.05055
1498.43977,0.03069
1496.94999,0.08939
1495.46020,0.19477
1493.97041,0.15456
1492.48062,0.21907
1490.99083,0.25062
1489.50104,0.33228
1488.01125,0.34400
1486.52147,0.35577
1485.03168,0.48306
1483.54189,0.51482
1482.05210,0.59555
1480.56231,0.72069
1479.07252,0.79922
1477.58274,0.82659
1476.09295,0.92910
1474.60316,1.02027
1473.11337,0.97837
1471.62358,1.11741
1470.13379,1.15409
1468.64401,1.10093
1467.15422,0.99661
1465.66443,0.98507
1464.17464,0.97356
1462.68485,0.96152
1461.19506,0.89264
1459.70527,0.86704
1458.21549,0.75500
1456.72570,0.76134
1455.23591,0.71993
1453.74612,0.69221
1452.25633,0.67136
1450.76654,0.57660
1449.27676,0.56380
1447.78697,0.58973
1446.29718,0.53946
1444.80739,0.49777
1443.31760,0.45613
1441.82781,0.35593
1440.33802,0.29559
1438.84824,0.23643
1437.35845,0.16252
1435.86866,0.24225
1434.37887,0.20711
1432.88908,0.15266
1431.39929,0.14377
1429.90951,0.18726
1428.41972,0.19552
1426.92993,0.22089
1425.44014,0.20079
1423.95035,0.20632
1422.46056,0.21191
1420.97078,0.18851
1419.48099,0.23115
1417.99120,0.24880
1416.50141,0.27446
1415.01162,0.24668
1413.52183,0.23715
1412.03204,0.22084
1410.54226,0.17043
1409.05247,0.23270
1407.56268,0.19716
1406.07289,0.17077
1404.58310,0.16775
1403.09331,0.16476
1401.60353,0.17604
1400.11374,0.21922
1398.62395,0.22489
1397.13416,0.18396
1395.64437,0.21816
1394.15458,0.21940
1392.66479,0.16949
1391.17501,0.18106
1389.68522,0.16991
1388.19543,0.24528
1386.70564,0.22398
1385.21585,0.20272
1383.72606,0.18036
1382.23628,0.13643
1380.74649,0.09822
1379.25670,0.14653
1377.76691,0.10955
1376.27712,0.17159
1374.78733,0.17224
1373.29755,0.21844
1371.80776,0.22713
1370.31797,0.32689
1368.82818,0.36411
1367.33839,0.40137
1365.84860,0.52059
1364.35881,0.56590
1362.86903,0.57143
1361.37924,0.59179
1359.88945,0.64291
1358.39966,0.72024
1356.90987,0.73163
1355.42008,0.79425
1353.93030,0.67487
1352.44051,0.70174
1350.95072,0.72864
1349.46093,0.67197
1347.97114,0.62557
1346.48135,0.58832
1344.99156,0.50105
1343.50178,0.50028
1342.01199,0.41082
1340.52220,0.36918
1339.03241,0.33213
1337.54262,0.38160
1336.05283,0.36569
1334.56305,0.34981
1333.07326,0.39144
1331.58347,0.32729
1330.09368,0.34170
1328.60389,0.31973
1327.11410,0.22727
1325.62432,0.26341
1324.13453,0.26774
1322.64474,0.33014
1321.15495,0.35048
1319.66516,0.31226
1318.17537,0.27409
1316.68558,0.27066
1315.19580,0.29344
1313.70601,0.22410
1312.21622,0.21738
1310.72643,0.21298
1309.23664,0.26323
1307.74685,0.22819
1306.25707,0.21254
1304.76728,0.19408
1303.27749,0.17566
1301.78770,0.17378
1300.29791,0.23111
1298.80812,0.21225
1297.31834,0.25373
1295.82855,0.18375
1294.33876,0.22076
1292.84897,0.27147
1291.35918,0.21868
1289.86939,0.21714
1288.37960,0.21563
1286.88982,0.23351
1285.40003,0.29580
1283.91024,0.26711
1282.42045,0.31242
1280.93066,0.37142
1279.44087,0.33034
1277.95109,0.30978
1276.46130,0.30292
1274.97151,0.30349
1273.48172,0.30411
1271.99193,0.34971
1270.50214,0.35780
1269.01235,0.47743
1267.52257,0.47423
1266.03278,0.41532
1264.54299,0.51915
1263.05320,0.48535
1261.56341,0.50450
1260.07362,0.52370
1258.58384,0.56170
1257.09405,0.56903
1255.60426,0.51496
1254.11447,0.55309
1252.62468,0.56509
1251.13489,0.50431
1249.64511,0.46292
1248.15532,0.36127
1246.66553,0.31712
1245.17574,0.27301
1243.68595,0.36491
1242.19616,0.38744
1240.70637,0.39863
1239.21659,0.30406
1237.72680,0.21976
1236.23701,0.22539
1234.74722,0.22765
1233.25743,0.19411
1231.76764,0.16061
1230.27786,0.20168
1228.78807,0.20297
1227.29828,0.19519
1225.80849,0.15446
1224.31870,0.16156
1222.82891,0.17667
1221.33912,0.14858
1219.84934,0.15011
1218.35955,0.15169
1216.86976,0.11007
1215.37997,0.16521
1213.89018,0.16008
1212.40039,0.15841
1210.91061,0.13857
1209.42082,0.14495
1207.93103,0.11552
1206.44124,0.08614
1204.95145,0.10743
1203.46166,0.07529
1201.97188,0.10804
1200.48209,0.18862
1198.99230,0.15091
1197.50251,0.14965
1196.01272,0.06424
1194.52293,0.05908
1193.03314,0.05397
1191.54336,0.04491
1190.05357,0.02338
1188.56378,0.04285
1187.07399,0.00547
1185.58420,0.00454
1184.09441,0.06339
1182.60463,0.07393
1181.11484,0.08450
1179.62505,0.11503
1178.13526,0.10237
1176.64547,0.03740
1175.15568,0.05782
1173.66589,0.10785
1172.17611,0.04074
1170.68632,0.02259
1169.19653,0.00449
1167.70674,0.01557
1166.21695,0.04148
1164.72716,0.06629
1163.23738,0.06043
1161.74759,0.00454
1160.25780,0.00860
1158.76801,0.02577
1157.27822,0.04299
1155.78843,0.03465
1154.29865,0.07528
1152.80886,0.07726
1151.31907,0.06108
1149.82928,0.12459
1148.33949,0.12784
1146.84970,0.12373
1145.35991,0.11966
1143.87013,0.08662
1142.38034,0.06386
1140.89055,0.14013
1139.40076,0.20279
1137.91097,0.17902
1136.42118,0.23835
1134.93140,0.23002
1133.44161,0.22173
1131.95182,0.25160
1130.46203,0.29403
1128.97224,0.30577
1127.48245,0.29594
1125.99266,0.29071
1124.50288,0.34581
1123.01309,0.35204
1121.52330,0.35830
1120.03351,0.34186
1118.54372,0.46767
1117.05393,0.42627
1115.56415,0.39971
1114.07436,0.41301
1112.58457,0.42806
1111.09478,0.44314
1109.60499,0.48160
1108.11520,0.50644
1106.62542,0.58935
1105.13563,0.59152
1103.64584,0.65972
1102.15605,0.84629
1100.66626,0.84517
1099.17647,0.84410
1097.68668,0.96821
1096.19690,0.95357
1094.70711,0.96058
1093.21732,1.02565
1091.72753,0.98951
1090.23774,1.02281
1088.74795,1.05616
1087.25817,1.02810
1085.76838,1.08429
1084.27859,1.10524
1082.78880,1.23205
1081.29901,1.26332
1079.80922,1.18883
1078.31943,1.13883
1076.82965,1.08888
1075.33986,1.30237
1073.85007,1.28606
1072.36028,1.29711
1070.87049,1.26382
1069.38070,1.38531
1067.89092,1.41013
1066.40113,1.43500
1064.91134,1.30858
1063.42155,1.24591
1061.93176,1.23449
1060.44197,1.10819
1058.95219,1.07296
1057.46240,1.04915
1055.97261,1.02537
1054.48282,0.94475
1052.99303,0.84597
1051.50324,0.73813
1050.01345,0.63374
1048.52367,0.61017
1047.03388,0.64752
1045.54409,0.68491
1044.05430,0.58751
1042.56451,0.51519
1041.07472,0.47931
1039.58494,0.45258
1038.09515,0.42589
1036.60536,0.39811
1035.11557,0.37036
1033.62578,0.43027
1032.13599,0.35482
1030.64620,0.35565
1029.15642,0.40885
1027.66663,0.40862
1026.17684,0.40843
1024.68705,0.45152
1023.19726,0.51171
1021.70747,0.71986
1020.21769,0.97356
1018.72790,1.20682
1017.23811,1.33033
1015.74832,1.45388
1014.25853,1.59397
1012.76874,1.70793
1011.27896,1.81397
1009.78917,1.93143
1008.29938,2.00000
1006.80959,1.93834
1005.31980,1.87672
1003.83001,1.80433
1002.34022,1.75474
1000.85044,1.57776
999.36065,1.58970
997.87086,1.57436
996.38107,1.55907
994.89128,1.61323
993.40149,1.55706
991.91171,1.60902
990.42192,1.64510
988.93213,1.67097
987.44234,1.70087
985.95255,1.73081
984.46276,1.60549
982.97297,1.58829
981.48319,1.53587
979.99340,1.47666
978.50361,1.49998
977.01382,1.52334
975.52403,1.68385
974.03424,1.54175
972.54446,1.43951
971.05467,1.31911
969.56488,1.38535
968.07509,1.34297
966.58530,1.30063
965.09551,1.20883
963.60573,1.20356
962.11594,1.19946
960.62615,1.11689
959.13636,1.06964
957.64657,1.02243
956.15678,1.06856
954.66699,0.94065
953.17721,0.93907
951.68742,0.99784
950.19763,0.96904
948.70784,0.94028
947.21805,0.91953
945.72826,0.91474
944.23848,0.84174
942.74869,0.94854
941.25890,0.83124
939.76911,0.89034
938.27932,0.94948
936.78953,0.93471
935.29974,0.98369
933.80996,0.91780
932.32017,0.98734
930.83038,1.05181
929.34059,1.11632
927.85080,1.02670
926.36101,1.00084
924.87123,0.93064
923.38144,0.88666
921.89165,0.91212
920.40186,0.93762
918.91207,0.87215
917.42228,0.93528
915.93250,0.94384
914.44271,0.96041
912.95292,0.97417
911.46313,0.98797
909.97334,0.98987
908.48355,1.03164
906.99376,1.07572
905.50398,1.02882
904.01419,1.01836
902.52440,1.00796
901.03461,1.12047
899.54482,1.19320
898.05503,1.06003
896.56525,1.06913
895.07546,1.03105
893.58567,0.99302
892.09588,1.15015
890.60609,1.19696
889.11630,1.19034
887.62651,1.18831
886.13673,1.14536
884.64694,1.10245
883.15715,1.02090
881.66736,1.03723
880.17757,1.00810
878.68778,1.03021
877.19800,1.05237
875.70821,0.95282
874.21842,1.11386
872.72863,1.13500
871.23884,1.26768
869.74905,1.23998
868.25927,1.21231
866.76948,1.08343
865.27969,1.14118
863.78990,1.06700
862.30011,1.08842
860.81032,1.10079
859.32053,1.11320
857.83075,1.15068
856.34096,1.11083
854.85117,1.03462
853.36138,0.86970
851.87159,0.83908
850.38180,0.80850
848.89202,0.66418
847.40223,0.56883
845.91244,0.41322
844.42265,0.40898
842.93286,0.40477
841.44307,0.44953
839.95329,0.43859
838.46350,0.42654
836.97371,0.35879
835.48392,0.34683
833.99413,0.33491
832.50434,0.39471
831.01455,0.38629
829.52477,0.38701
828.03498,0.29106
826.54519,0.26569
825.05540,0.24036
823.56561,0.15137
822.07582,0.23762
820.58604,0.18739
819.09625,0.15370
817.60646,0.12005
816.11667,0.05629
814.62688,0.10862
813.13709,0.06997
811.64730,0.02795
810.15752,0.03945
808.66773,0.05099
807.17794,0.00454
805.68815,0.09354
804.19836,0.14959
802.70857,0.16927
801.21879,0.18899
799.72900,0.20078
798.23921,0.26154
796.74942,0.45433
795.25963,0.50323
793.76984,0.55217
792.28006,0.53800
790.79027,0.68203
789.30048,0.77148
787.81069,0.83595
786.32090,0.82195
784.83111,0.80799
783.34132,0.89306
781.85154,0.89625
780.36175,0.91996
778.87196,0.84074
777.38217,0.76157
775.89238,0.90828
774.40259,0.94809
772.91281,1.09603
771.42302,1.10235
769.93323,1.10872
768.44344,1.08497
766.95365,1.04648
765.46386,1.10701
763.97407,1.02309
762.48429,0.97732
760.99450,0.93160
759.50471,0.76360
758.01492,0.61499
756.52513,0.57110
755.03534,0.50108
753.54556,0.43110
752.05577,0.36116
750.56598,0.27306
749.07619,0.15656
747.58640,0.15103
746.09661,0.14554
744.60683,0.19527
743.11704,0.07894
741.62725,0.05252
740.13746,0.05289
738.64767,0.05330
737.15788,0.02018
735.66809,0.02351
734.17831,0.02234
732.68852,0.04169
731.19873,0.06107
729.70894,0.11009
728.21915,0.04308
726.72936,0.08080
725.23958,0.10718
723.74979,0.13303
722.26000,0.15893
720.77021,0.12854
719.28042,0.17557
717.79063,0.06676
716.30084,0.05413
714.81106,0.04155
713.32127,0.00454
711.83148,0.06179
710.34169,0.03374
708.85190,0.05466
707.36211,0.07562
705.87233,0.06135
704.38254,0.10401
702.89275,0.03179
701.40296,0.10013
699.91317,0.16852
698.42338,0.13511
696.93360,0.13360
695.44381,0.11621
693.95402,0.12104
692.46423,0.12592
690.97444,0.23153
689.48465,0.20064
687.99486,0.25172
686.50508,0.24823
685.01529,0.24478
683.52550,0.28688
682.03571,0.25734
680.54592,0.18006
679.05613,0.18986
677.56635,0.19970
676.07656,0.18284
674.58677,0.20812
673.09698,0.07416
671.60719,0.07051
670.11740,0.06690
668.62761,0.10373
667.13783,0.11784
665.64804,0.07908
664.15825,0.04037
662.66846,0.00454
661.17867,0.05439
659.68888,0.13727
658.19910,0.10073
656.70931,0.06423
655.21952,0.14951
653.72973,0.19615
652.23994,0.22576
650.75015,0.19511
649.26037,0.16451
647.77058,0.18514
646.28079,0.07611
644.79100,0.02174
643.30121,0.04705
641.81142,0.07240
640.32163,0.04887
638.83185,0.03107
637.34206,0.02128
635.85227,0.02062
634.36248,0.02001
632.87269,0.00693
631.38290,0.04964
629.89312,0.14017
628.40333,0.08796
626.91354,0.03579
625.42375,0.06160
623.93396,0.05900
622.44417,0.08261
620.95438,0.10627
619.46460,0.02757
617.97481,0.07747
616.48502,0.11263
614.99523,0.12849
613.50544,0.14439
612.01565,0.09320
610.52587,0.18655
609.03608,0.14227
607.54629,0.10997
606.05650,0.07772
604.56671,0.18034
603.07692,0.14419
601.58714,0.11548
600.09735,0.08681
598.60756,0.09743
597.11777,0.07851
595.62798,0.14724
594.13819,0.09200
592.64840,0.03679
591.15862,0.04762
589.66883,0.11197
588.17904,0.07737
586.68925,0.07979
585.19946,0.08225
583.70967,0.00454
582.21989,0.05353
580.73010,0.08664
579.24031,0.11978
577.75052,0.17117
576.26073,0.16799
574.77094,0.17736
573.28115,0.21295
571.79137,0.24857
570.30158,0.34454
568.81179,0.36205
567.32200,0.38244
565.83221,0.40287
564.34242,0.37954
562.85264,0.55309
561.36285,0.51732
559.87306,0.55726
558.38327,0.59724
556.89348,0.65035
555.40369,0.74332
553.91391,0.76579
552.42412,0.78830
550.93433,0.81768
549.44454,0.83231
547.95475,0.75368
546.46496,0.84690
544.97517,0.94016
543.48539,0.92082
541.99560,0.99482
540.50581,1.00913
539.01602,1.02348
537.52623,0.93376
536.03644,0.85319
534.54666,0.75332
533.05687,0.76783
531.56708,0.78239
530.07729,0.76001
528.58750,0.69330
527.09771,0.75121
525.60792,0.80917
524.11814,0.70845
522.62835,0.59070
521.13856,0.60953
519.64877,0.57265
518.15898,0.53581
516.66919,0.44895
515.17941,0.45315
513.68962,0.40278
512.19983,0.35245
510.71004,0.38750
509.22025,0.41121
507.73046,0.51006
506.24068,0.50085
504.75089,0.49169
503.26110,0.52581
501.77131,0.43822
500.28152,0.39562
498.79173,0.35306
497.30194,0.29746
495.81216,0.39322
494.32237,0.42076
492.83258,0.44834
491.34279,0.44296
489.85300,0.35798
488.36321,0.22981
486.87343,0.20294
485.38364,0.17611
483.89385,0.25286
482.40406,0.16468
480.91427,0.16187
479.42448,0.15910
477.93469,0.06421
476.44491,0.04332
474.95512,0.03726
473.46533,0.03124
471.97554,0.02754
470.48575,0.00454
468.99596,0.10779
467.50618,0.07512
466.01639,0.04249
464.52660,0.03095
463.03681,0.04107
461.54702,0.06943
460.05723,0.09783
458.56745,0.13993
457.07766,0.13201
455.58787,0.17078
454.09808,0.20959
452.60829,0.19611
451.11850,0.18380
449.62871,0.22501
448.13893,0.26626
446.64914,0.47026
445.15935,0.65267
443.66956,0.67129
442.17977,0.71442
440.68998,0.75758
439.20020,0.83663
437.71041,1.01243
436.22062,1.08416
434.73083,1.15594
433.24104,1.25791
431.75125,1.37470
430.26146,1.46595
428.77168,1.55723
427.28189,1.61158
425.79210,1.85370
424.30231,1.79833
422.81252,1.74300
421.32273,1.59044
419.83295,1.44133
418.34316,1.41457
416.85337,1.38786
415.36358,1.21498
413.87379,1.22191
412.38400,1.15606
410.89422,1.09026
409.40443,1.07115
407.91464,0.98040
406.42485,0.88400
404.93506,0.82405
403.44527,0.76414
401.95548,0.64966
400.46570,0.69565
398.97591,0.73030
397.48612,0.76499
395.99633,0.69505
394.50654,0.79923
393.01675,0.84657
391.52697,0.89394
390.03718,0.72745
388.54739,0.63269
387.05760,0.61476
385.56781,0.59688
384.07802,0.63991
382.58824,0.71598
381.09845,0.66466
379.60866,0.61338
378.11887,0.48704
376.62908,0.42219
375.13929,0.42906
373.64950,0.43597
372.15972,0.32345
370.66993,0.22919
369.18014,0.21517
367.69035,0.20120
366.20056,0.12867
364.71077,0.27692
363.22099,0.28924
361.73120,0.30160
360.24141,0.28385
358.75162,0.25704
357.26183,0.24905
355.77204,0.24109
354.28225,0.27585
352.79247,0.02734
351.30268,0.02577
349.81289,0.02424
348.32310,0.00454
346.83331,0.07564
345.34352,0.07340
343.85374,0.07120
342.36395,0.13673
340.87416,0.15566
339.38437,0.09669
337.89458,0.03777
336.40479,0.07047
334.91501,0.15215
333.42522,0.10472
331.93543,0.05734
330.44564,0.08452
328.95585,0.16067
327.46606,0.14811
325.97627,0.13560
324.48649,0.03551
322.99670,0.06176
321.50691,0.07896
320.01712,0.09619
318.52733,0.19424
317.03754,0.29234
315.54776,0.29092
314.05797,0.28955
312.56818,0.18980
311.07839,0.16290
309.58860,0.10078
308.09881,0.03870
306.60902,0.09157
305.11924,0.00454
303.62945,0.04787
302.13966,0.02732
300.64987,0.05516
299.16008,0.00454
