1778.52000,0.03643
1777.03021,0.04807
1775.54042,0.06101
1774.05063,0.00843
1772.56085,0.01892
1771.07106,0.04582
1769.58127,0.01226
1768.09148,0.04932
1766.60169,0.06372
1765.11190,0.05925
1763.62212,0.04346
1762.13233,0.07814
1760.64254,0.04729
1759.15275,0.05304
1757.66296,0.03739
1756.17317,0.03438
1754.68339,0.04276
1753.19360,0.03351
1751.70381,0.06086
1750.21402,0.00000
1748.72423,0.01859
1747.23444,0.01705
1745.74465,0.01301
1744.25487,0.06322
1742.76508,0.03531
1741.27529,0.02507
1739.78550,0.05269
1738.29571,0.04505
1736.80592,0.02231
1735.31614,0.00843
1733.82635,0.02039
1732.33656,0.01095
1730.84677,0.03936
1729.35698,0.05142
1727.86719,0.00174
1726.37740,0.03492
1724.88762,0.01140
1723.39783,0.01817
1721.90804,0.02371
1720.41825,0.02173
1718.92846,0.00843
1717.43867,0.03776
1715.94889,0.02553
1714.45910,0.03728
1712.96931,0.05285
1711.47952,0.06593
1709.98973,0.01980
1708.49994,0.04682
1707.01016,0.06189
1705.52037,0.07700
1704.03058,0.13058
1702.54079,0.07454
1701.05100,0.09164
1699.56121,0.11129
1698.07142,0.15493
1696.58164,0.15070
1695.09185,0.14525
1693.60206,0.20538
1692.11227,0.15713
1690.62248,0.25262
1689.13269,0.24100
1687.64291,0.19537
1686.15312,0.19390
1684.66333,0.28827
1683.17354,0.24401
1681.68375,0.25399
1680.19396,0.22492
1678.70417,0.21479
1677.21439,0.20596
1675.72460,0.27910
1674.23481,0.23000
1672.74502,0.25153
1671.25523,0.25040
1669.76544,0.28838
1668.27566,0.31631
1666.78587,0.26737
1665.29608,0.22856
1663.80629,0.24525
1662.31650,0.19011
1660.82671,0.24721
1659.33693,0.19718
1657.84714,0.22283
1656.35735,0.16657
1654.86756,0.17463
1653.37777,0.18273
1651.88798,0.14675
1650.39819,0.13852
1648.90841,0.19967
1647.41862,0.10328
1645.92883,0.13486
1644.43904,0.16649
1642.94925,0.16726
1641.45946,0.12773
1639.96968,0.12731
1638.47989,0.14709
1636.99010,0.15934
1635.50031,0.08843
1634.01052,0.12597
1632.52073,0.13454
1631.03094,0.10533
1629.54116,0.12531
1628.05137,0.12012
1626.56158,0.13387
1625.07179,0.18170
1623.58200,0.21568
1622.09221,0.20559
1620.60243,0.15896
1619.11264,0.22457
1617.62285,0.20323
1616.13306,0.17435
1614.64327,0.17199
1613.15348,0.14192
1611.66370,0.14971
1610.17391,0.15879
1608.68412,0.16665
1607.19433,0.15185
1605.70454,0.11943
1604.21475,0.12423
1602.72496,0.12907
1601.23518,0.15601
1599.74539,0.17037
1598.25560,0.09778
1596.76581,0.09456
1595.27602,0.09768
1593.78623,0.07058
1592.29645,0.08385
1590.80666,0.07572
1589.31687,0.12687
1587.82708,0.10243
1586.33729,0.12466
1584.84750,0.04355
1583.35771,0.11879
1581.86793,0.07810
1580.37814,0.07147
1578.88835,0.06739
1577.39856,0.05957
1575.90877,0.04170
1574.41898,0.05159
1572.92920,0.07917
1571.43941,0.08031
1569.94962,0.05123
1568.45983,0.02218
1566.97004,0.04611
1565.48025,0.05999
1563.99047,0.09533
1562.50068,0.00843
1561.01089,0.08018
1559.52110,0.08893
1558.03131,0.10276
1556.54152,0.09645
1555.05173,0.14186
1553.56195,0.10411
1552.07216,0.08026
1550.58237,0.08543
1549.09258,0.05660
1547.60279,0.06310
1546.11300,0.03560
1544.62322,0.04974
1543.13343,0.03869
1541.64364,0.07936
1540.15385,0.08036
1538.66406,0.08140
1537.17427,0.04023
1535.68448,0.03818
1534.19470,0.00843
1532.70491,0.06513
1531.21512,0.02354
1529.72533,0.04627
1528.23554,0.02744
1526.74575,0.03260
1525.25597,0.04030
1523.76618,0.06065
1522.27639,0.06086
1520.78660,0.00690
1519.29681,0.03047
1517.80702,0.05533
1516.31724,0.01468
1514.82745,0.00936
1513.33766,0.03721
1511.84787,0.06511
1510.35808,0.05585
1508.86829,0.02519
1507.37850,0.00843
1505.88872,0.03070
1504.39893,0.02654
1502.90914,0.03123
1501.41935,0.04856
1499.92956,0.06593
1498.43977,0.08963
1496.94999,0.10455
1495.46020,0.12580
1493.97041,0.15590
1492.48062,0.24403
1490.99083,0.28555
1489.50104,0.27668
1488.01125,0.33151
1486.52147,0.38637
1485.03168,0.48097
1483.54189,0.57686
1482.05210,0.47362
1480.56231,0.62505
1479.07252,0.80424
1477.58274,0.90910
1476.09295,0.90431
1474.60316,1.02562
1473.11337,1.04864
1471.62358,1.15615
1470.13379,1.08470
1468.64401,1.04731
1467.15422,0.99609
1465.66443,0.95499
1464.17464,0.91392
1462.68485,0.89305
1461.19506,0.87726
1459.70527,0.90563
1458.21549,0.85713
1456.72570,0.77589
1455.23591,0.72368
1453.74612,0.68663
1452.25633,0.67105
1450.76654,0.65550
1449.27676,0.57065
1447.78697,0.57281
1446.29718,0.56997
1444.80739,0.50980
1443.31760,0.44967
1441.82781,0.34608
1440.33802,0.34337
1438.84824,0.32305
1437.35845,0.18300
1435.86866,0.19174
1434.37887,0.17782
1432.88908,0.26226
1431.39929,0.24463
1429.90951,0.25728
1428.41972,0.19560
1426.92993,0.26505
1425.44014,0.25133
1423.95035,0.23135
1422.46056,0.21140
1420.97078,0.24443
1419.48099,0.27749
1417.99120,0.26016
1416.50141,0.24287
1415.01162,0.29872
1413.52183,0.31931
1412.03204,0.30590
1410.54226,0.26731
1409.05247,0.23884
1407.56268,0.28857
1406.07289,0.23243
1404.58310,0.23684
1403.09331,0.24128
1401.60353,0.27097
1400.11374,0.24774
1398.62395,0.23842
1397.13416,0.30854
1395.64437,0.26904
1394.15458,0.27620
1392.66479,0.22289
1391.17501,0.20743
1389.68522,0.23613
1388.19543,0.26612
1386.70564,0.22366
1385.21585,0.18124
1383.72606,0.21385
1382.23628,0.19734
1380.74649,0.11657
1379.25670,0.20097
1377.76691,0.18456
1376.27712,0.13288
1374.78733,0.24890
1373.29755,0.28049
1371.80776,0.18605
1370.31797,0.33999
1368.82818,0.37042
1367.33839,0.40089
1365.84860,0.43643
1364.35881,0.54512
1362.86903,0.56182
1361.37924,0.56469
1359.88945,0.53355
1358.39966,0.65625
1356.90987,0.68443
1355.42008,0.61936
1353.93030,0.66652
1352.44051,0.67211
1350.95072,0.67774
1349.46093,0.69853
1347.97114,0.60211
1346.48135,0.56624
1344.99156,0.56318
1343.50178,0.54124
1342.01199,0.39328
1340.52220,0.43192
1339.03241,0.43278
1337.54262,0.48409
1336.05283,0.51022
1334.56305,0.53639
1333.07326,0.46931
1331.58347,0.44260
1330.09368,0.34534
1328.60389,0.34391
1327.11410,0.31100
1325.62432,0.33359
1324.13453,0.32344
1322.64474,0.43686
1321.15495,0.38770
1319.66516,0.36630
1318.17537,0.34494
1316.68558,0.37656
1315.19580,0.38426
1313.70601,0.34661
1312.21622,0.28253
1310.72643,0.32310
1309.23664,0.25783
1307.74685,0.28334
1306.25707,0.23326
1304.76728,0.25695
1303.27749,0.28068
1301.78770,0.30129
1300.29791,0.31185
1298.80812,0.31110
1297.31834,0.28643
1295.82855,0.33996
1294.33876,0.33552
1292.84897,0.34752
1291.35918,0.32550
1289.86939,0.31991
1288.37960,0.31436
1286.88982,0.32522
1285.40003,0.37898
1283.91024,0.35714
1282.42045,0.41097
1280.93066,0.36650
1279.44087,0.39770
1277.95109,0.34574
1276.46130,0.40601
1274.97151,0.40769
1273.48172,0.40941
1271.99193,0.48616
1270.50214,0.48983
1269.01235,0.49858
1267.52257,0.47585
1266.03278,0.54644
1264.54299,0.53260
1263.05320,0.51123
1261.56341,0.52520
1260.07362,0.53919
1258.58384,0.65785
1257.09405,0.60384
1255.60426,0.60786
1254.11447,0.66359
1252.62468,0.58447
1251.13489,0.65918
1249.64511,0.54483
1248.15532,0.49859
1246.66553,0.46436
1245.17574,0.43016
1243.68595,0.35881
1242.19616,0.36313
1240.70637,0.46202
1239.21659,0.39834
1237.72680,0.38259
1236.23701,0.27611
1234.74722,0.25160
1233.25743,0.28890
1231.76764,0.32623
1230.27786,0.25770
1228.78807,0.27115
1227.29828,0.29472
1225.80849,0.24898
1224.31870,0.28648
1222.82891,0.21813
1221.33912,0.22166
1219.84934,0.20568
1218.35955,0.18974
1216.86976,0.26775
1215.37997,0.27016
1213.89018,0.29781
1212.40039,0.25364
1210.91061,0.23850
1209.42082,0.22970
1207.93103,0.21211
1206.44124,0.19455
1204.95145,0.13164
1203.46166,0.16457
1201.97188,0.19123
1200.48209,0.23054
1198.99230,0.23205
1197.50251,0.17436
1196.01272,0.14695
1194.52293,0.09815
1193.03314,0.04938
1191.54336,0.13048
1190.05357,0.05783
1188.56378,0.10119
1187.07399,0.00843
1185.58420,0.12244
1184.09441,0.13942
1182.60463,0.14256
1181.11484,0.14574
1179.62505,0.11996
1178.13526,0.12951
1176.64547,0.18322
1175.15568,0.15754
1173.66589,0.13568
1172.17611,0.09116
1170.68632,0.08071
1169.19653,0.07029
1167.70674,0.06495
1166.21695,0.15797
1164.72716,0.16279
1163.23738,0.13990
1161.74759,0.10444
1160.25780,0.12953
1158.76801,0.12187
1157.27822,0.11424
1155.78843,0.12682
1154.29865,0.08397
1152.80886,0.20125
1151.31907,0.00845
1149.82928,0.18000
1148.33949,0.21040
1146.84970,0.18536
1145.35991,0.16036
1143.87013,0.10766
1142.38034,0.13946
1140.89055,0.20658
1139.40076,0.19180
1137.91097,0.20227
1136.42118,0.26193
1134.93140,0.25355
1133.44161,0.24521
1131.95182,0.30623
1130.46203,0.36099
1128.97224,0.35653
1127.48245,0.33446
1125.99266,0.32754
1124.50288,0.37109
1123.01309,0.37433
1121.52330,0.37760
1120.03351,0.42125
1118.54372,0.42459
1117.05393,0.52881
1115.56415,0.43012
1114.07436,0.52306
1112.58457,0.49754
1111.09478,0.47206
1109.60499,0.52477
1108.11520,0.59768
1106.62542,0.64920
1105.13563,0.62763
1103.64584,0.82292
1102.15605,0.96908
1100.66626,0.94258
1099.17647,0.91610
1097.68668,0.91362
1096.19690,1.03218
1094.70711,0.95286
1093.21732,1.01225
1091.72753,1.04141
1090.23774,1.03846
1088.74795,1.03555
1087.25817,1.17196
1085.76838,1.19496
1084.27859,1.16883
1082.78880,1.23979
1081.29901,1.39903
1079.80922,1.28728
1078.31943,1.28713
1076.82965,1.28701
1075.33986,1.37453
1073.85007,1.37132
1072.36028,1.35176
1070.87049,1.36879
1069.38070,1.35308
1067.89092,1.41620
1066.40113,1.47934
1064.91134,1.29986
1063.42155,1.25277
1061.93176,1.21202
1060.44197,1.21794
1058.95219,1.12305
1057.46240,1.12715
1055.97261,1.13128
1054.48282,0.99994
1052.99303,0.95057
1051.50324,0.84954
1050.01345,0.83553
1048.52367,0.77618
1047.03388,0.80068
1045.54409,0.82523
1044.05430,0.71555
1042.56451,0.68406
1041.07472,0.62235
1039.58494,0.53547
1038.09515,0.49904
1036.60536,0.48723
1035.11557,0.47545
1033.62578,0.50089
1032.13599,0.40157
1030.64620,0.51154
1029.15642,0.53330
1027.66663,0.52925
1026.17684,0.52524
1024.68705,0.60761
1023.19726,0.65724
1021.70747,0.91616
1020.21769,1.10074
1018.72790,1.25132
1017.23811,1.35340
1015.74832,1.45552
1014.25853,1.58225
1012.76874,1.69010
1011.27896,1.79547
1009.78917,1.91347
1008.29938,2.00000
1006.80959,1.93907
1005.31980,1.87818
1003.83001,1.79715
1002.34022,1.76279
1000.85044,1.69444
999.36065,1.60720
997.87086,1.52820
996.38107,1.44923
994.89128,1.64069
993.40149,1.60402
991.91171,1.70478
990.42192,1.58498
988.93213,1.62404
987.44234,1.62784
985.95255,1.63168
984.46276,1.58008
982.97297,1.36339
981.48319,1.43665
979.99340,1.35364
978.50361,1.35324
977.01382,1.35286
975.52403,1.51451
974.03424,1.34718
972.54446,1.42065
971.05467,1.33532
969.56488,1.28280
968.07509,1.25616
966.58530,1.22955
965.09551,1.08133
963.60573,1.17770
962.11594,1.15686
960.62615,1.11589
959.13636,1.04218
957.64657,0.96851
956.15678,0.99823
954.66699,1.07337
953.17721,0.98341
951.68742,0.95651
950.19763,0.95170
948.70784,0.94693
947.21805,0.89870
945.72826,0.86059
944.23848,0.84269
942.74869,0.83364
941.25890,0.84353
939.76911,0.86039
938.27932,0.87729
936.78953,1.05746
935.29974,0.96034
933.80996,0.96536
932.32017,0.99437
930.83038,1.02467
929.34059,1.05500
927.85080,1.11185
926.36101,0.94812
924.87123,0.96721
923.38144,0.92330
921.89165,0.87754
920.40186,0.83181
918.91207,0.97206
917.42228,0.93081
915.93250,0.92489
914.44271,1.05515
912.95292,1.06380
911.46313,1.07248
909.97334,1.19402
908.48355,1.21600
906.99376,1.08297
905.50398,1.11006
904.01419,1.10000
902.52440,1.08998
901.03461,1.24827
899.54482,1.16962
898.05503,1.10486
896.56525,1.21914
895.07546,1.25655
893.58567,1.29400
892.09588,1.25459
890.60609,1.31732
889.11630,1.16200
887.62651,1.25506
886.13673,1.23091
884.64694,1.20679
883.15715,1.15750
881.66736,1.04521
880.17757,1.08549
878.68778,1.11823
877.19800,1.15101
875.70821,1.13341
874.21842,1.07801
872.72863,1.15123
871.23884,1.19676
869.74905,1.15029
868.25927,1.10386
866.76948,0.96922
865.27969,0.93924
863.78990,1.03787
862.30011,1.11133
860.81032,1.05751
859.32053,1.00371
857.83075,0.96004
856.34096,0.94791
854.85117,0.96229
853.36138,0.72081
851.87159,0.67097
850.38180,0.62116
848.89202,0.52852
847.40223,0.44601
845.91244,0.42655
844.42265,0.40335
842.93286,0.38019
841.44307,0.44908
839.95329,0.39320
838.46350,0.34619
836.97371,0.34711
835.48392,0.36445
833.99413,0.38183
832.50434,0.31351
831.01455,0.30070
829.52477,0.34591
828.03498,0.23737
826.54519,0.20575
825.05540,0.17416
823.56561,0.21069
822.07582,0.16782
820.58604,0.17290
819.09625,0.14397
817.60646,0.11508
816.11667,0.07361
814.62688,0.07252
813.13709,0.00843
811.64730,0.06210
810.15752,0.05719
808.66773,0.05231
807.17794,0.09852
805.68815,0.08173
804.19836,0.08515
802.70857,0.09742
801.21879,0.10973
799.72900,0.13342
798.23921,0.23530
796.74942,0.36998
795.25963,0.43222
793.76984,0.49449
792.28006,0.51835
790.79027,0.66199
789.30048,0.68466
787.81069,0.68214
786.32090,0.74080
784.83111,0.79950
783.34132,0.85885
781.85154,0.82874
780.36175,0.81001
778.87196,0.76799
777.38217,0.72600
775.89238,0.87755
774.40259,0.93963
772.91281,1.02192
771.42302,1.02104
769.93323,1.02019
768.44344,1.04585
766.95365,1.02238
765.46386,1.04054
763.97407,0.96546
762.48429,0.91688
760.99450,0.86833
759.50471,0.76184
758.01492,0.59108
756.52513,0.55398
755.03534,0.47532
753.54556,0.39669
752.05577,0.29792
750.56598,0.24331
749.07619,0.18747
747.58640,0.17390
746.09661,0.16036
744.60683,0.14118
743.11704,0.08673
741.62725,0.06888
740.13746,0.06556
738.64767,0.06228
737.15788,0.04074
735.66809,0.05580
734.17831,0.02804
732.68852,0.02299
731.19873,0.01799
729.70894,0.08991
728.21915,0.05723
726.72936,0.08006
725.23958,0.12309
723.74979,0.10754
722.26000,0.09202
720.77021,0.14523
719.28042,0.11402
717.79063,0.05385
716.30084,0.04540
714.81106,0.03698
713.32127,0.00843
711.83148,0.04099
710.34169,0.07737
708.85190,0.09046
707.36211,0.10358
705.87233,0.13628
704.38254,0.04169
702.89275,0.02025
701.40296,0.06502
699.91317,0.10983
698.42338,0.09983
696.93360,0.19954
695.44381,0.13793
693.95402,0.14947
692.46423,0.16104
690.97444,0.17138
689.48465,0.22840
687.99486,0.18839
686.50508,0.20577
685.01529,0.22318
683.52550,0.26521
682.03571,0.17617
680.54592,0.19306
679.05613,0.17026
677.56635,0.14751
676.07656,0.14937
674.58677,0.03529
673.09698,0.10907
671.60719,0.10598
670.11740,0.10294
668.62761,0.15413
667.13783,0.11711
665.64804,0.11101
664.15825,0.10495
662.66846,0.05795
661.17867,0.02863
659.68888,0.03843
658.19910,0.09805
656.70931,0.15771
655.21952,0.12852
653.72973,0.12711
652.23994,0.16355
650.75015,0.16724
649.26037,0.17097
647.77058,0.15456
646.28079,0.08273
644.79100,0.10673
643.30121,0.08097
641.81142,0.05524
640.32163,0.02892
638.83185,0.06818
637.34206,0.04823
635.85227,0.02831
634.36248,0.00843
632.87269,0.02764
631.38290,0.05319
629.89312,0.08633
628.40333,0.09808
626.91354,0.10986
625.42375,0.11159
623.93396,0.12470
622.44417,0.10191
620.95438,0.07916
619.46460,0.11255
617.97481,0.08545
616.48502,0.15167
614.99523,0.15427
613.50544,0.15690
612.01565,0.10978
610.52587,0.07277
609.03608,0.14420
607.54629,0.17155
606.05650,0.19893
604.56671,0.17467
603.07692,0.13909
601.58714,0.11804
600.09735,0.09702
598.60756,0.10441
597.11777,0.05383
595.62798,0.06128
594.13819,0.07759
592.64840,0.09394
591.15862,0.08510
589.66883,0.11538
588.17904,0.10535
586.68925,0.08086
585.19946,0.05640
583.70967,0.18892
582.21989,0.10717
580.73010,0.15341
579.24031,0.19968
577.75052,0.19493
576.26073,0.13475
574.77094,0.18805
573.28115,0.21114
571.79137,0.23426
570.30158,0.29775
568.81179,0.43187
567.32200,0.37819
565.83221,0.32455
564.34242,0.38188
562.85264,0.41024
561.36285,0.51049
559.87306,0.51434
558.38327,0.51823
556.89348,0.64001
555.40369,0.64333
553.91391,0.65930
552.42412,0.67529
550.93433,0.71275
549.44454,0.71999
547.95475,0.78903
546.46496,0.84172
544.97517,0.89445
543.48539,0.90434
541.99560,0.87141
540.50581,0.87381
539.01602,0.87625
537.52623,0.87619
536.03644,0.79424
534.54666,0.81316
533.05687,0.80628
531.56708,0.79943
530.07729,0.75668
528.58750,0.67994
527.09771,0.75702
525.60792,0.83413
524.11814,0.64025
522.62835,0.61028
521.13856,0.63330
519.64877,0.59646
518.15898,0.55966
516.66919,0.47184
515.17941,0.55045
513.68962,0.51880
512.19983,0.48718
510.71004,0.47008
509.22025,0.46941
507.73046,0.49525
506.24068,0.47700
504.75089,0.45878
503.26110,0.45321
501.77131,0.36825
500.28152,0.32492
498.79173,0.28163
497.30194,0.29005
495.81216,0.32247
494.32237,0.36058
492.83258,0.39873
491.34279,0.40099
489.85300,0.36546
488.36321,0.32367
486.87343,0.26867
485.38364,0.21371
483.89385,0.19975
482.40406,0.22364
480.91427,0.18517
479.42448,0.14673
477.93469,0.07617
476.44491,0.09012
474.95512,0.04926
473.46533,0.00843
471.97554,0.08931
470.48575,0.19040
468.99596,0.12765
467.50618,0.12102
466.01639,0.11443
464.52660,0.06438
463.03681,0.12530
461.54702,0.16482
460.05723,0.20438
458.56745,0.10530
457.07766,0.13232
455.58787,0.14362
454.09808,0.15494
452.60829,0.24005
451.11850,0.18274
449.62871,0.20174
448.13893,0.22076
446.64914,0.36903
445.15935,0.52616
443.66956,0.50811
442.17977,0.56382
440.68998,0.61958
439.20020,0.70877
437.71041,0.80052
436.22062,0.84503
434.73083,0.88957
433.24104,1.03311
431.75125,1.26491
430.26146,1.30073
428.77168,1.33659
427.28189,1.47648
425.79210,1.37815
424.30231,1.40528
422.81252,1.43245
421.32273,1.36195
419.83295,1.36208
418.34316,1.31939
416.85337,1.27673
415.36358,0.98198
413.87379,1.03898
412.38400,0.98696
410.89422,0.93498
409.40443,0.91897
407.91464,0.92567
406.42485,0.76601
404.93506,0.76207
403.44527,0.75816
401.95548,0.61373
400.46570,0.61179
398.97591,0.61932
397.48612,0.62690
395.99633,0.75111
394.50654,0.66610
393.01675,0.68764
391.52697,0.70921
390.03718,0.52093
388.54739,0.53060
387.05760,0.50879
385.56781,0.48701
384.07802,0.65183
382.58824,0.70323
381.09845,0.62104
379.60866,0.53889
378.11887,0.54123
376.62908,0.46797
375.13929,0.42878
373.64950,0.38962
372.15972,0.39336
370.66993,0.20930
369.18014,0.19420
367.69035,0.17913
366.20056,0.16157
364.71077,0.20708
363.22099,0.23244
361.73120,0.25785
360.24141,0.24673
358.75162,0.23186
357.26183,0.22018
355.77204,0.20853
354.28225,0.18746
352.79247,0.04919
351.30268,0.04929
349.81289,0.04942
348.32310,0.10693
346.83331,0.05986
345.34352,0.12501
343.85374,0.19019
342.36395,0.10918
340.87416,0.16182
339.38437,0.13824
337.89458,0.11468
336.40479,0.12961
334.91501,0.03869
333.42522,0.06755
331.93543,0.09645
330.44564,0.08252
328.95585,0.10770
327.46606,0.09573
325.97627,0.08379
324.48649,0.10116
322.99670,0.13369
321.50691,0.16436
320.01712,0.19507
318.52733,0.21258
317.03754,0.26667
315.54776,0.21806
314.05797,0.16949
312.56818,0.20982
311.07839,0.09891
309.58860,0.08322
308.09881,0.06755
306.60902,0.00843
305.11924,0.10635
303.62945,0.08077
302.13966,0.02819
300.64987,0.00843
299.16008,0.00843
