1778.52000,0.01478
1777.03021,0.01389
1775.54042,0.00029
1774.05063,0.00231
1772.56085,0.01996
1771.07106,0.01497
1769.58127,0.00010
1768.09148,0.03630
1766.60169,0.05978
1765.11190,0.06061
1763.62212,0.04873
1762.13233,0.02839
1760.64254,0.04493
1759.15275,0.07853
1757.66296,0.04412
1756.17317,0.01826
1754.68339,0.05764
1753.19360,0.04462
1751.70381,0.08975
1750.21402,0.06546
1748.72423,0.00010
1747.23444,0.07600
1745.74465,0.06547
1744.25487,0.06065
1742.76508,0.10264
1741.27529,0.12909
1739.78550,0.06343
1738.29571,0.07719
1736.80592,0.10659
1735.31614,0.08499
1733.82635,0.10454
1732.33656,0.07735
1730.84677,0.07429
1729.35698,0.10246
1727.86719,0.06830
1726.37740,0.02993
1724.88762,0.00010
1723.39783,0.05234
1721.90804,0.09470
1720.41825,0.10732
1718.92846,0.07605
1717.43867,0.02072
1715.94889,0.11142
1714.45910,0.06184
1712.96931,0.03497
1711.47952,0.12012
1709.98973,0.06782
1708.49994,0.11052
1707.01016,0.09799
1705.52037,0.08549
1704.03058,0.19493
1702.54079,0.13999
1701.05100,0.13186
1699.56121,0.16346
1698.07142,0.17100
1696.58164,0.15590
1695.09185,0.24998
1693.60206,0.25622
1692.11227,0.27243
1690.62248,0.27874
1689.13269,0.29927
1687.64291,0.30851
1686.15312,0.25399
1684.66333,0.26755
1683.17354,0.32084
1681.68375,0.25935
1680.19396,0.25602
1678.70417,0.20453
1677.21439,0.30192
1675.72460,0.29586
1674.23481,0.33521
1672.74502,0.29522
1671.25523,0.27228
1669.76544,0.29331
1668.27566,0.35833
1666.78587,0.33125
1665.29608,0.26027
1663.80629,0.28855
1662.31650,0.25308
1660.82671,0.21623
1659.33693,0.21486
1657.84714,0.25180
1656.35735,0.17963
1654.86756,0.22090
1653.37777,0.25512
1651.88798,0.18874
1650.39819,0.24147
1648.90841,0.21202
1647.41862,0.15851
1645.92883,0.14828
1644.43904,0.13808
1642.94925,0.18817
1641.45946,0.18868
1639.96968,0.15380
1638.47989,0.16715
1636.99010,0.13234
1635.50031,0.13017
1634.01052,0.18616
1632.52073,0.16565
1631.03094,0.15651
1629.54116,0.15024
1628.05137,0.18229
1626.56158,0.20587
1625.07179,0.20823
1623.58200,0.27016
1622.09221,0.26693
1620.60243,0.23964
1619.11264,0.25065
1617.62285,0.20643
1616.13306,0.18067
1614.64327,0.16913
1613.15348,0.20014
1611.66370,0.19860
1610.17391,0.16308
1608.68412,0.19988
1607.19433,0.17719
1605.70454,0.17438
1604.21475,0.18721
1602.72496,0.20007
1601.23518,0.17187
1599.74539,0.22450
1598.25560,0.16802
1596.76581,0.13993
1595.27602,0.10621
1593.78623,0.11647
1592.29645,0.11543
1590.80666,0.08325
1589.31687,0.09646
1587.82708,0.07995
1586.33729,0.17971
1584.84750,0.11649
1583.35771,0.08308
1581.86793,0.00010
1580.37814,0.12728
1578.88835,0.13827
1577.39856,0.15355
1575.90877,0.07389
1574.41898,0.05240
1572.92920,0.05220
1571.43941,0.08181
1569.94962,0.04412
1568.45983,0.00648
1566.97004,0.11558
1565.48025,0.08298
1563.99047,0.05608
1562.50068,0.03631
1561.01089,0.09738
1559.52110,0.04933
1558.03131,0.04527
1556.54152,0.07527
1555.05173,0.14216
1553.56195,0.12971
1552.07216,0.12581
1550.58237,0.14320
1549.09258,0.06425
1547.60279,0.06329
1546.11300,0.00568
1544.62322,0.10970
1543.13343,0.11311
1541.64364,0.09388
1540.15385,0.07895
1538.66406,0.06405
1537.17427,0.05770
1535.68448,0.00319
1534.19470,0.05929
1532.70491,0.09274
1531.21512,0.00717
1529.72533,0.01944
1528.23554,0.05443
1526.74575,0.07103
1525.25597,0.03663
1523.76618,0.08024
1522.27639,0.00341
1520.78660,0.07544
1519.29681,0.00010
1517.80702,0.01235
1516.31724,0.00339
1514.82745,0.01205
1513.33766,0.02997
1511.84787,0.04793
1510.35808,0.00143
1508.86829,0.04002
1507.37850,0.02053
1505.88872,0.04361
1504.39893,0.00010
1502.90914,0.01751
1501.41935,0.08740
1499.92956,0.07654
1498.43977,0.13092
1496.94999,0.12864
1495.46020,0.17176
1493.97041,0.16672
1492.48062,0.29355
1490.99083,0.20354
1489.50104,0.36872
1488.01125,0.41628
1486.52147,0.46388
1485.03168,0.45483
1483.54189,0.55495
1482.05210,0.64662
1480.56231,0.73265
1479.07252,0.84423
1477.58274,0.86797
1476.09295,1.02641
1474.60316,1.08567
1473.11337,1.21158
1471.62358,1.22414
1470.13379,1.17436
1468.64401,1.17140
1467.15422,1.08626
1465.66443,1.03519
1464.17464,0.98415
1462.68485,1.00970
1461.19506,0.98567
1459.70527,0.95176
1458.21549,0.84701
1456.72570,0.83302
1455.23591,0.81057
1453.74612,0.81367
1452.25633,0.77003
1450.76654,0.67114
1449.27676,0.56379
1447.78697,0.63509
1446.29718,0.65823
1444.80739,0.56942
1443.31760,0.48065
1441.82781,0.39901
1440.33802,0.27631
1438.84824,0.29397
1437.35845,0.26064
1435.86866,0.17065
1434.37887,0.21820
1432.88908,0.24027
1431.39929,0.23828
1429.90951,0.25476
1428.41972,0.29537
1426.92993,0.30767
1425.44014,0.29025
1423.95035,0.28704
1422.46056,0.28387
1420.97078,0.31475
1419.48099,0.36836
1417.99120,0.29584
1416.50141,0.34386
1415.01162,0.36214
1413.52183,0.35212
1412.03204,0.24857
1410.54226,0.29532
1409.05247,0.34353
1407.56268,0.26562
1406.07289,0.19200
1404.58310,0.19142
1403.09331,0.19088
1401.60353,0.33425
1400.11374,0.34584
1398.62395,0.38014
1397.13416,0.34361
1395.64437,0.27735
1394.15458,0.33870
1392.66479,0.34198
1391.17501,0.28859
1389.68522,0.33305
1388.19543,0.39740
1386.70564,0.36964
1385.21585,0.34193
1383.72606,0.29441
1382.23628,0.26252
1380.74649,0.26610
1379.25670,0.28390
1377.76691,0.24646
1376.27712,0.28276
1374.78733,0.36163
1373.29755,0.49440
1371.80776,0.37915
1370.31797,0.56161
1368.82818,0.64843
1367.33839,0.73529
1365.84860,0.75770
1364.35881,0.90913
1362.86903,0.92594
1361.37924,0.91727
1359.88945,0.94550
1358.39966,1.06023
1356.90987,1.09846
1355.42008,1.06727
1353.93030,1.09849
1352.44051,1.06241
1350.95072,1.02638
1349.46093,1.06905
1347.97114,0.97427
1346.48135,0.81857
1344.99156,0.70544
1343.50178,0.66747
1342.01199,0.57851
1340.52220,0.52220
1339.03241,0.55097
1337.54262,0.63648
1336.05283,0.56681
1334.56305,0.49718
1333.07326,0.50768
1331.58347,0.40624
1330.09368,0.48202
1328.60389,0.31687
1327.11410,0.31335
1325.62432,0.29711
1324.13453,0.37872
1322.64474,0.45753
1321.15495,0.44708
1319.66516,0.37642
1318.17537,0.30580
1316.68558,0.40887
1315.19580,0.36172
1313.70601,0.25932
1312.21622,0.29021
1310.72643,0.21908
1309.23664,0.29399
1307.74685,0.27396
1306.25707,0.27099
1304.76728,0.24041
1303.27749,0.20987
1301.78770,0.23252
1300.29791,0.24530
1298.80812,0.19999
1297.31834,0.26245
1295.82855,0.26400
1294.33876,0.24007
1292.84897,0.27856
1291.35918,0.31141
1289.86939,0.32587
1288.37960,0.34037
1286.88982,0.28687
1285.40003,0.28302
1283.91024,0.32882
1282.42045,0.40726
1280.93066,0.37093
1279.44087,0.37149
1277.95109,0.38343
1276.46130,0.33445
1274.97151,0.33867
1273.48172,0.34293
1271.99193,0.43298
1270.50214,0.48622
1269.01235,0.50123
1267.52257,0.50777
1266.03278,0.48033
1264.54299,0.51530
1263.05320,0.56731
1261.56341,0.58535
1260.07362,0.60342
1258.58384,0.66831
1257.09405,0.60708
1255.60426,0.73017
1254.11447,0.67469
1252.62468,0.61641
1251.13489,0.69425
1249.64511,0.57510
1248.15532,0.43189
1246.66553,0.44961
1245.17574,0.46736
1243.68595,0.35971
1242.19616,0.38817
1240.70637,0.36564
1239.21659,0.29779
1237.72680,0.34622
1236.23701,0.40319
1234.74722,0.26458
1233.25743,0.26209
1231.76764,0.25964
1230.27786,0.16793
1228.78807,0.22226
1227.29828,0.25678
1225.80849,0.22046
1224.31870,0.14875
1222.82891,0.12952
1221.33912,0.11317
1219.84934,0.15568
1218.35955,0.19823
1216.86976,0.13239
1215.37997,0.19273
1213.89018,0.25170
1212.40039,0.23417
1210.91061,0.18406
1209.42082,0.16377
1207.93103,0.15769
1206.44124,0.15165
1204.95145,0.11021
1203.46166,0.07873
1201.97188,0.13092
1200.48209,0.14772
1198.99230,0.14754
1197.50251,0.09921
1196.01272,0.06225
1194.52293,0.07424
1193.03314,0.08627
1191.54336,0.03525
1190.05357,0.08917
1188.56378,0.03824
1187.07399,0.00010
1185.58420,0.03893
1184.09441,0.05938
1182.60463,0.07632
1181.11484,0.09329
1179.62505,0.07133
1178.13526,0.10327
1176.64547,0.11540
1175.15568,0.00000
1173.66589,0.06270
1172.17611,0.06307
1170.68632,0.05355
1169.19653,0.04407
1167.70674,0.02329
1166.21695,0.04933
1164.72716,0.13919
1163.23738,0.07742
1161.74759,0.00010
1160.25780,0.00391
1158.76801,0.03894
1157.27822,0.07402
1155.78843,0.03258
1154.29865,0.13577
1152.80886,0.06748
1151.31907,0.10271
1149.82928,0.07703
1148.33949,0.12225
1146.84970,0.10444
1145.35991,0.08667
1143.87013,0.04271
1142.38034,0.03707
1140.89055,0.14486
1139.40076,0.23993
1137.91097,0.20463
1136.42118,0.18355
1134.93140,0.22913
1133.44161,0.27475
1131.95182,0.31757
1130.46203,0.33208
1128.97224,0.30268
1127.48245,0.36121
1125.99266,0.42970
1124.50288,0.33380
1123.01309,0.33575
1121.52330,0.33774
1120.03351,0.41772
1118.54372,0.50767
1117.05393,0.54379
1115.56415,0.47931
1114.07436,0.47299
1112.58457,0.48513
1111.09478,0.49731
1109.60499,0.45141
1108.11520,0.45233
1106.62542,0.51140
1105.13563,0.62154
1103.64584,0.79835
1102.15605,0.93408
1100.66626,0.92385
1099.17647,0.91366
1097.68668,0.85532
1096.19690,0.95861
1094.70711,0.92302
1093.21732,1.01930
1091.72753,0.99796
1090.23774,1.00998
1088.74795,1.02203
1087.25817,1.01782
1085.76838,1.12705
1084.27859,1.04213
1082.78880,1.13159
1081.29901,1.21117
1079.80922,1.17172
1078.31943,1.22657
1076.82965,1.28146
1075.33986,1.44199
1073.85007,1.33182
1072.36028,1.28406
1070.87049,1.35257
1069.38070,1.40128
1067.89092,1.37844
1066.40113,1.35564
1064.91134,1.35485
1063.42155,1.27755
1061.93176,1.22297
1060.44197,1.04795
1058.95219,1.03739
1057.46240,1.03538
1055.97261,1.03340
1054.48282,0.86987
1052.99303,0.81270
1051.50324,0.78532
1050.01345,0.67436
1048.52367,0.69809
1047.03388,0.69777
1045.54409,0.69748
1044.05430,0.69865
1042.56451,0.66726
1041.07472,0.43888
1039.58494,0.41465
1038.09515,0.40180
1036.60536,0.38261
1035.11557,0.36347
1033.62578,0.36207
1032.13599,0.34513
1030.64620,0.35232
1029.15642,0.55942
1027.66663,0.51778
1026.17684,0.47619
1024.68705,0.46936
1023.19726,0.60574
1021.70747,0.86406
1020.21769,1.01044
1018.72790,1.18520
1017.23811,1.32741
1015.74832,1.46965
1014.25853,1.57649
1012.76874,1.59407
1011.27896,1.75627
1009.78917,1.87883
1008.29938,2.00000
1006.80959,1.96954
1005.31980,1.93912
1003.83001,1.74431
1002.34022,1.72105
1000.85044,1.71910
999.36065,1.52299
997.87086,1.51828
996.38107,1.51361
994.89128,1.54724
993.40149,1.60644
991.91171,1.55510
990.42192,1.59878
988.93213,1.61982
987.44234,1.58632
985.95255,1.55286
984.46276,1.42943
982.97297,1.34998
981.48319,1.27624
979.99340,1.23089
978.50361,1.25574
977.01382,1.28064
975.52403,1.36297
974.03424,1.31211
972.54446,1.28254
971.05467,1.18214
969.56488,1.09454
968.07509,1.05587
966.58530,1.01725
965.09551,0.99072
963.60573,1.08754
962.11594,1.01289
960.62615,0.95812
959.13636,0.93953
957.64657,0.92099
956.15678,0.86917
954.66699,0.71108
953.17721,0.81668
951.68742,0.86421
950.19763,0.82247
948.70784,0.78077
947.21805,0.74052
945.72826,0.61952
944.23848,0.72252
942.74869,0.76886
941.25890,0.77129
939.76911,0.82976
938.27932,0.88826
936.78953,0.91775
935.29974,0.89624
933.80996,0.77839
932.32017,0.86752
930.83038,0.92693
929.34059,0.98638
927.85080,0.85592
926.36101,0.85733
924.87123,0.84176
923.38144,0.78513
921.89165,0.79657
920.40186,0.80806
918.91207,0.74020
917.42228,0.82406
915.93250,0.85551
914.44271,0.78493
912.95292,0.78952
911.46313,0.79415
909.97334,0.90372
908.48355,0.80778
906.99376,0.93444
905.50398,0.84709
904.01419,0.84978
902.52440,0.85252
901.03461,0.98642
899.54482,1.00412
898.05503,0.93255
896.56525,0.96450
895.07546,0.96318
893.58567,0.96190
892.09588,0.92451
890.60609,0.96513
889.11630,0.98735
887.62651,1.02804
886.13673,1.00144
884.64694,0.97487
883.15715,0.91929
881.66736,0.92895
880.17757,0.86778
878.68778,0.90728
877.19800,0.94683
875.70821,0.89427
874.21842,0.99201
872.72863,1.11389
871.23884,1.17627
869.74905,1.16498
868.25927,1.15372
866.76948,1.03478
865.27969,1.00234
863.78990,1.02381
862.30011,1.11194
860.81032,1.05907
859.32053,1.00623
857.83075,0.94706
856.34096,0.98289
854.85117,0.85576
853.36138,0.89309
851.87159,0.80501
850.38180,0.71697
848.89202,0.59283
847.40223,0.43895
845.91244,0.40135
844.42265,0.42474
842.93286,0.44817
841.44307,0.42486
839.95329,0.37324
838.46350,0.36701
836.97371,0.35800
835.48392,0.34051
833.99413,0.32307
832.50434,0.30141
831.01455,0.31664
829.52477,0.38011
828.03498,0.31746
826.54519,0.30730
825.05540,0.29717
823.56561,0.19637
822.07582,0.17214
820.58604,0.15080
819.09625,0.08767
817.60646,0.02458
816.11667,0.03028
814.62688,0.06721
813.13709,0.02338
811.64730,0.09014
810.15752,0.06552
808.66773,0.04094
807.17794,0.00010
805.68815,0.08503
804.19836,0.15723
802.70857,0.13805
801.21879,0.11890
799.72900,0.20257
798.23921,0.29194
796.74942,0.43096
795.25963,0.43961
793.76984,0.44830
792.28006,0.50948
790.79027,0.53384
789.30048,0.61636
787.81069,0.58977
786.32090,0.65890
784.83111,0.72806
783.34132,0.80932
781.85154,0.76587
780.36175,0.66860
778.87196,0.64579
777.38217,0.62301
775.89238,0.79377
774.40259,0.88659
772.91281,0.92276
771.42302,0.90936
769.93323,0.89599
768.44344,0.96771
766.95365,1.01963
765.46386,1.06875
763.97407,1.10373
762.48429,0.99700
760.99450,0.89031
759.50471,0.64475
758.01492,0.62177
756.52513,0.56623
755.03534,0.54971
753.54556,0.53322
752.05577,0.34455
750.56598,0.25515
749.07619,0.20547
747.58640,0.14024
746.09661,0.07505
744.60683,0.15731
743.11704,0.09928
741.62725,0.12209
740.13746,0.10525
738.64767,0.08845
737.15788,0.06318
735.66809,0.05071
734.17831,0.10348
732.68852,0.09817
731.19873,0.09290
729.70894,0.10751
728.21915,0.09382
726.72936,0.14678
725.23958,0.15443
723.74979,0.18337
722.26000,0.21236
720.77021,0.23004
719.28042,0.18397
717.79063,0.12094
716.30084,0.07282
714.81106,0.02475
713.32127,0.00010
711.83148,0.14536
710.34169,0.12623
708.85190,0.17872
707.36211,0.23126
705.87233,0.24910
704.38254,0.04301
702.89275,0.16866
701.40296,0.13913
699.91317,0.10965
698.42338,0.17021
696.93360,0.23222
695.44381,0.26876
693.95402,0.26920
692.46423,0.26967
690.97444,0.32192
689.48465,0.25798
687.99486,0.35141
686.50508,0.33219
685.01529,0.31302
683.52550,0.26482
682.03571,0.28753
680.54592,0.17421
679.05613,0.19771
677.56635,0.22125
676.07656,0.25688
674.58677,0.22168
673.09698,0.13123
671.60719,0.09893
670.11740,0.06668
668.62761,0.25275
667.13783,0.11426
665.64804,0.10835
664.15825,0.10247
662.66846,0.10868
661.17867,0.10218
659.68888,0.11555
658.19910,0.10629
656.70931,0.09706
655.21952,0.21545
653.72973,0.25875
652.23994,0.27799
650.75015,0.26609
649.26037,0.25422
647.77058,0.13041
646.28079,0.20934
644.79100,0.14089
643.30121,0.13769
641.81142,0.13452
640.32163,0.15832
638.83185,0.07160
637.34206,0.06855
635.85227,0.04995
634.36248,0.03138
632.87269,0.00010
631.38290,0.12600
629.89312,0.13854
628.40333,0.10788
626.91354,0.07726
625.42375,0.09275
623.93396,0.20184
622.44417,0.22166
620.95438,0.24151
619.46460,0.14376
617.97481,0.09707
616.48502,0.17517
614.99523,0.19801
613.50544,0.22090
612.01565,0.17579
610.52587,0.14206
609.03608,0.15939
607.54629,0.14062
606.05650,0.12188
604.56671,0.27825
603.07692,0.26881
601.58714,0.16514
600.09735,0.06151
598.60756,0.10322
597.11777,0.07550
595.62798,0.16973
594.13819,0.16336
592.64840,0.15702
591.15862,0.15781
589.66883,0.06084
588.17904,0.03619
586.68925,0.04135
585.19946,0.04655
583.70967,0.13684
582.21989,0.16621
580.73010,0.23744
579.24031,0.30871
577.75052,0.22055
576.26073,0.20046
574.77094,0.30091
573.28115,0.24121
571.79137,0.18156
570.30158,0.30763
568.81179,0.41674
567.32200,0.39051
565.83221,0.36432
564.34242,0.36156
562.85264,0.43680
561.36285,0.46955
559.87306,0.49951
558.38327,0.52950
556.89348,0.69136
555.40369,0.56268
553.91391,0.65800
552.42412,0.75335
550.93433,0.71267
549.44454,0.61958
547.95475,0.70229
546.46496,0.76166
544.97517,0.82106
543.48539,0.93083
541.99560,0.81808
540.50581,0.87052
539.01602,0.92299
537.52623,0.92234
536.03644,0.84094
534.54666,0.76241
533.05687,0.75976
531.56708,0.75714
530.07729,0.69290
528.58750,0.61028
527.09771,0.59077
525.60792,0.57130
524.11814,0.47603
522.62835,0.44601
521.13856,0.48973
519.64877,0.48460
518.15898,0.47949
516.66919,0.39293
515.17941,0.38720
513.68962,0.39072
512.19983,0.39428
510.71004,0.37307
509.22025,0.42419
507.73046,0.38605
506.24068,0.39260
504.75089,0.39919
503.26110,0.39235
501.77131,0.28917
500.28152,0.34265
498.79173,0.39617
497.30194,0.31436
495.81216,0.46364
494.32237,0.47263
492.83258,0.48166
491.34279,0.39433
489.85300,0.33965
488.36321,0.24815
486.87343,0.24953
485.38364,0.25096
483.89385,0.15816
482.40406,0.16037
480.91427,0.14703
479.42448,0.13372
477.93469,0.15448
476.44491,0.15543
474.95512,0.07774
473.46533,0.00010
471.97554,0.07302
470.48575,0.12614
468.99596,0.09708
467.50618,0.06451
466.01639,0.03198
464.52660,0.02430
463.03681,0.01950
461.54702,0.02536
460.05723,0.03126
458.56745,0.10028
457.07766,0.07720
455.58787,0.07896
454.09808,0.08077
452.60829,0.19388
451.11850,0.09583
449.62871,0.12610
448.13893,0.15641
446.64914,0.33347
445.15935,0.43119
443.66956,0.54029
442.17977,0.52539
440.68998,0.51054
439.20020,0.56589
437.71041,0.60568
436.22062,0.72561
434.73083,0.84557
433.24104,0.93084
431.75125,1.18200
430.26146,1.19789
428.77168,1.21382
427.28189,1.42682
425.79210,1.48961
424.30231,1.42628
422.81252,1.36298
421.32273,1.38053
419.83295,1.34850
418.34316,1.32147
416.85337,1.29448
415.36358,1.08112
413.87379,0.84229
412.38400,0.84731
410.89422,0.85237
409.40443,0.83337
407.91464,0.82575
406.42485,0.76855
404.93506,0.66107
403.44527,0.55364
401.95548,0.55751
400.46570,0.57134
398.97591,0.53986
397.48612,0.50841
395.99633,0.65986
394.50654,0.72488
393.01675,0.67229
391.52697,0.61973
390.03718,0.41271
388.54739,0.22841
387.05760,0.29291
385.56781,0.35746
384.07802,0.58718
382.58824,0.52635
381.09845,0.48187
379.60866,0.43742
378.11887,0.36253
376.62908,0.17429
375.13929,0.17319
373.64950,0.17213
372.15972,0.18954
370.66993,0.11344
369.18014,0.15998
367.69035,0.20656
366.20056,0.11498
364.71077,0.22614
363.22099,0.23102
361.73120,0.23594
360.24141,0.12325
358.75162,0.21756
357.26183,0.22756
355.77204,0.23760
354.28225,0.08962
352.79247,0.01824
351.30268,0.02130
349.81289,0.02441
348.32310,0.01551
346.83331,0.10512
345.34352,0.13241
343.85374,0.15973
342.36395,0.17149
340.87416,0.18472
339.38437,0.17672
337.89458,0.16876
336.40479,0.13957
334.91501,0.18272
333.42522,0.12526
331.93543,0.06784
330.44564,0.12528
328.95585,0.11897
327.46606,0.08081
325.97627,0.04268
324.48649,0.04434
322.99670,0.10698
321.50691,0.10588
320.01712,0.10482
318.52733,0.14206
317.03754,0.24455
315.54776,0.21242
314.05797,0.18033
312.56818,0.18229
311.07839,0.20131
309.58860,0.13744
308.09881,0.07361
306.60902,0.07289
305.11924,0.07222
303.62945,0.07725
302.13966,0.02737
300.64987,0.00010
299.16008,0.00010
