1778.52000,0.05190
1777.03021,0.05456
1775.54042,0.01327
1774.05063,0.04287
1772.56085,0.02119
1771.07106,0.02071
1769.58127,0.03330
1768.09148,0.02800
1766.60169,0.04146
1765.11190,0.05169
1763.62212,0.04729
1762.13233,0.04700
1760.64254,0.02475
1759.15275,0.06035
1757.66296,0.07806
1756.17317,0.07137
1754.68339,0.03621
1753.19360,0.03366
1751.70381,0.05393
1750.21402,0.02701
1748.72423,0.01803
1747.23444,0.03514
1745.74465,0.03925
1744.25487,0.05479
1742.76508,0.05570
1741.27529,0.05665
1739.78550,0.05844
1738.29571,0.05455
1736.80592,0.02872
1735.31614,0.03304
1733.82635,0.03413
1732.33656,0.00676
1730.84677,0.02005
1729.35698,0.03418
1727.86719,0.02717
1726.37740,0.04380
1724.88762,0.06047
1723.39783,0.03156
1721.90804,0.01327
1720.41825,0.02963
1718.92846,0.05091
1717.43867,0.01683
1715.94889,0.03328
1714.45910,0.05383
1712.96931,0.08418
1711.47952,0.06082
1709.98973,0.03993
1708.49994,0.04105
1707.01016,0.05402
1705.52037,0.06702
1704.03058,0.07556
1702.54079,0.04098
1701.05100,0.09926
1699.56121,0.10953
1698.07142,0.13611
1696.58164,0.08536
1695.09185,0.12341
1693.60206,0.12321
1692.11227,0.13770
1690.62248,0.14570
1689.13269,0.17084
1687.64291,0.18867
1686.15312,0.20247
1684.66333,0.15848
1683.17354,0.21387
1681.68375,0.18296
1680.19396,0.14395
1678.70417,0.17581
1677.21439,0.17513
1675.72460,0.16226
1674.23481,0.17712
1672.74502,0.16675
1671.25523,0.13281
1669.76544,0.16159
1668.27566,0.16028
1666.78587,0.18424
1665.29608,0.13331
1663.80629,0.16874
1662.31650,0.13253
1660.82671,0.13055
1659.33693,0.13512
1657.84714,0.12180
1656.35735,0.11992
1654.86756,0.09200
1653.37777,0.10158
1651.88798,0.07779
1650.39819,0.09476
1648.90841,0.16225
1647.41862,0.12552
1645.92883,0.12426
1644.43904,0.12302
1642.94925,0.13362
1641.45946,0.15159
1639.96968,0.14026
1638.47989,0.13955
1636.99010,0.14213
1635.50031,0.15777
1634.01052,0.12051
1632.52073,0.11666
1631.03094,0.12181
1629.54116,0.12780
1628.05137,0.13707
1626.56158,0.15941
1625.07179,0.14024
1623.58200,0.15124
1622.09221,0.18425
1620.60243,0.16762
1619.11264,0.17382
1617.62285,0.16620
1616.13306,0.13500
1614.64327,0.11931
1613.15348,0.15902
1611.66370,0.14664
1610.17391,0.16361
1608.68412,0.18061
1607.19433,0.19763
1605.70454,0.15036
1604.21475,0.14098
1602.72496,0.13164
1601.23518,0.14634
1599.74539,0.14887
1598.25560,0.12292
1596.76581,0.10107
1595.27602,0.10368
1593.78623,0.13727
1592.29645,0.13994
1590.80666,0.11170
1589.31687,0.09489
1587.82708,0.07729
1586.33729,0.11510
1584.84750,0.12282
1583.35771,0.07844
1581.86793,0.05364
1580.37814,0.07528
1578.88835,0.08718
1577.39856,0.05188
1575.90877,0.05000
1574.41898,0.05630
1572.92920,0.01946
1571.43941,0.02745
1569.94962,0.03057
1568.45983,0.03373
1566.97004,0.01330
1565.48025,0.03118
1563.99047,0.04583
1562.50068,0.01327
1561.01089,0.03597
1559.52110,0.05462
1558.03131,0.02119
1556.54152,0.04479
1555.05173,0.06354
1553.56195,0.04811
1552.07216,0.04493
1550.58237,0.01327
1549.09258,0.06863
1547.60279,0.03525
1546.11300,0.06298
1544.62322,0.05001
1543.13343,0.05174
1541.64364,0.02500
1540.15385,0.03737
1538.66406,0.04978
1537.17427,0.02231
1535.68448,0.05514
1534.19470,0.03913
1532.70491,0.01094
1531.21512,0.00965
1529.72533,0.08332
1528.23554,0.01776
1526.74575,0.00923
1525.25597,0.03168
1523.76618,0.01426
1522.27639,0.02700
1520.78660,0.07071
1519.29681,0.03790
1517.80702,0.01327
1516.31724,0.02383
1514.82745,0.02790
1513.33766,0.03730
1511.84787,0.04673
1510.35808,0.06799
1508.86829,0.05427
1507.37850,0.04058
1505.88872,0.05379
1504.39893,0.04342
1502.90914,0.04447
1501.41935,0.02765
1499.92956,0.02144
1498.43977,0.08448
1496.94999,0.08891
1495.46020,0.11781
1493.97041,0.19234
1492.48062,0.23596
1490.99083,0.29263
1489.50104,0.32083
1488.01125,0.34988
1486.52147,0.37896
1485.03168,0.45123
1483.54189,0.54389
1482.05210,0.57876
1480.56231,0.59167
1479.07252,0.71455
1477.58274,0.77801
1476.09295,0.87408
1474.60316,0.93190
1473.11337,0.98569
1471.62358,0.97679
1470.13379,1.00376
1468.64401,0.99248
1467.15422,0.91853
1465.66443,0.89103
1464.17464,0.86356
1462.68485,0.84345
1461.19506,0.74437
1459.70527,0.74468
1458.21549,0.65218
1456.72570,0.60206
1455.23591,0.52183
1453.74612,0.48317
1452.25633,0.46246
1450.76654,0.38965
1449.27676,0.39099
1447.78697,0.33616
1446.29718,0.37746
1444.80739,0.34142
1443.31760,0.30541
1441.82781,0.20673
1440.33802,0.19359
1438.84824,0.15523
1437.35845,0.12016
1435.86866,0.14131
1434.37887,0.12258
1432.88908,0.12344
1431.39929,0.11617
1429.90951,0.10731
1428.41972,0.15956
1426.92993,0.14343
1425.44014,0.14443
1423.95035,0.16338
1422.46056,0.18236
1420.97078,0.15007
1419.48099,0.21552
1417.99120,0.25170
1416.50141,0.22519
1415.01162,0.25165
1413.52183,0.22847
1412.03204,0.23055
1410.54226,0.24733
1409.05247,0.23971
1407.56268,0.24271
1406.07289,0.17814
1404.58310,0.20522
1403.09331,0.23233
1401.60353,0.28430
1400.11374,0.32898
1398.62395,0.36717
1397.13416,0.42413
1395.64437,0.45913
1394.15458,0.50230
1392.66479,0.46976
1391.17501,0.48612
1389.68522,0.52938
1388.19543,0.54335
1386.70564,0.57487
1385.21585,0.60641
1383.72606,0.59279
1382.23628,0.52056
1380.74649,0.49560
1379.25670,0.54315
1377.76691,0.51743
1376.27712,0.50803
1374.78733,0.61756
1373.29755,0.67418
1371.80776,0.76748
1370.31797,0.97970
1368.82818,1.07795
1367.33839,1.17623
1365.84860,1.45044
1364.35881,1.58216
1362.86903,1.78802
1361.37924,1.83593
1359.88945,1.88306
1358.39966,1.94080
1356.90987,1.89840
1355.42008,1.84871
1353.93030,1.68911
1352.44051,1.62156
1350.95072,1.55404
1349.46093,1.49063
1347.97114,1.28636
1346.48135,1.11795
1344.99156,1.00250
1343.50178,0.91804
1342.01199,0.74728
1340.52220,0.63925
1339.03241,0.59071
1337.54262,0.56336
1336.05283,0.51121
1334.56305,0.45909
1333.07326,0.47012
1331.58347,0.44615
1330.09368,0.39860
1328.60389,0.34783
1327.11410,0.30848
1325.62432,0.28057
1324.13453,0.31050
1322.64474,0.30708
1321.15495,0.30368
1319.66516,0.27996
1318.17537,0.25627
1316.68558,0.20492
1315.19580,0.25947
1313.70601,0.21551
1312.21622,0.16262
1310.72643,0.15781
1309.23664,0.23854
1307.74685,0.22809
1306.25707,0.21767
1304.76728,0.20117
1303.27749,0.18470
1301.78770,0.20776
1300.29791,0.18118
1298.80812,0.16602
1297.31834,0.22337
1295.82855,0.24493
1294.33876,0.18996
1292.84897,0.22704
1291.35918,0.22181
1289.86939,0.22353
1288.37960,0.22528
1286.88982,0.19897
1285.40003,0.26145
1283.91024,0.25312
1282.42045,0.26680
1280.93066,0.25119
1279.44087,0.28366
1277.95109,0.22740
1276.46130,0.25016
1274.97151,0.24445
1273.48172,0.23876
1271.99193,0.24533
1270.50214,0.32603
1269.01235,0.36604
1267.52257,0.35152
1266.03278,0.39078
1264.54299,0.43251
1263.05320,0.38714
1261.56341,0.41753
1260.07362,0.44795
1258.58384,0.41977
1257.09405,0.45514
1255.60426,0.48483
1254.11447,0.45593
1252.62468,0.42217
1251.13489,0.43404
1249.64511,0.40604
1248.15532,0.30315
1246.66553,0.27236
1245.17574,0.24160
1243.68595,0.25933
1242.19616,0.27383
1240.70637,0.23542
1239.21659,0.23206
1237.72680,0.21489
1236.23701,0.20019
1234.74722,0.18227
1233.25743,0.16967
1231.76764,0.15710
1230.27786,0.13845
1228.78807,0.11902
1227.29828,0.13707
1225.80849,0.12747
1224.31870,0.09999
1222.82891,0.12954
1221.33912,0.07931
1219.84934,0.07716
1218.35955,0.07504
1216.86976,0.04689
1215.37997,0.12546
1213.89018,0.11121
1212.40039,0.13120
1210.91061,0.04861
1209.42082,0.06459
1207.93103,0.07327
1206.44124,0.08198
1204.95145,0.05163
1203.46166,0.04248
1201.97188,0.04721
1200.48209,0.02998
1198.99230,0.07142
1197.50251,0.03715
1196.01272,0.03223
1194.52293,0.03629
1193.03314,0.04039
1191.54336,0.07872
1190.05357,0.08776
1188.56378,0.02761
1187.07399,0.04404
1185.58420,0.01327
1184.09441,0.05744
1182.60463,0.08616
1181.11484,0.11491
1179.62505,0.08343
1178.13526,0.07478
1176.64547,0.07105
1175.15568,0.08852
1173.66589,0.09300
1172.17611,0.10076
1170.68632,0.08615
1169.19653,0.07158
1167.70674,0.02487
1166.21695,0.07347
1164.72716,0.03903
1163.23738,0.02417
1161.74759,0.05739
1160.25780,0.01327
1158.76801,0.02329
1157.27822,0.03335
1155.78843,0.01940
1154.29865,0.10240
1152.80886,0.09341
1151.31907,0.06571
1149.82928,0.04375
1148.33949,0.08289
1146.84970,0.06221
1145.35991,0.04156
1143.87013,0.03356
1142.38034,0.06631
1140.89055,0.06977
1139.40076,0.14900
1137.91097,0.11180
1136.42118,0.18376
1134.93140,0.19752
1133.44161,0.21132
1131.95182,0.22473
1130.46203,0.25528
1128.97224,0.25654
1127.48245,0.26598
1125.99266,0.27381
1124.50288,0.30774
1123.01309,0.30668
1121.52330,0.30565
1120.03351,0.34944
1118.54372,0.38512
1117.05393,0.37603
1115.56415,0.42643
1114.07436,0.42311
1112.58457,0.41493
1111.09478,0.40678
1109.60499,0.40355
1108.11520,0.45328
1106.62542,0.46803
1105.13563,0.43394
1103.64584,0.52774
1102.15605,0.69486
1100.66626,0.66005
1099.17647,0.62527
1097.68668,0.69476
1096.19690,0.73741
1094.70711,0.76624
1093.21732,0.77067
1091.72753,0.81503
1090.23774,0.81097
1088.74795,0.80694
1087.25817,0.81394
1085.76838,0.82829
1084.27859,0.91027
1082.78880,0.94912
1081.29901,1.00591
1079.80922,1.06843
1078.31943,1.03326
1076.82965,0.99812
1075.33986,1.10145
1073.85007,1.17712
1072.36028,1.15592
1070.87049,1.17709
1069.38070,1.14292
1067.89092,1.22482
1066.40113,1.30675
1064.91134,1.21567
1063.42155,1.10995
1061.93176,0.96273
1060.44197,0.92874
1058.95219,0.90455
1057.46240,0.87306
1055.97261,0.84160
1054.48282,0.73688
1052.99303,0.68268
1051.50324,0.60734
1050.01345,0.52714
1048.52367,0.50724
1047.03388,0.49673
1045.54409,0.48625
1044.05430,0.42571
1042.56451,0.43769
1041.07472,0.30881
1039.58494,0.28257
1038.09515,0.25799
1036.60536,0.24932
1035.11557,0.24068
1033.62578,0.21294
1032.13599,0.22512
1030.64620,0.19174
1029.15642,0.29275
1027.66663,0.33108
1026.17684,0.36945
1024.68705,0.40052
1023.19726,0.56191
1021.70747,0.67855
1020.21769,0.87177
1018.72790,1.09921
1017.23811,1.24078
1015.74832,1.38237
1014.25853,1.54639
1012.76874,1.70881
1011.27896,1.78169
1009.78917,1.84237
1008.29938,2.00000
1006.80959,1.96995
1005.31980,1.93993
1003.83001,1.79145
1002.34022,1.77329
1000.85044,1.68025
999.36065,1.51964
997.87086,1.48692
996.38107,1.45423
994.89128,1.45170
993.40149,1.40116
991.91171,1.32703
990.42192,1.34169
988.93213,1.25540
987.44234,1.25425
985.95255,1.25312
984.46276,1.23777
982.97297,1.10926
981.48319,1.02475
979.99340,0.97611
978.50361,0.96862
977.01382,0.96116
975.52403,0.92808
974.03424,0.86001
972.54446,0.87504
971.05467,0.75491
969.56488,0.71788
968.07509,0.68576
966.58530,0.65368
965.09551,0.56788
963.60573,0.52852
962.11594,0.57715
960.62615,0.54437
959.13636,0.50144
957.64657,0.45855
956.15678,0.47391
954.66699,0.42903
953.17721,0.39315
951.68742,0.43629
950.19763,0.41308
948.70784,0.38991
947.21805,0.30855
945.72826,0.38764
944.23848,0.32587
942.74869,0.35454
941.25890,0.42476
939.76911,0.46936
938.27932,0.51399
936.78953,0.53952
935.29974,0.60090
933.80996,0.57030
932.32017,0.56171
930.83038,0.54868
929.34059,0.53567
927.85080,0.50926
926.36101,0.54395
924.87123,0.55832
923.38144,0.45219
921.89165,0.45155
920.40186,0.45094
918.91207,0.43041
917.42228,0.44330
915.93250,0.46436
914.44271,0.42194
912.95292,0.39786
911.46313,0.37382
909.97334,0.45038
908.48355,0.47159
906.99376,0.54170
905.50398,0.48642
904.01419,0.46050
902.52440,0.43460
901.03461,0.51867
899.54482,0.52459
898.05503,0.46702
896.56525,0.52350
895.07546,0.50875
893.58567,0.49402
892.09588,0.44716
890.60609,0.55506
889.11630,0.56120
887.62651,0.60482
886.13673,0.59229
884.64694,0.57978
883.15715,0.58848
881.66736,0.60780
880.17757,0.57339
878.68778,0.62249
877.19800,0.67162
875.70821,0.64139
874.21842,0.74636
872.72863,0.81309
871.23884,0.90428
869.74905,0.90999
868.25927,0.91574
866.76948,0.85148
865.27969,0.85891
863.78990,0.93071
862.30011,0.83152
860.81032,0.83334
859.32053,0.83520
857.83075,0.83220
856.34096,0.82352
854.85117,0.79615
853.36138,0.71751
851.87159,0.67757
850.38180,0.63767
848.89202,0.59006
847.40223,0.45941
845.91244,0.37115
844.42265,0.33136
842.93286,0.29161
841.44307,0.33780
839.95329,0.30341
838.46350,0.26008
836.97371,0.29740
835.48392,0.27653
833.99413,0.25569
832.50434,0.24913
831.01455,0.27436
829.52477,0.25728
828.03498,0.24022
826.54519,0.22157
825.05540,0.20295
823.56561,0.18435
822.07582,0.19429
820.58604,0.15296
819.09625,0.13934
817.60646,0.12576
816.11667,0.06415
814.62688,0.06773
813.13709,0.08762
811.64730,0.04240
810.15752,0.06439
808.66773,0.08641
807.17794,0.01603
805.68815,0.01327
804.19836,0.09844
802.70857,0.12662
801.21879,0.15484
799.72900,0.15296
798.23921,0.20078
796.74942,0.31134
795.25963,0.36126
793.76984,0.41121
792.28006,0.44694
790.79027,0.47862
789.30048,0.53477
787.81069,0.51521
786.32090,0.56572
784.83111,0.61626
783.34132,0.58621
781.85154,0.67671
780.36175,0.66056
778.87196,0.62653
777.38217,0.59252
775.89238,0.63103
774.40259,0.73145
772.91281,0.79119
771.42302,0.80332
769.93323,0.81548
768.44344,0.75478
766.95365,0.70959
765.46386,0.75971
763.97407,0.68445
762.48429,0.63079
760.99450,0.57717
759.50471,0.45803
758.01492,0.42523
756.52513,0.39817
755.03534,0.33937
753.54556,0.28061
752.05577,0.24468
750.56598,0.14118
749.07619,0.17290
747.58640,0.14195
746.09661,0.11102
744.60683,0.10375
743.11704,0.09487
741.62725,0.03309
740.13746,0.05033
738.64767,0.06761
737.15788,0.03849
735.66809,0.04198
734.17831,0.06831
732.68852,0.07430
731.19873,0.08032
729.70894,0.05055
728.21915,0.08187
726.72936,0.04809
725.23958,0.03550
723.74979,0.04331
722.26000,0.05114
720.77021,0.13800
719.28042,0.11006
717.79063,0.05202
716.30084,0.05957
714.81106,0.06715
713.32127,0.01327
711.83148,0.07476
710.34169,0.05159
708.85190,0.06712
707.36211,0.08269
705.87233,0.06042
704.38254,0.05447
702.89275,0.10148
701.40296,0.10007
699.91317,0.09869
698.42338,0.10263
696.93360,0.18071
695.44381,0.16354
693.95402,0.17001
692.46423,0.17652
690.97444,0.21400
689.48465,0.23278
687.99486,0.20680
686.50508,0.23053
685.01529,0.25429
683.52550,0.27726
682.03571,0.28724
680.54592,0.23128
679.05613,0.22299
677.56635,0.21473
676.07656,0.21017
674.58677,0.18935
673.09698,0.13273
671.60719,0.12907
670.11740,0.12545
668.62761,0.11615
667.13783,0.12968
665.64804,0.10213
664.15825,0.07460
662.66846,0.12324
661.17867,0.12956
659.68888,0.10090
658.19910,0.10892
656.70931,0.11697
655.21952,0.13726
653.72973,0.13152
652.23994,0.16409
650.75015,0.15271
649.26037,0.14137
647.77058,0.13819
646.28079,0.11713
644.79100,0.08389
643.30121,0.09506
641.81142,0.10626
640.32163,0.11464
638.83185,0.07500
637.34206,0.10054
635.85227,0.05689
634.36248,0.01327
632.87269,0.10514
631.38290,0.14574
629.89312,0.11307
628.40333,0.09183
626.91354,0.07063
625.42375,0.07470
623.93396,0.14476
622.44417,0.12894
620.95438,0.11315
619.46460,0.07825
617.97481,0.12482
616.48502,0.13721
614.99523,0.16552
613.50544,0.19385
612.01565,0.17865
610.52587,0.16999
609.03608,0.14752
607.54629,0.12753
606.05650,0.10756
604.56671,0.21955
603.07692,0.19312
601.58714,0.18383
600.09735,0.17457
598.60756,0.11974
597.11777,0.09507
595.62798,0.13150
594.13819,0.14272
592.64840,0.15397
591.15862,0.13512
589.66883,0.13911
588.17904,0.14719
586.68925,0.12599
585.19946,0.10481
583.70967,0.13905
582.21989,0.16110
580.73010,0.16404
579.24031,0.16701
577.75052,0.15658
576.26073,0.09894
574.77094,0.16430
573.28115,0.16862
571.79137,0.17296
570.30158,0.26529
568.81179,0.25992
567.32200,0.27413
565.83221,0.28837
564.34242,0.30996
562.85264,0.31449
561.36285,0.39234
559.87306,0.39815
558.38327,0.40399
556.89348,0.47704
555.40369,0.52406
553.91391,0.51371
552.42412,0.50338
550.93433,0.57167
549.44454,0.52761
547.95475,0.54221
546.46496,0.54707
544.97517,0.55196
543.48539,0.65460
541.99560,0.63349
540.50581,0.63399
539.01602,0.63452
537.52623,0.72263
536.03644,0.67314
534.54666,0.65055
533.05687,0.61578
531.56708,0.58104
530.07729,0.59926
528.58750,0.54829
527.09771,0.52830
525.60792,0.50834
524.11814,0.49737
522.62835,0.41720
521.13856,0.39815
519.64877,0.39419
518.15898,0.39026
516.66919,0.39409
515.17941,0.30187
513.68962,0.27319
512.19983,0.24454
510.71004,0.28596
509.22025,0.28913
507.73046,0.32572
506.24068,0.35787
504.75089,0.39004
503.26110,0.37298
501.77131,0.36734
500.28152,0.36866
498.79173,0.37001
497.30194,0.36691
495.81216,0.37931
494.32237,0.40274
492.83258,0.42620
491.34279,0.36622
489.85300,0.31929
488.36321,0.27647
486.87343,0.26055
485.38364,0.24467
483.89385,0.21334
482.40406,0.17389
480.91427,0.16339
479.42448,0.15292
477.93469,0.14696
476.44491,0.10438
474.95512,0.06794
473.46533,0.03152
471.97554,0.05663
470.48575,0.03779
468.99596,0.01327
467.50618,0.01477
466.01639,0.01629
464.52660,0.01540
463.03681,0.01943
461.54702,0.02715
460.05723,0.03491
458.56745,0.06753
457.07766,0.04887
455.58787,0.06975
454.09808,0.09065
452.60829,0.14457
451.11850,0.10975
449.62871,0.12708
448.13893,0.14444
446.64914,0.16183
445.15935,0.37143
443.66956,0.42879
442.17977,0.42021
440.68998,0.41166
439.20020,0.46992
437.71041,0.55183
436.22062,0.63091
434.73083,0.71003
433.24104,0.75782
431.75125,0.93350
430.26146,0.99031
428.77168,1.04715
427.28189,1.12683
425.79210,1.17070
424.30231,1.16778
422.81252,1.16489
421.32273,1.08507
419.83295,0.97271
418.34316,0.93611
416.85337,0.89955
415.36358,0.76040
413.87379,0.57080
412.38400,0.60639
410.89422,0.64202
409.40443,0.59827
407.91464,0.58876
406.42485,0.57847
404.93506,0.51161
403.44527,0.44477
401.95548,0.39548
400.46570,0.35110
398.97591,0.39959
397.48612,0.44811
395.99633,0.41604
394.50654,0.46055
393.01675,0.46519
391.52697,0.46985
390.03718,0.39393
388.54739,0.34572
387.05760,0.30284
385.56781,0.25999
384.07802,0.41302
382.58824,0.36656
381.09845,0.34905
379.60866,0.33156
378.11887,0.26972
376.62908,0.16638
375.13929,0.17138
373.64950,0.17641
372.15972,0.14482
370.66993,0.13363
369.18014,0.09558
367.69035,0.05757
366.20056,0.07253
364.71077,0.05738
363.22099,0.07972
361.73120,0.10209
360.24141,0.12124
358.75162,0.07038
357.26183,0.12094
355.77204,0.17153
354.28225,0.10692
352.79247,0.06758
351.30268,0.04416
349.81289,0.02076
348.32310,0.01327
346.83331,0.06184
345.34352,0.06606
343.85374,0.07031
342.36395,0.12875
340.87416,0.07320
339.38437,0.05759
337.89458,0.04201
336.40479,0.06148
334.91501,0.08260
333.42522,0.08421
331.93543,0.08585
330.44564,0.04844
328.95585,0.09004
327.46606,0.07997
325.97627,0.06992
324.48649,0.02530
322.99670,0.01327
321.50691,0.02822
320.01712,0.04320
318.52733,0.08671
317.03754,0.04393
315.54776,0.08017
314.05797,0.11644
312.56818,0.07212
311.07839,0.02620
309.58860,0.03406
308.09881,0.04195
306.60902,0.02381
305.11924,0.00000
303.62945,0.01327
302.13966,0.01379
300.64987,0.02125
299.16008,0.01327
