1778.52000,0.04754
1777.03021,0.05519
1775.54042,0.00770
1774.05063,0.04403
1772.56085,0.02113
1771.07106,0.04219
1769.58127,0.02651
1768.09148,0.05787
1766.60169,0.06779
1765.11190,0.04404
1763.62212,0.03871
1762.13233,0.05385
1760.64254,0.04041
1759.15275,0.08627
1757.66296,0.07393
1756.17317,0.05548
1754.68339,0.02277
1753.19360,0.03402
1751.70381,0.03918
1750.21402,0.03211
1748.72423,0.00770
1747.23444,0.02479
1745.74465,0.01126
1744.25487,0.05595
1742.76508,0.05061
1741.27529,0.07085
1739.78550,0.05945
1738.29571,0.02663
1736.80592,0.03266
1735.31614,0.04997
1733.82635,0.02440
1732.33656,0.06426
1730.84677,0.04386
1729.35698,0.00000
1727.86719,0.02829
1726.37740,0.04538
1724.88762,0.05841
1723.39783,0.03572
1721.90804,0.00489
1720.41825,0.05143
1718.92846,0.03159
1717.43867,0.00770
1715.94889,0.03271
1714.45910,0.07717
1712.96931,0.07261
1711.47952,0.08137
1709.98973,0.07280
1708.49994,0.04178
1707.01016,0.03583
1705.52037,0.02991
1704.03058,0.07664
1702.54079,0.06926
1701.05100,0.10891
1699.56121,0.12202
1698.07142,0.13722
1696.58164,0.19536
1695.09185,0.17997
1693.60206,0.17892
1692.11227,0.19425
1690.62248,0.16874
1689.13269,0.19742
1687.64291,0.22715
1686.15312,0.25386
1684.66333,0.21929
1683.17354,0.23993
1681.68375,0.22382
1680.19396,0.22001
1678.70417,0.21725
1677.21439,0.24109
1675.72460,0.25168
1674.23481,0.26332
1672.74502,0.19122
1671.25523,0.26935
1669.76544,0.22694
1668.27566,0.24588
1666.78587,0.25871
1665.29608,0.19904
1663.80629,0.19048
1662.31650,0.15847
1660.82671,0.18063
1659.33693,0.18955
1657.84714,0.24448
1656.35735,0.21259
1654.86756,0.20016
1653.37777,0.16323
1651.88798,0.16210
1650.39819,0.16713
1648.90841,0.18548
1647.41862,0.12008
1645.92883,0.13850
1644.43904,0.15694
1642.94925,0.14069
1641.45946,0.15103
1639.96968,0.17674
1638.47989,0.15138
1636.99010,0.17715
1635.50031,0.12326
1634.01052,0.15421
1632.52073,0.10958
1631.03094,0.13446
1629.54116,0.17675
1628.05137,0.15981
1626.56158,0.13064
1625.07179,0.15668
1623.58200,0.17356
1622.09221,0.23236
1620.60243,0.19413
1619.11264,0.19680
1617.62285,0.18214
1616.13306,0.18284
1614.64327,0.12738
1613.15348,0.12814
1611.66370,0.13200
1610.17391,0.19312
1608.68412,0.16538
1607.19433,0.17956
1605.70454,0.15699
1604.21475,0.15694
1602.72496,0.15692
1601.23518,0.14773
1599.74539,0.14471
1598.25560,0.10903
1596.76581,0.13673
1595.27602,0.09499
1593.78623,0.10743
1592.29645,0.09538
1590.80666,0.11607
1589.31687,0.10205
1587.82708,0.12995
1586.33729,0.11191
1584.84750,0.06120
1583.35771,0.06570
1581.86793,0.05287
1580.37814,0.06562
1578.88835,0.07533
1577.39856,0.07895
1575.90877,0.07953
1574.41898,0.08117
1572.92920,0.05730
1571.43941,0.07944
1569.94962,0.07250
1568.45983,0.06559
1566.97004,0.07966
1565.48025,0.08252
1563.99047,0.03944
1562.50068,0.09039
1561.01089,0.09949
1559.52110,0.13212
1558.03131,0.06874
1556.54152,0.10348
1555.05173,0.14234
1553.56195,0.10153
1552.07216,0.09040
1550.58237,0.10790
1549.09258,0.10092
1547.60279,0.05718
1546.11300,0.05027
1544.62322,0.07812
1543.13343,0.08660
1541.64364,0.05526
1540.15385,0.07352
1538.66406,0.09180
1537.17427,0.10041
1535.68448,0.05695
1534.19470,0.09219
1532.70491,0.05697
1531.21512,0.04222
1529.72533,0.05202
1528.23554,0.00770
1526.74575,0.06225
1525.25597,0.04633
1523.76618,0.05701
1522.27639,0.05751
1520.78660,0.04067
1519.29681,0.06474
1517.80702,0.04899
1516.31724,0.06903
1514.82745,0.01963
1513.33766,0.02697
1511.84787,0.03434
1510.35808,0.07292
1508.86829,0.04000
1507.37850,0.02142
1505.88872,0.00696
1504.39893,0.00770
1502.90914,0.02428
1501.41935,0.06542
1499.92956,0.06980
1498.43977,0.08239
1496.94999,0.10115
1495.46020,0.15059
1493.97041,0.23276
1492.48062,0.21688
1490.99083,0.34714
1489.50104,0.38242
1488.01125,0.41415
1486.52147,0.44591
1485.03168,0.53237
1483.54189,0.57391
1482.05210,0.61139
1480.56231,0.70204
1479.07252,0.80703
1477.58274,0.89570
1476.09295,1.02119
1474.60316,1.05578
1473.11337,1.16192
1471.62358,1.14447
1470.13379,1.21185
1468.64401,1.19345
1467.15422,1.16690
1465.66443,1.07755
1464.17464,0.98823
1462.68485,0.91784
1461.19506,0.94456
1459.70527,0.86812
1458.21549,0.81418
1456.72570,0.82057
1455.23591,0.83822
1453.74612,0.66791
1452.25633,0.75409
1450.76654,0.63391
1449.27676,0.57405
1447.78697,0.53772
1446.29718,0.60769
1444.80739,0.55661
1443.31760,0.50557
1441.82781,0.38457
1440.33802,0.39337
1438.84824,0.30002
1437.35845,0.19241
1435.86866,0.21867
1434.37887,0.22250
1432.88908,0.24577
1431.39929,0.23944
1429.90951,0.23825
1428.41972,0.24936
1426.92993,0.27174
1425.44014,0.32277
1423.95035,0.29260
1422.46056,0.26246
1420.97078,0.23900
1419.48099,0.36985
1417.99120,0.33420
1416.50141,0.32310
1415.01162,0.32225
1413.52183,0.40420
1412.03204,0.31554
1410.54226,0.35056
1409.05247,0.31613
1407.56268,0.23779
1406.07289,0.30049
1404.58310,0.30652
1403.09331,0.31258
1401.60353,0.28956
1400.11374,0.28190
1398.62395,0.40607
1397.13416,0.33002
1395.64437,0.34391
1394.15458,0.36499
1392.66479,0.36566
1391.17501,0.32959
1389.68522,0.35895
1388.19543,0.28003
1386.70564,0.32886
1385.21585,0.37773
1383.72606,0.31526
1382.23628,0.25283
1380.74649,0.24254
1379.25670,0.26089
1377.76691,0.23329
1376.27712,0.25682
1374.78733,0.33249
1373.29755,0.36528
1371.80776,0.45021
1370.31797,0.51985
1368.82818,0.55938
1367.33839,0.59894
1365.84860,0.76268
1364.35881,0.83348
1362.86903,0.98196
1361.37924,0.96393
1359.88945,0.96841
1358.39966,1.03117
1356.90987,1.01529
1355.42008,1.09752
1353.93030,1.02449
1352.44051,1.01994
1350.95072,1.01543
1349.46093,0.93841
1347.97114,0.90434
1346.48135,0.82125
1344.99156,0.75966
1343.50178,0.65621
1342.01199,0.62942
1340.52220,0.56282
1339.03241,0.54836
1337.54262,0.56255
1336.05283,0.56042
1334.56305,0.55832
1333.07326,0.52969
1331.58347,0.49497
1330.09368,0.47560
1328.60389,0.38679
1327.11410,0.35012
1325.62432,0.35947
1324.13453,0.33513
1322.64474,0.42219
1321.15495,0.46638
1319.66516,0.41557
1318.17537,0.36480
1316.68558,0.35391
1315.19580,0.41458
1313.70601,0.30567
1312.21622,0.28875
1310.72643,0.31478
1309.23664,0.28056
1307.74685,0.34446
1306.25707,0.28681
1304.76728,0.28436
1303.27749,0.28195
1301.78770,0.29898
1300.29791,0.30788
1298.80812,0.29637
1297.31834,0.31453
1295.82855,0.35111
1294.33876,0.30190
1292.84897,0.36307
1291.35918,0.33130
1289.86939,0.33992
1288.37960,0.34857
1286.88982,0.34040
1285.40003,0.39254
1283.91024,0.36298
1282.42045,0.39885
1280.93066,0.36527
1279.44087,0.43491
1277.95109,0.30127
1276.46130,0.38529
1274.97151,0.41161
1273.48172,0.43797
1271.99193,0.43014
1270.50214,0.48568
1269.01235,0.53207
1267.52257,0.54579
1266.03278,0.60859
1264.54299,0.57742
1263.05320,0.62598
1261.56341,0.63524
1260.07362,0.64453
1258.58384,0.65233
1257.09405,0.66526
1255.60426,0.64145
1254.11447,0.67080
1252.62468,0.62253
1251.13489,0.64275
1249.64511,0.62010
1248.15532,0.47180
1246.66553,0.47322
1245.17574,0.47468
1243.68595,0.40004
1242.19616,0.45929
1240.70637,0.39495
1239.21659,0.38070
1237.72680,0.35116
1236.23701,0.33494
1234.74722,0.29423
1233.25743,0.30157
1231.76764,0.30895
1230.27786,0.23666
1228.78807,0.30541
1227.29828,0.27508
1225.80849,0.23560
1224.31870,0.16038
1222.82891,0.15979
1221.33912,0.16944
1219.84934,0.18220
1218.35955,0.19499
1216.86976,0.19146
1215.37997,0.22884
1213.89018,0.30405
1212.40039,0.25874
1210.91061,0.17054
1209.42082,0.21010
1207.93103,0.18123
1206.44124,0.15240
1204.95145,0.12973
1203.46166,0.14081
1201.97188,0.10901
1200.48209,0.12016
1198.99230,0.13135
1197.50251,0.09965
1196.01272,0.09966
1194.52293,0.08898
1193.03314,0.07833
1191.54336,0.14485
1190.05357,0.10413
1188.56378,0.07468
1187.07399,0.03606
1185.58420,0.00770
1184.09441,0.09592
1182.60463,0.11674
1181.11484,0.13759
1179.62505,0.06141
1178.13526,0.13852
1176.64547,0.10838
1175.15568,0.10996
1173.66589,0.13915
1172.17611,0.12035
1170.68632,0.09188
1169.19653,0.06345
1167.70674,0.10197
1166.21695,0.00770
1164.72716,0.10612
1163.23738,0.09525
1161.74759,0.10688
1160.25780,0.05112
1158.76801,0.03575
1157.27822,0.02041
1155.78843,0.13845
1154.29865,0.11858
1152.80886,0.17435
1151.31907,0.04421
1149.82928,0.07348
1148.33949,0.23562
1146.84970,0.19753
1145.35991,0.15947
1143.87013,0.07751
1142.38034,0.11002
1140.89055,0.19059
1139.40076,0.22623
1137.91097,0.26600
1136.42118,0.25369
1134.93140,0.25622
1133.44161,0.25879
1131.95182,0.31708
1130.46203,0.35497
1128.97224,0.35100
1127.48245,0.36852
1125.99266,0.37279
1124.50288,0.44760
1123.01309,0.44223
1121.52330,0.43690
1120.03351,0.39430
1118.54372,0.46005
1117.05393,0.45839
1115.56415,0.50581
1114.07436,0.51955
1112.58457,0.53077
1111.09478,0.54201
1109.60499,0.49864
1108.11520,0.56155
1106.62542,0.58465
1105.13563,0.72733
1103.64584,0.81589
1102.15605,0.91470
1100.66626,0.91545
1099.17647,0.91624
1097.68668,1.00085
1096.19690,1.01091
1094.70711,1.05062
1093.21732,1.02396
1091.72753,1.04638
1090.23774,1.05094
1088.74795,1.05555
1087.25817,1.15980
1085.76838,1.18031
1084.27859,1.19472
1082.78880,1.34914
1081.29901,1.31866
1079.80922,1.23508
1078.31943,1.27619
1076.82965,1.31734
1075.33986,1.38508
1073.85007,1.38542
1072.36028,1.36332
1070.87049,1.40664
1069.38070,1.45204
1067.89092,1.48061
1066.40113,1.50922
1064.91134,1.46889
1063.42155,1.38364
1061.93176,1.25755
1060.44197,1.20200
1058.95219,1.16283
1057.46240,1.12165
1055.97261,1.08050
1054.48282,0.95765
1052.99303,0.94110
1051.50324,0.84488
1050.01345,0.80591
1048.52367,0.79252
1047.03388,0.77252
1045.54409,0.75255
1044.05430,0.74846
1042.56451,0.65448
1041.07472,0.54317
1039.58494,0.48094
1038.09515,0.36357
1036.60536,0.40306
1035.11557,0.44259
1033.62578,0.37232
1032.13599,0.35521
1030.64620,0.47710
1029.15642,0.54895
1027.66663,0.51355
1026.17684,0.47818
1024.68705,0.59100
1023.19726,0.67627
1021.70747,0.92199
1020.21769,1.13402
1018.72790,1.30010
1017.23811,1.38908
1015.74832,1.47809
1014.25853,1.64632
1012.76874,1.75635
1011.27896,1.84495
1009.78917,2.00000
1008.29938,1.99467
1006.80959,1.97864
1005.31980,1.96265
1003.83001,1.76840
1002.34022,1.81020
1000.85044,1.80402
999.36065,1.69672
997.87086,1.64973
996.38107,1.60278
994.89128,1.55790
993.40149,1.72661
991.91171,1.58473
990.42192,1.63294
988.93213,1.62498
987.44234,1.61858
985.95255,1.61223
984.46276,1.72187
982.97297,1.53728
981.48319,1.42936
979.99340,1.36746
978.50361,1.41593
977.01382,1.46443
975.52403,1.49867
974.03424,1.49411
972.54446,1.37822
971.05467,1.30425
969.56488,1.18843
968.07509,1.17328
966.58530,1.15816
965.09551,1.04448
963.60573,1.09738
962.11594,1.07470
960.62615,1.09803
959.13636,1.03710
957.64657,0.97621
956.15678,0.93528
954.66699,0.84431
953.17721,0.96896
951.68742,0.88522
950.19763,0.86996
948.70784,0.85473
947.21805,0.85078
945.72826,0.69565
944.23848,0.70505
942.74869,0.75126
941.25890,0.77197
939.76911,0.88569
938.27932,0.99944
936.78953,1.05600
935.29974,0.96956
933.80996,0.91483
932.32017,0.89078
930.83038,0.87953
929.34059,0.86832
927.85080,0.87298
926.36101,0.91140
924.87123,0.96210
923.38144,0.95562
921.89165,0.91700
920.40186,0.87840
918.91207,0.85465
917.42228,0.80233
915.93250,0.83791
914.44271,0.82142
912.95292,0.87904
911.46313,0.93669
909.97334,0.88658
908.48355,0.90292
906.99376,0.88761
905.50398,0.94284
904.01419,0.94651
902.52440,0.95021
901.03461,1.01065
899.54482,0.97610
898.05503,0.96407
896.56525,0.96330
895.07546,0.96155
893.58567,0.95983
892.09588,0.94691
890.60609,1.09239
889.11630,1.10712
887.62651,1.01665
886.13673,0.96503
884.64694,0.91345
883.15715,0.95488
881.66736,0.96365
880.17757,0.91626
878.68778,0.90721
877.19800,0.89820
875.70821,0.89995
874.21842,0.93546
872.72863,1.01493
871.23884,1.10158
869.74905,1.07639
868.25927,1.05124
866.76948,0.94693
865.27969,1.01329
863.78990,1.10420
862.30011,1.07458
860.81032,1.04295
859.32053,1.01135
857.83075,1.00125
856.34096,0.83689
854.85117,0.81153
853.36138,0.77394
851.87159,0.74098
850.38180,0.70805
848.89202,0.62049
847.40223,0.46043
845.91244,0.44548
844.42265,0.45560
842.93286,0.46576
841.44307,0.42639
839.95329,0.40239
838.46350,0.31915
836.97371,0.35958
835.48392,0.36122
833.99413,0.36289
832.50434,0.26242
831.01455,0.31219
829.52477,0.40694
828.03498,0.29022
826.54519,0.24915
825.05540,0.20811
823.56561,0.24680
822.07582,0.19459
820.58604,0.12300
819.09625,0.10764
817.60646,0.09231
816.11667,0.08008
814.62688,0.05971
813.13709,0.00770
811.64730,0.04147
810.15752,0.03492
808.66773,0.02840
807.17794,0.01016
805.68815,0.07064
804.19836,0.11071
802.70857,0.12884
801.21879,0.14701
799.72900,0.16368
798.23921,0.23556
796.74942,0.41782
795.25963,0.42744
793.76984,0.43710
792.28006,0.53057
790.79027,0.60568
789.30048,0.64711
787.81069,0.62011
786.32090,0.66416
784.83111,0.70825
783.34132,0.73755
781.85154,0.70354
780.36175,0.71554
778.87196,0.68823
777.38217,0.66097
775.89238,0.77524
774.40259,0.89670
772.91281,0.93543
771.42302,0.93180
769.93323,0.92820
768.44344,0.90471
766.95365,0.87818
765.46386,0.82206
763.97407,0.90698
762.48429,0.78604
760.99450,0.66514
759.50471,0.53662
758.01492,0.51949
756.52513,0.44518
755.03534,0.40156
753.54556,0.35797
752.05577,0.23369
750.56598,0.19732
749.07619,0.15281
747.58640,0.15278
746.09661,0.15278
744.60683,0.10940
743.11704,0.07319
741.62725,0.07381
740.13746,0.04074
738.64767,0.00770
737.15788,0.01771
735.66809,0.03899
734.17831,0.05111
732.68852,0.07706
731.19873,0.10304
729.70894,0.06724
728.21915,0.00900
726.72936,0.02178
725.23958,0.09794
723.74979,0.08013
722.26000,0.06236
720.77021,0.11512
719.28042,0.04940
717.79063,0.03786
716.30084,0.03299
714.81106,0.02816
713.32127,0.00446
711.83148,0.05758
710.34169,0.03206
708.85190,0.04233
707.36211,0.05264
705.87233,0.07831
704.38254,0.06825
702.89275,0.05822
701.40296,0.09319
699.91317,0.12819
698.42338,0.00894
696.93360,0.05667
695.44381,0.10035
693.95402,0.13385
692.46423,0.16739
690.97444,0.17030
689.48465,0.19572
687.99486,0.17725
686.50508,0.17362
685.01529,0.17003
683.52550,0.16800
682.03571,0.14966
680.54592,0.22944
679.05613,0.21525
677.56635,0.20110
676.07656,0.15531
674.58677,0.13100
673.09698,0.06995
671.60719,0.08403
670.11740,0.09814
668.62761,0.11280
667.13783,0.06312
665.64804,0.07070
664.15825,0.07830
662.66846,0.09718
661.17867,0.09464
659.68888,0.08293
658.19910,0.09987
656.70931,0.11684
655.21952,0.07458
653.72973,0.10797
652.23994,0.11993
650.75015,0.12733
649.26037,0.13476
647.77058,0.15908
646.28079,0.10477
644.79100,0.11281
643.30121,0.08615
641.81142,0.05952
640.32163,0.04212
638.83185,0.01250
637.34206,0.01663
635.85227,0.01927
634.36248,0.02194
632.87269,0.01698
631.38290,0.03249
629.89312,0.07256
628.40333,0.04011
626.91354,0.00770
625.42375,0.13072
623.93396,0.11379
622.44417,0.10609
620.95438,0.09842
619.46460,0.12757
617.97481,0.05765
616.48502,0.11241
614.99523,0.11714
613.50544,0.12190
612.01565,0.16450
610.52587,0.14583
609.03608,0.06078
607.54629,0.05955
606.05650,0.05835
604.56671,0.11031
603.07692,0.14801
601.58714,0.15866
600.09735,0.16934
598.60756,0.11927
597.11777,0.06003
595.62798,0.10402
594.13819,0.08675
592.64840,0.06950
591.15862,0.09725
589.66883,0.08416
588.17904,0.01286
586.68925,0.05910
585.19946,0.10537
583.70967,0.12716
582.21989,0.12752
580.73010,0.14017
579.24031,0.15286
577.75052,0.16252
576.26073,0.25804
574.77094,0.22383
573.28115,0.24738
571.79137,0.27096
570.30158,0.30633
568.81179,0.35195
567.32200,0.35469
565.83221,0.35747
564.34242,0.32043
562.85264,0.33553
561.36285,0.43854
559.87306,0.45626
558.38327,0.47402
556.89348,0.50356
555.40369,0.64961
553.91391,0.62609
552.42412,0.60260
550.93433,0.56178
549.44454,0.59864
547.95475,0.58343
546.46496,0.62444
544.97517,0.66549
543.48539,0.79138
541.99560,0.68128
540.50581,0.71068
539.01602,0.74012
537.52623,0.72003
536.03644,0.74289
534.54666,0.70142
533.05687,0.72281
531.56708,0.74424
530.07729,0.68958
528.58750,0.65131
527.09771,0.63503
525.60792,0.61879
524.11814,0.52340
522.62835,0.53839
521.13856,0.61676
519.64877,0.55519
518.15898,0.49365
516.66919,0.45053
515.17941,0.37782
513.68962,0.37360
512.19983,0.36941
510.71004,0.33460
509.22025,0.37033
507.73046,0.37442
506.24068,0.39233
504.75089,0.41028
503.26110,0.29697
501.77131,0.33593
500.28152,0.38463
498.79173,0.43336
497.30194,0.32325
495.81216,0.38993
494.32237,0.41118
492.83258,0.43246
491.34279,0.43079
489.85300,0.31574
488.36321,0.38565
486.87343,0.35189
485.38364,0.31817
483.89385,0.30032
482.40406,0.21711
480.91427,0.21925
479.42448,0.22142
477.93469,0.18429
476.44491,0.09610
474.95512,0.05188
473.46533,0.00770
471.97554,0.10313
470.48575,0.13117
468.99596,0.13267
467.50618,0.10048
466.01639,0.06833
464.52660,0.01476
463.03681,0.12572
461.54702,0.12177
460.05723,0.11785
458.56745,0.08076
457.07766,0.09888
455.58787,0.13491
454.09808,0.17097
452.60829,0.19430
451.11850,0.14410
449.62871,0.20325
448.13893,0.26244
446.64914,0.30532
445.15935,0.52498
443.66956,0.50969
442.17977,0.55113
440.68998,0.59261
439.20020,0.57843
437.71041,0.73594
436.22062,0.75198
434.73083,0.76804
433.24104,0.92361
431.75125,1.00054
430.26146,1.06167
428.77168,1.12282
427.28189,1.25196
425.79210,1.33107
424.30231,1.27687
422.81252,1.22271
421.32273,1.07305
419.83295,0.98574
418.34316,0.96131
416.85337,0.93691
415.36358,0.78534
413.87379,0.74518
412.38400,0.72343
410.89422,0.70172
409.40443,0.71479
407.91464,0.70336
406.42485,0.66336
404.93506,0.61114
403.44527,0.55894
401.95548,0.52313
400.46570,0.49757
398.97591,0.47460
397.48612,0.45166
395.99633,0.55494
394.50654,0.53258
393.01675,0.55367
391.52697,0.57481
390.03718,0.46774
388.54739,0.34845
387.05760,0.36100
385.56781,0.37358
384.07802,0.49245
382.58824,0.46525
381.09845,0.42020
379.60866,0.37519
378.11887,0.30518
376.62908,0.33124
375.13929,0.30472
373.64950,0.27823
372.15972,0.25127
370.66993,0.19471
369.18014,0.16679
367.69035,0.13890
366.20056,0.08449
364.71077,0.12002
363.22099,0.15762
361.73120,0.19526
360.24141,0.20126
358.75162,0.14906
357.26183,0.11834
355.77204,0.08766
354.28225,0.14488
352.79247,0.12040
351.30268,0.08829
349.81289,0.05621
348.32310,0.07985
346.83331,0.09228
345.34352,0.11139
343.85374,0.13053
342.36395,0.17576
340.87416,0.07185
339.38437,0.07525
337.89458,0.07869
336.40479,0.05356
334.91501,0.08670
333.42522,0.09688
331.93543,0.10709
330.44564,0.06268
328.95585,0.14397
327.46606,0.14509
325.97627,0.14625
324.48649,0.07336
322.99670,0.06586
321.50691,0.10693
320.01712,0.14803
318.52733,0.21828
317.03754,0.09853
315.54776,0.11316
314.05797,0.12783
312.56818,0.14815
311.07839,0.03569
309.58860,0.02645
308.09881,0.01724
306.60902,0.05322
305.11924,0.09331
303.62945,0.06601
302.13966,0.02305
300.64987,0.00770
299.16008,0.00770
