1778.52000,0.02824
1777.03021,0.03579
1775.54042,0.04338
1774.05063,0.04318
1772.56085,0.00000
1771.07106,0.06245
1769.58127,0.05845
1768.09148,0.02189
1766.60169,0.02970
1765.11190,0.03623
1763.62212,0.05584
1762.13233,0.04941
1760.64254,0.03520
1759.15275,0.03015
1757.66296,0.06033
1756.17317,0.00973
1754.68339,0.05432
1753.19360,0.06636
1751.70381,0.01456
1750.21402,0.03841
1748.72423,0.02058
1747.23444,0.05016
1745.74465,0.04198
1744.25487,0.07164
1742.76508,0.03225
1741.27529,0.05286
1739.78550,0.03830
1738.29571,0.04986
1736.80592,0.07188
1735.31614,0.06395
1733.82635,0.04693
1732.33656,0.10426
1730.84677,0.04430
1729.35698,0.08475
1727.86719,0.03920
1726.37740,0.04322
1724.88762,0.05510
1723.39783,0.07223
1721.90804,0.05551
1720.41825,0.04533
1718.92846,0.00000
1717.43867,0.07753
1715.94889,0.06906
1714.45910,0.10365
1712.96931,0.13566
1711.47952,0.08819
1709.98973,0.05380
1708.49994,0.11330
1707.01016,0.11678
1705.52037,0.12029
1704.03058,0.21379
1702.54079,0.17567
1701.05100,0.21319
1699.56121,0.25465
1698.07142,0.32744
1696.58164,0.28425
1695.09185,0.24109
1693.60206,0.29443
1692.11227,0.31783
1690.62248,0.40383
1689.13269,0.34778
1687.64291,0.35695
1686.15312,0.35311
1684.66333,0.40146
1683.17354,0.40291
1681.68375,0.45655
1680.19396,0.41636
1678.70417,0.36968
1677.21439,0.45080
1675.72460,0.48242
1674.23481,0.39805
1672.74502,0.46885
1671.25523,0.46798
1669.76544,0.48671
1668.27566,0.42856
1666.78587,0.41737
1665.29608,0.35669
1663.80629,0.33775
1662.31650,0.44009
1660.82671,0.36387
1659.33693,0.40240
1657.84714,0.35102
1656.35735,0.33358
1654.86756,0.29661
1653.37777,0.29227
1651.88798,0.23191
1650.39819,0.25632
1648.90841,0.17387
1647.41862,0.16055
1645.92883,0.20788
1644.43904,0.25525
1642.94925,0.26159
1641.45946,0.26797
1639.96968,0.26917
1638.47989,0.15439
1636.99010,0.20780
1635.50031,0.18304
1634.01052,0.20785
1632.52073,0.16230
1631.03094,0.18849
1629.54116,0.18864
1628.05137,0.21099
1626.56158,0.20469
1625.07179,0.25840
1623.58200,0.22610
1622.09221,0.28249
1620.60243,0.27634
1619.11264,0.25980
1617.62285,0.25372
1616.13306,0.25811
1614.64327,0.20387
1613.15348,0.21093
1611.66370,0.24541
1610.17391,0.18085
1608.68412,0.14370
1607.19433,0.23435
1605.70454,0.10863
1604.21475,0.14981
1602.72496,0.19102
1601.23518,0.13450
1599.74539,0.17579
1598.25560,0.16366
1596.76581,0.19329
1595.27602,0.10693
1593.78623,0.09752
1592.29645,0.08815
1590.80666,0.13878
1589.31687,0.11253
1587.82708,0.11369
1586.33729,0.13315
1584.84750,0.08354
1583.35771,0.12262
1581.86793,0.14609
1580.37814,0.10833
1578.88835,0.09537
1577.39856,0.05638
1575.90877,0.04219
1574.41898,0.11277
1572.92920,0.06867
1571.43941,0.02591
1569.94962,0.03338
1568.45983,0.04088
1566.97004,0.02039
1565.48025,0.04296
1563.99047,0.08511
1562.50068,0.06082
1561.01089,0.04700
1559.52110,0.11403
1558.03131,0.13547
1556.54152,0.14522
1555.05173,0.18238
1553.56195,0.18308
1552.07216,0.19945
1550.58237,0.12070
1549.09258,0.10325
1547.60279,0.08062
1546.11300,0.08020
1544.62322,0.19192
1543.13343,0.11986
1541.64364,0.06870
1540.15385,0.07624
1538.66406,0.08382
1537.17427,0.06927
1535.68448,0.00000
1534.19470,0.06234
1532.70491,0.05953
1531.21512,0.07762
1529.72533,0.00970
1528.23554,0.06176
1526.74575,0.06431
1525.25597,0.04604
1523.76618,0.02390
1522.27639,0.01222
1520.78660,0.04621
1519.29681,0.04503
1517.80702,0.05692
1516.31724,0.04669
1514.82745,0.00000
1513.33766,0.02109
1511.84787,0.04221
1510.35808,0.03729
1508.86829,0.06761
1507.37850,0.03409
1505.88872,0.03711
1504.39893,0.00627
1502.90914,0.02630
1501.41935,0.00727
1499.92956,0.00000
1498.43977,0.04532
1496.94999,0.10372
1495.46020,0.15172
1493.97041,0.15674
1492.48062,0.18656
1490.99083,0.17079
1489.50104,0.18765
1488.01125,0.24691
1486.52147,0.30621
1485.03168,0.38315
1483.54189,0.42231
1482.05210,0.39764
1480.56231,0.56463
1479.07252,0.57914
1477.58274,0.72274
1476.09295,0.79337
1474.60316,0.83536
1473.11337,0.95300
1471.62358,0.99506
1470.13379,0.98241
1468.64401,1.01803
1467.15422,0.87769
1465.66443,0.91599
1464.17464,0.95432
1462.68485,0.94055
1461.19506,0.94115
1459.70527,0.99002
1458.21549,0.90726
1456.72570,0.86756
1455.23591,0.84484
1453.74612,0.82868
1452.25633,0.82819
1450.76654,0.78342
1449.27676,0.77388
1447.78697,0.79958
1446.29718,0.76404
1444.80739,0.70116
1443.31760,0.63832
1441.82781,0.52728
1440.33802,0.51535
1438.84824,0.47348
1437.35845,0.38210
1435.86866,0.32596
1434.37887,0.33504
1432.88908,0.37934
1431.39929,0.37024
1429.90951,0.33901
1428.41972,0.33128
1426.92993,0.32099
1425.44014,0.36548
1423.95035,0.33765
1422.46056,0.30986
1420.97078,0.35838
1419.48099,0.37694
1417.99120,0.32905
1416.50141,0.33465
1415.01162,0.28032
1413.52183,0.34205
1412.03204,0.33733
1410.54226,0.30787
1409.05247,0.29410
1407.56268,0.33251
1406.07289,0.29925
1404.58310,0.30188
1403.09331,0.30454
1401.60353,0.23620
1400.11374,0.25654
1398.62395,0.30559
1397.13416,0.26864
1395.64437,0.27736
1394.15458,0.20267
1392.66479,0.22971
1391.17501,0.19551
1389.68522,0.20046
1388.19543,0.15330
1386.70564,0.14203
1385.21585,0.13079
1383.72606,0.14631
1382.23628,0.10060
1380.74649,0.08621
1379.25670,0.12270
1377.76691,0.12141
1376.27712,0.10583
1374.78733,0.21152
1373.29755,0.27162
1371.80776,0.31350
1370.31797,0.21985
1368.82818,0.26962
1367.33839,0.31944
1365.84860,0.34322
1364.35881,0.34096
1362.86903,0.41956
1361.37924,0.37696
1359.88945,0.27704
1358.39966,0.41572
1356.90987,0.45927
1355.42008,0.49243
1353.93030,0.57777
1352.44051,0.55624
1350.95072,0.53476
1349.46093,0.60456
1347.97114,0.64963
1346.48135,0.59697
1344.99156,0.51045
1343.50178,0.47871
1342.01199,0.50177
1340.52220,0.42448
1339.03241,0.43196
1337.54262,0.52552
1336.05283,0.50244
1334.56305,0.47940
1333.07326,0.47920
1331.58347,0.47383
1330.09368,0.39289
1328.60389,0.37977
1327.11410,0.40579
1325.62432,0.39665
1324.13453,0.38234
1322.64474,0.44106
1321.15495,0.40987
1319.66516,0.41783
1318.17537,0.42582
1316.68558,0.38170
1315.19580,0.40932
1313.70601,0.33529
1312.21622,0.39948
1310.72643,0.30206
1309.23664,0.37023
1307.74685,0.37717
1306.25707,0.30072
1304.76728,0.30056
1303.27749,0.30044
1301.78770,0.28276
1300.29791,0.24817
1298.80812,0.16407
1297.31834,0.25339
1295.82855,0.28930
1294.33876,0.36436
1292.84897,0.34689
1291.35918,0.34772
1289.86939,0.32837
1288.37960,0.30905
1286.88982,0.24741
1285.40003,0.40872
1283.91024,0.37062
1282.42045,0.38339
1280.93066,0.44834
1279.44087,0.48204
1277.95109,0.43496
1276.46130,0.40355
1274.97151,0.44323
1273.48172,0.48294
1271.99193,0.50379
1270.50214,0.57030
1269.01235,0.60555
1267.52257,0.59392
1266.03278,0.61622
1264.54299,0.61639
1263.05320,0.63875
1261.56341,0.61749
1260.07362,0.59626
1258.58384,0.59005
1257.09405,0.59562
1255.60426,0.72246
1254.11447,0.63945
1252.62468,0.66468
1251.13489,0.59999
1249.64511,0.63963
1248.15532,0.61804
1246.66553,0.58019
1245.17574,0.54237
1243.68595,0.56261
1242.19616,0.53855
1240.70637,0.57450
1239.21659,0.45926
1237.72680,0.44444
1236.23701,0.41923
1234.74722,0.33930
1233.25743,0.32328
1231.76764,0.30730
1230.27786,0.33438
1228.78807,0.25720
1227.29828,0.39255
1225.80849,0.24766
1224.31870,0.16407
1222.82891,0.23565
1221.33912,0.25773
1219.84934,0.25899
1218.35955,0.26028
1216.86976,0.30202
1215.37997,0.34119
1213.89018,0.31522
1212.40039,0.20976
1210.91061,0.25817
1209.42082,0.21144
1207.93103,0.23255
1206.44124,0.25368
1204.95145,0.30093
1203.46166,0.14745
1201.97188,0.23127
1200.48209,0.24734
1198.99230,0.23998
1197.50251,0.10621
1196.01272,0.00897
1194.52293,0.03757
1193.03314,0.06620
1191.54336,0.05902
1190.05357,0.08707
1188.56378,0.04347
1187.07399,0.03118
1185.58420,0.01633
1184.09441,0.03540
1182.60463,0.06950
1181.11484,0.10364
1179.62505,0.12021
1178.13526,0.14465
1176.64547,0.17824
1175.15568,0.22230
1173.66589,0.18167
1172.17611,0.12933
1170.68632,0.06465
1169.19653,0.00000
1167.70674,0.07213
1166.21695,0.13778
1164.72716,0.15263
1163.23738,0.06061
1161.74759,0.05337
1160.25780,0.09700
1158.76801,0.08788
1157.27822,0.07878
1155.78843,0.10167
1154.29865,0.09721
1152.80886,0.10974
1151.31907,0.03105
1149.82928,0.14664
1148.33949,0.22185
1146.84970,0.17716
1145.35991,0.13251
1143.87013,0.04358
1142.38034,0.07461
1140.89055,0.15000
1139.40076,0.20457
1137.91097,0.27352
1136.42118,0.24734
1134.93140,0.28507
1133.44161,0.32283
1131.95182,0.25114
1130.46203,0.33460
1128.97224,0.30990
1127.48245,0.38302
1125.99266,0.33101
1124.50288,0.32468
1123.01309,0.33793
1121.52330,0.35122
1120.03351,0.38801
1118.54372,0.32055
1117.05393,0.41738
1115.56415,0.35781
1114.07436,0.39605
1112.58457,0.39065
1111.09478,0.38529
1109.60499,0.43146
1108.11520,0.55067
1106.62542,0.47698
1105.13563,0.51283
1103.64584,0.50439
1102.15605,0.68762
1100.66626,0.66687
1099.17647,0.64616
1097.68668,0.66785
1096.19690,0.57746
1094.70711,0.68266
1093.21732,0.74748
1091.72753,0.84101
1090.23774,0.84724
1088.74795,0.85350
1087.25817,0.91064
1085.76838,1.03040
1084.27859,0.97029
1082.78880,0.98973
1081.29901,1.04441
1079.80922,0.84231
1078.31943,0.85209
1076.82965,0.86190
1075.33986,0.93889
1073.85007,1.04329
1072.36028,0.97565
1070.87049,1.02276
1069.38070,0.97474
1067.89092,1.07407
1066.40113,1.17343
1064.91134,1.06165
1063.42155,0.97206
1061.93176,1.04025
1060.44197,0.99115
1058.95219,0.93687
1057.46240,0.88784
1055.97261,0.83884
1054.48282,0.83421
1052.99303,0.79963
1051.50324,0.63081
1050.01345,0.57153
1048.52367,0.71435
1047.03388,0.72489
1045.54409,0.73546
1044.05430,0.69719
1042.56451,0.68372
1041.07472,0.55687
1039.58494,0.54478
1038.09515,0.50665
1036.60536,0.49528
1035.11557,0.48394
1033.62578,0.53196
1032.13599,0.52396
1030.64620,0.45864
1029.15642,0.54457
1027.66663,0.48844
1026.17684,0.43235
1024.68705,0.43757
1023.19726,0.57318
1021.70747,0.77010
1020.21769,0.92143
1018.72790,1.15623
1017.23811,1.24179
1015.74832,1.32740
1014.25853,1.45671
1012.76874,1.70991
1011.27896,1.78063
1009.78917,2.00000
1008.29938,1.98997
1006.80959,1.93761
1005.31980,1.88529
1003.83001,1.61986
1002.34022,1.45093
1000.85044,1.44108
999.36065,1.22921
997.87086,1.20379
996.38107,1.17841
994.89128,1.23128
993.40149,1.29462
991.91171,1.18982
990.42192,1.22976
988.93213,1.16415
987.44234,1.22568
985.95255,1.28724
984.46276,1.23347
982.97297,1.13280
981.48319,1.12864
979.99340,1.08149
978.50361,1.06632
977.01382,1.05119
975.52403,1.16319
974.03424,1.02624
972.54446,0.81502
971.05467,0.83979
969.56488,0.88546
968.07509,0.90248
966.58530,0.91954
965.09551,0.84277
963.60573,0.87554
962.11594,0.78712
960.62615,0.75348
959.13636,0.69576
957.64657,0.63808
956.15678,0.64626
954.66699,0.73792
953.17721,0.73314
951.68742,0.79097
950.19763,0.79930
948.70784,0.80767
947.21805,0.73916
945.72826,0.71892
944.23848,0.84342
942.74869,0.74764
941.25890,0.75619
939.76911,0.73610
938.27932,0.71604
936.78953,0.79248
935.29974,0.77250
933.80996,0.85553
932.32017,0.93470
930.83038,0.93568
929.34059,0.93669
927.85080,1.02639
926.36101,0.82803
924.87123,0.77310
923.38144,0.79251
921.89165,0.76438
920.40186,0.73628
918.91207,0.70105
917.42228,0.83141
915.93250,0.82363
914.44271,0.80415
912.95292,0.85185
911.46313,0.89958
909.97334,0.91671
908.48355,1.04599
906.99376,0.96542
905.50398,0.92009
904.01419,0.93410
902.52440,0.94816
901.03461,0.94986
899.54482,1.06893
898.05503,1.00683
896.56525,1.02950
895.07546,1.03722
893.58567,1.04497
892.09588,1.01561
890.60609,1.13359
889.11630,1.07953
887.62651,0.99422
886.13673,1.05821
884.64694,1.12223
883.15715,1.03703
881.66736,0.91667
880.17757,0.96711
878.68778,0.97653
877.19800,0.98599
875.70821,0.83057
874.21842,0.83554
872.72863,0.88616
871.23884,0.88599
869.74905,0.90801
868.25927,0.93007
866.76948,0.85699
865.27969,0.90650
863.78990,0.99124
862.30011,0.95999
860.81032,0.90597
859.32053,0.85198
857.83075,0.90036
856.34096,0.81581
854.85117,0.84993
853.36138,0.71852
851.87159,0.69666
850.38180,0.67482
848.89202,0.54092
847.40223,0.40705
845.91244,0.49353
844.42265,0.44446
842.93286,0.39544
841.44307,0.35688
839.95329,0.47348
838.46350,0.44933
836.97371,0.37308
835.48392,0.38550
833.99413,0.39796
832.50434,0.48477
831.01455,0.50643
829.52477,0.48901
828.03498,0.44426
826.54519,0.34088
825.05540,0.23754
823.56561,0.24243
822.07582,0.25388
820.58604,0.28362
819.09625,0.22018
817.60646,0.15678
816.11667,0.14360
814.62688,0.10700
813.13709,0.12257
811.64730,0.00000
810.15752,0.00514
808.66773,0.01031
807.17794,0.09961
805.68815,0.08465
804.19836,0.15707
802.70857,0.17087
801.21879,0.18470
799.72900,0.16076
798.23921,0.22550
796.74942,0.35807
795.25963,0.34728
793.76984,0.33652
792.28006,0.32580
790.79027,0.30990
789.30048,0.44004
787.81069,0.50113
786.32090,0.48403
784.83111,0.46697
783.34132,0.57640
781.85154,0.64676
780.36175,0.53204
778.87196,0.53338
777.38217,0.53475
775.89238,0.72649
774.40259,0.67318
772.91281,0.68640
771.42302,0.68596
769.93323,0.68556
768.44344,0.79926
766.95365,0.77221
765.46386,1.08023
763.97407,1.01805
762.48429,0.94743
760.99450,0.87686
759.50471,0.76655
758.01492,0.61718
756.52513,0.55518
755.03534,0.51930
753.54556,0.48344
752.05577,0.31466
750.56598,0.31799
749.07619,0.19099
747.58640,0.19700
746.09661,0.20305
744.60683,0.19610
743.11704,0.13573
741.62725,0.16535
740.13746,0.14742
738.64767,0.12953
737.15788,0.05888
735.66809,0.00000
734.17831,0.05521
732.68852,0.05962
731.19873,0.06407
729.70894,0.10375
728.21915,0.15650
726.72936,0.07762
725.23958,0.13044
723.74979,0.12334
722.26000,0.11627
720.77021,0.07273
719.28042,0.14265
717.79063,0.08615
716.30084,0.07466
714.81106,0.06321
713.32127,0.04071
711.83148,0.00000
710.34169,0.08023
708.85190,0.04904
707.36211,0.01788
705.87233,0.01218
704.38254,0.00000
702.89275,0.04179
701.40296,0.07188
699.91317,0.10201
698.42338,0.19865
696.93360,0.20148
695.44381,0.18348
693.95402,0.16291
692.46423,0.14238
690.97444,0.06713
689.48465,0.10925
687.99486,0.11620
686.50508,0.15643
685.01529,0.19670
683.52550,0.19985
682.03571,0.17305
680.54592,0.16584
679.05613,0.14824
677.56635,0.13068
676.07656,0.14705
674.58677,0.04091
673.09698,0.22813
671.60719,0.23222
670.11740,0.23635
668.62761,0.17989
667.13783,0.05699
665.64804,0.08078
664.15825,0.10461
662.66846,0.11609
661.17867,0.04026
659.68888,0.06876
658.19910,0.08491
656.70931,0.10110
655.21952,0.18185
653.72973,0.21571
652.23994,0.25221
650.75015,0.34154
649.26037,0.43091
647.77058,0.28893
646.28079,0.20825
644.79100,0.16150
643.30121,0.13434
641.81142,0.10722
640.32163,0.08796
638.83185,0.09741
637.34206,0.00000
635.85227,0.02376
634.36248,0.04755
632.87269,0.02445
631.38290,0.03658
629.89312,0.06309
628.40333,0.06030
626.91354,0.05755
625.42375,0.11415
623.93396,0.18904
622.44417,0.17988
620.95438,0.17076
619.46460,0.10366
617.97481,0.16696
616.48502,0.08168
614.99523,0.09356
613.50544,0.10548
612.01565,0.05681
610.52587,0.11769
609.03608,0.00000
607.54629,0.04647
606.05650,0.09298
604.56671,0.17929
603.07692,0.17047
601.58714,0.11801
600.09735,0.06560
598.60756,0.11424
597.11777,0.04821
595.62798,0.07216
594.13819,0.06421
592.64840,0.05629
591.15862,0.00996
589.66883,0.07055
588.17904,0.11554
586.68925,0.15992
585.19946,0.20433
583.70967,0.12037
582.21989,0.11205
580.73010,0.14093
579.24031,0.16984
577.75052,0.23594
576.26073,0.24211
574.77094,0.12318
573.28115,0.15028
571.79137,0.17741
570.30158,0.17591
568.81179,0.26700
567.32200,0.26556
565.83221,0.26417
564.34242,0.17546
562.85264,0.31493
561.36285,0.29148
559.87306,0.30978
558.38327,0.32812
556.89348,0.39864
555.40369,0.38837
553.91391,0.40943
552.42412,0.43052
550.93433,0.43731
549.44454,0.52235
547.95475,0.62437
546.46496,0.59411
544.97517,0.56389
543.48539,0.65560
541.99560,0.61176
540.50581,0.63119
539.01602,0.65065
537.52623,0.58346
536.03644,0.39376
534.54666,0.43223
533.05687,0.50659
531.56708,0.58098
530.07729,0.44618
528.58750,0.42875
527.09771,0.44785
525.60792,0.46698
524.11814,0.48355
522.62835,0.44149
521.13856,0.45421
519.64877,0.44416
518.15898,0.43415
516.66919,0.39484
515.17941,0.37251
513.68962,0.35544
512.19983,0.33840
510.71004,0.39440
509.22025,0.23012
507.73046,0.27185
506.24068,0.31036
504.75089,0.34891
503.26110,0.35686
501.77131,0.33616
500.28152,0.26401
498.79173,0.19189
497.30194,0.16739
495.81216,0.13250
494.32237,0.21171
492.83258,0.29096
491.34279,0.37090
489.85300,0.32442
488.36321,0.16065
486.87343,0.14097
485.38364,0.12132
483.89385,0.12322
482.40406,0.07692
480.91427,0.07107
479.42448,0.06526
477.93469,0.05427
476.44491,0.13196
474.95512,0.11778
473.46533,0.10364
471.97554,0.06542
470.48575,0.09893
468.99596,0.09989
467.50618,0.05526
466.01639,0.01067
464.52660,0.00000
463.03681,0.15280
461.54702,0.15310
460.05723,0.15345
458.56745,0.00000
457.07766,0.10725
455.58787,0.14415
454.09808,0.18108
452.60829,0.06031
451.11850,0.11687
449.62871,0.12653
448.13893,0.13623
446.64914,0.21766
445.15935,0.42037
443.66956,0.47841
442.17977,0.41852
440.68998,0.35865
439.20020,0.40638
437.71041,0.54408
436.22062,0.58797
434.73083,0.63189
433.24104,0.74494
431.75125,0.76807
430.26146,0.80819
428.77168,0.84834
427.28189,0.90939
425.79210,0.94701
424.30231,0.95012
422.81252,0.95327
421.32273,0.96883
419.83295,1.02354
418.34316,0.96422
416.85337,0.90494
415.36358,0.67818
413.87379,0.67828
412.38400,0.59369
410.89422,0.50913
409.40443,0.45329
407.91464,0.50829
406.42485,0.44861
404.93506,0.37071
403.44527,0.29286
401.95548,0.36104
400.46570,0.36147
398.97591,0.36259
397.48612,0.36374
395.99633,0.43077
394.50654,0.41961
393.01675,0.48214
391.52697,0.54471
390.03718,0.22731
388.54739,0.24889
387.05760,0.28224
385.56781,0.31562
384.07802,0.52503
382.58824,0.47766
381.09845,0.41078
379.60866,0.34393
378.11887,0.28493
376.62908,0.26248
375.13929,0.25114
373.64950,0.23984
372.15972,0.30223
370.66993,0.31381
369.18014,0.24135
367.69035,0.16892
366.20056,0.24449
364.71077,0.22754
363.22099,0.25951
361.73120,0.29152
360.24141,0.27859
358.75162,0.24875
357.26183,0.26653
355.77204,0.28434
354.28225,0.22853
352.79247,0.20536
351.30268,0.23762
349.81289,0.26992
348.32310,0.24163
346.83331,0.20426
345.34352,0.12455
343.85374,0.04488
342.36395,0.30304
340.87416,0.30312
339.38437,0.26217
337.89458,0.22125
336.40479,0.26315
334.91501,0.19168
333.42522,0.18607
331.93543,0.18050
330.44564,0.32423
328.95585,0.24768
327.46606,0.21745
325.97627,0.18725
324.48649,0.07040
322.99670,0.10068
321.50691,0.13164
320.01712,0.16264
318.52733,0.22822
317.03754,0.36815
315.54776,0.30670
314.05797,0.24529
312.56818,0.09852
311.07839,0.17732
309.58860,0.08864
308.09881,0.00000
306.60902,0.00425
305.11924,0.08937
303.62945,0.05003
302.13966,0.01072
300.64987,0.10898
299.16008,0.00000
