1778.52000,0.02885
1777.03021,0.04035
1775.54042,0.04527
1774.05063,0.02713
1772.56085,0.02634
1771.07106,0.00661
1769.58127,0.05950
1768.09148,0.02993
1766.60169,0.02843
1765.11190,0.04182
1763.62212,0.03626
1762.13233,0.05878
1760.64254,0.02771
1759.15275,0.04369
1757.66296,0.07868
1756.17317,0.03450
1754.68339,0.08357
1753.19360,0.07492
1751.70381,0.02588
1750.21402,0.01895
1748.72423,0.06484
1747.23444,0.05301
1745.74465,0.05276
1744.25487,0.04512
1742.76508,0.06391
1741.27529,0.04560
1739.78550,0.05290
1738.29571,0.05033
1736.80592,0.03294
1735.31614,0.04363
1733.82635,0.04115
1732.33656,0.03787
1730.84677,0.03380
1729.35698,0.05369
1727.86719,0.04720
1726.37740,0.00363
1724.88762,0.05134
1723.39783,0.03226
1721.90804,0.00661
1720.41825,0.03727
1718.92846,0.01435
1717.43867,0.04343
1715.94889,0.06017
1714.45910,0.03733
1712.96931,0.07475
1711.47952,0.06683
1709.98973,0.02099
1708.49994,0.05685
1707.01016,0.05108
1705.52037,0.04534
1704.03058,0.07634
1702.54079,0.09005
1701.05100,0.11946
1699.56121,0.07631
1698.07142,0.09341
1696.58164,0.08744
1695.09185,0.15079
1693.60206,0.12261
1692.11227,0.14890
1690.62248,0.15460
1689.13269,0.17106
1687.64291,0.15537
1686.15312,0.21561
1684.66333,0.16038
1683.17354,0.19098
1681.68375,0.18944
1680.19396,0.18463
1678.70417,0.15427
1677.21439,0.11487
1675.72460,0.12995
1674.23481,0.16568
1672.74502,0.15772
1671.25523,0.14979
1669.76544,0.17571
1668.27566,0.18847
1666.78587,0.15423
1665.29608,0.11919
1663.80629,0.12626
1662.31650,0.11521
1660.82671,0.12152
1659.33693,0.13363
1657.84714,0.14247
1656.35735,0.14144
1654.86756,0.15364
1653.37777,0.14277
1651.88798,0.12121
1650.39819,0.12031
1648.90841,0.15243
1647.41862,0.13755
1645.92883,0.12684
1644.43904,0.11615
1642.94925,0.11540
1641.45946,0.17159
1639.96968,0.13707
1638.47989,0.12486
1636.99010,0.13082
1635.50031,0.10877
1634.01052,0.12799
1632.52073,0.13405
1631.03094,0.10796
1629.54116,0.11408
1628.05137,0.08475
1626.56158,0.12722
1625.07179,0.12105
1623.58200,0.16441
1622.09221,0.17068
1620.60243,0.15883
1619.11264,0.15938
1617.62285,0.13934
1616.13306,0.15810
1614.64327,0.12327
1613.15348,0.13137
1611.66370,0.15105
1610.17391,0.13446
1608.68412,0.15090
1607.19433,0.12364
1605.70454,0.12199
1604.21475,0.12574
1602.72496,0.12951
1601.23518,0.12630
1599.74539,0.13467
1598.25560,0.12740
1596.76581,0.09706
1595.27602,0.08654
1593.78623,0.10658
1592.29645,0.10851
1590.80666,0.08489
1589.31687,0.07614
1587.82708,0.07156
1586.33729,0.07360
1584.84750,0.08062
1583.35771,0.07200
1581.86793,0.03289
1580.37814,0.09198
1578.88835,0.09005
1577.39856,0.09144
1575.90877,0.04090
1574.41898,0.05474
1572.92920,0.06778
1571.43941,0.05775
1569.94962,0.03538
1568.45983,0.01303
1566.97004,0.04599
1565.48025,0.05753
1563.99047,0.03198
1562.50068,0.03533
1561.01089,0.01314
1559.52110,0.00913
1558.03131,0.03237
1556.54152,0.01770
1555.05173,0.04513
1553.56195,0.03051
1552.07216,0.04480
1550.58237,0.04097
1549.09258,0.05532
1547.60279,0.04412
1546.11300,0.07586
1544.62322,0.05647
1543.13343,0.07424
1541.64364,0.05244
1540.15385,0.04800
1538.66406,0.04359
1537.17427,0.05323
1535.68448,0.01753
1534.19470,0.00661
1532.70491,0.01811
1531.21512,0.03377
1529.72533,0.02223
1528.23554,0.00000
1526.74575,0.02895
1525.25597,0.02163
1523.76618,0.07951
1522.27639,0.02440
1520.78660,0.01140
1519.29681,0.01657
1517.80702,0.03910
1516.31724,0.02454
1514.82745,0.04713
1513.33766,0.02685
1511.84787,0.00661
1510.35808,0.05291
1508.86829,0.07202
1507.37850,0.02434
1505.88872,0.03609
1504.39893,0.06437
1502.90914,0.03988
1501.41935,0.00800
1499.92956,0.07679
1498.43977,0.05569
1496.94999,0.12207
1495.46020,0.13815
1493.97041,0.17407
1492.48062,0.17371
1490.99083,0.30951
1489.50104,0.32984
1488.01125,0.36299
1486.52147,0.39616
1485.03168,0.44216
1483.54189,0.55336
1482.05210,0.58539
1480.56231,0.67107
1479.07252,0.77164
1477.58274,0.84913
1476.09295,0.90686
1474.60316,0.93904
1473.11337,0.99435
1471.62358,1.00350
1470.13379,0.99287
1468.64401,0.95588
1467.15422,0.89582
1465.66443,0.85105
1464.17464,0.80631
1462.68485,0.83708
1461.19506,0.74579
1459.70527,0.70238
1458.21549,0.60785
1456.72570,0.60823
1455.23591,0.57893
1453.74612,0.51337
1452.25633,0.48331
1450.76654,0.41120
1449.27676,0.37543
1447.78697,0.36608
1446.29718,0.30810
1444.80739,0.29922
1443.31760,0.29038
1441.82781,0.28528
1440.33802,0.22659
1438.84824,0.15638
1437.35845,0.13570
1435.86866,0.14227
1434.37887,0.15712
1432.88908,0.14230
1431.39929,0.16051
1429.90951,0.15318
1428.41972,0.13845
1426.92993,0.14850
1425.44014,0.15446
1423.95035,0.15880
1422.46056,0.16316
1420.97078,0.14941
1419.48099,0.17612
1417.99120,0.22100
1416.50141,0.18094
1415.01162,0.18793
1413.52183,0.23951
1412.03204,0.22594
1410.54226,0.22147
1409.05247,0.20466
1407.56268,0.21923
1406.07289,0.18764
1404.58310,0.21794
1403.09331,0.24828
1401.60353,0.21759
1400.11374,0.32471
1398.62395,0.35596
1397.13416,0.33609
1395.64437,0.36163
1394.15458,0.42515
1392.66479,0.42682
1391.17501,0.41285
1389.68522,0.42531
1388.19543,0.46997
1386.70564,0.47671
1385.21585,0.48349
1383.72606,0.48617
1382.23628,0.44928
1380.74649,0.43634
1379.25670,0.50099
1377.76691,0.45346
1376.27712,0.45547
1374.78733,0.53175
1373.29755,0.56269
1371.80776,0.62996
1370.31797,0.80780
1368.82818,0.91102
1367.33839,1.01426
1365.84860,1.17982
1364.35881,1.37841
1362.86903,1.50938
1361.37924,1.60161
1359.88945,1.55858
1358.39966,1.66737
1356.90987,1.73494
1355.42008,1.65817
1353.93030,1.51214
1352.44051,1.46472
1350.95072,1.41733
1349.46093,1.33821
1347.97114,1.10073
1346.48135,0.97300
1344.99156,0.90552
1343.50178,0.75722
1342.01199,0.69062
1340.52220,0.56301
1339.03241,0.54680
1337.54262,0.50422
1336.05283,0.50581
1334.56305,0.50742
1333.07326,0.44761
1331.58347,0.42825
1330.09368,0.41717
1328.60389,0.32032
1327.11410,0.27795
1325.62432,0.27191
1324.13453,0.26838
1322.64474,0.29375
1321.15495,0.29357
1319.66516,0.25919
1318.17537,0.22484
1316.68558,0.22476
1315.19580,0.23296
1313.70601,0.21643
1312.21622,0.17519
1310.72643,0.19091
1309.23664,0.18437
1307.74685,0.18942
1306.25707,0.16810
1304.76728,0.18187
1303.27749,0.19567
1301.78770,0.20991
1300.29791,0.18624
1298.80812,0.19477
1297.31834,0.20168
1295.82855,0.21852
1294.33876,0.18011
1292.84897,0.18711
1291.35918,0.18094
1289.86939,0.18636
1288.37960,0.19180
1286.88982,0.22284
1285.40003,0.28856
1283.91024,0.26110
1282.42045,0.25181
1280.93066,0.27638
1279.44087,0.27457
1277.95109,0.27610
1276.46130,0.20671
1274.97151,0.21820
1273.48172,0.22972
1271.99193,0.27674
1270.50214,0.38566
1269.01235,0.33953
1267.52257,0.39901
1266.03278,0.37026
1264.54299,0.39433
1263.05320,0.41761
1261.56341,0.42195
1260.07362,0.42631
1258.58384,0.41999
1257.09405,0.42771
1255.60426,0.44949
1254.11447,0.40448
1252.62468,0.43210
1251.13489,0.41685
1249.64511,0.37110
1248.15532,0.28579
1246.66553,0.29290
1245.17574,0.30004
1243.68595,0.22802
1242.19616,0.24595
1240.70637,0.26886
1239.21659,0.21508
1237.72680,0.22154
1236.23701,0.17525
1234.74722,0.14548
1233.25743,0.14420
1231.76764,0.14296
1230.27786,0.16525
1228.78807,0.16118
1227.29828,0.14146
1225.80849,0.13910
1224.31870,0.10459
1222.82891,0.11961
1221.33912,0.05712
1219.84934,0.07055
1218.35955,0.08401
1216.86976,0.10905
1215.37997,0.15228
1213.89018,0.14273
1212.40039,0.09527
1210.91061,0.06351
1209.42082,0.04333
1207.93103,0.03555
1206.44124,0.02781
1204.95145,0.09022
1203.46166,0.05118
1201.97188,0.06333
1200.48209,0.06478
1198.99230,0.09843
1197.50251,0.09582
1196.01272,0.05529
1194.52293,0.06058
1193.03314,0.06589
1191.54336,0.04937
1190.05357,0.05516
1188.56378,0.06840
1187.07399,0.00661
1185.58420,0.01209
1184.09441,0.05886
1182.60463,0.05079
1181.11484,0.04276
1179.62505,0.06817
1178.13526,0.08288
1176.64547,0.08195
1175.15568,0.07280
1173.66589,0.08595
1172.17611,0.05789
1170.68632,0.04842
1169.19653,0.03898
1167.70674,0.03658
1166.21695,0.06803
1164.72716,0.04919
1163.23738,0.00894
1161.74759,0.02728
1160.25780,0.04318
1158.76801,0.02488
1157.27822,0.00661
1155.78843,0.06102
1154.29865,0.04451
1152.80886,0.02062
1151.31907,0.04295
1149.82928,0.05623
1148.33949,0.15205
1146.84970,0.11177
1145.35991,0.07152
1143.87013,0.07008
1142.38034,0.09177
1140.89055,0.11266
1139.40076,0.12781
1137.91097,0.13309
1136.42118,0.16232
1134.93140,0.16560
1133.44161,0.16890
1131.95182,0.24195
1130.46203,0.27708
1128.97224,0.28666
1127.48245,0.27813
1125.99266,0.28612
1124.50288,0.29497
1123.01309,0.30880
1121.52330,0.32266
1120.03351,0.38440
1118.54372,0.39997
1117.05393,0.43785
1115.56415,0.34294
1114.07436,0.37510
1112.58457,0.37594
1111.09478,0.37681
1109.60499,0.46021
1108.11520,0.45950
1106.62542,0.48356
1105.13563,0.53323
1103.64584,0.57797
1102.15605,0.64007
1100.66626,0.66962
1099.17647,0.69920
1097.68668,0.64507
1096.19690,0.68419
1094.70711,0.75140
1093.21732,0.75841
1091.72753,0.81412
1090.23774,0.82408
1088.74795,0.83407
1087.25817,0.82470
1085.76838,0.86899
1084.27859,0.92320
1082.78880,1.02695
1081.29901,1.05812
1079.80922,0.99611
1078.31943,1.00219
1076.82965,1.00829
1075.33986,1.14106
1073.85007,1.17569
1072.36028,1.16415
1070.87049,1.16254
1069.38070,1.20056
1067.89092,1.26377
1066.40113,1.32701
1064.91134,1.15310
1063.42155,1.08482
1061.93176,0.97285
1060.44197,0.93350
1058.95219,0.90986
1057.46240,0.86727
1055.97261,0.82472
1054.48282,0.67495
1052.99303,0.66875
1051.50324,0.60649
1050.01345,0.55828
1048.52367,0.51423
1047.03388,0.50362
1045.54409,0.49303
1044.05430,0.46474
1042.56451,0.38699
1041.07472,0.39341
1039.58494,0.32561
1038.09515,0.29414
1036.60536,0.26559
1035.11557,0.23707
1033.62578,0.25272
1032.13599,0.22880
1030.64620,0.25358
1029.15642,0.29901
1027.66663,0.29622
1026.17684,0.29345
1024.68705,0.37528
1023.19726,0.48518
1021.70747,0.64049
1020.21769,0.82470
1018.72790,1.05183
1017.23811,1.22208
1015.74832,1.39235
1014.25853,1.56679
1012.76874,1.74867
1011.27896,1.74580
1009.78917,1.86010
1008.29938,2.00000
1006.80959,1.98732
1005.31980,1.97466
1003.83001,1.89769
1002.34022,1.78446
1000.85044,1.68115
999.36065,1.53415
997.87086,1.47710
996.38107,1.42008
994.89128,1.44971
993.40149,1.42163
991.91171,1.35480
990.42192,1.28305
988.93213,1.26248
987.44234,1.26257
985.95255,1.26268
984.46276,1.29087
982.97297,1.15906
981.48319,1.13946
979.99340,1.02585
978.50361,1.01622
977.01382,1.00662
975.52403,1.03087
974.03424,0.99410
972.54446,0.83527
971.05467,0.82744
969.56488,0.74209
968.07509,0.72029
966.58530,0.69853
965.09551,0.62647
963.60573,0.60311
962.11594,0.59381
960.62615,0.57134
959.13636,0.53983
957.64657,0.50835
956.15678,0.48184
954.66699,0.46444
953.17721,0.47100
951.68742,0.43468
950.19763,0.43181
948.70784,0.42897
947.21805,0.46205
945.72826,0.45555
944.23848,0.40784
942.74869,0.46658
941.25890,0.50060
939.76911,0.53094
938.27932,0.56131
936.78953,0.55335
935.29974,0.58006
933.80996,0.53999
932.32017,0.54697
930.83038,0.53872
929.34059,0.53049
927.85080,0.67698
926.36101,0.59168
924.87123,0.55509
923.38144,0.51110
921.89165,0.52159
920.40186,0.53211
918.91207,0.46099
917.42228,0.42620
915.93250,0.46816
914.44271,0.55800
912.95292,0.52907
911.46313,0.50018
909.97334,0.53153
908.48355,0.52579
906.99376,0.54071
905.50398,0.52019
904.01419,0.50217
902.52440,0.48418
901.03461,0.54046
899.54482,0.57863
898.05503,0.51536
896.56525,0.52141
895.07546,0.54317
893.58567,0.56496
892.09588,0.54388
890.60609,0.59708
889.11630,0.55791
887.62651,0.57075
886.13673,0.57454
884.64694,0.57836
883.15715,0.58964
881.66736,0.57702
880.17757,0.56774
878.68778,0.60591
877.19800,0.64412
875.70821,0.67535
874.21842,0.73961
872.72863,0.76759
871.23884,0.85171
869.74905,0.82283
868.25927,0.79399
866.76948,0.83035
865.27969,0.86674
863.78990,0.87676
862.30011,0.83813
860.81032,0.82223
859.32053,0.80635
857.83075,0.81567
856.34096,0.89019
854.85117,0.73457
853.36138,0.62354
851.87159,0.60245
850.38180,0.58139
848.89202,0.49850
847.40223,0.41398
845.91244,0.30557
844.42265,0.32794
842.93286,0.35035
841.44307,0.24203
839.95329,0.20303
838.46350,0.23832
836.97371,0.19526
835.48392,0.20091
833.99413,0.20658
832.50434,0.24033
831.01455,0.22957
829.52477,0.27658
828.03498,0.25103
826.54519,0.22964
825.05540,0.20827
823.56561,0.14486
822.07582,0.19203
820.58604,0.12290
819.09625,0.12063
817.60646,0.11839
816.11667,0.06833
814.62688,0.07770
813.13709,0.04255
811.64730,0.00661
810.15752,0.01608
808.66773,0.02559
807.17794,0.00666
805.68815,0.03397
804.19836,0.10585
802.70857,0.12414
801.21879,0.14245
799.72900,0.08986
798.23921,0.16516
796.74942,0.31226
795.25963,0.33854
793.76984,0.36485
792.28006,0.41717
790.79027,0.47035
789.30048,0.50871
787.81069,0.50668
786.32090,0.53438
784.83111,0.56210
783.34132,0.59646
781.85154,0.63085
780.36175,0.63804
778.87196,0.65104
777.38217,0.66407
775.89238,0.67465
774.40259,0.73311
772.91281,0.78336
771.42302,0.76969
769.93323,0.75606
768.44344,0.74370
766.95365,0.73797
765.46386,0.73391
763.97407,0.67792
762.48429,0.66526
760.99450,0.65264
759.50471,0.51919
758.01492,0.41546
756.52513,0.37859
755.03534,0.33763
753.54556,0.29669
752.05577,0.17164
750.56598,0.18852
749.07619,0.12870
747.58640,0.10521
746.09661,0.08175
744.60683,0.05502
743.11704,0.05720
741.62725,0.00661
740.13746,0.03479
738.64767,0.06301
737.15788,0.06320
735.66809,0.01063
734.17831,0.02079
732.68852,0.03263
731.19873,0.04449
729.70894,0.04072
728.21915,0.00727
726.72936,0.03554
725.23958,0.03084
723.74979,0.06081
722.26000,0.09082
720.77021,0.05321
719.28042,0.08245
717.79063,0.07048
716.30084,0.06596
714.81106,0.06147
713.32127,0.00339
711.83148,0.04361
710.34169,0.02282
708.85190,0.02516
707.36211,0.02754
705.87233,0.06623
704.38254,0.03897
702.89275,0.06700
701.40296,0.08517
699.91317,0.10336
698.42338,0.05477
696.93360,0.13325
695.44381,0.12348
693.95402,0.14923
692.46423,0.17500
690.97444,0.15543
689.48465,0.21013
687.99486,0.20135
686.50508,0.20002
685.01529,0.19872
683.52550,0.25767
682.03571,0.28365
680.54592,0.19087
679.05613,0.19176
677.56635,0.19267
676.07656,0.19072
674.58677,0.14921
673.09698,0.11103
671.60719,0.11660
670.11740,0.12221
668.62761,0.11546
667.13783,0.10380
665.64804,0.08433
664.15825,0.06489
662.66846,0.05085
661.17867,0.04756
659.68888,0.04512
658.19910,0.07200
656.70931,0.09891
655.21952,0.09739
653.72973,0.10827
652.23994,0.10846
650.75015,0.12436
649.26037,0.14028
647.77058,0.11004
646.28079,0.08725
644.79100,0.01995
643.30121,0.02733
641.81142,0.03475
640.32163,0.06818
638.83185,0.06121
637.34206,0.05428
635.85227,0.04903
634.36248,0.04381
632.87269,0.02872
631.38290,0.05161
629.89312,0.08607
628.40333,0.04632
626.91354,0.00661
625.42375,0.08078
623.93396,0.09147
622.44417,0.09394
620.95438,0.09644
619.46460,0.07834
617.97481,0.06935
616.48502,0.10742
614.99523,0.11664
613.50544,0.12589
612.01565,0.16074
610.52587,0.12303
609.03608,0.16866
607.54629,0.14215
606.05650,0.11566
604.56671,0.18037
603.07692,0.21623
601.58714,0.18076
600.09735,0.14532
598.60756,0.19035
597.11777,0.14383
595.62798,0.17819
594.13819,0.14040
592.64840,0.10264
591.15862,0.10492
589.66883,0.14187
588.17904,0.13019
586.68925,0.11441
585.19946,0.09866
583.70967,0.10851
582.21989,0.14397
580.73010,0.14110
579.24031,0.13826
577.75052,0.10781
576.26073,0.18464
574.77094,0.17488
573.28115,0.19484
571.79137,0.21484
570.30158,0.22249
568.81179,0.28297
567.32200,0.29728
565.83221,0.31163
564.34242,0.34992
562.85264,0.36763
561.36285,0.46868
559.87306,0.43983
558.38327,0.41102
556.89348,0.47916
555.40369,0.51929
553.91391,0.56151
552.42412,0.60376
550.93433,0.59696
549.44454,0.63886
547.95475,0.65686
546.46496,0.67201
544.97517,0.68719
543.48539,0.76221
541.99560,0.69949
540.50581,0.73455
539.01602,0.76965
537.52623,0.71280
536.03644,0.70465
534.54666,0.64290
533.05687,0.63399
531.56708,0.62510
530.07729,0.60387
528.58750,0.55133
527.09771,0.54377
525.60792,0.53624
524.11814,0.54566
522.62835,0.42558
521.13856,0.48043
519.64877,0.45075
518.15898,0.42110
516.66919,0.31600
515.17941,0.32395
513.68962,0.28902
512.19983,0.25413
510.71004,0.36117
509.22025,0.34283
507.73046,0.36661
506.24068,0.37762
504.75089,0.38867
503.26110,0.44140
501.77131,0.41497
500.28152,0.39311
498.79173,0.37128
497.30194,0.33504
495.81216,0.38628
494.32237,0.36536
492.83258,0.34448
491.34279,0.41065
489.85300,0.29537
488.36321,0.29231
486.87343,0.26000
485.38364,0.22772
483.89385,0.22887
482.40406,0.20119
480.91427,0.17601
479.42448,0.15085
477.93469,0.17028
476.44491,0.07837
474.95512,0.08548
473.46533,0.09263
471.97554,0.06268
470.48575,0.06741
468.99596,0.07464
467.50618,0.09345
466.01639,0.11230
464.52660,0.00661
463.03681,0.06633
461.54702,0.08608
460.05723,0.10586
458.56745,0.08401
457.07766,0.07126
455.58787,0.09402
454.09808,0.11681
452.60829,0.20562
451.11850,0.21774
449.62871,0.19113
448.13893,0.16454
446.64914,0.31039
445.15935,0.43153
443.66956,0.45701
442.17977,0.47715
440.68998,0.49732
439.20020,0.50061
437.71041,0.65985
436.22062,0.68300
434.73083,0.70618
433.24104,0.89191
431.75125,1.01084
430.26146,1.04608
428.77168,1.08134
427.28189,1.19542
425.79210,1.25673
424.30231,1.23557
422.81252,1.21445
421.32273,1.14798
419.83295,1.06092
418.34316,1.01018
416.85337,0.95948
415.36358,0.92366
413.87379,0.85899
412.38400,0.76672
410.89422,0.67448
409.40443,0.67012
407.91464,0.67075
406.42485,0.59881
404.93506,0.59413
403.44527,0.58949
401.95548,0.41947
400.46570,0.45407
398.97591,0.46272
397.48612,0.47139
395.99633,0.46071
394.50654,0.53915
393.01675,0.54916
391.52697,0.55919
390.03718,0.48758
388.54739,0.37888
387.05760,0.36178
385.56781,0.34472
384.07802,0.40110
382.58824,0.41544
381.09845,0.39186
379.60866,0.36831
378.11887,0.27467
376.62908,0.30646
375.13929,0.27805
373.64950,0.24967
372.15972,0.18668
370.66993,0.19219
369.18014,0.15689
367.69035,0.12162
366.20056,0.11237
364.71077,0.13037
363.22099,0.19955
361.73120,0.26877
360.24141,0.14332
358.75162,0.12927
357.26183,0.16969
355.77204,0.21015
354.28225,0.12772
352.79247,0.05522
351.30268,0.04916
349.81289,0.04313
348.32310,0.01197
346.83331,0.11365
345.34352,0.06687
343.85374,0.02012
342.36395,0.09962
340.87416,0.11645
339.38437,0.09866
337.89458,0.08090
336.40479,0.12340
334.91501,0.08343
333.42522,0.07525
331.93543,0.06711
330.44564,0.08167
328.95585,0.09132
327.46606,0.09069
325.97627,0.09009
324.48649,0.03466
322.99670,0.03720
321.50691,0.05628
320.01712,0.07539
318.52733,0.10113
317.03754,0.11452
315.54776,0.10402
314.05797,0.09355
312.56818,0.13509
311.07839,0.09415
309.58860,0.05036
308.09881,0.00661
306.60902,0.02613
305.11924,0.01764
303.62945,0.04548
302.13966,0.04211
300.64987,0.00661
299.16008,0.00661
