1778.52000,0.02046
1777.03021,0.06135
1775.54042,0.08351
1774.05063,0.06195
1772.56085,0.02166
1771.07106,0.00485
1769.58127,0.04589
1768.09148,0.03070
1766.60169,0.03586
1765.11190,0.02856
1763.62212,0.04472
1762.13233,0.03435
1760.64254,0.05527
1759.15275,0.04183
1757.66296,0.03155
1756.17317,0.05882
1754.68339,0.07830
1753.19360,0.07749
1751.70381,0.06734
1750.21402,0.05410
1748.72423,0.06433
1747.23444,0.09804
1745.74465,0.01925
1744.25487,0.10492
1742.76508,0.11560
1741.27529,0.04505
1739.78550,0.07455
1738.29571,0.04313
1736.80592,0.04769
1735.31614,0.04290
1733.82635,0.04127
1732.33656,0.10063
1730.84677,0.09906
1729.35698,0.07565
1727.86719,0.02257
1726.37740,0.00391
1724.88762,0.06342
1723.39783,0.02607
1721.90804,0.04657
1720.41825,0.07024
1718.92846,0.00485
1717.43867,0.03474
1715.94889,0.03340
1714.45910,0.06023
1712.96931,0.03395
1711.47952,0.08272
1709.98973,0.06901
1708.49994,0.08971
1707.01016,0.07841
1705.52037,0.06713
1704.03058,0.11450
1702.54079,0.12126
1701.05100,0.13118
1699.56121,0.07237
1698.07142,0.12768
1696.58164,0.15020
1695.09185,0.14462
1693.60206,0.16564
1692.11227,0.18356
1690.62248,0.22496
1689.13269,0.16793
1687.64291,0.22659
1686.15312,0.25245
1684.66333,0.22365
1683.17354,0.19957
1681.68375,0.21147
1680.19396,0.22652
1678.70417,0.22285
1677.21439,0.20515
1675.72460,0.17966
1674.23481,0.25267
1672.74502,0.24756
1671.25523,0.22061
1669.76544,0.26558
1668.27566,0.25744
1666.78587,0.21651
1665.29608,0.13186
1663.80629,0.20196
1662.31650,0.17676
1660.82671,0.17347
1659.33693,0.18116
1657.84714,0.19200
1656.35735,0.14348
1654.86756,0.19814
1653.37777,0.20126
1651.88798,0.17316
1650.39819,0.16696
1648.90841,0.17018
1647.41862,0.11560
1645.92883,0.13295
1644.43904,0.15032
1642.94925,0.16460
1641.45946,0.16173
1639.96968,0.14325
1638.47989,0.14200
1636.99010,0.15016
1635.50031,0.15522
1634.01052,0.17126
1632.52073,0.15919
1631.03094,0.13935
1629.54116,0.11484
1628.05137,0.11850
1626.56158,0.13938
1625.07179,0.16811
1623.58200,0.18124
1622.09221,0.19597
1620.60243,0.22323
1619.11264,0.16300
1617.62285,0.17001
1616.13306,0.14266
1614.64327,0.15599
1613.15348,0.15371
1611.66370,0.12802
1610.17391,0.18833
1608.68412,0.13926
1607.19433,0.17306
1605.70454,0.13031
1604.21475,0.16260
1602.72496,0.19493
1601.23518,0.18666
1599.74539,0.18936
1598.25560,0.13895
1596.76581,0.19016
1595.27602,0.10075
1593.78623,0.17390
1592.29645,0.10330
1590.80666,0.04680
1589.31687,0.05441
1587.82708,0.06830
1586.33729,0.11817
1584.84750,0.10712
1583.35771,0.13361
1581.86793,0.02573
1580.37814,0.08979
1578.88835,0.17576
1577.39856,0.06016
1575.90877,0.08993
1574.41898,0.12130
1572.92920,0.01986
1571.43941,0.02628
1569.94962,0.01555
1568.45983,0.00485
1566.97004,0.04641
1565.48025,0.07237
1563.99047,0.08586
1562.50068,0.01031
1561.01089,0.08481
1559.52110,0.05151
1558.03131,0.05419
1556.54152,0.07253
1555.05173,0.12216
1553.56195,0.13900
1552.07216,0.08711
1550.58237,0.11495
1549.09258,0.07719
1547.60279,0.12697
1546.11300,0.16116
1544.62322,0.17507
1543.13343,0.15462
1541.64364,0.04200
1540.15385,0.05209
1538.66406,0.06221
1537.17427,0.10910
1535.68448,0.05599
1534.19470,0.04823
1532.70491,0.01863
1531.21512,0.09690
1529.72533,0.00485
1528.23554,0.01164
1526.74575,0.08723
1525.25597,0.08472
1523.76618,0.04316
1522.27639,0.06883
1520.78660,0.10704
1519.29681,0.04683
1517.80702,0.05853
1516.31724,0.01713
1514.82745,0.08048
1513.33766,0.06024
1511.84787,0.04003
1510.35808,0.05502
1508.86829,0.04972
1507.37850,0.11635
1505.88872,0.00485
1504.39893,0.08242
1502.90914,0.02718
1501.41935,0.06262
1499.92956,0.02464
1498.43977,0.07264
1496.94999,0.08786
1495.46020,0.18594
1493.97041,0.18403
1492.48062,0.21653
1490.99083,0.24438
1489.50104,0.30352
1488.01125,0.36737
1486.52147,0.43126
1485.03168,0.50925
1483.54189,0.59664
1482.05210,0.62155
1480.56231,0.63712
1479.07252,0.76993
1477.58274,0.80744
1476.09295,0.88249
1474.60316,0.96538
1473.11337,1.04987
1471.62358,0.96717
1470.13379,1.07673
1468.64401,0.98627
1467.15422,0.97868
1465.66443,0.89689
1464.17464,0.81512
1462.68485,0.85920
1461.19506,0.85017
1459.70527,0.84586
1458.21549,0.81658
1456.72570,0.69356
1455.23591,0.62058
1453.74612,0.63359
1452.25633,0.56536
1450.76654,0.52530
1449.27676,0.51027
1447.78697,0.39526
1446.29718,0.46000
1444.80739,0.38959
1443.31760,0.31921
1441.82781,0.32622
1440.33802,0.30513
1438.84824,0.24031
1437.35845,0.18647
1435.86866,0.19517
1434.37887,0.22110
1432.88908,0.20173
1431.39929,0.23241
1429.90951,0.20060
1428.41972,0.18133
1426.92993,0.18710
1425.44014,0.23978
1423.95035,0.26671
1422.46056,0.29367
1420.97078,0.23080
1419.48099,0.32268
1417.99120,0.31301
1416.50141,0.28461
1415.01162,0.29220
1413.52183,0.27168
1412.03204,0.22306
1410.54226,0.22449
1409.05247,0.27596
1407.56268,0.23525
1406.07289,0.23365
1404.58310,0.26255
1403.09331,0.29148
1401.60353,0.33373
1400.11374,0.26662
1398.62395,0.29018
1397.13416,0.31377
1395.64437,0.31395
1394.15458,0.34386
1392.66479,0.30815
1391.17501,0.35375
1389.68522,0.28686
1388.19543,0.25125
1386.70564,0.30398
1385.21585,0.35673
1383.72606,0.28059
1382.23628,0.29355
1380.74649,0.30499
1379.25670,0.33209
1377.76691,0.27482
1376.27712,0.30980
1374.78733,0.27604
1373.29755,0.48299
1371.80776,0.54151
1370.31797,0.54223
1368.82818,0.58986
1367.33839,0.63753
1365.84860,0.81338
1364.35881,0.89237
1362.86903,0.98546
1361.37924,1.03951
1359.88945,1.00763
1358.39966,0.99610
1356.90987,1.21434
1355.42008,1.14661
1353.93030,1.08047
1352.44051,1.08782
1350.95072,1.09521
1349.46093,1.09012
1347.97114,0.92565
1346.48135,0.76277
1344.99156,0.70308
1343.50178,0.60747
1342.01199,0.49001
1340.52220,0.43041
1339.03241,0.42398
1337.54262,0.46916
1336.05283,0.46670
1334.56305,0.46427
1333.07326,0.35638
1331.58347,0.42669
1330.09368,0.36575
1328.60389,0.35173
1327.11410,0.31742
1325.62432,0.30971
1324.13453,0.35205
1322.64474,0.35378
1321.15495,0.31804
1319.66516,0.26670
1318.17537,0.21539
1316.68558,0.25476
1315.19580,0.23477
1313.70601,0.18355
1312.21622,0.22145
1310.72643,0.24532
1309.23664,0.25203
1307.74685,0.24001
1306.25707,0.24834
1304.76728,0.22467
1303.27749,0.20103
1301.78770,0.22039
1300.29791,0.17259
1298.80812,0.17327
1297.31834,0.26462
1295.82855,0.24348
1294.33876,0.24425
1292.84897,0.23881
1291.35918,0.24120
1289.86939,0.29052
1288.37960,0.33987
1286.88982,0.22827
1285.40003,0.30269
1283.91024,0.29274
1282.42045,0.29689
1280.93066,0.36359
1279.44087,0.37874
1277.95109,0.31735
1276.46130,0.27787
1274.97151,0.25795
1273.48172,0.23807
1271.99193,0.33778
1270.50214,0.36094
1269.01235,0.39976
1267.52257,0.44173
1266.03278,0.40716
1264.54299,0.52891
1263.05320,0.48346
1261.56341,0.50212
1260.07362,0.52081
1258.58384,0.55204
1257.09405,0.53797
1255.60426,0.56614
1254.11447,0.48181
1252.62468,0.53348
1251.13489,0.48672
1249.64511,0.42124
1248.15532,0.41362
1246.66553,0.36695
1245.17574,0.32032
1243.68595,0.27685
1242.19616,0.31468
1240.70637,0.27127
1239.21659,0.30134
1237.72680,0.22361
1236.23701,0.21937
1234.74722,0.28236
1233.25743,0.20551
1231.76764,0.12868
1230.27786,0.20584
1228.78807,0.16424
1227.29828,0.23520
1225.80849,0.14210
1224.31870,0.14905
1222.82891,0.11852
1221.33912,0.11147
1219.84934,0.08413
1218.35955,0.05682
1216.86976,0.15927
1215.37997,0.18516
1213.89018,0.19858
1212.40039,0.09482
1210.91061,0.11144
1209.42082,0.14215
1207.93103,0.11272
1206.44124,0.08332
1204.95145,0.08130
1203.46166,0.06838
1201.97188,0.12894
1200.48209,0.13015
1198.99230,0.13764
1197.50251,0.10139
1196.01272,0.13708
1194.52293,0.07590
1193.03314,0.01475
1191.54336,0.08022
1190.05357,0.12697
1188.56378,0.05497
1187.07399,0.05021
1185.58420,0.00485
1184.09441,0.11772
1182.60463,0.06887
1181.11484,0.02005
1179.62505,0.17366
1178.13526,0.05223
1176.64547,0.13713
1175.15568,0.11735
1173.66589,0.06478
1172.17611,0.17635
1170.68632,0.13791
1169.19653,0.09950
1167.70674,0.02362
1166.21695,0.14000
1164.72716,0.12357
1163.23738,0.09779
1161.74759,0.00485
1160.25780,0.07668
1158.76801,0.06649
1157.27822,0.05634
1155.78843,0.12358
1154.29865,0.06582
1152.80886,0.12218
1151.31907,0.09887
1149.82928,0.14279
1148.33949,0.21019
1146.84970,0.16041
1145.35991,0.11065
1143.87013,0.10781
1142.38034,0.16440
1140.89055,0.08661
1139.40076,0.28079
1137.91097,0.26714
1136.42118,0.23945
1134.93140,0.24306
1133.44161,0.24670
1131.95182,0.31288
1130.46203,0.33065
1128.97224,0.39377
1127.48245,0.33033
1125.99266,0.37788
1124.50288,0.38327
1123.01309,0.39885
1121.52330,0.41447
1120.03351,0.44496
1118.54372,0.42547
1117.05393,0.46540
1115.56415,0.45066
1114.07436,0.50003
1112.58457,0.52834
1111.09478,0.55667
1109.60499,0.52487
1108.11520,0.58531
1106.62542,0.63172
1105.13563,0.68909
1103.64584,0.81527
1102.15605,0.87739
1100.66626,0.87235
1099.17647,0.86734
1097.68668,0.92487
1096.19690,0.87304
1094.70711,0.91814
1093.21732,0.96014
1091.72753,1.04437
1090.23774,1.05127
1088.74795,1.05820
1087.25817,1.10502
1085.76838,1.10341
1084.27859,1.13310
1082.78880,1.15657
1081.29901,1.25978
1079.80922,1.15516
1078.31943,1.16075
1076.82965,1.16637
1075.33986,1.26189
1073.85007,1.43089
1072.36028,1.26548
1070.87049,1.21106
1069.38070,1.23325
1067.89092,1.30001
1066.40113,1.36681
1064.91134,1.32189
1063.42155,1.18323
1061.93176,1.11650
1060.44197,1.09668
1058.95219,1.01751
1057.46240,0.98916
1055.97261,0.96084
1054.48282,0.92396
1052.99303,0.85585
1051.50324,0.74558
1050.01345,0.65722
1048.52367,0.66423
1047.03388,0.65642
1045.54409,0.64864
1044.05430,0.66824
1042.56451,0.63631
1041.07472,0.57314
1039.58494,0.42874
1038.09515,0.38127
1036.60536,0.34711
1035.11557,0.31299
1033.62578,0.45003
1032.13599,0.36830
1030.64620,0.36318
1029.15642,0.39560
1027.66663,0.43822
1026.17684,0.48086
1024.68705,0.48838
1023.19726,0.62251
1021.70747,0.75043
1020.21769,0.91901
1018.72790,1.13295
1017.23811,1.23205
1015.74832,1.33118
1014.25853,1.49051
1012.76874,1.54672
1011.27896,1.81083
1009.78917,1.76396
1008.29938,2.00000
1006.80959,1.92662
1005.31980,1.85328
1003.83001,1.74871
1002.34022,1.71919
1000.85044,1.60999
999.36065,1.67431
997.87086,1.57221
996.38107,1.47014
994.89128,1.54080
993.40149,1.59431
991.91171,1.43216
990.42192,1.60919
988.93213,1.52838
987.44234,1.54216
985.95255,1.55597
984.46276,1.50494
982.97297,1.47740
981.48319,1.36705
979.99340,1.49898
978.50361,1.41683
977.01382,1.33471
975.52403,1.53550
974.03424,1.37374
972.54446,1.22139
971.05467,1.26442
969.56488,1.13870
968.07509,1.12398
966.58530,1.10928
965.09551,1.10400
963.60573,1.17063
962.11594,1.11071
960.62615,0.98049
959.13636,0.94798
957.64657,0.91551
956.15678,0.89166
954.66699,0.80689
953.17721,0.85343
951.68742,0.93907
950.19763,0.91223
948.70784,0.88541
947.21805,0.87269
945.72826,0.72872
944.23848,0.75201
942.74869,0.79877
941.25890,0.80025
939.76911,0.80644
938.27932,0.81266
936.78953,0.90957
935.29974,0.86272
933.80996,0.86747
932.32017,0.93478
930.83038,0.90521
929.34059,0.87568
927.85080,0.98684
926.36101,0.83860
924.87123,0.82635
923.38144,0.77194
921.89165,0.75742
920.40186,0.74292
918.91207,0.76988
917.42228,0.74060
915.93250,0.87702
914.44271,0.84311
912.95292,0.87410
911.46313,0.90512
909.97334,0.85568
908.48355,0.94537
906.99376,0.88194
905.50398,0.86854
904.01419,0.87237
902.52440,0.87623
901.03461,0.89418
899.54482,0.99969
898.05503,0.90831
896.56525,0.92949
895.07546,0.92726
893.58567,0.92506
892.09588,1.01197
890.60609,1.00045
889.11630,0.94833
887.62651,0.94313
886.13673,0.95281
884.64694,0.96252
883.15715,0.93241
881.66736,0.74760
880.17757,0.88791
878.68778,0.90165
877.19800,0.91543
875.70821,0.81515
874.21842,0.92432
872.72863,1.04134
871.23884,1.10838
869.74905,1.11840
868.25927,1.12846
866.76948,0.96429
865.27969,0.87673
863.78990,1.03302
862.30011,0.91739
860.81032,0.90182
859.32053,0.88628
857.83075,0.88640
856.34096,0.87093
854.85117,0.89612
853.36138,0.70410
851.87159,0.65903
850.38180,0.61398
848.89202,0.55959
847.40223,0.43647
845.91244,0.41497
844.42265,0.39584
842.93286,0.37674
841.44307,0.40065
839.95329,0.38396
838.46350,0.31104
836.97371,0.26316
835.48392,0.25438
833.99413,0.24563
832.50434,0.24629
831.01455,0.34700
829.52477,0.29615
828.03498,0.30628
826.54519,0.24924
825.05540,0.19224
823.56561,0.17433
822.07582,0.17834
820.58604,0.16831
819.09625,0.13566
817.60646,0.10303
816.11667,0.09623
814.62688,0.08007
813.13709,0.03739
811.64730,0.05568
810.15752,0.03025
808.66773,0.00485
807.17794,0.06176
805.68815,0.13591
804.19836,0.21633
802.70857,0.19755
801.21879,0.17879
799.72900,0.14679
798.23921,0.27422
796.74942,0.43295
795.25963,0.44714
793.76984,0.46137
792.28006,0.42014
790.79027,0.53836
789.30048,0.56128
787.81069,0.61392
786.32090,0.61814
784.83111,0.62240
783.34132,0.77672
781.85154,0.74197
780.36175,0.70413
778.87196,0.68663
777.38217,0.66916
775.89238,0.81739
774.40259,0.87188
772.91281,0.89202
771.42302,0.91219
769.93323,0.93239
768.44344,0.88230
766.95365,0.75878
765.46386,0.87441
763.97407,0.79784
762.48429,0.76116
760.99450,0.72451
759.50471,0.64960
758.01492,0.54502
756.52513,0.40610
755.03534,0.41490
753.54556,0.42372
752.05577,0.21925
750.56598,0.16798
749.07619,0.15111
747.58640,0.14366
746.09661,0.13624
744.60683,0.05227
743.11704,0.10117
741.62725,0.09540
740.13746,0.09045
738.64767,0.08553
737.15788,0.00485
735.66809,0.02414
734.17831,0.06848
732.68852,0.07065
731.19873,0.07285
729.70894,0.10165
728.21915,0.03671
726.72936,0.07965
725.23958,0.08823
723.74979,0.08199
722.26000,0.07579
720.77021,0.11416
719.28042,0.12130
717.79063,0.11441
716.30084,0.08958
714.81106,0.06478
713.32127,0.00485
711.83148,0.05103
710.34169,0.06912
708.85190,0.10365
707.36211,0.13820
705.87233,0.10950
704.38254,0.04644
702.89275,0.03187
701.40296,0.08531
699.91317,0.13878
698.42338,0.15712
696.93360,0.21612
695.44381,0.17045
693.95402,0.20373
692.46423,0.23704
690.97444,0.12582
689.48465,0.06777
687.99486,0.19261
686.50508,0.16588
685.01529,0.13918
683.52550,0.18284
682.03571,0.27030
680.54592,0.25932
679.05613,0.21400
677.56635,0.16870
676.07656,0.22346
674.58677,0.06570
673.09698,0.16116
671.60719,0.12772
670.11740,0.09430
668.62761,0.16172
667.13783,0.08071
665.64804,0.07083
664.15825,0.06098
662.66846,0.13635
661.17867,0.08671
659.68888,0.09025
658.19910,0.07819
656.70931,0.06615
655.21952,0.10417
653.72973,0.14065
652.23994,0.16935
650.75015,0.13947
649.26037,0.10962
647.77058,0.15092
646.28079,0.04690
644.79100,0.08983
643.30121,0.10856
641.81142,0.12732
640.32163,0.14377
638.83185,0.02428
637.34206,0.00485
635.85227,0.00578
634.36248,0.00674
632.87269,0.02492
631.38290,0.08065
629.89312,0.01763
628.40333,0.04216
626.91354,0.06672
625.42375,0.05850
623.93396,0.10344
622.44417,0.07340
620.95438,0.04339
619.46460,0.07592
617.97481,0.17413
616.48502,0.03794
614.99523,0.02838
613.50544,0.01884
612.01565,0.20938
610.52587,0.07957
609.03608,0.08107
607.54629,0.09902
606.05650,0.11699
604.56671,0.12171
603.07692,0.11865
601.58714,0.12109
600.09735,0.12356
598.60756,0.09246
597.11777,0.04108
595.62798,0.12413
594.13819,0.10798
592.64840,0.09185
591.15862,0.06717
589.66883,0.04564
588.17904,0.10697
586.68925,0.10426
585.19946,0.10157
583.70967,0.09111
582.21989,0.11506
580.73010,0.13436
579.24031,0.15368
577.75052,0.14491
576.26073,0.14085
574.77094,0.16965
573.28115,0.19379
571.79137,0.21796
570.30158,0.22498
568.81179,0.30860
567.32200,0.32271
565.83221,0.33685
564.34242,0.29085
562.85264,0.49494
561.36285,0.42244
559.87306,0.44140
558.38327,0.46039
556.89348,0.58334
555.40369,0.57347
553.91391,0.58787
552.42412,0.60229
550.93433,0.70505
549.44454,0.69844
547.95475,0.62466
546.46496,0.66266
544.97517,0.70068
543.48539,0.71765
541.99560,0.85029
540.50581,0.84465
539.01602,0.83905
537.52623,0.78737
536.03644,0.70134
534.54666,0.73880
533.05687,0.74426
531.56708,0.74976
530.07729,0.63103
528.58750,0.60768
527.09771,0.56794
525.60792,0.52824
524.11814,0.39401
522.62835,0.37078
521.13856,0.51637
519.64877,0.45960
518.15898,0.40286
516.66919,0.35163
515.17941,0.31918
513.68962,0.35084
512.19983,0.38253
510.71004,0.33767
509.22025,0.36161
507.73046,0.39184
506.24068,0.40725
504.75089,0.42269
503.26110,0.29828
501.77131,0.26768
500.28152,0.26837
498.79173,0.26909
497.30194,0.36673
495.81216,0.27843
494.32237,0.33004
492.83258,0.38168
491.34279,0.32161
489.85300,0.24125
488.36321,0.25469
486.87343,0.20409
485.38364,0.15352
483.89385,0.13736
482.40406,0.16656
480.91427,0.15829
479.42448,0.15004
477.93469,0.13401
476.44491,0.07269
474.95512,0.03875
473.46533,0.00485
471.97554,0.09434
470.48575,0.03384
468.99596,0.12497
467.50618,0.09969
466.01639,0.07444
464.52660,0.00000
463.03681,0.05495
461.54702,0.05991
460.05723,0.06491
458.56745,0.12308
457.07766,0.15315
455.58787,0.12464
454.09808,0.09616
452.60829,0.14196
451.11850,0.09713
449.62871,0.13049
448.13893,0.16387
446.64914,0.33794
445.15935,0.54643
443.66956,0.48926
442.17977,0.46417
440.68998,0.43910
439.20020,0.53675
437.71041,0.67819
436.22062,0.67042
434.73083,0.66267
433.24104,0.78545
431.75125,1.00048
430.26146,1.05768
428.77168,1.11492
427.28189,1.19720
425.79210,1.34984
424.30231,1.25323
422.81252,1.15665
421.32273,1.34220
419.83295,1.17927
418.34316,1.16484
416.85337,1.15044
415.36358,1.00479
413.87379,0.80291
412.38400,0.76438
410.89422,0.72588
409.40443,0.75071
407.91464,0.74275
406.42485,0.63949
404.93506,0.62613
403.44527,0.61280
401.95548,0.49556
400.46570,0.51746
398.97591,0.51750
397.48612,0.51758
395.99633,0.40673
394.50654,0.61161
393.01675,0.57036
391.52697,0.52915
390.03718,0.41061
388.54739,0.27960
387.05760,0.32366
385.56781,0.36775
384.07802,0.44782
382.58824,0.47791
381.09845,0.45177
379.60866,0.42566
378.11887,0.28080
376.62908,0.28288
375.13929,0.21467
373.64950,0.14649
372.15972,0.24557
370.66993,0.21965
369.18014,0.14531
367.69035,0.07100
366.20056,0.09675
364.71077,0.12410
363.22099,0.15772
361.73120,0.19138
360.24141,0.12661
358.75162,0.07750
357.26183,0.13704
355.77204,0.19662
354.28225,0.06946
352.79247,0.00485
351.30268,0.03850
349.81289,0.07219
348.32310,0.06450
346.83331,0.07715
345.34352,0.05936
343.85374,0.04160
342.36395,0.13562
340.87416,0.10620
339.38437,0.10026
337.89458,0.09435
336.40479,0.09784
334.91501,0.16701
333.42522,0.11197
331.93543,0.05695
330.44564,0.02151
328.95585,0.00485
327.46606,0.01702
325.97627,0.02923
324.48649,0.01959
322.99670,0.06512
321.50691,0.08645
320.01712,0.10782
318.52733,0.19252
317.03754,0.24442
315.54776,0.20884
314.05797,0.17329
312.56818,0.09558
311.07839,0.07103
309.58860,0.03792
308.09881,0.00485
306.60902,0.06620
305.11924,0.02600
303.62945,0.02569
302.13966,0.00485
300.64987,0.04859
299.16008,0.00485
