1778.52000,0.03433
1777.03021,0.01744
1775.54042,0.00804
1774.05063,0.02849
1772.56085,0.02008
1771.07106,0.01729
1769.58127,0.03410
1768.09148,0.04163
1766.60169,0.07062
1765.11190,0.07168
1763.62212,0.05042
1762.13233,0.07484
1760.64254,0.07228
1759.15275,0.05390
1757.66296,0.05233
1756.17317,0.04519
1754.68339,0.05580
1753.19360,0.07668
1751.70381,0.04076
1750.21402,0.06264
1748.72423,0.03982
1747.23444,0.08241
1745.74465,0.05794
1744.25487,0.06053
1742.76508,0.05942
1741.27529,0.09934
1739.78550,0.08245
1738.29571,0.03764
1736.80592,0.09164
1735.31614,0.06646
1733.82635,0.05156
1732.33656,0.07303
1730.84677,0.05540
1729.35698,0.05084
1727.86719,0.04259
1726.37740,0.04462
1724.88762,0.06812
1723.39783,0.02642
1721.90804,0.00804
1720.41825,0.05675
1718.92846,0.02721
1717.43867,0.07039
1715.94889,0.01948
1714.45910,0.07390
1712.96931,0.08735
1711.47952,0.08500
1709.98973,0.08547
1708.49994,0.06267
1707.01016,0.05901
1705.52037,0.05538
1704.03058,0.09138
1702.54079,0.09201
1701.05100,0.12249
1699.56121,0.13156
1698.07142,0.15278
1696.58164,0.15819
1695.09185,0.16177
1693.60206,0.20079
1692.11227,0.17182
1690.62248,0.20438
1689.13269,0.19690
1687.64291,0.24443
1686.15312,0.22770
1684.66333,0.21938
1683.17354,0.22880
1681.68375,0.21589
1680.19396,0.17413
1678.70417,0.20973
1677.21439,0.21182
1675.72460,0.22513
1674.23481,0.22728
1672.74502,0.21922
1671.25523,0.21678
1669.76544,0.25443
1668.27566,0.24646
1666.78587,0.21150
1665.29608,0.17471
1663.80629,0.22554
1662.31650,0.19626
1660.82671,0.17633
1659.33693,0.20862
1657.84714,0.20739
1656.35735,0.19594
1654.86756,0.15751
1653.37777,0.16196
1651.88798,0.13570
1650.39819,0.16911
1648.90841,0.17273
1647.41862,0.15961
1645.92883,0.15910
1644.43904,0.15862
1642.94925,0.17354
1641.45946,0.19596
1639.96968,0.17926
1638.47989,0.18403
1636.99010,0.13386
1635.50031,0.15081
1634.01052,0.15194
1632.52073,0.18386
1631.03094,0.15338
1629.54116,0.12945
1628.05137,0.11954
1626.56158,0.17674
1625.07179,0.18273
1623.58200,0.19899
1622.09221,0.20597
1620.60243,0.21951
1619.11264,0.19300
1617.62285,0.19821
1616.13306,0.16805
1614.64327,0.17425
1613.15348,0.18980
1611.66370,0.15507
1610.17391,0.14833
1608.68412,0.20032
1607.19433,0.15543
1605.70454,0.16089
1604.21475,0.17570
1602.72496,0.19054
1601.23518,0.17466
1599.74539,0.13366
1598.25560,0.13928
1596.76581,0.11138
1595.27602,0.13849
1593.78623,0.13862
1592.29645,0.14156
1590.80666,0.08025
1589.31687,0.06369
1587.82708,0.08910
1586.33729,0.07819
1584.84750,0.09993
1583.35771,0.07046
1581.86793,0.01399
1580.37814,0.08614
1578.88835,0.12665
1577.39856,0.07307
1575.90877,0.05213
1574.41898,0.01073
1572.92920,0.03831
1571.43941,0.04636
1569.94962,0.04559
1568.45983,0.04484
1566.97004,0.08001
1565.48025,0.00804
1563.99047,0.05614
1562.50068,0.02786
1561.01089,0.07695
1559.52110,0.03849
1558.03131,0.03826
1556.54152,0.03526
1555.05173,0.08541
1553.56195,0.09087
1552.07216,0.07772
1550.58237,0.02546
1549.09258,0.05337
1547.60279,0.06920
1546.11300,0.09997
1544.62322,0.04598
1543.13343,0.05538
1541.64364,0.04152
1540.15385,0.04073
1538.66406,0.03998
1537.17427,0.04578
1535.68448,0.04415
1534.19470,0.04815
1532.70491,0.00000
1531.21512,0.04229
1529.72533,0.03615
1528.23554,0.03098
1526.74575,0.02491
1525.25597,0.01793
1523.76618,0.05199
1522.27639,0.01433
1520.78660,0.00652
1519.29681,0.01924
1517.80702,0.02919
1516.31724,0.01961
1514.82745,0.00913
1513.33766,0.03718
1511.84787,0.06526
1510.35808,0.04398
1508.86829,0.01062
1507.37850,0.00804
1505.88872,0.01682
1504.39893,0.01910
1502.90914,0.02049
1501.41935,0.04240
1499.92956,0.01683
1498.43977,0.08354
1496.94999,0.13443
1495.46020,0.13877
1493.97041,0.14221
1492.48062,0.29011
1490.99083,0.27590
1489.50104,0.36703
1488.01125,0.41485
1486.52147,0.46271
1485.03168,0.51944
1483.54189,0.60976
1482.05210,0.70290
1480.56231,0.76253
1479.07252,0.85201
1477.58274,0.90611
1476.09295,1.09163
1474.60316,1.10759
1473.11337,1.15806
1471.62358,1.19551
1470.13379,1.28984
1468.64401,1.19503
1467.15422,1.07697
1465.66443,1.03674
1464.17464,0.99654
1462.68485,1.00716
1461.19506,0.92369
1459.70527,0.88499
1458.21549,0.84352
1456.72570,0.82071
1455.23591,0.73365
1453.74612,0.68854
1452.25633,0.63602
1450.76654,0.61614
1449.27676,0.57858
1447.78697,0.55504
1446.29718,0.48773
1444.80739,0.46098
1443.31760,0.43427
1441.82781,0.38849
1440.33802,0.36603
1438.84824,0.28117
1437.35845,0.22803
1435.86866,0.16559
1434.37887,0.18240
1432.88908,0.17408
1431.39929,0.21145
1429.90951,0.19014
1428.41972,0.24434
1426.92993,0.20447
1425.44014,0.24196
1423.95035,0.26038
1422.46056,0.27884
1420.97078,0.24840
1419.48099,0.30093
1417.99120,0.29572
1416.50141,0.25978
1415.01162,0.26582
1413.52183,0.35295
1412.03204,0.24722
1410.54226,0.28037
1409.05247,0.26416
1407.56268,0.23028
1406.07289,0.24862
1404.58310,0.24741
1403.09331,0.24624
1401.60353,0.22646
1400.11374,0.31574
1398.62395,0.33889
1397.13416,0.29591
1395.64437,0.31540
1394.15458,0.30975
1392.66479,0.36098
1391.17501,0.32465
1389.68522,0.33681
1388.19543,0.34061
1386.70564,0.34258
1385.21585,0.34458
1383.72606,0.33077
1382.23628,0.30301
1380.74649,0.25758
1379.25670,0.26437
1377.76691,0.26839
1376.27712,0.29667
1374.78733,0.31659
1373.29755,0.37941
1371.80776,0.43854
1370.31797,0.47719
1368.82818,0.55082
1367.33839,0.62448
1365.84860,0.71262
1364.35881,0.80824
1362.86903,0.94769
1361.37924,0.89521
1359.88945,0.98441
1358.39966,1.01493
1356.90987,1.07716
1355.42008,1.04997
1353.93030,1.03306
1352.44051,1.01013
1350.95072,0.98722
1349.46093,0.93966
1347.97114,0.86230
1346.48135,0.73373
1344.99156,0.68160
1343.50178,0.65745
1342.01199,0.61843
1340.52220,0.45923
1339.03241,0.46687
1337.54262,0.48105
1336.05283,0.46638
1334.56305,0.45174
1333.07326,0.46230
1331.58347,0.37504
1330.09368,0.42479
1328.60389,0.39071
1327.11410,0.34548
1325.62432,0.31332
1324.13453,0.39675
1322.64474,0.33297
1321.15495,0.38664
1319.66516,0.33318
1318.17537,0.27975
1316.68558,0.27574
1315.19580,0.31462
1313.70601,0.24824
1312.21622,0.24339
1310.72643,0.23485
1309.23664,0.29808
1307.74685,0.31662
1306.25707,0.27836
1304.76728,0.28857
1303.27749,0.29882
1301.78770,0.28301
1300.29791,0.26164
1298.80812,0.24589
1297.31834,0.24135
1295.82855,0.23685
1294.33876,0.24542
1292.84897,0.27080
1291.35918,0.29807
1289.86939,0.28997
1288.37960,0.28189
1286.88982,0.31858
1285.40003,0.30311
1283.91024,0.28954
1282.42045,0.31700
1280.93066,0.37151
1279.44087,0.32822
1277.95109,0.36509
1276.46130,0.33397
1274.97151,0.32385
1273.48172,0.31376
1271.99193,0.40853
1270.50214,0.42693
1269.01235,0.47144
1267.52257,0.50667
1266.03278,0.48882
1264.54299,0.51852
1263.05320,0.48768
1261.56341,0.54307
1260.07362,0.59849
1258.58384,0.60968
1257.09405,0.52679
1255.60426,0.59488
1254.11447,0.58473
1252.62468,0.55132
1251.13489,0.51514
1249.64511,0.51254
1248.15532,0.38138
1246.66553,0.35928
1245.17574,0.33720
1243.68595,0.36734
1242.19616,0.36490
1240.70637,0.40163
1239.21659,0.29115
1237.72680,0.30837
1236.23701,0.20635
1234.74722,0.21711
1233.25743,0.21439
1231.76764,0.21170
1230.27786,0.19460
1228.78807,0.12255
1227.29828,0.16143
1225.80849,0.14908
1224.31870,0.14701
1222.82891,0.13100
1221.33912,0.11036
1219.84934,0.12423
1218.35955,0.13813
1216.86976,0.17349
1215.37997,0.13993
1213.89018,0.15952
1212.40039,0.17820
1210.91061,0.12331
1209.42082,0.14485
1207.93103,0.11051
1206.44124,0.07621
1204.95145,0.07176
1203.46166,0.08224
1201.97188,0.10488
1200.48209,0.09213
1198.99230,0.06451
1197.50251,0.04623
1196.01272,0.08390
1194.52293,0.06149
1193.03314,0.03912
1191.54336,0.03868
1190.05357,0.04479
1188.56378,0.03602
1187.07399,0.03567
1185.58420,0.02603
1184.09441,0.00804
1182.60463,0.02971
1181.11484,0.05140
1179.62505,0.06660
1178.13526,0.07904
1176.64547,0.10270
1175.15568,0.09656
1173.66589,0.08953
1172.17611,0.07414
1170.68632,0.04107
1169.19653,0.00804
1167.70674,0.03607
1166.21695,0.05762
1164.72716,0.07080
1163.23738,0.08961
1161.74759,0.05254
1160.25780,0.04160
1158.76801,0.03068
1157.27822,0.01980
1155.78843,0.10213
1154.29865,0.13790
1152.80886,0.14109
1151.31907,0.08840
1149.82928,0.12333
1148.33949,0.13220
1146.84970,0.11129
1145.35991,0.09041
1143.87013,0.08353
1142.38034,0.08601
1140.89055,0.18729
1139.40076,0.26810
1137.91097,0.28279
1136.42118,0.23693
1134.93140,0.26240
1133.44161,0.28789
1131.95182,0.31109
1130.46203,0.35295
1128.97224,0.37155
1127.48245,0.30818
1125.99266,0.36039
1124.50288,0.42660
1123.01309,0.44300
1121.52330,0.45942
1120.03351,0.49312
1118.54372,0.45883
1117.05393,0.48140
1115.56415,0.51892
1114.07436,0.52106
1112.58457,0.51392
1111.09478,0.50680
1109.60499,0.55469
1108.11520,0.60541
1106.62542,0.68039
1105.13563,0.70043
1103.64584,0.81927
1102.15605,0.88782
1100.66626,0.90888
1099.17647,0.92997
1097.68668,0.97718
1096.19690,0.96292
1094.70711,1.08009
1093.21732,1.13112
1091.72753,1.03869
1090.23774,1.08000
1088.74795,1.12134
1087.25817,1.12032
1085.76838,1.23208
1084.27859,1.20689
1082.78880,1.28144
1081.29901,1.33739
1079.80922,1.24986
1078.31943,1.29096
1076.82965,1.33209
1075.33986,1.42078
1073.85007,1.43401
1072.36028,1.38671
1070.87049,1.42144
1069.38070,1.40775
1067.89092,1.44022
1066.40113,1.47272
1064.91134,1.47962
1063.42155,1.35889
1061.93176,1.24938
1060.44197,1.24892
1058.95219,1.19165
1057.46240,1.14746
1055.97261,1.10330
1054.48282,0.96040
1052.99303,0.89394
1051.50324,0.85267
1050.01345,0.82075
1048.52367,0.72922
1047.03388,0.69923
1045.54409,0.66927
1044.05430,0.71854
1042.56451,0.61410
1041.07472,0.55348
1039.58494,0.53669
1038.09515,0.42395
1036.60536,0.39231
1035.11557,0.36070
1033.62578,0.39249
1032.13599,0.37493
1030.64620,0.40212
1029.15642,0.55235
1027.66663,0.53534
1026.17684,0.51836
1024.68705,0.47300
1023.19726,0.62242
1021.70747,0.82219
1020.21769,1.01640
1018.72790,1.23301
1017.23811,1.32711
1015.74832,1.42124
1014.25853,1.59042
1012.76874,1.73633
1011.27896,1.85245
1009.78917,1.94997
1008.29938,2.00000
1006.80959,1.97784
1005.31980,1.95572
1003.83001,1.73281
1002.34022,1.70376
1000.85044,1.72319
999.36065,1.59729
997.87086,1.58883
996.38107,1.58041
994.89128,1.64283
993.40149,1.69597
991.91171,1.65316
990.42192,1.68958
988.93213,1.71113
987.44234,1.73225
985.95255,1.75339
984.46276,1.69676
982.97297,1.63457
981.48319,1.56775
979.99340,1.45437
978.50361,1.49431
977.01382,1.53428
975.52403,1.48902
974.03424,1.53139
972.54446,1.37437
971.05467,1.36648
969.56488,1.37073
968.07509,1.29674
966.58530,1.22278
965.09551,1.17028
963.60573,1.22684
962.11594,1.15391
960.62615,1.07076
959.13636,1.04634
957.64657,1.02196
956.15678,0.97338
954.66699,0.89781
953.17721,0.87352
951.68742,0.87535
950.19763,0.86696
948.70784,0.85861
947.21805,0.81394
945.72826,0.71806
944.23848,0.80019
942.74869,0.78916
941.25890,0.85831
939.76911,0.90279
938.27932,0.94730
936.78953,0.97461
935.29974,0.93579
933.80996,0.96502
932.32017,0.91881
930.83038,0.90710
929.34059,0.89543
927.85080,0.96299
926.36101,0.99051
924.87123,0.93421
923.38144,0.93104
921.89165,0.94702
920.40186,0.96302
918.91207,0.84534
917.42228,0.95039
915.93250,0.92689
914.44271,0.89596
912.95292,0.89581
911.46313,0.89570
909.97334,0.97016
908.48355,0.99061
906.99376,1.05302
905.50398,0.97569
904.01419,0.97433
902.52440,0.97301
901.03461,1.04300
899.54482,1.10277
898.05503,1.02094
896.56525,1.06679
895.07546,1.05817
893.58567,1.04958
892.09588,1.04987
890.60609,1.09120
889.11630,1.10832
887.62651,0.97453
886.13673,0.99172
884.64694,1.00894
883.15715,0.99079
881.66736,0.97825
880.17757,0.94339
878.68778,0.97890
877.19800,1.01445
875.70821,0.88277
874.21842,0.98594
872.72863,1.04721
871.23884,1.04049
869.74905,1.07293
868.25927,1.10541
866.76948,1.02330
865.27969,1.07727
863.78990,1.04275
862.30011,1.10890
860.81032,1.10007
859.32053,1.09127
857.83075,0.99724
856.34096,0.95635
854.85117,0.89499
853.36138,0.88119
851.87159,0.77564
850.38180,0.67011
848.89202,0.61354
847.40223,0.47500
845.91244,0.43154
844.42265,0.41793
842.93286,0.40434
841.44307,0.42807
839.95329,0.33907
838.46350,0.34795
836.97371,0.35592
835.48392,0.34902
833.99413,0.34215
832.50434,0.27381
831.01455,0.31919
829.52477,0.28911
828.03498,0.27492
826.54519,0.25236
825.05540,0.22984
823.56561,0.15703
822.07582,0.18954
820.58604,0.16991
819.09625,0.16335
817.60646,0.15683
816.11667,0.09722
814.62688,0.03299
813.13709,0.05917
811.64730,0.00804
810.15752,0.01110
808.66773,0.01420
807.17794,0.02245
805.68815,0.06148
804.19836,0.10986
802.70857,0.13824
801.21879,0.16664
799.72900,0.18623
798.23921,0.29717
796.74942,0.38392
795.25963,0.42829
793.76984,0.47270
792.28006,0.51015
790.79027,0.59329
789.30048,0.70069
787.81069,0.67860
786.32090,0.71291
784.83111,0.74726
783.34132,0.82124
781.85154,0.77318
780.36175,0.80342
778.87196,0.79503
777.38217,0.78667
775.89238,0.83192
774.40259,0.91913
772.91281,0.95326
771.42302,0.96972
769.93323,0.98621
768.44344,0.93936
766.95365,0.91864
765.46386,0.94827
763.97407,0.90618
762.48429,0.85713
760.99450,0.80811
759.50471,0.70089
758.01492,0.55083
756.52513,0.50703
755.03534,0.47352
753.54556,0.44003
752.05577,0.29196
750.56598,0.20636
749.07619,0.18228
747.58640,0.17641
746.09661,0.17057
744.60683,0.10373
743.11704,0.10215
741.62725,0.12389
740.13746,0.10373
738.64767,0.08361
737.15788,0.01319
735.66809,0.00804
734.17831,0.05305
732.68852,0.07246
731.19873,0.09190
729.70894,0.03357
728.21915,0.06379
726.72936,0.07820
725.23958,0.05351
723.74979,0.07497
722.26000,0.09646
720.77021,0.10075
719.28042,0.07805
717.79063,0.11687
716.30084,0.08025
714.81106,0.04367
713.32127,0.00804
711.83148,0.06922
710.34169,0.05122
708.85190,0.07426
707.36211,0.09733
705.87233,0.09527
704.38254,0.01963
702.89275,0.04745
701.40296,0.07623
699.91317,0.10505
698.42338,0.07146
696.93360,0.15066
695.44381,0.15534
693.95402,0.15167
692.46423,0.14803
690.97444,0.16678
689.48465,0.18277
687.99486,0.18388
686.50508,0.18875
685.01529,0.19366
683.52550,0.26661
682.03571,0.20449
680.54592,0.15916
679.05613,0.15347
677.56635,0.14782
676.07656,0.18738
674.58677,0.11703
673.09698,0.12404
671.60719,0.13529
670.11740,0.14656
668.62761,0.13969
667.13783,0.09092
665.64804,0.09856
664.15825,0.10623
662.66846,0.05756
661.17867,0.07787
659.68888,0.07865
658.19910,0.08831
656.70931,0.09800
655.21952,0.12310
653.72973,0.10350
652.23994,0.13146
650.75015,0.14640
649.26037,0.16137
647.77058,0.12140
646.28079,0.10941
644.79100,0.10864
643.30121,0.09858
641.81142,0.08855
640.32163,0.05060
638.83185,0.09747
637.34206,0.10151
635.85227,0.09068
634.36248,0.07987
632.87269,0.04487
631.38290,0.00804
629.89312,0.07334
628.40333,0.08742
626.91354,0.10153
625.42375,0.06536
623.93396,0.12054
622.44417,0.11797
620.95438,0.11543
619.46460,0.03279
617.97481,0.10766
616.48502,0.12759
614.99523,0.12471
613.50544,0.12187
612.01565,0.11300
610.52587,0.11534
609.03608,0.15965
607.54629,0.12059
606.05650,0.08156
604.56671,0.21635
603.07692,0.14990
601.58714,0.14963
600.09735,0.14940
598.60756,0.14454
597.11777,0.06982
595.62798,0.13026
594.13819,0.10965
592.64840,0.08907
591.15862,0.06760
589.66883,0.09368
588.17904,0.08345
586.68925,0.07604
585.19946,0.06867
583.70967,0.11351
582.21989,0.12763
580.73010,0.14458
579.24031,0.16156
577.75052,0.17671
576.26073,0.20866
574.77094,0.21176
573.28115,0.21023
571.79137,0.20873
570.30158,0.32374
568.81179,0.32230
567.32200,0.36795
565.83221,0.41364
564.34242,0.39832
562.85264,0.42403
561.36285,0.46748
559.87306,0.52121
558.38327,0.57497
556.89348,0.54303
555.40369,0.69563
553.91391,0.67308
552.42412,0.65055
550.93433,0.61688
549.44454,0.72860
547.95475,0.74997
546.46496,0.74807
544.97517,0.74620
543.48539,0.75369
541.99560,0.81525
540.50581,0.84283
539.01602,0.87044
537.52623,0.86127
536.03644,0.77573
534.54666,0.73867
533.05687,0.75663
531.56708,0.77461
530.07729,0.70224
528.58750,0.69792
527.09771,0.67873
525.60792,0.65956
524.11814,0.51836
522.62835,0.52349
521.13856,0.58642
519.64877,0.52731
518.15898,0.46824
516.66919,0.42131
515.17941,0.38932
513.68962,0.41747
512.19983,0.44564
510.71004,0.36622
509.22025,0.40145
507.73046,0.36123
506.24068,0.37975
504.75089,0.39830
503.26110,0.36842
501.77131,0.37772
500.28152,0.39403
498.79173,0.41038
497.30194,0.34895
495.81216,0.30059
494.32237,0.36409
492.83258,0.42762
491.34279,0.36910
489.85300,0.36654
488.36321,0.30063
486.87343,0.25946
485.38364,0.21831
483.89385,0.22705
482.40406,0.16500
480.91427,0.15563
479.42448,0.14629
477.93469,0.08806
476.44491,0.05316
474.95512,0.03320
473.46533,0.01327
471.97554,0.10519
470.48575,0.09651
468.99596,0.04220
467.50618,0.05221
466.01639,0.06226
464.52660,0.00804
463.03681,0.02892
461.54702,0.04982
460.05723,0.07076
458.56745,0.11503
457.07766,0.15094
455.58787,0.17896
454.09808,0.20701
452.60829,0.23743
451.11850,0.19705
449.62871,0.21448
448.13893,0.23195
446.64914,0.36685
445.15935,0.47197
443.66956,0.52214
442.17977,0.56209
440.68998,0.60207
439.20020,0.60388
437.71041,0.78370
436.22062,0.82145
434.73083,0.85923
433.24104,1.06151
431.75125,1.17716
430.26146,1.19220
428.77168,1.20728
427.28189,1.42179
425.79210,1.37357
424.30231,1.36451
422.81252,1.35548
421.32273,1.30828
419.83295,1.14929
418.34316,1.09190
416.85337,1.03454
415.36358,0.94926
413.87379,0.86867
412.38400,0.81886
410.89422,0.76909
409.40443,0.81066
407.91464,0.75536
406.42485,0.72897
404.93506,0.70028
403.44527,0.67163
401.95548,0.58570
400.46570,0.57528
398.97591,0.59844
397.48612,0.62162
395.99633,0.63180
394.50654,0.68860
393.01675,0.68765
391.52697,0.68674
390.03718,0.50508
388.54739,0.46602
387.05760,0.46427
385.56781,0.46255
384.07802,0.63139
382.58824,0.55518
381.09845,0.49439
379.60866,0.43362
378.11887,0.41435
376.62908,0.40723
375.13929,0.36426
373.64950,0.32133
372.15972,0.26305
370.66993,0.21784
369.18014,0.18339
367.69035,0.14897
366.20056,0.11131
364.71077,0.18365
363.22099,0.20196
361.73120,0.22031
360.24141,0.22751
358.75162,0.19840
357.26183,0.18051
355.77204,0.16264
354.28225,0.07212
352.79247,0.05246
351.30268,0.05658
349.81289,0.06074
348.32310,0.06912
346.83331,0.11668
345.34352,0.10089
343.85374,0.08514
342.36395,0.15049
340.87416,0.13574
339.38437,0.08141
337.89458,0.02711
336.40479,0.11156
334.91501,0.03017
333.42522,0.07275
331.93543,0.11536
330.44564,0.15986
328.95585,0.08978
327.46606,0.08310
325.97627,0.07644
324.48649,0.04094
322.99670,0.04786
321.50691,0.03619
320.01712,0.02454
318.52733,0.10997
317.03754,0.06031
315.54776,0.08616
314.05797,0.11205
312.56818,0.09044
311.07839,0.01854
309.58860,0.01843
308.09881,0.01834
306.60902,0.00804
305.11924,0.03069
303.62945,0.03333
302.13966,0.01933
300.64987,0.05654
299.16008,0.00804
