1778.52000,0.05261
1777.03021,0.03164
1775.54042,0.02886
1774.05063,0.00492
1772.56085,0.05469
1771.07106,0.00054
1769.58127,0.04431
1768.09148,0.03362
1766.60169,0.02699
1765.11190,0.02847
1763.62212,0.03402
1762.13233,0.05069
1760.64254,0.03006
1759.15275,0.03670
1757.66296,0.03228
1756.17317,0.01174
1754.68339,0.07701
1753.19360,0.01717
1751.70381,0.02397
1750.21402,0.02474
1748.72423,0.00738
1747.23444,0.00923
1745.74465,0.00000
1744.25487,0.03117
1742.76508,0.07045
1741.27529,0.02801
1739.78550,0.01992
1738.29571,0.00479
1736.80592,0.04419
1735.31614,0.01802
1733.82635,0.02721
1732.33656,0.03844
1730.84677,0.03558
1729.35698,0.08825
1727.86719,0.03196
1726.37740,0.02212
1724.88762,0.03351
1723.39783,0.07520
1721.90804,0.02307
1720.41825,0.01941
1718.92846,0.07432
1717.43867,0.03338
1715.94889,0.00054
1714.45910,0.04713
1712.96931,0.05137
1711.47952,0.05261
1709.98973,0.09324
1708.49994,0.09152
1707.01016,0.07670
1705.52037,0.06191
1704.03058,0.08753
1702.54079,0.11620
1701.05100,0.12977
1699.56121,0.11914
1698.07142,0.13479
1696.58164,0.13936
1695.09185,0.16819
1693.60206,0.14860
1692.11227,0.13207
1690.62248,0.16907
1689.13269,0.18086
1687.64291,0.19773
1686.15312,0.22270
1684.66333,0.18715
1683.17354,0.18998
1681.68375,0.18376
1680.19396,0.19169
1678.70417,0.16737
1677.21439,0.20060
1675.72460,0.23588
1674.23481,0.20962
1672.74502,0.17532
1671.25523,0.18647
1669.76544,0.23399
1668.27566,0.21391
1666.78587,0.17772
1665.29608,0.16578
1663.80629,0.17102
1662.31650,0.18438
1660.82671,0.17253
1659.33693,0.20814
1657.84714,0.16911
1656.35735,0.16744
1654.86756,0.18599
1653.37777,0.12888
1651.88798,0.12630
1650.39819,0.14292
1648.90841,0.19288
1647.41862,0.13286
1645.92883,0.12586
1644.43904,0.11889
1642.94925,0.14071
1641.45946,0.15651
1639.96968,0.15216
1638.47989,0.12361
1636.99010,0.14556
1635.50031,0.14836
1634.01052,0.14715
1632.52073,0.13588
1631.03094,0.13676
1629.54116,0.16491
1628.05137,0.07703
1626.56158,0.18700
1625.07179,0.14157
1623.58200,0.21627
1622.09221,0.21228
1620.60243,0.20530
1619.11264,0.18421
1617.62285,0.17123
1616.13306,0.15828
1614.64327,0.15344
1613.15348,0.18193
1611.66370,0.13980
1610.17391,0.17239
1608.68412,0.11519
1607.19433,0.19326
1605.70454,0.15226
1604.21475,0.14864
1602.72496,0.14505
1601.23518,0.16369
1599.74539,0.13695
1598.25560,0.17180
1596.76581,0.15925
1595.27602,0.12453
1593.78623,0.16048
1592.29645,0.13389
1590.80666,0.11843
1589.31687,0.13329
1587.82708,0.09266
1586.33729,0.14088
1584.84750,0.08921
1583.35771,0.10519
1581.86793,0.05762
1580.37814,0.09385
1578.88835,0.14021
1577.39856,0.09777
1575.90877,0.04831
1574.41898,0.04832
1572.92920,0.08572
1571.43941,0.02827
1569.94962,0.03998
1568.45983,0.05173
1566.97004,0.06402
1565.48025,0.08037
1563.99047,0.09574
1562.50068,0.05765
1561.01089,0.02363
1559.52110,0.05221
1558.03131,0.07174
1556.54152,0.06002
1555.05173,0.08062
1553.56195,0.11135
1552.07216,0.06136
1550.58237,0.11839
1549.09258,0.10379
1547.60279,0.11142
1546.11300,0.11202
1544.62322,0.12880
1543.13343,0.06891
1541.64364,0.05850
1540.15385,0.06830
1538.66406,0.07814
1537.17427,0.04864
1535.68448,0.09084
1534.19470,0.05737
1532.70491,0.03503
1531.21512,0.10457
1529.72533,0.00054
1528.23554,0.06893
1526.74575,0.04349
1525.25597,0.04836
1523.76618,0.08051
1522.27639,0.09352
1520.78660,0.03792
1519.29681,0.03686
1517.80702,0.07317
1516.31724,0.05905
1514.82745,0.04092
1513.33766,0.02383
1511.84787,0.00677
1510.35808,0.05598
1508.86829,0.05476
1507.37850,0.05761
1505.88872,0.04535
1504.39893,0.07046
1502.90914,0.05019
1501.41935,0.07536
1499.92956,0.04102
1498.43977,0.09249
1496.94999,0.09656
1495.46020,0.16929
1493.97041,0.15829
1492.48062,0.21796
1490.99083,0.25344
1489.50104,0.34143
1488.01125,0.34720
1486.52147,0.35300
1485.03168,0.46329
1483.54189,0.49792
1482.05210,0.52752
1480.56231,0.59955
1479.07252,0.73116
1477.58274,0.79820
1476.09295,0.88244
1474.60316,0.90715
1473.11337,0.96722
1471.62358,0.98796
1470.13379,1.04002
1468.64401,1.01944
1467.15422,0.91613
1465.66443,0.90772
1464.17464,0.89935
1462.68485,0.83246
1461.19506,0.81405
1459.70527,0.79567
1458.21549,0.68952
1456.72570,0.67827
1455.23591,0.55199
1453.74612,0.62255
1452.25633,0.57506
1450.76654,0.48722
1449.27676,0.43373
1447.78697,0.42872
1446.29718,0.39043
1444.80739,0.37034
1443.31760,0.35028
1441.82781,0.31209
1440.33802,0.30521
1438.84824,0.19643
1437.35845,0.15126
1435.86866,0.17980
1434.37887,0.16194
1432.88908,0.15320
1431.39929,0.20302
1429.90951,0.17012
1428.41972,0.20486
1426.92993,0.22551
1425.44014,0.21490
1423.95035,0.20231
1422.46056,0.18974
1420.97078,0.20042
1419.48099,0.29187
1417.99120,0.28040
1416.50141,0.24576
1415.01162,0.26564
1413.52183,0.30978
1412.03204,0.25201
1410.54226,0.25987
1409.05247,0.29502
1407.56268,0.28478
1406.07289,0.25539
1404.58310,0.25177
1403.09331,0.24818
1401.60353,0.36119
1400.11374,0.35615
1398.62395,0.43188
1397.13416,0.42387
1395.64437,0.40277
1394.15458,0.43520
1392.66479,0.51711
1391.17501,0.48399
1389.68522,0.49935
1388.19543,0.52785
1386.70564,0.49988
1385.21585,0.47193
1383.72606,0.42988
1382.23628,0.45548
1380.74649,0.50736
1379.25670,0.47650
1377.76691,0.47797
1376.27712,0.49966
1374.78733,0.53349
1373.29755,0.60066
1371.80776,0.76475
1370.31797,0.79464
1368.82818,0.90429
1367.33839,1.01396
1365.84860,1.21956
1364.35881,1.32122
1362.86903,1.52385
1361.37924,1.53171
1359.88945,1.62540
1358.39966,1.68076
1356.90987,1.67257
1355.42008,1.65936
1353.93030,1.54930
1352.44051,1.50587
1350.95072,1.46248
1349.46093,1.33131
1347.97114,1.23246
1346.48135,1.02061
1344.99156,0.88247
1343.50178,0.82005
1342.01199,0.68398
1340.52220,0.61860
1339.03241,0.59362
1337.54262,0.57674
1336.05283,0.55233
1334.56305,0.52794
1333.07326,0.51620
1331.58347,0.40659
1330.09368,0.44235
1328.60389,0.31565
1327.11410,0.35046
1325.62432,0.31969
1324.13453,0.28291
1322.64474,0.27138
1321.15495,0.31035
1319.66516,0.27769
1318.17537,0.24506
1316.68558,0.28917
1315.19580,0.25257
1313.70601,0.23315
1312.21622,0.19459
1310.72643,0.23781
1309.23664,0.18518
1307.74685,0.24159
1306.25707,0.22636
1304.76728,0.21722
1303.27749,0.20811
1301.78770,0.25455
1300.29791,0.17586
1298.80812,0.18198
1297.31834,0.18006
1295.82855,0.21955
1294.33876,0.18640
1292.84897,0.19467
1291.35918,0.20700
1289.86939,0.22138
1288.37960,0.23579
1286.88982,0.20280
1285.40003,0.24351
1283.91024,0.31150
1282.42045,0.23722
1280.93066,0.27197
1279.44087,0.26537
1277.95109,0.23963
1276.46130,0.31585
1274.97151,0.30732
1273.48172,0.29883
1271.99193,0.31761
1270.50214,0.35661
1269.01235,0.42491
1267.52257,0.37617
1266.03278,0.38599
1264.54299,0.40897
1263.05320,0.39967
1261.56341,0.43179
1260.07362,0.46394
1258.58384,0.43860
1257.09405,0.47283
1255.60426,0.42635
1254.11447,0.48284
1252.62468,0.49395
1251.13489,0.48490
1249.64511,0.40120
1248.15532,0.30239
1246.66553,0.31968
1245.17574,0.33699
1243.68595,0.27663
1242.19616,0.32126
1240.70637,0.22563
1239.21659,0.23095
1237.72680,0.23631
1236.23701,0.22555
1234.74722,0.16133
1233.25743,0.15518
1231.76764,0.14905
1230.27786,0.15255
1228.78807,0.14295
1227.29828,0.13540
1225.80849,0.09357
1224.31870,0.08003
1222.82891,0.13616
1221.33912,0.09341
1219.84934,0.11932
1218.35955,0.14526
1216.86976,0.12178
1215.37997,0.14274
1213.89018,0.15061
1212.40039,0.08785
1210.91061,0.07862
1209.42082,0.06741
1207.93103,0.06127
1206.44124,0.05516
1204.95145,0.05211
1203.46166,0.03899
1201.97188,0.03903
1200.48209,0.09562
1198.99230,0.08764
1197.50251,0.02419
1196.01272,0.02536
1194.52293,0.01293
1193.03314,0.00054
1191.54336,0.06968
1190.05357,0.01269
1188.56378,0.02134
1187.07399,0.01185
1185.58420,0.02156
1184.09441,0.00810
1182.60463,0.02040
1181.11484,0.03273
1179.62505,0.02036
1178.13526,0.08070
1176.64547,0.06537
1175.15568,0.10154
1173.66589,0.03681
1172.17611,0.07002
1170.68632,0.05935
1169.19653,0.04871
1167.70674,0.04870
1166.21695,0.00028
1164.72716,0.09252
1163.23738,0.08083
1161.74759,0.00054
1160.25780,0.02784
1158.76801,0.01733
1157.27822,0.00684
1155.78843,0.03424
1154.29865,0.04350
1152.80886,0.04168
1151.31907,0.00054
1149.82928,0.06632
1148.33949,0.10992
1146.84970,0.11067
1145.35991,0.11144
1143.87013,0.06127
1142.38034,0.07069
1140.89055,0.07912
1139.40076,0.13200
1137.91097,0.15664
1136.42118,0.12883
1134.93140,0.14092
1133.44161,0.15304
1131.95182,0.29791
1130.46203,0.25509
1128.97224,0.24661
1127.48245,0.28762
1125.99266,0.31755
1124.50288,0.38385
1123.01309,0.34623
1121.52330,0.30863
1120.03351,0.31951
1118.54372,0.37181
1117.05393,0.39890
1115.56415,0.39271
1114.07436,0.40271
1112.58457,0.40264
1111.09478,0.40260
1109.60499,0.42985
1108.11520,0.45611
1106.62542,0.44910
1105.13563,0.53599
1103.64584,0.57849
1102.15605,0.63617
1100.66626,0.59951
1099.17647,0.56288
1097.68668,0.67212
1096.19690,0.71074
1094.70711,0.72315
1093.21732,0.68815
1091.72753,0.83991
1090.23774,0.81456
1088.74795,0.78925
1087.25817,0.87650
1085.76838,0.91634
1084.27859,0.98044
1082.78880,0.93254
1081.29901,0.96945
1079.80922,1.01547
1078.31943,1.00198
1076.82965,0.98852
1075.33986,1.13051
1073.85007,1.27557
1072.36028,1.10879
1070.87049,1.13986
1069.38070,1.14370
1067.89092,1.20915
1066.40113,1.27462
1064.91134,1.11607
1063.42155,1.07361
1061.93176,0.98072
1060.44197,0.95448
1058.95219,0.91009
1057.46240,0.88189
1055.97261,0.85371
1054.48282,0.69235
1052.99303,0.65313
1051.50324,0.64423
1050.01345,0.61819
1048.52367,0.62146
1047.03388,0.56673
1045.54409,0.51202
1044.05430,0.51841
1042.56451,0.46225
1041.07472,0.40915
1039.58494,0.31773
1038.09515,0.22028
1036.60536,0.24297
1035.11557,0.26569
1033.62578,0.24807
1032.13599,0.21937
1030.64620,0.26742
1029.15642,0.31448
1027.66663,0.33029
1026.17684,0.34612
1024.68705,0.42154
1023.19726,0.53029
1021.70747,0.69963
1020.21769,0.84579
1018.72790,1.04547
1017.23811,1.19017
1015.74832,1.33491
1014.25853,1.54679
1012.76874,1.63053
1011.27896,1.74659
1009.78917,1.90911
1008.29938,2.00000
1006.80959,1.96729
1005.31980,1.93460
1003.83001,1.70968
1002.34022,1.69169
1000.85044,1.64850
999.36065,1.42468
997.87086,1.44009
996.38107,1.45553
994.89128,1.33172
993.40149,1.30483
991.91171,1.26082
990.42192,1.25922
988.93213,1.23445
987.44234,1.18245
985.95255,1.13048
984.46276,1.16837
982.97297,0.99838
981.48319,1.01312
979.99340,0.91182
978.50361,0.89079
977.01382,0.86979
975.52403,0.78271
974.03424,0.81476
972.54446,0.80243
971.05467,0.72452
969.56488,0.69813
968.07509,0.65460
966.58530,0.61110
965.09551,0.57975
963.60573,0.58174
962.11594,0.52218
960.62615,0.49698
959.13636,0.46322
957.64657,0.42950
956.15678,0.44779
954.66699,0.47821
953.17721,0.44307
951.68742,0.46447
950.19763,0.45664
948.70784,0.44884
947.21805,0.39060
945.72826,0.34955
944.23848,0.38322
942.74869,0.41188
941.25890,0.44056
939.76911,0.48795
938.27932,0.53536
936.78953,0.51469
935.29974,0.50312
933.80996,0.53801
932.32017,0.62845
930.83038,0.60083
929.34059,0.57324
927.85080,0.55981
926.36101,0.54338
924.87123,0.53707
923.38144,0.47630
921.89165,0.50286
920.40186,0.52945
918.91207,0.49703
917.42228,0.46867
915.93250,0.49182
914.44271,0.47059
912.95292,0.48068
911.46313,0.49080
909.97334,0.53224
908.48355,0.53737
906.99376,0.52033
905.50398,0.47608
904.01419,0.46061
902.52440,0.44518
901.03461,0.50396
899.54482,0.52442
898.05503,0.48233
896.56525,0.52202
895.07546,0.51028
893.58567,0.49856
892.09588,0.52422
890.60609,0.54385
889.11630,0.54333
887.62651,0.53476
886.13673,0.56205
884.64694,0.58938
883.15715,0.54558
881.66736,0.60577
880.17757,0.56505
878.68778,0.59805
877.19800,0.63108
875.70821,0.59551
874.21842,0.66594
872.72863,0.71117
871.23884,0.79882
869.74905,0.81081
868.25927,0.82283
866.76948,0.76422
865.27969,0.82273
863.78990,0.83988
862.30011,0.86212
860.81032,0.86016
859.32053,0.85823
857.83075,0.73521
856.34096,0.79996
854.85117,0.78500
853.36138,0.63483
851.87159,0.60833
850.38180,0.58185
848.89202,0.50242
847.40223,0.42504
845.91244,0.39109
844.42265,0.37837
842.93286,0.36567
841.44307,0.32475
839.95329,0.28789
838.46350,0.27327
836.97371,0.29098
835.48392,0.27490
833.99413,0.25886
832.50434,0.29886
831.01455,0.25209
829.52477,0.26087
828.03498,0.24243
826.54519,0.21291
825.05540,0.18342
823.56561,0.18122
822.07582,0.16996
820.58604,0.20415
819.09625,0.14250
817.60646,0.08087
816.11667,0.06569
814.62688,0.08991
813.13709,0.07077
811.64730,0.04257
810.15752,0.05578
808.66773,0.06902
807.17794,0.00054
805.68815,0.07663
804.19836,0.07201
802.70857,0.10123
801.21879,0.13048
799.72900,0.14513
798.23921,0.18908
796.74942,0.24012
795.25963,0.27757
793.76984,0.31505
792.28006,0.30461
790.79027,0.39514
789.30048,0.43019
787.81069,0.45416
786.32090,0.47968
784.83111,0.50524
783.34132,0.48590
781.85154,0.61901
780.36175,0.58258
778.87196,0.58302
777.38217,0.58349
775.89238,0.62487
774.40259,0.61783
772.91281,0.64212
771.42302,0.66138
769.93323,0.68068
768.44344,0.73836
766.95365,0.64871
765.46386,0.68223
763.97407,0.64816
762.48429,0.64036
760.99450,0.63259
759.50471,0.44116
758.01492,0.40721
756.52513,0.29658
755.03534,0.29953
753.54556,0.30251
752.05577,0.19703
750.56598,0.15617
749.07619,0.18094
747.58640,0.14014
746.09661,0.09937
744.60683,0.06569
743.11704,0.09361
741.62725,0.05193
740.13746,0.06124
738.64767,0.07058
737.15788,0.04614
735.66809,0.00054
734.17831,0.02150
732.68852,0.04350
731.19873,0.06553
729.70894,0.06236
728.21915,0.00371
726.72936,0.02886
725.23958,0.08129
723.74979,0.04090
722.26000,0.00054
720.77021,0.05164
719.28042,0.07148
717.79063,0.02676
716.30084,0.02446
714.81106,0.02219
713.32127,0.02298
711.83148,0.04398
710.34169,0.04786
708.85190,0.03511
707.36211,0.02240
705.87233,0.00517
704.38254,0.05661
702.89275,0.06871
701.40296,0.04451
699.91317,0.02035
698.42338,0.09209
696.93360,0.13662
695.44381,0.08731
693.95402,0.13643
692.46423,0.18559
690.97444,0.16968
689.48465,0.11646
687.99486,0.13593
686.50508,0.16755
685.01529,0.19920
683.52550,0.20565
682.03571,0.18487
680.54592,0.15908
679.05613,0.16159
677.56635,0.16412
676.07656,0.21513
674.58677,0.13395
673.09698,0.17190
671.60719,0.13973
670.11740,0.10760
668.62761,0.16381
667.13783,0.05452
665.64804,0.06033
664.15825,0.06616
662.66846,0.04276
661.17867,0.08196
659.68888,0.09092
658.19910,0.06054
656.70931,0.03020
655.21952,0.06750
653.72973,0.06649
652.23994,0.15836
650.75015,0.15538
649.26037,0.15244
647.77058,0.13136
646.28079,0.09215
644.79100,0.09233
643.30121,0.08396
641.81142,0.07562
640.32163,0.07689
638.83185,0.04894
637.34206,0.07551
635.85227,0.03953
634.36248,0.00359
632.87269,0.02815
631.38290,0.03054
629.89312,0.12783
628.40333,0.06417
626.91354,0.00054
625.42375,0.06421
623.93396,0.09460
622.44417,0.07859
620.95438,0.06262
619.46460,0.08805
617.97481,0.11049
616.48502,0.13195
614.99523,0.10449
613.50544,0.07707
612.01565,0.06632
610.52587,0.09901
609.03608,0.09337
607.54629,0.11653
606.05650,0.13972
604.56671,0.22299
603.07692,0.22151
601.58714,0.17868
600.09735,0.13589
598.60756,0.10018
597.11777,0.13718
595.62798,0.13788
594.13819,0.14415
592.64840,0.15046
591.15862,0.11592
589.66883,0.08646
588.17904,0.11052
586.68925,0.09474
585.19946,0.07900
583.70967,0.10921
582.21989,0.13743
580.73010,0.13338
579.24031,0.12937
577.75052,0.13951
576.26073,0.18198
574.77094,0.17604
573.28115,0.16912
571.79137,0.16223
570.30158,0.19271
568.81179,0.24240
567.32200,0.25680
565.83221,0.27123
564.34242,0.25541
562.85264,0.38092
561.36285,0.41360
559.87306,0.40897
558.38327,0.40438
556.89348,0.44119
555.40369,0.44978
553.91391,0.47152
552.42412,0.49328
550.93433,0.45049
549.44454,0.50865
547.95475,0.50225
546.46496,0.53272
544.97517,0.56322
543.48539,0.59021
541.99560,0.58797
540.50581,0.59586
539.01602,0.60377
537.52623,0.61777
536.03644,0.56317
534.54666,0.59943
533.05687,0.58223
531.56708,0.56507
530.07729,0.52876
528.58750,0.49550
527.09771,0.49205
525.60792,0.48864
524.11814,0.36868
522.62835,0.34463
521.13856,0.38722
519.64877,0.40512
518.15898,0.42305
516.66919,0.31738
515.17941,0.25008
513.68962,0.24842
512.19983,0.24679
510.71004,0.26841
509.22025,0.25473
507.73046,0.26026
506.24068,0.27187
504.75089,0.28352
503.26110,0.29116
501.77131,0.33011
500.28152,0.33377
498.79173,0.33747
497.30194,0.33413
495.81216,0.29246
494.32237,0.33611
492.83258,0.37980
491.34279,0.35034
489.85300,0.32898
488.36321,0.25618
486.87343,0.27475
485.38364,0.29336
483.89385,0.19239
482.40406,0.19541
480.91427,0.18030
479.42448,0.16521
477.93469,0.15217
476.44491,0.09375
474.95512,0.09490
473.46533,0.09609
471.97554,0.05391
470.48575,0.06121
468.99596,0.07863
467.50618,0.03957
466.01639,0.00054
464.52660,0.04105
463.03681,0.07050
461.54702,0.07423
460.05723,0.07800
458.56745,0.12772
457.07766,0.07958
455.58787,0.07839
454.09808,0.07723
452.60829,0.14423
451.11850,0.14364
449.62871,0.15923
448.13893,0.17485
446.64914,0.20060
445.15935,0.29399
443.66956,0.34099
442.17977,0.35926
440.68998,0.37755
439.20020,0.40850
437.71041,0.51113
436.22062,0.56434
434.73083,0.61757
433.24104,0.71828
431.75125,0.84324
430.26146,0.85065
428.77168,0.85809
427.28189,0.91955
425.79210,0.94875
424.30231,0.94821
422.81252,0.94769
421.32273,1.00827
419.83295,0.95584
418.34316,0.91202
416.85337,0.86823
415.36358,0.66249
413.87379,0.54457
412.38400,0.53721
410.89422,0.52988
409.40443,0.51601
407.91464,0.59201
406.42485,0.45407
404.93506,0.44534
403.44527,0.43665
401.95548,0.31293
400.46570,0.31640
398.97591,0.33202
397.48612,0.34768
395.99633,0.37345
394.50654,0.31448
393.01675,0.36958
391.52697,0.42472
390.03718,0.24674
388.54739,0.22725
387.05760,0.27894
385.56781,0.33067
384.07802,0.28402
382.58824,0.30300
381.09845,0.27761
379.60866,0.25225
378.11887,0.21077
376.62908,0.11280
375.13929,0.12134
373.64950,0.12991
372.15972,0.10369
370.66993,0.12999
369.18014,0.11292
367.69035,0.09587
366.20056,0.05565
364.71077,0.09014
363.22099,0.14485
361.73120,0.19958
360.24141,0.15343
358.75162,0.14363
357.26183,0.11923
355.77204,0.09487
354.28225,0.08012
352.79247,0.05833
351.30268,0.06030
349.81289,0.06229
348.32310,0.10722
346.83331,0.16428
345.34352,0.14265
343.85374,0.12105
342.36395,0.08636
340.87416,0.10822
339.38437,0.10639
337.89458,0.10460
336.40479,0.15279
334.91501,0.00723
333.42522,0.05039
331.93543,0.09359
330.44564,0.15296
328.95585,0.15685
327.46606,0.11940
325.97627,0.08197
324.48649,0.09706
322.99670,0.09703
321.50691,0.07484
320.01712,0.05267
318.52733,0.20413
317.03754,0.20928
315.54776,0.15239
314.05797,0.09552
312.56818,0.10177
311.07839,0.03236
309.58860,0.06743
308.09881,0.10253
306.60902,0.06651
305.11924,0.04566
303.62945,0.03847
302.13966,0.00054
300.64987,0.00607
299.16008,0.00054
