1778.52000,0.02054
1777.03021,0.01415
1775.54042,0.00000
1774.05063,0.01496
1772.56085,0.01505
1771.07106,0.02014
1769.58127,0.03093
1768.09148,0.04813
1766.60169,0.03629
1765.11190,0.02589
1763.62212,0.03184
1762.13233,0.03072
1760.64254,0.03460
1759.15275,0.06121
1757.66296,0.05096
1756.17317,0.03224
1754.68339,0.02843
1753.19360,0.04954
1751.70381,0.04089
1750.21402,0.03439
1748.72423,0.03857
1747.23444,0.04632
1745.74465,0.03920
1744.25487,0.05127
1742.76508,0.07401
1741.27529,0.03790
1739.78550,0.04509
1738.29571,0.05941
1736.80592,0.04467
1735.31614,0.03422
1733.82635,0.03444
1732.33656,0.06094
1730.84677,0.04136
1729.35698,0.04734
1727.86719,0.02782
1726.37740,0.02677
1724.88762,0.03072
1723.39783,0.02193
1721.90804,0.02098
1720.41825,0.02501
1718.92846,0.00000
1717.43867,0.03103
1715.94889,0.02378
1714.45910,0.07331
1712.96931,0.03350
1711.47952,0.03060
1709.98973,0.05681
1708.49994,0.06035
1707.01016,0.05151
1705.52037,0.04271
1704.03058,0.07542
1702.54079,0.05568
1701.05100,0.09129
1699.56121,0.08580
1698.07142,0.10941
1696.58164,0.13590
1695.09185,0.10567
1693.60206,0.13859
1692.11227,0.14956
1690.62248,0.14212
1689.13269,0.14818
1687.64291,0.16492
1686.15312,0.18523
1684.66333,0.16869
1683.17354,0.17700
1681.68375,0.15271
1680.19396,0.14619
1678.70417,0.16311
1677.21439,0.16090
1675.72460,0.14809
1674.23481,0.14168
1672.74502,0.14666
1671.25523,0.13748
1669.76544,0.18933
1668.27566,0.18873
1666.78587,0.15907
1665.29608,0.12448
1663.80629,0.15021
1662.31650,0.14972
1660.82671,0.15210
1659.33693,0.15097
1657.84714,0.16334
1656.35735,0.14099
1654.86756,0.14491
1653.37777,0.09424
1651.88798,0.12021
1650.39819,0.10082
1648.90841,0.11621
1647.41862,0.10609
1645.92883,0.09353
1644.43904,0.08099
1642.94925,0.15963
1641.45946,0.11701
1639.96968,0.10066
1638.47989,0.11342
1636.99010,0.11700
1635.50031,0.12557
1634.01052,0.10863
1632.52073,0.11229
1631.03094,0.11102
1629.54116,0.11971
1628.05137,0.11354
1626.56158,0.11023
1625.07179,0.13674
1623.58200,0.16896
1622.09221,0.13240
1620.60243,0.16184
1619.11264,0.14308
1617.62285,0.12293
1616.13306,0.11912
1614.64327,0.12670
1613.15348,0.11869
1611.66370,0.14051
1610.17391,0.13115
1608.68412,0.13033
1607.19433,0.13026
1605.70454,0.10467
1604.21475,0.11068
1602.72496,0.11672
1601.23518,0.12669
1599.74539,0.12180
1598.25560,0.07509
1596.76581,0.08444
1595.27602,0.08744
1593.78623,0.09189
1592.29645,0.07154
1590.80666,0.09166
1589.31687,0.06569
1587.82708,0.05537
1586.33729,0.09118
1584.84750,0.05254
1583.35771,0.06997
1581.86793,0.03564
1580.37814,0.05313
1578.88835,0.07490
1577.39856,0.04209
1575.90877,0.02846
1574.41898,0.04961
1572.92920,0.00909
1571.43941,0.01541
1569.94962,0.01147
1568.45983,0.00757
1566.97004,0.03029
1565.48025,0.00978
1563.99047,0.01270
1562.50068,0.01424
1561.01089,0.03353
1559.52110,0.02662
1558.03131,0.03392
1556.54152,0.04267
1555.05173,0.07272
1553.56195,0.08224
1552.07216,0.05420
1550.58237,0.03682
1549.09258,0.01948
1547.60279,0.02770
1546.11300,0.01822
1544.62322,0.03430
1543.13343,0.05751
1541.64364,0.04315
1540.15385,0.05436
1538.66406,0.06560
1537.17427,0.05417
1535.68448,0.01582
1534.19470,0.03424
1532.70491,0.01865
1531.21512,0.01514
1529.72533,0.01876
1528.23554,0.02453
1526.74575,0.05587
1525.25597,0.00000
1523.76618,0.01204
1522.27639,0.01560
1520.78660,0.03550
1519.29681,0.00579
1517.80702,0.00802
1516.31724,0.03865
1514.82745,0.02747
1513.33766,0.04397
1511.84787,0.06051
1510.35808,0.03665
1508.86829,0.04899
1507.37850,0.02448
1505.88872,0.00000
1504.39893,0.04335
1502.90914,0.04417
1501.41935,0.05212
1499.92956,0.04590
1498.43977,0.06526
1496.94999,0.10025
1495.46020,0.12250
1493.97041,0.19514
1492.48062,0.23944
1490.99083,0.24618
1489.50104,0.33168
1488.01125,0.34628
1486.52147,0.36091
1485.03168,0.42806
1483.54189,0.49098
1482.05210,0.52344
1480.56231,0.62472
1479.07252,0.68064
1477.58274,0.76426
1476.09295,0.80676
1474.60316,0.89469
1473.11337,0.94009
1471.62358,0.93729
1470.13379,0.99765
1468.64401,1.01051
1467.15422,0.88864
1465.66443,0.86220
1464.17464,0.83579
1462.68485,0.80550
1461.19506,0.77454
1459.70527,0.68758
1458.21549,0.70987
1456.72570,0.63715
1455.23591,0.58858
1453.74612,0.54571
1452.25633,0.48514
1450.76654,0.46361
1449.27676,0.43289
1447.78697,0.38163
1446.29718,0.36799
1444.80739,0.36041
1443.31760,0.35287
1441.82781,0.27903
1440.33802,0.25842
1438.84824,0.22295
1437.35845,0.15275
1435.86866,0.14358
1434.37887,0.17487
1432.88908,0.19484
1431.39929,0.14107
1429.90951,0.18097
1428.41972,0.15634
1426.92993,0.18495
1425.44014,0.19727
1423.95035,0.19437
1422.46056,0.19150
1420.97078,0.23228
1419.48099,0.23196
1417.99120,0.21109
1416.50141,0.21650
1415.01162,0.23187
1413.52183,0.27138
1412.03204,0.22723
1410.54226,0.21715
1409.05247,0.24612
1407.56268,0.22476
1406.07289,0.22754
1404.58310,0.24667
1403.09331,0.26582
1401.60353,0.25593
1400.11374,0.28011
1398.62395,0.28872
1397.13416,0.29948
1395.64437,0.30602
1394.15458,0.29770
1392.66479,0.37310
1391.17501,0.34852
1389.68522,0.35305
1388.19543,0.37322
1386.70564,0.37072
1385.21585,0.36825
1383.72606,0.35446
1382.23628,0.34354
1380.74649,0.36102
1379.25670,0.31470
1377.76691,0.37905
1376.27712,0.34414
1374.78733,0.42345
1373.29755,0.46023
1371.80776,0.51974
1370.31797,0.58425
1368.82818,0.68638
1367.33839,0.78854
1365.84860,0.82972
1364.35881,0.97025
1362.86903,1.07533
1361.37924,1.12513
1359.88945,1.10827
1358.39966,1.30353
1356.90987,1.31866
1355.42008,1.27211
1353.93030,1.17593
1352.44051,1.13795
1350.95072,1.10000
1349.46093,1.02094
1347.97114,0.96603
1346.48135,0.80901
1344.99156,0.70521
1343.50178,0.65394
1342.01199,0.61120
1340.52220,0.52239
1339.03241,0.49107
1337.54262,0.48814
1336.05283,0.44907
1334.56305,0.41004
1333.07326,0.43061
1331.58347,0.39589
1330.09368,0.31368
1328.60389,0.30171
1327.11410,0.30893
1325.62432,0.27362
1324.13453,0.29225
1322.64474,0.32793
1321.15495,0.26930
1319.66516,0.26107
1318.17537,0.25286
1316.68558,0.22128
1315.19580,0.26704
1313.70601,0.24474
1312.21622,0.27141
1310.72643,0.23640
1309.23664,0.21703
1307.74685,0.27145
1306.25707,0.21809
1304.76728,0.21867
1303.27749,0.21928
1301.78770,0.18162
1300.29791,0.21491
1298.80812,0.14042
1297.31834,0.21066
1295.82855,0.21426
1294.33876,0.23916
1292.84897,0.23360
1291.35918,0.21104
1289.86939,0.23604
1288.37960,0.26106
1286.88982,0.25420
1285.40003,0.27432
1283.91024,0.25404
1282.42045,0.28273
1280.93066,0.30507
1279.44087,0.29907
1277.95109,0.28459
1276.46130,0.26233
1274.97151,0.27699
1273.48172,0.29168
1271.99193,0.37378
1270.50214,0.38782
1269.01235,0.40543
1267.52257,0.41244
1266.03278,0.40032
1264.54299,0.43434
1263.05320,0.43789
1261.56341,0.43296
1260.07362,0.42806
1258.58384,0.48774
1257.09405,0.47084
1255.60426,0.46603
1254.11447,0.49387
1252.62468,0.40897
1251.13489,0.46525
1249.64511,0.44425
1248.15532,0.32965
1246.66553,0.31544
1245.17574,0.30127
1243.68595,0.26620
1242.19616,0.28790
1240.70637,0.30680
1239.21659,0.26047
1237.72680,0.20282
1236.23701,0.23813
1234.74722,0.19898
1233.25743,0.19711
1231.76764,0.19526
1230.27786,0.16968
1228.78807,0.16045
1227.29828,0.16685
1225.80849,0.14491
1224.31870,0.07264
1222.82891,0.11389
1221.33912,0.11474
1219.84934,0.12306
1218.35955,0.13142
1216.86976,0.13661
1215.37997,0.14893
1213.89018,0.13858
1212.40039,0.13110
1210.91061,0.10308
1209.42082,0.10771
1207.93103,0.10848
1206.44124,0.10927
1204.95145,0.10833
1203.46166,0.09464
1201.97188,0.07247
1200.48209,0.11063
1198.99230,0.08923
1197.50251,0.10262
1196.01272,0.06284
1194.52293,0.06423
1193.03314,0.06565
1191.54336,0.03235
1190.05357,0.06504
1188.56378,0.04527
1187.07399,0.00000
1185.58420,0.06165
1184.09441,0.01835
1182.60463,0.03502
1181.11484,0.05172
1179.62505,0.08583
1178.13526,0.08947
1176.64547,0.09243
1175.15568,0.10251
1173.66589,0.05304
1172.17611,0.08304
1170.68632,0.07194
1169.19653,0.06086
1167.70674,0.03634
1166.21695,0.05086
1164.72716,0.06966
1163.23738,0.06722
1161.74759,0.01231
1160.25780,0.00000
1158.76801,0.01445
1157.27822,0.02894
1155.78843,0.00161
1154.29865,0.05303
1152.80886,0.06477
1151.31907,0.07016
1149.82928,0.09472
1148.33949,0.10939
1146.84970,0.09784
1145.35991,0.08632
1143.87013,0.03937
1142.38034,0.06692
1140.89055,0.14983
1139.40076,0.14908
1137.91097,0.15260
1136.42118,0.16751
1134.93140,0.20089
1133.44161,0.23430
1131.95182,0.22944
1130.46203,0.20758
1128.97224,0.27725
1127.48245,0.27248
1125.99266,0.31526
1124.50288,0.31552
1123.01309,0.31474
1121.52330,0.31398
1120.03351,0.39873
1118.54372,0.40195
1117.05393,0.35483
1115.56415,0.32973
1114.07436,0.39190
1112.58457,0.39842
1111.09478,0.40498
1109.60499,0.45447
1108.11520,0.50542
1106.62542,0.50461
1105.13563,0.61875
1103.64584,0.65560
1102.15605,0.70595
1100.66626,0.70350
1099.17647,0.70107
1097.68668,0.75294
1096.19690,0.76369
1094.70711,0.75178
1093.21732,0.79523
1091.72753,0.87913
1090.23774,0.86838
1088.74795,0.85765
1087.25817,0.89483
1085.76838,0.93275
1084.27859,0.96787
1082.78880,0.99379
1081.29901,1.08784
1079.80922,1.03438
1078.31943,1.03025
1076.82965,1.02614
1075.33986,1.18911
1073.85007,1.16628
1072.36028,1.14914
1070.87049,1.17743
1069.38070,1.26037
1067.89092,1.26674
1066.40113,1.27313
1064.91134,1.18380
1063.42155,1.08670
1061.93176,1.03360
1060.44197,0.99543
1058.95219,0.95020
1057.46240,0.91492
1055.97261,0.87968
1054.48282,0.78347
1052.99303,0.71353
1051.50324,0.65852
1050.01345,0.61843
1048.52367,0.56631
1047.03388,0.53728
1045.54409,0.50828
1044.05430,0.56832
1042.56451,0.53122
1041.07472,0.38776
1039.58494,0.35568
1038.09515,0.30307
1036.60536,0.29446
1035.11557,0.28589
1033.62578,0.29082
1032.13599,0.30571
1030.64620,0.28871
1029.15642,0.36182
1027.66663,0.35446
1026.17684,0.34713
1024.68705,0.44303
1023.19726,0.52194
1021.70747,0.79452
1020.21769,0.89477
1018.72790,1.14400
1017.23811,1.24111
1015.74832,1.33826
1014.25853,1.56914
1012.76874,1.71352
1011.27896,1.80331
1009.78917,1.85341
1008.29938,2.00000
1006.80959,1.94022
1005.31980,1.88046
1003.83001,1.81294
1002.34022,1.73977
1000.85044,1.68791
999.36065,1.54813
997.87086,1.45625
996.38107,1.36441
994.89128,1.46943
993.40149,1.43545
991.91171,1.38022
990.42192,1.34844
988.93213,1.33157
987.44234,1.33957
985.95255,1.34759
984.46276,1.36699
982.97297,1.25166
981.48319,1.11791
979.99340,1.13882
978.50361,1.13033
977.01382,1.12186
975.52403,1.07832
974.03424,1.07382
972.54446,1.00692
971.05467,0.96844
969.56488,0.91437
968.07509,0.86495
966.58530,0.81556
965.09551,0.75165
963.60573,0.83035
962.11594,0.74452
960.62615,0.69276
959.13636,0.67012
957.64657,0.64751
956.15678,0.59513
954.66699,0.59457
953.17721,0.56425
951.68742,0.58218
950.19763,0.58703
948.70784,0.59191
947.21805,0.51702
945.72826,0.55635
944.23848,0.54394
942.74869,0.53440
941.25890,0.56177
939.76911,0.60371
938.27932,0.64568
936.78953,0.65328
935.29974,0.59424
933.80996,0.63949
932.32017,0.63087
930.83038,0.65916
929.34059,0.68748
927.85080,0.68817
926.36101,0.62859
924.87123,0.62934
923.38144,0.60600
921.89165,0.59511
920.40186,0.58425
918.91207,0.61987
917.42228,0.60304
915.93250,0.60467
914.44271,0.58506
912.95292,0.59563
911.46313,0.60623
909.97334,0.59735
908.48355,0.65020
906.99376,0.66266
905.50398,0.63401
904.01419,0.64192
902.52440,0.64986
901.03461,0.66599
899.54482,0.73889
898.05503,0.68982
896.56525,0.70036
895.07546,0.71235
893.58567,0.72437
892.09588,0.65557
890.60609,0.71517
889.11630,0.75069
887.62651,0.66282
886.13673,0.67783
884.64694,0.69287
883.15715,0.73915
881.66736,0.66275
880.17757,0.65234
878.68778,0.65296
877.19800,0.65361
875.70821,0.74189
874.21842,0.78906
872.72863,0.79086
871.23884,0.80688
869.74905,0.81478
868.25927,0.82270
866.76948,0.83030
865.27969,0.83580
863.78990,0.90730
862.30011,0.88591
860.81032,0.82518
859.32053,0.76448
857.83075,0.81482
856.34096,0.81199
854.85117,0.69783
853.36138,0.64825
851.87159,0.61075
850.38180,0.57329
848.89202,0.52238
847.40223,0.38283
845.91244,0.33553
844.42265,0.32904
842.93286,0.32258
841.44307,0.27608
839.95329,0.29557
838.46350,0.23778
836.97371,0.21193
835.48392,0.22477
833.99413,0.23765
832.50434,0.24523
831.01455,0.21596
829.52477,0.28531
828.03498,0.19581
826.54519,0.17727
825.05540,0.15876
823.56561,0.16795
822.07582,0.14382
820.58604,0.14810
819.09625,0.13574
817.60646,0.12341
816.11667,0.04267
814.62688,0.04990
813.13709,0.05930
811.64730,0.00205
810.15752,0.01469
808.66773,0.02737
807.17794,0.00000
805.68815,0.01371
804.19836,0.09059
802.70857,0.11500
801.21879,0.13944
799.72900,0.14760
798.23921,0.19977
796.74942,0.36404
795.25963,0.36945
793.76984,0.37489
792.28006,0.43782
790.79027,0.52418
789.30048,0.56234
787.81069,0.57216
786.32090,0.59336
784.83111,0.61459
783.34132,0.62592
781.85154,0.66282
780.36175,0.64016
778.87196,0.64697
777.38217,0.65381
775.89238,0.65606
774.40259,0.76120
772.91281,0.81104
771.42302,0.78289
769.93323,0.75477
768.44344,0.73661
766.95365,0.73905
765.46386,0.75713
763.97407,0.77027
762.48429,0.72066
760.99450,0.67109
759.50471,0.57863
758.01492,0.46635
756.52513,0.40587
755.03534,0.36493
753.54556,0.32402
752.05577,0.26292
750.56598,0.21959
749.07619,0.13940
747.58640,0.11670
746.09661,0.09403
744.60683,0.10330
743.11704,0.07927
741.62725,0.04463
740.13746,0.06251
738.64767,0.08042
737.15788,0.03310
735.66809,0.00000
734.17831,0.02078
732.68852,0.02635
731.19873,0.03194
729.70894,0.05282
728.21915,0.01840
726.72936,0.02160
725.23958,0.00781
723.74979,0.02490
722.26000,0.04203
720.77021,0.05103
719.28042,0.05225
717.79063,0.02797
716.30084,0.01862
714.81106,0.00929
713.32127,0.00000
711.83148,0.00607
710.34169,0.01005
708.85190,0.02398
707.36211,0.03795
705.87233,0.01435
704.38254,0.00000
702.89275,0.02365
701.40296,0.01718
699.91317,0.01075
698.42338,0.06286
696.93360,0.06748
695.44381,0.05085
693.95402,0.08178
692.46423,0.11273
690.97444,0.13095
689.48465,0.13146
687.99486,0.11285
686.50508,0.11307
685.01529,0.11332
683.52550,0.17780
682.03571,0.15434
680.54592,0.12454
679.05613,0.12881
677.56635,0.13311
676.07656,0.12397
674.58677,0.08081
673.09698,0.10790
671.60719,0.09601
670.11740,0.08415
668.62761,0.04962
667.13783,0.03214
665.64804,0.03775
664.15825,0.04339
662.66846,0.01465
661.17867,0.00510
659.68888,0.06084
658.19910,0.06092
656.70931,0.06103
655.21952,0.05231
653.72973,0.06419
652.23994,0.13142
650.75015,0.11357
649.26037,0.09575
647.77058,0.07086
646.28079,0.05877
644.79100,0.00629
643.30121,0.00667
641.81142,0.00709
640.32163,0.04264
638.83185,0.00517
637.34206,0.03250
635.85227,0.01623
634.36248,0.00000
632.87269,0.00316
631.38290,0.02124
629.89312,0.03580
628.40333,0.02699
626.91354,0.01821
625.42375,0.02009
623.93396,0.00286
622.44417,0.03353
620.95438,0.06424
619.46460,0.02794
617.97481,0.03424
616.48502,0.05829
614.99523,0.07529
613.50544,0.09231
612.01565,0.06539
610.52587,0.09737
609.03608,0.05419
607.54629,0.06992
606.05650,0.08568
604.56671,0.14686
603.07692,0.12650
601.58714,0.09908
600.09735,0.07169
598.60756,0.06135
597.11777,0.02125
595.62798,0.05779
594.13819,0.05428
592.64840,0.05080
591.15862,0.06332
589.66883,0.05174
588.17904,0.05651
586.68925,0.03648
585.19946,0.01649
583.70967,0.03766
582.21989,0.07163
580.73010,0.08542
579.24031,0.09924
577.75052,0.07230
576.26073,0.10071
574.77094,0.11569
573.28115,0.15445
571.79137,0.19324
570.30158,0.19412
568.81179,0.21417
567.32200,0.20553
565.83221,0.19692
564.34242,0.22275
562.85264,0.31031
561.36285,0.36598
559.87306,0.37558
558.38327,0.38521
556.89348,0.44948
555.40369,0.46343
553.91391,0.45577
552.42412,0.44814
550.93433,0.51892
549.44454,0.55710
547.95475,0.56126
546.46496,0.56936
544.97517,0.57749
543.48539,0.60089
541.99560,0.58957
540.50581,0.60914
539.01602,0.62874
537.52623,0.59907
536.03644,0.54673
534.54666,0.55258
533.05687,0.57798
531.56708,0.60340
530.07729,0.54196
528.58750,0.47913
527.09771,0.46741
525.60792,0.45571
524.11814,0.42418
522.62835,0.40758
521.13856,0.37895
519.64877,0.33617
518.15898,0.29341
516.66919,0.31452
515.17941,0.32857
513.68962,0.28272
512.19983,0.23689
510.71004,0.29430
509.22025,0.24534
507.73046,0.32196
506.24068,0.31917
504.75089,0.31641
503.26110,0.32431
501.77131,0.26841
500.28152,0.26751
498.79173,0.26665
497.30194,0.24346
495.81216,0.26500
494.32237,0.27592
492.83258,0.28688
491.34279,0.19360
489.85300,0.27413
488.36321,0.22843
486.87343,0.21220
485.38364,0.19599
483.89385,0.15322
482.40406,0.13886
480.91427,0.12487
479.42448,0.11092
477.93469,0.04415
476.44491,0.08098
474.95512,0.06818
473.46533,0.05541
471.97554,0.04196
470.48575,0.04131
468.99596,0.07474
467.50618,0.06209
466.01639,0.04947
464.52660,0.00000
463.03681,0.01563
461.54702,0.05470
460.05723,0.09380
458.56745,0.06696
457.07766,0.05008
455.58787,0.08289
454.09808,0.11572
452.60829,0.09965
451.11850,0.13041
449.62871,0.16866
448.13893,0.20693
446.64914,0.24276
445.15935,0.32826
443.66956,0.38188
442.17977,0.38623
440.68998,0.39060
439.20020,0.48332
437.71041,0.59451
436.22062,0.63799
434.73083,0.68151
433.24104,0.78782
431.75125,0.95588
430.26146,0.96437
428.77168,0.97289
427.28189,1.08145
425.79210,1.14536
424.30231,1.13837
422.81252,1.13141
421.32273,0.96843
419.83295,0.94592
418.34316,0.91848
416.85337,0.89107
415.36358,0.80127
413.87379,0.69873
412.38400,0.68028
410.89422,0.66186
409.40443,0.59062
407.91464,0.55984
406.42485,0.50640
404.93506,0.47958
403.44527,0.45280
401.95548,0.47250
400.46570,0.44542
398.97591,0.44497
397.48612,0.44455
395.99633,0.47573
394.50654,0.53814
393.01675,0.48568
391.52697,0.43324
390.03718,0.35389
388.54739,0.32563
387.05760,0.34599
385.56781,0.36638
384.07802,0.41766
382.58824,0.39165
381.09845,0.32453
379.60866,0.25745
378.11887,0.26132
376.62908,0.18862
375.13929,0.15921
373.64950,0.12984
372.15972,0.22604
370.66993,0.14708
369.18014,0.14191
367.69035,0.13678
366.20056,0.08698
364.71077,0.08829
363.22099,0.13822
361.73120,0.18817
360.24141,0.13708
358.75162,0.03992
357.26183,0.09493
355.77204,0.14997
354.28225,0.05999
352.79247,0.02678
351.30268,0.01594
349.81289,0.00514
348.32310,0.07204
346.83331,0.08576
345.34352,0.04526
343.85374,0.00479
342.36395,0.09895
340.87416,0.09454
339.38437,0.08272
337.89458,0.07093
336.40479,0.00917
334.91501,0.03042
333.42522,0.03184
331.93543,0.03329
330.44564,0.06599
328.95585,0.03842
327.46606,0.04244
325.97627,0.04650
324.48649,0.02115
322.99670,0.03672
321.50691,0.04026
320.01712,0.04383
318.52733,0.13041
317.03754,0.14327
315.54776,0.11465
314.05797,0.08607
312.56818,0.02525
311.07839,0.04531
309.58860,0.03739
308.09881,0.02950
306.60902,0.00000
305.11924,0.00924
303.62945,0.03164
302.13966,0.03123
300.64987,0.00000
299.16008,0.00000
