1778.52000,0.01671
1777.03021,0.02988
1775.54042,0.00016
1774.05063,0.00862
1772.56085,0.00459
1771.07106,0.00000
1769.58127,0.01094
1768.09148,0.02667
1766.60169,0.01800
1765.11190,0.01949
1763.62212,0.01564
1762.13233,0.03746
1760.64254,0.01758
1759.15275,0.00727
1757.66296,0.05302
1756.17317,0.02668
1754.68339,0.00692
1753.19360,0.02132
1751.70381,0.04827
1750.21402,0.05975
1748.72423,0.03431
1747.23444,0.01187
1745.74465,0.04133
1744.25487,0.04816
1742.76508,0.04430
1741.27529,0.03808
1739.78550,0.03844
1738.29571,0.02275
1736.80592,0.04225
1735.31614,0.03019
1733.82635,0.00445
1732.33656,0.01617
1730.84677,0.02792
1729.35698,0.04686
1727.86719,0.05628
1726.37740,0.04190
1724.88762,0.00727
1723.39783,0.01410
1721.90804,0.03467
1720.41825,0.02249
1718.92846,0.01510
1717.43867,0.02265
1715.94889,0.03619
1714.45910,0.04737
1712.96931,0.05262
1711.47952,0.03585
1709.98973,0.03640
1708.49994,0.04055
1707.01016,0.03877
1705.52037,0.03702
1704.03058,0.08120
1702.54079,0.09263
1701.05100,0.08739
1699.56121,0.08100
1698.07142,0.09967
1696.58164,0.12314
1695.09185,0.14485
1693.60206,0.16122
1692.11227,0.17525
1690.62248,0.16486
1689.13269,0.18967
1687.64291,0.17517
1686.15312,0.18038
1684.66333,0.19038
1683.17354,0.19683
1681.68375,0.19497
1680.19396,0.16572
1678.70417,0.19194
1677.21439,0.19911
1675.72460,0.17472
1674.23481,0.17301
1672.74502,0.18266
1671.25523,0.18757
1669.76544,0.21159
1668.27566,0.19748
1666.78587,0.16016
1665.29608,0.16280
1663.80629,0.16131
1662.31650,0.13302
1660.82671,0.16019
1659.33693,0.17250
1657.84714,0.12999
1656.35735,0.11673
1654.86756,0.14164
1653.37777,0.14810
1651.88798,0.15520
1650.39819,0.13013
1648.90841,0.18974
1647.41862,0.14148
1645.92883,0.13141
1644.43904,0.12136
1642.94925,0.14473
1641.45946,0.14846
1639.96968,0.12658
1638.47989,0.12799
1636.99010,0.11273
1635.50031,0.12134
1634.01052,0.11986
1632.52073,0.12973
1631.03094,0.09254
1629.54116,0.10545
1628.05137,0.14640
1626.56158,0.14507
1625.07179,0.11813
1623.58200,0.15977
1622.09221,0.17224
1620.60243,0.15731
1619.11264,0.17938
1617.62285,0.17405
1616.13306,0.15803
1614.64327,0.17780
1613.15348,0.15766
1611.66370,0.14470
1610.17391,0.14013
1608.68412,0.10697
1607.19433,0.16206
1605.70454,0.14565
1604.21475,0.14238
1602.72496,0.13915
1601.23518,0.12879
1599.74539,0.13098
1598.25560,0.11949
1596.76581,0.10565
1595.27602,0.10018
1593.78623,0.11322
1592.29645,0.12510
1590.80666,0.06846
1589.31687,0.10186
1587.82708,0.08819
1586.33729,0.11092
1584.84750,0.08004
1583.35771,0.07362
1581.86793,0.03802
1580.37814,0.06505
1578.88835,0.09508
1577.39856,0.08402
1575.90877,0.05629
1574.41898,0.05125
1572.92920,0.03670
1571.43941,0.00727
1569.94962,0.02027
1568.45983,0.03330
1566.97004,0.04606
1565.48025,0.04455
1563.99047,0.04485
1562.50068,0.01657
1561.01089,0.04078
1559.52110,0.03044
1558.03131,0.05948
1556.54152,0.08795
1555.05173,0.05387
1553.56195,0.09670
1552.07216,0.06983
1550.58237,0.05312
1549.09258,0.05969
1547.60279,0.00727
1546.11300,0.06512
1544.62322,0.05444
1543.13343,0.04499
1541.64364,0.01530
1540.15385,0.01902
1538.66406,0.02278
1537.17427,0.03550
1535.68448,0.02203
1534.19470,0.01395
1532.70491,0.04226
1531.21512,0.01279
1529.72533,0.02924
1528.23554,0.01115
1526.74575,0.03243
1525.25597,0.06685
1523.76618,0.06733
1522.27639,0.01777
1520.78660,0.00400
1519.29681,0.02921
1517.80702,0.02524
1516.31724,0.03918
1514.82745,0.03587
1513.33766,0.02155
1511.84787,0.00727
1510.35808,0.03926
1508.86829,0.01107
1507.37850,0.03239
1505.88872,0.01260
1504.39893,0.02981
1502.90914,0.03393
1501.41935,0.02020
1499.92956,0.02378
1498.43977,0.05601
1496.94999,0.08350
1495.46020,0.12830
1493.97041,0.17314
1492.48062,0.19834
1490.99083,0.27185
1489.50104,0.27028
1488.01125,0.32269
1486.52147,0.37513
1485.03168,0.42789
1483.54189,0.50334
1482.05210,0.54186
1480.56231,0.64896
1479.07252,0.72093
1477.58274,0.83882
1476.09295,0.85719
1474.60316,0.93402
1473.11337,0.98405
1471.62358,1.06510
1470.13379,1.02101
1468.64401,1.02225
1467.15422,0.91980
1465.66443,0.90948
1464.17464,0.89919
1462.68485,0.84512
1461.19506,0.83101
1459.70527,0.78236
1458.21549,0.74984
1456.72570,0.71079
1455.23591,0.63839
1453.74612,0.57794
1452.25633,0.52467
1450.76654,0.49945
1449.27676,0.43790
1447.78697,0.45089
1446.29718,0.45080
1444.80739,0.41736
1443.31760,0.38394
1441.82781,0.29751
1440.33802,0.25820
1438.84824,0.20938
1437.35845,0.17727
1435.86866,0.18634
1434.37887,0.19602
1432.88908,0.19561
1431.39929,0.18091
1429.90951,0.17221
1428.41972,0.17725
1426.92993,0.19186
1425.44014,0.17609
1423.95035,0.19344
1422.46056,0.21082
1420.97078,0.19992
1419.48099,0.24806
1417.99120,0.25689
1416.50141,0.28720
1415.01162,0.27046
1413.52183,0.27461
1412.03204,0.24004
1410.54226,0.23293
1409.05247,0.25803
1407.56268,0.25873
1406.07289,0.25051
1404.58310,0.24560
1403.09331,0.24073
1401.60353,0.27552
1400.11374,0.36697
1398.62395,0.37202
1397.13416,0.38604
1395.64437,0.39234
1394.15458,0.45172
1392.66479,0.41636
1391.17501,0.41202
1389.68522,0.48163
1388.19543,0.48629
1386.70564,0.46953
1385.21585,0.45280
1383.72606,0.44742
1382.23628,0.48022
1380.74649,0.45940
1379.25670,0.47617
1377.76691,0.43277
1376.27712,0.45615
1374.78733,0.53381
1373.29755,0.64786
1371.80776,0.69459
1370.31797,0.87546
1368.82818,0.95473
1367.33839,1.03403
1365.84860,1.19234
1364.35881,1.32625
1362.86903,1.48462
1361.37924,1.53513
1359.88945,1.52666
1358.39966,1.61538
1356.90987,1.64870
1355.42008,1.69337
1353.93030,1.60813
1352.44051,1.50086
1350.95072,1.39362
1349.46093,1.21012
1347.97114,1.18401
1346.48135,0.99043
1344.99156,0.91788
1343.50178,0.83762
1342.01199,0.74427
1340.52220,0.62533
1339.03241,0.61132
1337.54262,0.58721
1336.05283,0.57237
1334.56305,0.55756
1333.07326,0.48526
1331.58347,0.46544
1330.09368,0.40274
1328.60389,0.32576
1327.11410,0.30603
1325.62432,0.31197
1324.13453,0.30542
1322.64474,0.30724
1321.15495,0.31327
1319.66516,0.29698
1318.17537,0.28071
1316.68558,0.23795
1315.19580,0.25721
1313.70601,0.20915
1312.21622,0.24039
1310.72643,0.23054
1309.23664,0.23800
1307.74685,0.23059
1306.25707,0.23930
1304.76728,0.23106
1303.27749,0.22285
1301.78770,0.25609
1300.29791,0.24466
1298.80812,0.22611
1297.31834,0.21653
1295.82855,0.21651
1294.33876,0.26064
1292.84897,0.21955
1291.35918,0.24645
1289.86939,0.24745
1288.37960,0.24849
1286.88982,0.24329
1285.40003,0.28044
1283.91024,0.30034
1282.42045,0.31848
1280.93066,0.27585
1279.44087,0.29346
1277.95109,0.30990
1276.46130,0.32578
1274.97151,0.31814
1273.48172,0.31053
1271.99193,0.31458
1270.50214,0.39078
1269.01235,0.40562
1267.52257,0.43420
1266.03278,0.37041
1264.54299,0.42051
1263.05320,0.47957
1261.56341,0.48890
1260.07362,0.49826
1258.58384,0.44058
1257.09405,0.47235
1255.60426,0.48806
1254.11447,0.48591
1252.62468,0.50525
1251.13489,0.45190
1249.64511,0.44448
1248.15532,0.38106
1246.66553,0.37549
1245.17574,0.36995
1243.68595,0.36741
1242.19616,0.32557
1240.70637,0.33800
1239.21659,0.29801
1237.72680,0.23361
1236.23701,0.25626
1234.74722,0.22292
1233.25743,0.19527
1231.76764,0.16764
1230.27786,0.18029
1228.78807,0.19058
1227.29828,0.19792
1225.80849,0.16416
1224.31870,0.09466
1222.82891,0.10090
1221.33912,0.07617
1219.84934,0.08932
1218.35955,0.10251
1216.86976,0.12019
1215.37997,0.17010
1213.89018,0.16579
1212.40039,0.10786
1210.91061,0.09705
1209.42082,0.08330
1207.93103,0.09044
1206.44124,0.09760
1204.95145,0.08692
1203.46166,0.06792
1201.97188,0.06922
1200.48209,0.12896
1198.99230,0.09873
1197.50251,0.08700
1196.01272,0.08127
1194.52293,0.07228
1193.03314,0.06333
1191.54336,0.04577
1190.05357,0.03538
1188.56378,0.04530
1187.07399,0.01769
1185.58420,0.05270
1184.09441,0.00727
1182.60463,0.03379
1181.11484,0.06035
1179.62505,0.08753
1178.13526,0.09864
1176.64547,0.11038
1175.15568,0.06314
1173.66589,0.10594
1172.17611,0.09810
1170.68632,0.08314
1169.19653,0.06821
1167.70674,0.04854
1166.21695,0.04917
1164.72716,0.09155
1163.23738,0.11727
1161.74759,0.06136
1160.25780,0.00727
1158.76801,0.02280
1157.27822,0.03835
1155.78843,0.05334
1154.29865,0.06239
1152.80886,0.09652
1151.31907,0.06927
1149.82928,0.08081
1148.33949,0.12575
1146.84970,0.10456
1145.35991,0.08340
1143.87013,0.03127
1142.38034,0.11747
1140.89055,0.13156
1139.40076,0.12841
1137.91097,0.17833
1136.42118,0.26941
1134.93140,0.26277
1133.44161,0.25616
1131.95182,0.28713
1130.46203,0.28713
1128.97224,0.30028
1127.48245,0.27770
1125.99266,0.34157
1124.50288,0.37329
1123.01309,0.37792
1121.52330,0.38257
1120.03351,0.40187
1118.54372,0.41761
1117.05393,0.41491
1115.56415,0.38183
1114.07436,0.41019
1112.58457,0.42635
1111.09478,0.44255
1109.60499,0.46265
1108.11520,0.51914
1106.62542,0.49638
1105.13563,0.52015
1103.64584,0.59759
1102.15605,0.71143
1100.66626,0.72396
1099.17647,0.73652
1097.68668,0.69248
1096.19690,0.73253
1094.70711,0.76664
1093.21732,0.79125
1091.72753,0.83436
1090.23774,0.83667
1088.74795,0.83901
1087.25817,0.93110
1085.76838,0.90757
1084.27859,0.92342
1082.78880,1.02811
1081.29901,1.01421
1079.80922,0.97888
1078.31943,0.99366
1076.82965,1.00846
1075.33986,1.13954
1073.85007,1.05545
1072.36028,1.20029
1070.87049,1.19197
1069.38070,1.25283
1067.89092,1.27556
1066.40113,1.29833
1064.91134,1.19893
1063.42155,1.05306
1061.93176,1.03479
1060.44197,0.99926
1058.95219,0.96674
1057.46240,0.88537
1055.97261,0.80404
1054.48282,0.75373
1052.99303,0.71120
1051.50324,0.65558
1050.01345,0.57258
1048.52367,0.55875
1047.03388,0.54734
1045.54409,0.53595
1044.05430,0.58063
1042.56451,0.50076
1041.07472,0.42450
1039.58494,0.37091
1038.09515,0.30842
1036.60536,0.28887
1035.11557,0.26936
1033.62578,0.29934
1032.13599,0.28764
1030.64620,0.31352
1029.15642,0.37578
1027.66663,0.35731
1026.17684,0.33887
1024.68705,0.39289
1023.19726,0.50117
1021.70747,0.74182
1020.21769,0.94674
1018.72790,1.15526
1017.23811,1.24400
1015.74832,1.33277
1014.25853,1.56224
1012.76874,1.66418
1011.27896,1.74470
1009.78917,1.89677
1008.29938,2.00000
1006.80959,1.98404
1005.31980,1.96811
1003.83001,1.81451
1002.34022,1.71698
1000.85044,1.60517
999.36065,1.45048
997.87086,1.40400
996.38107,1.35755
994.89128,1.40204
993.40149,1.36787
991.91171,1.28367
990.42192,1.32526
988.93213,1.24171
987.44234,1.23330
985.95255,1.22492
984.46276,1.21060
982.97297,1.11883
981.48319,1.05689
979.99340,1.02299
978.50361,1.01804
977.01382,1.01312
975.52403,0.97157
974.03424,0.92706
972.54446,0.80868
971.05467,0.78212
969.56488,0.72877
968.07509,0.69482
966.58530,0.66090
965.09551,0.61777
963.60573,0.65812
962.11594,0.63413
960.62615,0.55831
959.13636,0.52812
957.64657,0.49796
956.15678,0.46216
954.66699,0.44547
953.17721,0.48366
951.68742,0.47299
950.19763,0.47934
948.70784,0.48572
947.21805,0.45130
945.72826,0.44195
944.23848,0.49164
942.74869,0.53003
941.25890,0.49752
939.76911,0.52167
938.27932,0.54585
936.78953,0.63205
935.29974,0.63125
933.80996,0.62154
932.32017,0.60591
930.83038,0.63560
929.34059,0.66533
927.85080,0.67720
926.36101,0.63367
924.87123,0.54426
923.38144,0.56159
921.89165,0.54766
920.40186,0.53375
918.91207,0.53031
917.42228,0.50067
915.93250,0.56404
914.44271,0.56546
912.95292,0.56780
911.46313,0.57017
909.97334,0.54366
908.48355,0.59765
906.99376,0.59088
905.50398,0.53763
904.01419,0.51899
902.52440,0.50039
901.03461,0.57539
899.54482,0.58009
898.05503,0.58542
896.56525,0.52759
895.07546,0.57082
893.58567,0.61409
892.09588,0.61000
890.60609,0.61727
889.11630,0.60489
887.62651,0.66050
886.13673,0.66994
884.64694,0.67941
883.15715,0.65941
881.66736,0.59831
880.17757,0.64453
878.68778,0.66336
877.19800,0.68223
875.70821,0.73033
874.21842,0.78084
872.72863,0.81112
871.23884,0.92429
869.74905,0.90247
868.25927,0.88068
866.76948,0.93493
865.27969,0.89800
863.78990,0.93502
862.30011,0.95240
860.81032,0.94447
859.32053,0.93658
857.83075,0.89563
856.34096,0.88511
854.85117,0.82992
853.36138,0.71932
851.87159,0.68088
850.38180,0.64247
848.89202,0.56951
847.40223,0.52043
845.91244,0.43979
844.42265,0.40686
842.93286,0.37397
841.44307,0.37091
839.95329,0.32615
838.46350,0.29454
836.97371,0.25997
835.48392,0.28475
833.99413,0.30956
832.50434,0.30728
831.01455,0.31456
829.52477,0.34155
828.03498,0.31074
826.54519,0.29398
825.05540,0.27724
823.56561,0.25368
822.07582,0.23611
820.58604,0.22632
819.09625,0.20792
817.60646,0.18954
816.11667,0.09401
814.62688,0.08732
813.13709,0.06516
811.64730,0.00727
810.15752,0.03421
808.66773,0.06118
807.17794,0.07506
805.68815,0.11163
804.19836,0.13333
802.70857,0.16220
801.21879,0.19111
799.72900,0.16462
798.23921,0.26035
796.74942,0.37995
795.25963,0.36547
793.76984,0.35101
792.28006,0.38964
790.79027,0.50281
789.30048,0.47354
787.81069,0.47709
786.32090,0.50153
784.83111,0.52601
783.34132,0.61906
781.85154,0.61856
780.36175,0.60080
778.87196,0.57950
777.38217,0.55822
775.89238,0.70150
774.40259,0.70532
772.91281,0.74792
771.42302,0.74167
769.93323,0.73545
768.44344,0.75310
766.95365,0.74992
765.46386,0.73306
763.97407,0.73054
762.48429,0.66307
760.99450,0.59564
759.50471,0.52465
758.01492,0.46443
756.52513,0.39828
755.03534,0.35093
753.54556,0.30362
752.05577,0.23994
750.56598,0.21325
749.07619,0.14666
747.58640,0.13970
746.09661,0.13277
744.60683,0.02931
743.11704,0.02542
741.62725,0.07223
740.13746,0.05797
738.64767,0.04374
737.15788,0.04653
735.66809,0.02551
734.17831,0.00929
732.68852,0.02731
731.19873,0.04537
729.70894,0.06435
728.21915,0.03030
726.72936,0.06067
725.23958,0.01179
723.74979,0.02910
722.26000,0.04644
720.77021,0.07216
719.28042,0.07406
717.79063,0.07540
716.30084,0.07498
714.81106,0.07459
713.32127,0.00926
711.83148,0.00991
710.34169,0.03086
708.85190,0.01905
707.36211,0.00727
705.87233,0.04309
704.38254,0.01455
702.89275,0.01326
701.40296,0.04002
699.91317,0.06680
698.42338,0.10077
696.93360,0.09304
695.44381,0.12827
693.95402,0.11971
692.46423,0.11118
690.97444,0.11967
689.48465,0.16931
687.99486,0.23330
686.50508,0.21655
685.01529,0.19982
683.52550,0.24602
682.03571,0.19925
680.54592,0.19901
679.05613,0.20297
677.56635,0.20697
676.07656,0.13409
674.58677,0.12980
673.09698,0.07487
671.60719,0.10104
670.11740,0.12724
668.62761,0.07896
667.13783,0.11237
665.64804,0.09068
664.15825,0.06901
662.66846,0.08106
661.17867,0.06810
659.68888,0.09034
658.19910,0.10307
656.70931,0.11583
655.21952,0.13637
653.72973,0.10807
652.23994,0.11377
650.75015,0.13231
649.26037,0.15089
647.77058,0.12687
646.28079,0.03971
644.79100,0.04735
643.30121,0.03445
641.81142,0.02159
640.32163,0.05912
638.83185,0.00727
637.34206,0.03230
635.85227,0.02785
634.36248,0.02343
632.87269,0.03484
631.38290,0.05700
629.89312,0.06788
628.40333,0.04510
626.91354,0.02235
625.42375,0.07087
623.93396,0.07531
622.44417,0.07202
620.95438,0.06877
619.46460,0.04945
617.97481,0.11362
616.48502,0.13847
614.99523,0.10375
613.50544,0.06906
612.01565,0.09162
610.52587,0.11719
609.03608,0.08795
607.54629,0.09540
606.05650,0.10288
604.56671,0.14109
603.07692,0.16861
601.58714,0.15353
600.09735,0.13848
598.60756,0.09396
597.11777,0.08880
595.62798,0.14031
594.13819,0.12151
592.64840,0.10274
591.15862,0.08996
589.66883,0.09390
588.17904,0.11039
586.68925,0.08548
585.19946,0.06060
583.70967,0.10519
582.21989,0.09140
580.73010,0.10029
579.24031,0.10921
577.75052,0.13366
576.26073,0.14265
574.77094,0.14450
573.28115,0.14520
571.79137,0.14593
570.30158,0.24981
568.81179,0.29828
567.32200,0.29046
565.83221,0.28266
564.34242,0.35388
562.85264,0.33929
561.36285,0.35275
559.87306,0.38740
558.38327,0.42208
556.89348,0.44874
555.40369,0.47483
553.91391,0.50066
552.42412,0.52652
550.93433,0.52112
549.44454,0.52707
547.95475,0.57537
546.46496,0.55664
544.97517,0.53795
543.48539,0.60482
541.99560,0.65026
540.50581,0.63225
539.01602,0.61427
537.52623,0.61272
536.03644,0.58854
534.54666,0.50478
533.05687,0.52657
531.56708,0.54838
530.07729,0.50703
528.58750,0.53368
527.09771,0.53054
525.60792,0.52744
524.11814,0.49456
522.62835,0.42893
521.13856,0.39671
519.64877,0.34754
518.15898,0.29839
516.66919,0.31693
515.17941,0.30927
513.68962,0.32369
512.19983,0.33815
510.71004,0.36337
509.22025,0.32364
507.73046,0.36263
506.24068,0.36499
504.75089,0.36737
503.26110,0.42135
501.77131,0.42172
500.28152,0.41436
498.79173,0.40704
497.30194,0.31152
495.81216,0.39545
494.32237,0.36587
492.83258,0.33631
491.34279,0.38934
489.85300,0.40783
488.36321,0.33812
486.87343,0.30720
485.38364,0.27630
483.89385,0.21384
482.40406,0.21340
480.91427,0.17813
479.42448,0.14288
477.93469,0.13956
476.44491,0.15236
474.95512,0.14492
473.46533,0.13751
471.97554,0.11464
470.48575,0.09298
468.99596,0.11905
467.50618,0.09537
466.01639,0.07172
464.52660,0.00727
463.03681,0.05993
461.54702,0.08461
460.05723,0.10931
458.56745,0.07920
457.07766,0.08012
455.58787,0.10909
454.09808,0.13809
452.60829,0.13076
451.11850,0.13239
449.62871,0.15850
448.13893,0.18464
446.64914,0.23227
445.15935,0.34907
443.66956,0.43431
442.17977,0.45223
440.68998,0.47017
439.20020,0.50186
437.71041,0.58007
436.22062,0.61837
434.73083,0.65670
433.24104,0.77911
431.75125,0.82824
430.26146,0.90600
428.77168,0.98379
427.28189,1.07354
425.79210,1.11385
424.30231,1.09189
422.81252,1.06996
421.32273,1.01736
419.83295,0.94692
418.34316,0.92419
416.85337,0.90148
415.36358,0.66720
413.87379,0.62489
412.38400,0.59275
410.89422,0.56063
409.40443,0.58398
407.91464,0.55252
406.42485,0.51692
404.93506,0.46376
403.44527,0.41063
401.95548,0.37929
400.46570,0.37421
398.97591,0.35426
397.48612,0.33434
395.99633,0.34485
394.50654,0.44182
393.01675,0.44642
391.52697,0.45106
390.03718,0.29538
388.54739,0.25299
387.05760,0.24282
385.56781,0.23268
384.07802,0.30542
382.58824,0.30368
381.09845,0.26055
379.60866,0.21744
378.11887,0.18122
376.62908,0.17663
375.13929,0.15150
373.64950,0.12639
372.15972,0.09089
370.66993,0.11920
369.18014,0.08525
367.69035,0.05133
366.20056,0.07079
364.71077,0.09207
363.22099,0.11963
361.73120,0.14723
360.24141,0.11435
358.75162,0.08568
357.26183,0.07671
355.77204,0.06777
354.28225,0.02965
352.79247,0.01898
351.30268,0.01311
349.81289,0.00727
348.32310,0.04607
346.83331,0.05808
345.34352,0.04091
343.85374,0.02376
342.36395,0.07396
340.87416,0.07412
339.38437,0.06059
337.89458,0.04710
336.40479,0.02112
334.91501,0.07206
333.42522,0.07773
331.93543,0.08343
330.44564,0.12553
328.95585,0.11162
327.46606,0.08999
325.97627,0.06839
324.48649,0.04087
322.99670,0.04584
321.50691,0.05174
320.01712,0.05768
318.52733,0.10089
317.03754,0.13222
315.54776,0.13467
314.05797,0.13714
312.56818,0.17989
311.07839,0.03489
309.58860,0.02107
308.09881,0.00727
306.60902,0.01742
305.11924,0.04130
303.62945,0.04107
302.13966,0.02252
300.64987,0.00727
299.16008,0.00727
