1778.52000,0.07659
1777.03021,0.06355
1775.54042,0.09160
1774.05063,0.05399
1772.56085,0.00000
1771.07106,0.05936
1769.58127,0.05635
1768.09148,0.05009
1766.60169,0.02908
1765.11190,0.05902
1763.62212,0.02659
1762.13233,0.08780
1760.64254,0.03902
1759.15275,0.03461
1757.66296,0.04008
1756.17317,0.06366
1754.68339,0.06757
1753.19360,0.05509
1751.70381,0.05578
1750.21402,0.06636
1748.72423,0.05891
1747.23444,0.03015
1745.74465,0.08846
1744.25487,0.04662
1742.76508,0.04096
1741.27529,0.08788
1739.78550,0.12005
1738.29571,0.09643
1736.80592,0.11060
1735.31614,0.00000
1733.82635,0.08580
1732.33656,0.07146
1730.84677,0.11463
1729.35698,0.04780
1727.86719,0.10911
1726.37740,0.06041
1724.88762,0.06595
1723.39783,0.06988
1721.90804,0.08698
1720.41825,0.08277
1718.92846,0.04410
1717.43867,0.08923
1715.94889,0.10155
1714.45910,0.05313
1712.96931,0.10658
1711.47952,0.05330
1709.98973,0.07890
1708.49994,0.13080
1707.01016,0.11459
1705.52037,0.09841
1704.03058,0.11100
1702.54079,0.14006
1701.05100,0.20363
1699.56121,0.15557
1698.07142,0.19951
1696.58164,0.18436
1695.09185,0.21030
1693.60206,0.28226
1692.11227,0.26393
1690.62248,0.25385
1689.13269,0.31771
1687.64291,0.30605
1686.15312,0.29279
1684.66333,0.27463
1683.17354,0.30906
1681.68375,0.34682
1680.19396,0.38461
1678.70417,0.31732
1677.21439,0.38638
1675.72460,0.29617
1674.23481,0.37516
1672.74502,0.35892
1671.25523,0.28196
1669.76544,0.36762
1668.27566,0.27594
1666.78587,0.29269
1665.29608,0.28485
1663.80629,0.27867
1662.31650,0.27418
1660.82671,0.25166
1659.33693,0.24887
1657.84714,0.27569
1656.35735,0.26641
1654.86756,0.28180
1653.37777,0.21182
1651.88798,0.19936
1650.39819,0.11138
1648.90841,0.25666
1647.41862,0.17368
1645.92883,0.18024
1644.43904,0.18684
1642.94925,0.16638
1641.45946,0.16073
1639.96968,0.25037
1638.47989,0.26451
1636.99010,0.14728
1635.50031,0.18119
1634.01052,0.17079
1632.52073,0.21462
1631.03094,0.17637
1629.54116,0.21699
1628.05137,0.17717
1626.56158,0.26712
1625.07179,0.27007
1623.58200,0.27305
1622.09221,0.25800
1620.60243,0.23314
1619.11264,0.24279
1617.62285,0.19336
1616.13306,0.18009
1614.64327,0.26540
1613.15348,0.17994
1611.66370,0.24233
1610.17391,0.19964
1608.68412,0.16848
1607.19433,0.14229
1605.70454,0.17196
1604.21475,0.20004
1602.72496,0.22814
1601.23518,0.16595
1599.74539,0.20398
1598.25560,0.17307
1596.76581,0.16683
1595.27602,0.15241
1593.78623,0.21028
1592.29645,0.11546
1590.80666,0.09622
1589.31687,0.04088
1587.82708,0.08083
1586.33729,0.09946
1584.84750,0.12635
1583.35771,0.04651
1581.86793,0.01434
1580.37814,0.08895
1578.88835,0.17510
1577.39856,0.10526
1575.90877,0.10771
1574.41898,0.06094
1572.92920,0.11437
1571.43941,0.06931
1569.94962,0.05794
1568.45983,0.04662
1566.97004,0.07884
1565.48025,0.04213
1563.99047,0.08264
1562.50068,0.03778
1561.01089,0.07343
1559.52110,0.08448
1558.03131,0.12349
1556.54152,0.08042
1555.05173,0.13592
1553.56195,0.16517
1552.07216,0.16654
1550.58237,0.03328
1549.09258,0.06264
1547.60279,0.07069
1546.11300,0.04756
1544.62322,0.19528
1543.13343,0.08847
1541.64364,0.10979
1540.15385,0.07121
1538.66406,0.03265
1537.17427,0.04259
1535.68448,0.00000
1534.19470,0.04114
1532.70491,0.04126
1531.21512,0.04962
1529.72533,0.07773
1528.23554,0.01225
1526.74575,0.04207
1525.25597,0.06371
1523.76618,0.02627
1522.27639,0.03977
1520.78660,0.08615
1519.29681,0.03402
1517.80702,0.00000
1516.31724,0.05913
1514.82745,0.01155
1513.33766,0.03954
1511.84787,0.06757
1510.35808,0.04965
1508.86829,0.05969
1507.37850,0.09932
1505.88872,0.08644
1504.39893,0.00132
1502.90914,0.00000
1501.41935,0.05492
1499.92956,0.02775
1498.43977,0.05974
1496.94999,0.15090
1495.46020,0.23387
1493.97041,0.15593
1492.48062,0.20942
1490.99083,0.34341
1489.50104,0.36083
1488.01125,0.40457
1486.52147,0.44834
1485.03168,0.47736
1483.54189,0.50806
1482.05210,0.52894
1480.56231,0.69767
1479.07252,0.92555
1477.58274,0.97610
1476.09295,1.01519
1474.60316,1.16106
1473.11337,1.27741
1471.62358,1.31496
1470.13379,1.22444
1468.64401,1.18487
1467.15422,1.24880
1465.66443,1.20847
1464.17464,1.16818
1462.68485,1.03514
1461.19506,1.02859
1459.70527,1.07463
1458.21549,1.01887
1456.72570,0.85148
1455.23591,0.85328
1453.74612,0.80913
1452.25633,0.78144
1450.76654,0.77513
1449.27676,0.76886
1447.78697,0.73963
1446.29718,0.65624
1444.80739,0.62954
1443.31760,0.60288
1441.82781,0.56558
1440.33802,0.45276
1438.84824,0.38104
1437.35845,0.22067
1435.86866,0.29847
1434.37887,0.32047
1432.88908,0.32444
1431.39929,0.27752
1429.90951,0.34397
1428.41972,0.40224
1426.92993,0.33736
1425.44014,0.37764
1423.95035,0.41137
1422.46056,0.44515
1420.97078,0.43625
1419.48099,0.38469
1417.99120,0.36109
1416.50141,0.38515
1415.01162,0.38953
1413.52183,0.42023
1412.03204,0.33436
1410.54226,0.38976
1409.05247,0.28260
1407.56268,0.47767
1406.07289,0.41657
1404.58310,0.39246
1403.09331,0.36839
1401.60353,0.37144
1400.11374,0.37453
1398.62395,0.40229
1397.13416,0.46951
1395.64437,0.46942
1394.15458,0.48415
1392.66479,0.50384
1391.17501,0.49236
1389.68522,0.56139
1388.19543,0.41530
1386.70564,0.43020
1385.21585,0.44514
1383.72606,0.42562
1382.23628,0.39300
1380.74649,0.37355
1379.25670,0.42148
1377.76691,0.45137
1376.27712,0.47637
1374.78733,0.46691
1373.29755,0.64308
1371.80776,0.66818
1370.31797,0.78858
1368.82818,0.82607
1367.33839,0.86360
1365.84860,0.97917
1364.35881,1.29351
1362.86903,1.34346
1361.37924,1.36716
1359.88945,1.31864
1358.39966,1.49680
1356.90987,1.38265
1355.42008,1.48369
1353.93030,1.43202
1352.44051,1.42884
1350.95072,1.42569
1349.46093,1.45132
1347.97114,1.26183
1346.48135,1.06910
1344.99156,0.93881
1343.50178,0.88903
1342.01199,0.79658
1340.52220,0.72059
1339.03241,0.72019
1337.54262,0.73788
1336.05283,0.66364
1334.56305,0.58944
1333.07326,0.65322
1331.58347,0.62343
1330.09368,0.58382
1328.60389,0.49168
1327.11410,0.51291
1325.62432,0.51610
1324.13453,0.40272
1322.64474,0.54230
1321.15495,0.61950
1319.66516,0.57685
1318.17537,0.53423
1316.68558,0.46537
1315.19580,0.42611
1313.70601,0.42301
1312.21622,0.37725
1310.72643,0.40214
1309.23664,0.40408
1307.74685,0.37977
1306.25707,0.37849
1304.76728,0.37232
1303.27749,0.36618
1301.78770,0.27796
1300.29791,0.31788
1298.80812,0.31841
1297.31834,0.39782
1295.82855,0.37379
1294.33876,0.43684
1292.84897,0.40795
1291.35918,0.43166
1289.86939,0.42255
1288.37960,0.41348
1286.88982,0.39458
1285.40003,0.47755
1283.91024,0.48829
1282.42045,0.54341
1280.93066,0.49017
1279.44087,0.44353
1277.95109,0.53324
1276.46130,0.42919
1274.97151,0.46970
1273.48172,0.51025
1271.99193,0.60667
1270.50214,0.62922
1269.01235,0.61895
1267.52257,0.61694
1266.03278,0.65273
1264.54299,0.69349
1263.05320,0.71129
1261.56341,0.69791
1260.07362,0.68458
1258.58384,0.75668
1257.09405,0.73684
1255.60426,0.73510
1254.11447,0.72190
1252.62468,0.70874
1251.13489,0.73996
1249.64511,0.66117
1248.15532,0.61198
1246.66553,0.62277
1245.17574,0.63359
1243.68595,0.51717
1242.19616,0.56174
1240.70637,0.43882
1239.21659,0.52615
1237.72680,0.49855
1236.23701,0.41351
1234.74722,0.35971
1233.25743,0.35603
1231.76764,0.35239
1230.27786,0.29705
1228.78807,0.33371
1227.29828,0.33100
1225.80849,0.26919
1224.31870,0.22549
1222.82891,0.33291
1221.33912,0.27778
1219.84934,0.25389
1218.35955,0.23003
1216.86976,0.35731
1215.37997,0.37129
1213.89018,0.26707
1212.40039,0.29426
1210.91061,0.24759
1209.42082,0.32084
1207.93103,0.25617
1206.44124,0.19153
1204.95145,0.19919
1203.46166,0.22824
1201.97188,0.18834
1200.48209,0.16819
1198.99230,0.11850
1197.50251,0.16083
1196.01272,0.09479
1194.52293,0.11584
1193.03314,0.13692
1191.54336,0.15803
1190.05357,0.09214
1188.56378,0.00000
1187.07399,0.01718
1185.58420,0.06724
1184.09441,0.14525
1182.60463,0.15514
1181.11484,0.16507
1179.62505,0.10852
1178.13526,0.08320
1176.64547,0.11705
1175.15568,0.18213
1173.66589,0.16021
1172.17611,0.11697
1170.68632,0.07376
1169.19653,0.03059
1167.70674,0.07943
1166.21695,0.04618
1164.72716,0.06717
1163.23738,0.03892
1161.74759,0.04026
1160.25780,0.02358
1158.76801,0.07673
1157.27822,0.12992
1155.78843,0.15932
1154.29865,0.10500
1152.80886,0.07043
1151.31907,0.04246
1149.82928,0.10157
1148.33949,0.13936
1146.84970,0.12545
1145.35991,0.11158
1143.87013,0.11006
1142.38034,0.16935
1140.89055,0.22866
1139.40076,0.28309
1137.91097,0.25872
1136.42118,0.24916
1134.93140,0.25196
1133.44161,0.25479
1131.95182,0.29297
1130.46203,0.30162
1128.97224,0.39406
1127.48245,0.41427
1125.99266,0.32942
1124.50288,0.43182
1123.01309,0.46035
1121.52330,0.48892
1120.03351,0.46496
1118.54372,0.48539
1117.05393,0.50420
1115.56415,0.40316
1114.07436,0.45983
1112.58457,0.49025
1111.09478,0.52070
1109.60499,0.52327
1108.11520,0.59649
1106.62542,0.66318
1105.13563,0.75125
1103.64584,0.83608
1102.15605,0.91109
1100.66626,0.89416
1099.17647,0.87726
1097.68668,0.81934
1096.19690,0.93062
1094.70711,0.92204
1093.21732,0.89707
1091.72753,0.97560
1090.23774,1.02543
1088.74795,1.07530
1087.25817,1.03897
1085.76838,1.15871
1084.27859,1.12574
1082.78880,1.27182
1081.29901,1.22249
1079.80922,1.17813
1078.31943,1.20278
1076.82965,1.22747
1075.33986,1.40164
1073.85007,1.45268
1072.36028,1.33622
1070.87049,1.32492
1069.38070,1.31201
1067.89092,1.32623
1066.40113,1.34048
1064.91134,1.40979
1063.42155,1.22293
1061.93176,1.19048
1060.44197,1.13179
1058.95219,1.03208
1057.46240,1.04244
1055.97261,1.05283
1054.48282,0.99756
1052.99303,0.96040
1051.50324,0.82473
1050.01345,0.84512
1048.52367,0.74072
1047.03388,0.70533
1045.54409,0.66999
1044.05430,0.67245
1042.56451,0.60761
1041.07472,0.52309
1039.58494,0.52237
1038.09515,0.26220
1036.60536,0.34038
1035.11557,0.41860
1033.62578,0.38682
1032.13599,0.27624
1030.64620,0.40219
1029.15642,0.52653
1027.66663,0.46204
1026.17684,0.39758
1024.68705,0.45305
1023.19726,0.63009
1021.70747,0.77596
1020.21769,0.93993
1018.72790,1.07930
1017.23811,1.20228
1015.74832,1.32529
1014.25853,1.63885
1012.76874,1.68146
1011.27896,1.90312
1009.78917,2.00000
1008.29938,1.98031
1006.80959,1.93765
1005.31980,1.89504
1003.83001,1.88530
1002.34022,1.84932
1000.85044,1.64093
999.36065,1.48677
997.87086,1.50181
996.38107,1.51688
994.89128,1.44659
993.40149,1.55042
991.91171,1.46213
990.42192,1.58574
988.93213,1.46631
987.44234,1.50377
985.95255,1.54126
984.46276,1.45150
982.97297,1.36342
981.48319,1.26388
979.99340,1.23828
978.50361,1.21764
977.01382,1.19703
975.52403,1.24544
974.03424,1.22327
972.54446,1.02047
971.05467,1.04599
969.56488,0.92702
968.07509,1.00270
966.58530,1.07841
965.09551,1.08272
963.60573,0.95404
962.11594,1.01426
960.62615,0.83144
959.13636,0.84082
957.64657,0.85023
956.15678,0.78906
954.66699,0.76076
953.17721,0.88032
951.68742,0.83074
950.19763,0.75739
948.70784,0.68407
947.21805,0.78077
945.72826,0.65743
944.23848,0.78212
942.74869,0.69991
941.25890,0.75569
939.76911,0.76799
938.27932,0.78031
936.78953,0.90189
935.29974,0.83464
933.80996,0.94972
932.32017,0.90717
930.83038,0.92460
929.34059,0.94206
927.85080,1.03921
926.36101,0.83093
924.87123,0.80333
923.38144,0.66573
921.89165,0.70308
920.40186,0.74046
918.91207,0.67523
917.42228,0.77099
915.93250,0.69597
914.44271,0.77702
912.95292,0.81047
911.46313,0.84395
909.97334,0.84299
908.48355,0.92088
906.99376,0.86250
905.50398,0.70562
904.01419,0.75981
902.52440,0.81403
901.03461,0.84283
899.54482,0.91766
898.05503,0.79707
896.56525,0.93274
895.07546,0.92555
893.58567,0.91839
892.09588,0.83408
890.60609,0.88941
889.11630,0.87579
887.62651,0.81950
886.13673,0.87575
884.64694,0.93204
883.15715,0.86764
881.66736,0.88212
880.17757,0.90156
878.68778,0.97276
877.19800,1.04400
875.70821,0.94037
874.21842,1.05192
872.72863,1.05675
871.23884,1.05176
869.74905,1.04927
868.25927,1.04681
866.76948,1.08791
865.27969,1.05843
863.78990,1.21128
862.30011,1.20814
860.81032,1.12785
859.32053,1.04759
857.83075,1.08890
856.34096,1.09412
854.85117,1.01725
853.36138,0.92235
851.87159,0.79792
850.38180,0.67353
848.89202,0.61487
847.40223,0.54639
845.91244,0.52064
844.42265,0.55570
842.93286,0.59079
841.44307,0.49781
839.95329,0.45249
838.46350,0.35958
836.97371,0.37839
835.48392,0.37999
833.99413,0.38162
832.50434,0.44652
831.01455,0.47367
829.52477,0.42532
828.03498,0.36222
826.54519,0.33364
825.05540,0.30510
823.56561,0.24538
822.07582,0.20377
820.58604,0.22461
819.09625,0.22494
817.60646,0.22532
816.11667,0.19534
814.62688,0.26230
813.13709,0.09608
811.64730,0.01201
810.15752,0.00599
808.66773,0.00000
807.17794,0.10024
805.68815,0.05106
804.19836,0.10867
802.70857,0.13019
801.21879,0.15173
799.72900,0.15689
798.23921,0.20315
796.74942,0.44159
795.25963,0.43536
793.76984,0.42916
792.28006,0.48376
790.79027,0.45793
789.30048,0.53888
787.81069,0.62315
786.32090,0.65654
784.83111,0.68997
783.34132,0.77599
781.85154,0.75529
780.36175,0.67057
778.87196,0.67869
777.38217,0.68683
775.89238,0.81573
774.40259,0.84119
772.91281,0.91924
771.42302,0.89796
769.93323,0.87672
768.44344,0.93845
766.95365,0.85076
765.46386,1.14249
763.97407,1.07458
762.48429,0.99193
760.99450,0.90931
759.50471,0.72818
758.01492,0.54873
756.52513,0.56969
755.03534,0.48064
753.54556,0.39162
752.05577,0.30264
750.56598,0.34180
749.07619,0.24139
747.58640,0.19522
746.09661,0.14908
744.60683,0.14896
743.11704,0.18172
741.62725,0.11762
740.13746,0.08476
738.64767,0.05193
737.15788,0.10126
735.66809,0.03072
734.17831,0.12939
732.68852,0.06468
731.19873,0.00000
729.70894,0.12863
728.21915,0.11934
726.72936,0.15442
725.23958,0.12549
723.74979,0.13765
722.26000,0.14985
720.77021,0.15223
719.28042,0.09223
717.79063,0.09303
716.30084,0.04707
714.81106,0.00114
713.32127,0.01190
711.83148,0.10317
710.34169,0.14193
708.85190,0.12570
707.36211,0.10950
705.87233,0.10730
704.38254,0.06079
702.89275,0.08330
701.40296,0.14936
699.91317,0.21545
698.42338,0.16251
696.93360,0.09976
695.44381,0.19634
693.95402,0.17307
692.46423,0.14983
690.97444,0.25145
689.48465,0.22664
687.99486,0.28562
686.50508,0.26827
685.01529,0.25096
683.52550,0.25914
682.03571,0.22136
680.54592,0.19019
679.05613,0.20669
677.56635,0.22321
676.07656,0.20529
674.58677,0.14305
673.09698,0.25494
671.60719,0.22973
670.11740,0.20455
668.62761,0.14246
667.13783,0.20193
665.64804,0.14976
664.15825,0.09762
662.66846,0.12435
661.17867,0.10678
659.68888,0.15821
658.19910,0.15877
656.70931,0.15936
655.21952,0.29631
653.72973,0.10646
652.23994,0.18763
650.75015,0.21300
649.26037,0.23840
647.77058,0.22606
646.28079,0.22033
644.79100,0.17522
643.30121,0.16873
641.81142,0.16229
640.32163,0.07622
638.83185,0.22833
637.34206,0.19324
635.85227,0.09660
634.36248,0.00000
632.87269,0.15224
631.38290,0.19776
629.89312,0.20390
628.40333,0.16984
626.91354,0.13582
625.42375,0.13878
623.93396,0.21240
622.44417,0.20475
620.95438,0.19714
619.46460,0.20845
617.97481,0.17382
616.48502,0.18520
614.99523,0.19005
613.50544,0.19493
612.01565,0.19492
610.52587,0.13911
609.03608,0.21471
607.54629,0.23616
606.05650,0.25764
604.56671,0.22332
603.07692,0.32206
601.58714,0.24346
600.09735,0.16490
598.60756,0.21283
597.11777,0.19018
595.62798,0.12486
594.13819,0.13348
592.64840,0.14213
591.15862,0.10319
589.66883,0.14969
588.17904,0.17816
586.68925,0.19024
585.19946,0.20236
583.70967,0.20465
582.21989,0.20863
580.73010,0.20607
579.24031,0.20354
577.75052,0.23718
576.26073,0.22815
574.77094,0.18139
573.28115,0.22334
571.79137,0.26533
570.30158,0.33856
568.81179,0.40362
567.32200,0.42519
565.83221,0.44679
564.34242,0.51195
562.85264,0.42440
561.36285,0.47649
559.87306,0.51958
558.38327,0.56271
556.89348,0.58370
555.40369,0.62115
553.91391,0.59950
552.42412,0.57790
550.93433,0.60888
549.44454,0.77293
547.95475,0.65124
546.46496,0.77102
544.97517,0.89083
543.48539,0.73804
541.99560,0.80372
540.50581,0.80457
539.01602,0.80545
537.52623,0.76941
536.03644,0.78432
534.54666,0.71386
533.05687,0.75593
531.56708,0.79805
530.07729,0.60944
528.58750,0.66394
527.09771,0.66264
525.60792,0.66137
524.11814,0.50903
522.62835,0.46677
521.13856,0.50010
519.64877,0.47926
518.15898,0.45845
516.66919,0.45247
515.17941,0.36932
513.68962,0.34287
512.19983,0.31646
510.71004,0.36645
509.22025,0.49202
507.73046,0.28916
506.24068,0.34090
504.75089,0.39268
503.26110,0.41164
501.77131,0.34194
500.28152,0.29118
498.79173,0.24044
497.30194,0.32359
495.81216,0.36244
494.32237,0.42513
492.83258,0.48786
491.34279,0.44304
489.85300,0.39170
488.36321,0.31247
486.87343,0.25790
485.38364,0.20338
483.89385,0.15546
482.40406,0.27016
480.91427,0.19767
479.42448,0.12522
477.93469,0.09222
476.44491,0.10360
474.95512,0.07313
473.46533,0.04270
471.97554,0.10838
470.48575,0.00000
468.99596,0.03837
467.50618,0.04967
466.01639,0.06101
464.52660,0.06827
463.03681,0.02795
461.54702,0.05499
460.05723,0.08207
458.56745,0.12725
457.07766,0.00166
455.58787,0.07401
454.09808,0.14639
452.60829,0.20978
451.11850,0.12539
449.62871,0.16092
448.13893,0.19649
446.64914,0.20910
445.15935,0.53215
443.66956,0.41509
442.17977,0.46147
440.68998,0.50789
439.20020,0.56010
437.71041,0.59920
436.22062,0.70074
434.73083,0.80232
433.24104,0.85794
431.75125,1.07948
430.26146,1.10480
428.77168,1.13014
427.28189,1.29923
425.79210,1.29591
424.30231,1.25813
422.81252,1.22039
421.32273,1.33378
419.83295,1.25340
418.34316,1.20673
416.85337,1.16010
415.36358,0.99935
413.87379,0.85178
412.38400,0.76009
410.89422,0.66842
409.40443,0.71804
407.91464,0.66258
406.42485,0.63179
404.93506,0.63224
403.44527,0.63273
401.95548,0.57905
400.46570,0.48599
398.97591,0.53339
397.48612,0.58082
395.99633,0.55027
394.50654,0.59859
393.01675,0.51146
391.52697,0.42436
390.03718,0.35125
388.54739,0.22398
387.05760,0.32093
385.56781,0.41791
384.07802,0.47633
382.58824,0.39354
381.09845,0.36909
379.60866,0.34468
378.11887,0.21109
376.62908,0.21548
375.13929,0.19692
373.64950,0.17840
372.15972,0.21903
370.66993,0.25806
369.18014,0.21829
367.69035,0.17855
366.20056,0.10272
364.71077,0.15666
363.22099,0.22871
361.73120,0.30079
360.24141,0.31379
358.75162,0.22827
357.26183,0.22655
355.77204,0.22487
354.28225,0.17724
352.79247,0.11650
351.30268,0.13217
349.81289,0.14787
348.32310,0.07902
346.83331,0.13372
345.34352,0.12770
343.85374,0.12170
342.36395,0.22085
340.87416,0.19358
339.38437,0.18523
337.89458,0.17691
336.40479,0.21379
334.91501,0.15217
333.42522,0.13410
331.93543,0.11607
330.44564,0.27462
328.95585,0.23942
327.46606,0.18700
325.97627,0.13462
324.48649,0.11758
322.99670,0.21423
321.50691,0.17214
320.01712,0.13008
318.52733,0.28925
317.03754,0.36469
315.54776,0.31945
314.05797,0.27424
312.56818,0.10179
311.07839,0.00000
309.58860,0.02848
308.09881,0.05700
306.60902,0.02971
305.11924,0.07636
303.62945,0.05325
302.13966,0.02452
300.64987,0.10175
299.16008,0.00000
