1778.52000,0.02781
1777.03021,0.06559
1775.54042,0.01512
1774.05063,0.00000
1772.56085,0.03538
1771.07106,0.02791
1769.58127,0.03813
1768.09148,0.03073
1766.60169,0.00697
1765.11190,0.05011
1763.62212,0.02264
1762.13233,0.09739
1760.64254,0.03973
1759.15275,0.07544
1757.66296,0.08093
1756.17317,0.00697
1754.68339,0.06678
1753.19360,0.06860
1751.70381,0.04523
1750.21402,0.07362
1748.72423,0.02383
1747.23444,0.04346
1745.74465,0.04799
1744.25487,0.09797
1742.76508,0.10510
1741.27529,0.05803
1739.78550,0.07911
1738.29571,0.09140
1736.80592,0.06336
1735.31614,0.04545
1733.82635,0.05407
1732.33656,0.08543
1730.84677,0.08530
1729.35698,0.02465
1727.86719,0.09397
1726.37740,0.08638
1724.88762,0.02080
1723.39783,0.00697
1721.90804,0.05859
1720.41825,0.07492
1718.92846,0.09381
1717.43867,0.05975
1715.94889,0.08503
1714.45910,0.08511
1712.96931,0.06379
1711.47952,0.11440
1709.98973,0.12091
1708.49994,0.08708
1707.01016,0.08925
1705.52037,0.09145
1704.03058,0.13847
1702.54079,0.10227
1701.05100,0.08882
1699.56121,0.14605
1698.07142,0.17556
1696.58164,0.14582
1695.09185,0.18929
1693.60206,0.21386
1692.11227,0.22965
1690.62248,0.24800
1689.13269,0.20584
1687.64291,0.27220
1686.15312,0.24525
1684.66333,0.25492
1683.17354,0.26715
1681.68375,0.27563
1680.19396,0.27785
1678.70417,0.24099
1677.21439,0.22436
1675.72460,0.30490
1674.23481,0.24293
1672.74502,0.24786
1671.25523,0.23138
1669.76544,0.29567
1668.27566,0.26918
1666.78587,0.22758
1665.29608,0.21504
1663.80629,0.15964
1662.31650,0.21403
1660.82671,0.24953
1659.33693,0.23840
1657.84714,0.23740
1656.35735,0.20490
1654.86756,0.19514
1653.37777,0.20561
1651.88798,0.20728
1650.39819,0.14844
1648.90841,0.13253
1647.41862,0.13053
1645.92883,0.15254
1644.43904,0.17458
1642.94925,0.14242
1641.45946,0.18346
1639.96968,0.17787
1638.47989,0.17862
1636.99010,0.14283
1635.50031,0.15627
1634.01052,0.14831
1632.52073,0.11515
1631.03094,0.11105
1629.54116,0.15870
1628.05137,0.13827
1626.56158,0.23646
1625.07179,0.17195
1623.58200,0.18822
1622.09221,0.18056
1620.60243,0.19438
1619.11264,0.20698
1617.62285,0.21709
1616.13306,0.18813
1614.64327,0.15417
1613.15348,0.16566
1611.66370,0.15321
1610.17391,0.16225
1608.68412,0.19278
1607.19433,0.16026
1605.70454,0.16437
1604.21475,0.16473
1602.72496,0.16513
1601.23518,0.17187
1599.74539,0.19884
1598.25560,0.17412
1596.76581,0.09772
1595.27602,0.07434
1593.78623,0.12417
1592.29645,0.10212
1590.80666,0.11292
1589.31687,0.05311
1587.82708,0.06019
1586.33729,0.06353
1584.84750,0.05934
1583.35771,0.09303
1581.86793,0.03214
1580.37814,0.11258
1578.88835,0.09340
1577.39856,0.07426
1575.90877,0.08165
1574.41898,0.01213
1572.92920,0.00697
1571.43941,0.04184
1569.94962,0.04647
1568.45983,0.05114
1566.97004,0.09622
1565.48025,0.04798
1563.99047,0.05529
1562.50068,0.05758
1561.01089,0.06370
1559.52110,0.05599
1558.03131,0.07227
1556.54152,0.07094
1555.05173,0.11379
1553.56195,0.10370
1552.07216,0.12645
1550.58237,0.05841
1549.09258,0.05852
1547.60279,0.06751
1546.11300,0.05635
1544.62322,0.08937
1543.13343,0.05810
1541.64364,0.05462
1540.15385,0.03541
1538.66406,0.01624
1537.17427,0.05324
1535.68448,0.02847
1534.19470,0.03906
1532.70491,0.01184
1531.21512,0.04646
1529.72533,0.06095
1528.23554,0.04898
1526.74575,0.03074
1525.25597,0.03777
1523.76618,0.06754
1522.27639,0.03428
1520.78660,0.05530
1519.29681,0.00697
1517.80702,0.04775
1516.31724,0.07217
1514.82745,0.05625
1513.33766,0.04542
1511.84787,0.03463
1510.35808,0.02261
1508.86829,0.01316
1507.37850,0.07817
1505.88872,0.00697
1504.39893,0.07046
1502.90914,0.01414
1501.41935,0.02851
1499.92956,0.04038
1498.43977,0.11159
1496.94999,0.08696
1495.46020,0.15572
1493.97041,0.20054
1492.48062,0.21766
1490.99083,0.30167
1489.50104,0.32516
1488.01125,0.36320
1486.52147,0.40128
1485.03168,0.49301
1483.54189,0.50783
1482.05210,0.65514
1480.56231,0.70787
1479.07252,0.75812
1477.58274,0.83995
1476.09295,0.95840
1474.60316,1.01885
1473.11337,1.11593
1471.62358,1.12853
1470.13379,1.08818
1468.64401,1.04535
1467.15422,0.92309
1465.66443,0.95097
1464.17464,0.97890
1462.68485,0.86053
1461.19506,0.80401
1459.70527,0.82070
1458.21549,0.81345
1456.72570,0.79993
1455.23591,0.74357
1453.74612,0.67841
1452.25633,0.60572
1450.76654,0.59109
1449.27676,0.53992
1447.78697,0.52916
1446.29718,0.49446
1444.80739,0.48314
1443.31760,0.47186
1441.82781,0.37042
1440.33802,0.32831
1438.84824,0.23326
1437.35845,0.20888
1435.86866,0.18454
1434.37887,0.20944
1432.88908,0.24825
1431.39929,0.22529
1429.90951,0.18849
1428.41972,0.21353
1426.92993,0.14023
1425.44014,0.18553
1423.95035,0.19556
1422.46056,0.20562
1420.97078,0.25861
1419.48099,0.27506
1417.99120,0.27892
1416.50141,0.27778
1415.01162,0.22244
1413.52183,0.23525
1412.03204,0.25819
1410.54226,0.28622
1409.05247,0.22724
1407.56268,0.27805
1406.07289,0.32889
1404.58310,0.27697
1403.09331,0.22508
1401.60353,0.22180
1400.11374,0.22738
1398.62395,0.26202
1397.13416,0.28912
1395.64437,0.25824
1394.15458,0.24505
1392.66479,0.19027
1391.17501,0.23897
1389.68522,0.28014
1388.19543,0.23557
1386.70564,0.21374
1385.21585,0.19196
1383.72606,0.20679
1382.23628,0.15732
1380.74649,0.16340
1379.25670,0.21492
1377.76691,0.17188
1376.27712,0.20077
1374.78733,0.23097
1373.29755,0.23597
1371.80776,0.27003
1370.31797,0.39999
1368.82818,0.42908
1367.33839,0.45820
1365.84860,0.56936
1364.35881,0.63514
1362.86903,0.67573
1361.37924,0.72393
1359.88945,0.72296
1358.39966,0.84945
1356.90987,0.85991
1355.42008,0.88051
1353.93030,0.83555
1352.44051,0.79819
1350.95072,0.76087
1349.46093,0.77657
1347.97114,0.62832
1346.48135,0.57598
1344.99156,0.54765
1343.50178,0.56854
1342.01199,0.50118
1340.52220,0.42754
1339.03241,0.46622
1337.54262,0.39896
1336.05283,0.37590
1334.56305,0.35288
1333.07326,0.37656
1331.58347,0.36875
1330.09368,0.31052
1328.60389,0.33558
1327.11410,0.23958
1325.62432,0.30382
1324.13453,0.30629
1322.64474,0.32015
1321.15495,0.30251
1319.66516,0.29879
1318.17537,0.29510
1316.68558,0.32803
1315.19580,0.26892
1313.70601,0.22119
1312.21622,0.18107
1310.72643,0.24696
1309.23664,0.29900
1307.74685,0.21358
1306.25707,0.24174
1304.76728,0.22704
1303.27749,0.21238
1301.78770,0.21289
1300.29791,0.21344
1298.80812,0.29603
1297.31834,0.23863
1295.82855,0.21911
1294.33876,0.26775
1292.84897,0.23191
1291.35918,0.29197
1289.86939,0.27261
1288.37960,0.25328
1286.88982,0.28192
1285.40003,0.30934
1283.91024,0.28760
1282.42045,0.35042
1280.93066,0.30731
1279.44087,0.41436
1277.95109,0.34988
1276.46130,0.40276
1274.97151,0.36170
1273.48172,0.32067
1271.99193,0.37997
1270.50214,0.43174
1269.01235,0.48859
1267.52257,0.46222
1266.03278,0.52167
1264.54299,0.51682
1263.05320,0.53724
1261.56341,0.51292
1260.07362,0.48863
1258.58384,0.56593
1257.09405,0.61299
1255.60426,0.50493
1254.11447,0.54703
1252.62468,0.51599
1251.13489,0.46103
1249.64511,0.51837
1248.15532,0.36004
1246.66553,0.39223
1245.17574,0.42446
1243.68595,0.34571
1242.19616,0.34774
1240.70637,0.36873
1239.21659,0.30398
1237.72680,0.30107
1236.23701,0.18215
1234.74722,0.21843
1233.25743,0.22951
1231.76764,0.24064
1230.27786,0.28712
1228.78807,0.13180
1227.29828,0.19602
1225.80849,0.17324
1224.31870,0.16689
1222.82891,0.17445
1221.33912,0.15178
1219.84934,0.14555
1218.35955,0.13935
1216.86976,0.17230
1215.37997,0.21411
1213.89018,0.20425
1212.40039,0.22343
1210.91061,0.12534
1209.42082,0.16100
1207.93103,0.17525
1206.44124,0.18954
1204.95145,0.18116
1203.46166,0.10722
1201.97188,0.09135
1200.48209,0.15499
1198.99230,0.13415
1197.50251,0.13353
1196.01272,0.11654
1194.52293,0.08194
1193.03314,0.04737
1191.54336,0.08475
1190.05357,0.08684
1188.56378,0.00697
1187.07399,0.05579
1185.58420,0.09582
1184.09441,0.07281
1182.60463,0.08642
1181.11484,0.10007
1179.62505,0.05321
1178.13526,0.10225
1176.64547,0.08448
1175.15568,0.13612
1173.66589,0.09950
1172.17611,0.11464
1170.68632,0.06737
1169.19653,0.02014
1167.70674,0.04675
1166.21695,0.04185
1164.72716,0.05340
1163.23738,0.07507
1161.74759,0.03875
1160.25780,0.05671
1158.76801,0.03182
1157.27822,0.00697
1155.78843,0.01369
1154.29865,0.06334
1152.80886,0.03860
1151.31907,0.06183
1149.82928,0.08510
1148.33949,0.14499
1146.84970,0.12167
1145.35991,0.09838
1143.87013,0.06503
1142.38034,0.11498
1140.89055,0.17128
1139.40076,0.13300
1137.91097,0.21838
1136.42118,0.24578
1134.93140,0.21203
1133.44161,0.17832
1131.95182,0.25503
1130.46203,0.31285
1128.97224,0.32151
1127.48245,0.33652
1125.99266,0.30994
1124.50288,0.34394
1123.01309,0.39123
1121.52330,0.43856
1120.03351,0.46385
1118.54372,0.49674
1117.05393,0.47291
1115.56415,0.39866
1114.07436,0.39887
1112.58457,0.43381
1111.09478,0.46878
1109.60499,0.51200
1108.11520,0.56534
1106.62542,0.58593
1105.13563,0.60024
1103.64584,0.79246
1102.15605,0.81189
1100.66626,0.85534
1099.17647,0.89882
1097.68668,0.86412
1096.19690,0.86983
1094.70711,0.91217
1093.21732,0.91669
1091.72753,1.03605
1090.23774,1.04128
1088.74795,1.04655
1087.25817,1.05879
1085.76838,1.18209
1084.27859,1.16539
1082.78880,1.27362
1081.29901,1.26458
1079.80922,1.12816
1078.31943,1.12549
1076.82965,1.12287
1075.33986,1.21110
1073.85007,1.20981
1072.36028,1.23631
1070.87049,1.36755
1069.38070,1.39161
1067.89092,1.36461
1066.40113,1.33765
1064.91134,1.39335
1063.42155,1.23590
1061.93176,1.17058
1060.44197,1.13053
1058.95219,0.98202
1057.46240,0.94331
1055.97261,0.90463
1054.48282,0.87356
1052.99303,0.87280
1051.50324,0.77746
1050.01345,0.64559
1048.52367,0.64746
1047.03388,0.65758
1045.54409,0.66773
1044.05430,0.69243
1042.56451,0.63517
1041.07472,0.54262
1039.58494,0.43750
1038.09515,0.52038
1036.60536,0.44119
1035.11557,0.36205
1033.62578,0.38448
1032.13599,0.41327
1030.64620,0.43326
1029.15642,0.56430
1027.66663,0.47336
1026.17684,0.38245
1024.68705,0.50225
1023.19726,0.57541
1021.70747,0.80251
1020.21769,1.04857
1018.72790,1.17483
1017.23811,1.29103
1015.74832,1.40727
1014.25853,1.65979
1012.76874,1.71429
1011.27896,1.65026
1009.78917,1.84234
1008.29938,1.91966
1006.80959,1.95981
1005.31980,2.00000
1003.83001,1.89705
1002.34022,1.73359
1000.85044,1.63828
999.36065,1.53040
997.87086,1.55311
996.38107,1.57587
994.89128,1.59046
993.40149,1.65681
991.91171,1.65382
990.42192,1.56887
988.93213,1.65804
987.44234,1.60029
985.95255,1.54257
984.46276,1.52337
982.97297,1.53701
981.48319,1.54942
979.99340,1.49753
978.50361,1.51695
977.01382,1.53642
975.52403,1.52880
974.03424,1.45940
972.54446,1.38121
971.05467,1.34343
969.56488,1.27541
968.07509,1.24149
966.58530,1.20760
965.09551,1.03247
963.60573,1.14751
962.11594,1.15032
960.62615,1.07875
959.13636,1.02424
957.64657,0.96976
956.15678,0.97651
954.66699,0.91896
953.17721,0.93588
951.68742,0.84182
950.19763,0.89098
948.70784,0.94017
947.21805,0.82226
945.72826,0.84189
944.23848,0.91075
942.74869,0.82827
941.25890,0.88838
939.76911,0.92708
938.27932,0.96581
936.78953,0.93899
935.29974,0.90716
933.80996,0.90060
932.32017,0.94706
930.83038,0.97211
929.34059,0.99720
927.85080,0.99836
926.36101,1.00460
924.87123,0.95412
923.38144,0.92764
921.89165,0.89741
920.40186,0.86722
918.91207,0.86482
917.42228,0.88895
915.93250,0.99133
914.44271,0.94489
912.95292,0.92499
911.46313,0.90512
909.97334,1.04297
908.48355,1.06480
906.99376,0.99332
905.50398,0.90423
904.01419,0.92491
902.52440,0.94564
901.03461,0.99793
899.54482,1.04018
898.05503,0.95632
896.56525,1.05036
895.07546,1.09650
893.58567,1.14268
892.09588,1.10943
890.60609,1.09513
889.11630,1.15782
887.62651,1.11964
886.13673,1.10798
884.64694,1.09636
883.15715,1.11758
881.66736,1.00007
880.17757,0.99613
878.68778,0.99980
877.19800,1.00351
875.70821,1.00852
874.21842,1.02491
872.72863,1.15993
871.23884,1.20541
869.74905,1.14434
868.25927,1.08331
866.76948,1.06458
865.27969,1.01687
863.78990,1.11300
862.30011,1.11204
860.81032,1.09535
859.32053,1.07870
857.83075,1.16994
856.34096,1.10480
854.85117,0.99302
853.36138,0.86614
851.87159,0.76137
850.38180,0.65664
848.89202,0.63332
847.40223,0.55705
845.91244,0.46064
844.42265,0.44751
842.93286,0.43443
841.44307,0.46932
839.95329,0.40460
838.46350,0.44461
836.97371,0.42411
835.48392,0.39608
833.99413,0.36808
832.50434,0.41203
831.01455,0.36015
829.52477,0.36633
828.03498,0.27667
826.54519,0.26905
825.05540,0.26147
823.56561,0.29682
822.07582,0.20479
820.58604,0.19480
819.09625,0.16719
817.60646,0.13961
816.11667,0.12847
814.62688,0.03663
813.13709,0.03692
811.64730,0.00697
810.15752,0.01759
808.66773,0.02825
807.17794,0.02381
805.68815,0.08122
804.19836,0.22570
802.70857,0.22011
801.21879,0.21456
799.72900,0.11444
798.23921,0.26538
796.74942,0.42267
795.25963,0.49800
793.76984,0.57338
792.28006,0.60716
790.79027,0.69143
789.30048,0.73916
787.81069,0.73648
786.32090,0.74644
784.83111,0.75644
783.34132,0.82703
781.85154,0.76016
780.36175,0.87498
778.87196,0.87062
777.38217,0.86631
775.89238,0.89041
774.40259,1.00917
772.91281,1.00938
771.42302,0.97494
769.93323,0.94054
768.44344,1.02286
766.95365,1.04088
765.46386,1.11571
763.97407,1.02785
762.48429,0.97976
760.99450,0.93171
759.50471,0.78089
758.01492,0.65155
756.52513,0.56262
755.03534,0.50337
753.54556,0.44415
752.05577,0.38434
750.56598,0.23249
749.07619,0.17149
747.58640,0.20326
746.09661,0.23506
744.60683,0.07831
743.11704,0.08811
741.62725,0.04496
740.13746,0.05484
738.64767,0.06475
737.15788,0.10498
735.66809,0.09226
734.17831,0.10608
732.68852,0.11047
731.19873,0.11489
729.70894,0.09980
728.21915,0.07971
726.72936,0.08992
725.23958,0.09009
723.74979,0.13255
722.26000,0.17504
720.77021,0.19803
719.28042,0.15671
717.79063,0.06119
716.30084,0.08492
714.81106,0.10869
713.32127,0.00697
711.83148,0.12035
710.34169,0.03698
708.85190,0.07222
707.36211,0.10750
705.87233,0.14030
704.38254,0.05582
702.89275,0.08112
701.40296,0.07429
699.91317,0.06750
698.42338,0.10806
696.93360,0.11207
695.44381,0.16657
693.95402,0.15615
692.46423,0.14577
690.97444,0.17137
689.48465,0.20837
687.99486,0.25423
686.50508,0.27680
685.01529,0.29940
683.52550,0.27474
682.03571,0.28039
680.54592,0.24444
679.05613,0.24071
677.56635,0.23701
676.07656,0.18731
674.58677,0.04808
673.09698,0.13343
671.60719,0.13871
670.11740,0.14403
668.62761,0.07559
667.13783,0.10433
665.64804,0.05615
664.15825,0.00801
662.66846,0.04821
661.17867,0.06448
659.68888,0.07448
658.19910,0.10912
656.70931,0.14380
655.21952,0.16148
653.72973,0.16028
652.23994,0.16795
650.75015,0.22801
649.26037,0.28810
647.77058,0.16721
646.28079,0.21288
644.79100,0.02647
643.30121,0.01670
641.81142,0.00697
640.32163,0.05403
638.83185,0.10870
637.34206,0.01329
635.85227,0.05983
634.36248,0.10641
632.87269,0.06661
631.38290,0.07479
629.89312,0.10445
628.40333,0.11208
626.91354,0.11974
625.42375,0.03346
623.93396,0.15789
622.44417,0.12340
620.95438,0.08896
619.46460,0.00914
617.97481,0.13119
616.48502,0.17507
614.99523,0.19818
613.50544,0.22132
612.01565,0.15935
610.52587,0.10372
609.03608,0.05697
607.54629,0.11179
606.05650,0.16666
604.56671,0.25626
603.07692,0.21596
601.58714,0.19777
600.09735,0.17963
598.60756,0.04736
597.11777,0.05641
595.62798,0.07306
594.13819,0.04939
592.64840,0.02576
591.15862,0.07154
589.66883,0.08709
588.17904,0.15944
586.68925,0.08929
585.19946,0.01917
583.70967,0.11560
582.21989,0.12755
580.73010,0.15342
579.24031,0.17932
577.75052,0.17751
576.26073,0.22241
574.77094,0.17526
573.28115,0.22781
571.79137,0.28039
570.30158,0.28634
568.81179,0.43109
567.32200,0.41125
565.83221,0.39145
564.34242,0.50856
562.85264,0.41756
561.36285,0.49060
559.87306,0.50942
558.38327,0.52829
556.89348,0.65820
555.40369,0.65191
553.91391,0.70432
552.42412,0.75677
550.93433,0.74302
549.44454,0.70661
547.95475,0.75601
546.46496,0.80167
544.97517,0.84737
543.48539,0.97384
541.99560,0.93383
540.50581,0.93423
539.01602,0.93466
537.52623,0.90486
536.03644,0.81202
534.54666,0.67129
533.05687,0.72423
531.56708,0.77720
530.07729,0.67695
528.58750,0.63980
527.09771,0.69478
525.60792,0.74980
524.11814,0.70520
522.62835,0.65434
521.13856,0.69812
519.64877,0.60002
518.15898,0.50196
516.66919,0.38312
515.17941,0.36777
513.68962,0.39344
512.19983,0.41916
510.71004,0.39508
509.22025,0.40889
507.73046,0.46184
506.24068,0.48077
504.75089,0.49974
503.26110,0.49730
501.77131,0.44065
500.28152,0.42252
498.79173,0.40442
497.30194,0.44628
495.81216,0.31662
494.32237,0.38758
492.83258,0.45857
491.34279,0.38452
489.85300,0.39756
488.36321,0.39424
486.87343,0.34176
485.38364,0.28931
483.89385,0.31133
482.40406,0.18580
480.91427,0.21988
479.42448,0.25399
477.93469,0.09830
476.44491,0.00697
474.95512,0.05650
473.46533,0.10606
471.97554,0.01690
470.48575,0.10690
468.99596,0.21460
467.50618,0.15016
466.01639,0.08574
464.52660,0.01443
463.03681,0.04912
461.54702,0.06556
460.05723,0.08203
458.56745,0.09791
457.07766,0.06337
455.58787,0.12852
454.09808,0.19372
452.60829,0.26021
451.11850,0.18419
449.62871,0.23183
448.13893,0.27952
446.64914,0.31336
445.15935,0.58440
443.66956,0.63093
442.17977,0.61758
440.68998,0.60427
439.20020,0.73796
437.71041,0.83511
436.22062,0.88877
434.73083,0.94247
433.24104,1.04603
431.75125,1.27705
430.26146,1.30815
428.77168,1.33930
427.28189,1.60574
425.79210,1.50009
424.30231,1.53577
422.81252,1.57148
421.32273,1.35367
419.83295,1.23052
418.34316,1.18056
416.85337,1.13065
415.36358,1.16276
413.87379,0.95650
412.38400,0.91237
410.89422,0.86828
409.40443,1.02417
407.91464,0.88366
406.42485,0.74949
404.93506,0.72006
403.44527,0.69067
401.95548,0.57427
400.46570,0.60929
398.97591,0.55856
397.48612,0.50788
395.99633,0.69312
394.50654,0.70432
393.01675,0.71809
391.52697,0.73189
390.03718,0.60444
388.54739,0.42531
387.05760,0.48212
385.56781,0.53896
384.07802,0.58196
382.58824,0.58715
381.09845,0.55959
379.60866,0.53207
378.11887,0.35446
376.62908,0.28034
375.13929,0.31600
373.64950,0.35170
372.15972,0.30418
370.66993,0.25418
369.18014,0.20547
367.69035,0.15680
366.20056,0.23684
364.71077,0.26520
363.22099,0.32009
361.73120,0.37501
360.24141,0.30004
358.75162,0.19610
357.26183,0.21077
355.77204,0.22547
354.28225,0.15823
352.79247,0.06957
351.30268,0.08628
349.81289,0.10304
348.32310,0.07000
346.83331,0.06097
345.34352,0.08225
343.85374,0.10357
342.36395,0.13123
340.87416,0.18668
339.38437,0.16775
337.89458,0.14885
336.40479,0.20442
334.91501,0.22344
333.42522,0.17564
331.93543,0.12789
330.44564,0.22019
328.95585,0.22548
327.46606,0.19108
325.97627,0.15672
324.48649,0.00697
322.99670,0.12912
321.50691,0.11823
320.01712,0.10737
318.52733,0.24856
317.03754,0.28634
315.54776,0.24343
314.05797,0.20055
312.56818,0.23593
311.07839,0.13510
309.58860,0.09991
308.09881,0.06476
306.60902,0.02333
305.11924,0.02736
303.62945,0.02638
302.13966,0.00697
300.64987,0.08138
299.16008,0.00697
