1778.52000,0.04843
1777.03021,0.05303
1775.54042,0.03433
1774.05063,0.00789
1772.56085,0.02658
1771.07106,0.03752
1769.58127,0.01039
1768.09148,0.03617
1766.60169,0.03476
1765.11190,0.02250
1763.62212,0.04760
1762.13233,0.06961
1760.64254,0.03800
1759.15275,0.01731
1757.66296,0.02232
1756.17317,0.01646
1754.68339,0.01142
1753.19360,0.01340
1751.70381,0.02397
1750.21402,0.03224
1748.72423,0.01566
1747.23444,0.03562
1745.74465,0.04550
1744.25487,0.04764
1742.76508,0.04359
1741.27529,0.07067
1739.78550,0.06746
1738.29571,0.04018
1736.80592,0.06036
1735.31614,0.03080
1733.82635,0.02072
1732.33656,0.03011
1730.84677,0.02009
1729.35698,0.05286
1727.86719,0.04601
1726.37740,0.04775
1724.88762,0.03707
1723.39783,0.02798
1721.90804,0.01037
1720.41825,0.02934
1718.92846,0.04056
1717.43867,0.01138
1715.94889,0.03700
1714.45910,0.06575
1712.96931,0.06422
1711.47952,0.04017
1709.98973,0.06513
1708.49994,0.05513
1707.01016,0.04595
1705.52037,0.03679
1704.03058,0.09842
1702.54079,0.10099
1701.05100,0.11837
1699.56121,0.11167
1698.07142,0.13844
1696.58164,0.10303
1695.09185,0.16174
1693.60206,0.12795
1692.11227,0.22716
1690.62248,0.20121
1689.13269,0.16207
1687.64291,0.20227
1686.15312,0.23006
1684.66333,0.20579
1683.17354,0.22121
1681.68375,0.18300
1680.19396,0.18993
1678.70417,0.20310
1677.21439,0.21942
1675.72460,0.21478
1674.23481,0.21716
1672.74502,0.21957
1671.25523,0.20103
1669.76544,0.22994
1668.27566,0.22623
1666.78587,0.16890
1665.29608,0.15825
1663.80629,0.18340
1662.31650,0.19458
1660.82671,0.16148
1659.33693,0.19605
1657.84714,0.15835
1656.35735,0.18443
1654.86756,0.16156
1653.37777,0.17293
1651.88798,0.16956
1650.39819,0.16389
1648.90841,0.13726
1647.41862,0.13165
1645.92883,0.13268
1644.43904,0.13374
1642.94925,0.18732
1641.45946,0.14918
1639.96968,0.15850
1638.47989,0.14530
1636.99010,0.14146
1635.50031,0.15865
1634.01052,0.10667
1632.52073,0.12625
1631.03094,0.12565
1629.54116,0.13674
1628.05137,0.14087
1626.56158,0.12558
1625.07179,0.19353
1623.58200,0.21641
1622.09221,0.20278
1620.60243,0.19928
1619.11264,0.18494
1617.62285,0.17528
1616.13306,0.15478
1614.64327,0.12419
1613.15348,0.17373
1611.66370,0.14709
1610.17391,0.16403
1608.68412,0.15768
1607.19433,0.15913
1605.70454,0.19249
1604.21475,0.17262
1602.72496,0.15278
1601.23518,0.20412
1599.74539,0.14353
1598.25560,0.12728
1596.76581,0.13906
1595.27602,0.09955
1593.78623,0.14016
1592.29645,0.09993
1590.80666,0.12116
1589.31687,0.08333
1587.82708,0.12173
1586.33729,0.08630
1584.84750,0.06256
1583.35771,0.07772
1581.86793,0.06182
1580.37814,0.08638
1578.88835,0.08687
1577.39856,0.11149
1575.90877,0.06072
1574.41898,0.06208
1572.92920,0.03859
1571.43941,0.05089
1569.94962,0.05468
1568.45983,0.05849
1566.97004,0.06234
1565.48025,0.06700
1563.99047,0.07635
1562.50068,0.04530
1561.01089,0.05393
1559.52110,0.04238
1558.03131,0.06119
1556.54152,0.03960
1555.05173,0.09345
1553.56195,0.08747
1552.07216,0.08230
1550.58237,0.05461
1549.09258,0.07905
1547.60279,0.07863
1546.11300,0.04093
1544.62322,0.05768
1543.13343,0.06513
1541.64364,0.06173
1540.15385,0.05409
1538.66406,0.04647
1537.17427,0.06960
1535.68448,0.04067
1534.19470,0.08874
1532.70491,0.00000
1531.21512,0.01806
1529.72533,0.02216
1528.23554,0.03250
1526.74575,0.01800
1525.25597,0.05562
1523.76618,0.04273
1522.27639,0.04776
1520.78660,0.05671
1519.29681,0.01437
1517.80702,0.04515
1516.31724,0.02620
1514.82745,0.01039
1513.33766,0.02538
1511.84787,0.04041
1510.35808,0.05469
1508.86829,0.05034
1507.37850,0.02736
1505.88872,0.04873
1504.39893,0.04058
1502.90914,0.05502
1501.41935,0.01039
1499.92956,0.08778
1498.43977,0.10999
1496.94999,0.11513
1495.46020,0.14130
1493.97041,0.18149
1492.48062,0.19683
1490.99083,0.25341
1489.50104,0.28515
1488.01125,0.33829
1486.52147,0.39147
1485.03168,0.44740
1483.54189,0.52280
1482.05210,0.59745
1480.56231,0.62004
1479.07252,0.73985
1477.58274,0.82859
1476.09295,0.90803
1474.60316,0.96807
1473.11337,1.03358
1471.62358,1.04935
1470.13379,1.05039
1468.64401,0.98692
1467.15422,0.92581
1465.66443,0.90905
1464.17464,0.89233
1462.68485,0.89896
1461.19506,0.83565
1459.70527,0.79336
1458.21549,0.73011
1456.72570,0.69488
1455.23591,0.59592
1453.74612,0.56775
1452.25633,0.57849
1450.76654,0.49984
1449.27676,0.50675
1447.78697,0.49192
1446.29718,0.46546
1444.80739,0.42737
1443.31760,0.38931
1441.82781,0.31085
1440.33802,0.25030
1438.84824,0.22789
1437.35845,0.17207
1435.86866,0.19170
1434.37887,0.16316
1432.88908,0.17042
1431.39929,0.18859
1429.90951,0.16325
1428.41972,0.16438
1426.92993,0.19664
1425.44014,0.23437
1423.95035,0.23676
1422.46056,0.23918
1420.97078,0.22880
1419.48099,0.22778
1417.99120,0.25323
1416.50141,0.25072
1415.01162,0.26768
1413.52183,0.23024
1412.03204,0.24493
1410.54226,0.27132
1409.05247,0.20442
1407.56268,0.25497
1406.07289,0.25035
1404.58310,0.25936
1403.09331,0.26841
1401.60353,0.26854
1400.11374,0.33013
1398.62395,0.30389
1397.13416,0.37409
1395.64437,0.36036
1394.15458,0.37620
1392.66479,0.33919
1391.17501,0.39942
1389.68522,0.39513
1388.19543,0.39477
1386.70564,0.40804
1385.21585,0.42135
1383.72606,0.39542
1382.23628,0.39051
1380.74649,0.34832
1379.25670,0.36913
1377.76691,0.33011
1376.27712,0.41552
1374.78733,0.39056
1373.29755,0.45971
1371.80776,0.60586
1370.31797,0.67974
1368.82818,0.74587
1367.33839,0.81204
1365.84860,0.96143
1364.35881,1.14428
1362.86903,1.21754
1361.37924,1.28305
1359.88945,1.27006
1358.39966,1.36518
1356.90987,1.41523
1355.42008,1.44432
1353.93030,1.35603
1352.44051,1.28643
1350.95072,1.21687
1349.46093,1.10223
1347.97114,1.03351
1346.48135,0.86451
1344.99156,0.75619
1343.50178,0.71711
1342.01199,0.66017
1340.52220,0.56749
1339.03241,0.47563
1337.54262,0.48177
1336.05283,0.46538
1334.56305,0.44903
1333.07326,0.44049
1331.58347,0.41643
1330.09368,0.31542
1328.60389,0.30852
1327.11410,0.28766
1325.62432,0.28316
1324.13453,0.31991
1322.64474,0.28437
1321.15495,0.32817
1319.66516,0.29852
1318.17537,0.26891
1316.68558,0.30736
1315.19580,0.26109
1313.70601,0.20707
1312.21622,0.22307
1310.72643,0.22743
1309.23664,0.19528
1307.74685,0.23315
1306.25707,0.23994
1304.76728,0.22537
1303.27749,0.21084
1301.78770,0.22861
1300.29791,0.22620
1298.80812,0.24325
1297.31834,0.20202
1295.82855,0.25957
1294.33876,0.22695
1292.84897,0.23791
1291.35918,0.21546
1289.86939,0.21910
1288.37960,0.22276
1286.88982,0.18253
1285.40003,0.21930
1283.91024,0.23822
1282.42045,0.31160
1280.93066,0.28782
1279.44087,0.32316
1277.95109,0.27456
1276.46130,0.26486
1274.97151,0.28475
1273.48172,0.30466
1271.99193,0.29117
1270.50214,0.33681
1269.01235,0.41514
1267.52257,0.42118
1266.03278,0.38527
1264.54299,0.40848
1263.05320,0.49315
1261.56341,0.48416
1260.07362,0.47519
1258.58384,0.49775
1257.09405,0.47291
1255.60426,0.48076
1254.11447,0.46220
1252.62468,0.46700
1251.13489,0.44229
1249.64511,0.39039
1248.15532,0.35252
1246.66553,0.35161
1245.17574,0.35073
1243.68595,0.29818
1242.19616,0.32730
1240.70637,0.31758
1239.21659,0.23013
1237.72680,0.24146
1236.23701,0.23261
1234.74722,0.21835
1233.25743,0.18584
1231.76764,0.15336
1230.27786,0.13764
1228.78807,0.16626
1227.29828,0.15526
1225.80849,0.10619
1224.31870,0.09059
1222.82891,0.10068
1221.33912,0.07114
1219.84934,0.09684
1218.35955,0.12258
1216.86976,0.09391
1215.37997,0.15236
1213.89018,0.12143
1212.40039,0.11851
1210.91061,0.10708
1209.42082,0.05991
1207.93103,0.06331
1206.44124,0.06674
1204.95145,0.06865
1203.46166,0.07214
1201.97188,0.06090
1200.48209,0.06445
1198.99230,0.04860
1197.50251,0.07710
1196.01272,0.07375
1194.52293,0.04206
1193.03314,0.01039
1191.54336,0.03863
1190.05357,0.06768
1188.56378,0.02367
1187.07399,0.03256
1185.58420,0.01194
1184.09441,0.05141
1182.60463,0.05126
1181.11484,0.05113
1179.62505,0.04482
1178.13526,0.04709
1176.64547,0.07817
1175.15568,0.10150
1173.66589,0.08131
1172.17611,0.03239
1170.68632,0.04804
1169.19653,0.06372
1167.70674,0.05377
1166.21695,0.02985
1164.72716,0.04251
1163.23738,0.04432
1161.74759,0.01039
1160.25780,0.02219
1158.76801,0.02703
1157.27822,0.03190
1155.78843,0.02747
1154.29865,0.06583
1152.80886,0.03658
1151.31907,0.01825
1149.82928,0.03338
1148.33949,0.05087
1146.84970,0.06840
1145.35991,0.08596
1143.87013,0.03435
1142.38034,0.03642
1140.89055,0.11005
1139.40076,0.13473
1137.91097,0.15944
1136.42118,0.18496
1134.93140,0.18602
1133.44161,0.18711
1131.95182,0.25004
1130.46203,0.29435
1128.97224,0.27959
1127.48245,0.21122
1125.99266,0.28127
1124.50288,0.31093
1123.01309,0.32390
1121.52330,0.33690
1120.03351,0.38609
1118.54372,0.42131
1117.05393,0.42080
1115.56415,0.34490
1114.07436,0.34678
1112.58457,0.34520
1111.09478,0.34364
1109.60499,0.42959
1108.11520,0.49925
1106.62542,0.47096
1105.13563,0.57022
1103.64584,0.59565
1102.15605,0.65221
1100.66626,0.67692
1099.17647,0.70166
1097.68668,0.71166
1096.19690,0.72792
1094.70711,0.73798
1093.21732,0.80561
1091.72753,0.83440
1090.23774,0.83755
1088.74795,0.84074
1087.25817,0.86885
1085.76838,0.93586
1084.27859,0.92125
1082.78880,0.99844
1081.29901,0.99478
1079.80922,0.98649
1078.31943,1.03772
1076.82965,1.08898
1075.33986,1.14221
1073.85007,1.13716
1072.36028,1.18579
1070.87049,1.23989
1069.38070,1.25281
1067.89092,1.25061
1066.40113,1.24843
1064.91134,1.19147
1063.42155,1.11666
1061.93176,0.97734
1060.44197,0.97101
1058.95219,0.90251
1057.46240,0.89041
1055.97261,0.87835
1054.48282,0.75240
1052.99303,0.71357
1051.50324,0.60013
1050.01345,0.56603
1048.52367,0.54906
1047.03388,0.53602
1045.54409,0.52300
1044.05430,0.53957
1042.56451,0.50018
1041.07472,0.41961
1039.58494,0.37095
1038.09515,0.31999
1036.60536,0.29939
1035.11557,0.27882
1033.62578,0.22251
1032.13599,0.28598
1030.64620,0.30671
1029.15642,0.38812
1027.66663,0.40502
1026.17684,0.42196
1024.68705,0.43271
1023.19726,0.49169
1021.70747,0.71400
1020.21769,0.89745
1018.72790,1.13148
1017.23811,1.22558
1015.74832,1.31971
1014.25853,1.52118
1012.76874,1.69468
1011.27896,1.76636
1009.78917,1.91660
1008.29938,2.00000
1006.80959,1.94153
1005.31980,1.88309
1003.83001,1.75976
1002.34022,1.67611
1000.85044,1.63526
999.36065,1.49647
997.87086,1.44052
996.38107,1.38460
994.89128,1.44885
993.40149,1.38794
991.91171,1.33639
990.42192,1.32608
988.93213,1.34613
987.44234,1.29545
985.95255,1.24480
984.46276,1.18719
982.97297,1.19336
981.48319,1.14514
979.99340,1.04641
978.50361,1.07134
977.01382,1.09630
975.52403,1.07076
974.03424,0.97293
972.54446,0.94744
971.05467,0.93210
969.56488,0.78304
968.07509,0.81519
966.58530,0.84737
965.09551,0.71862
963.60573,0.72909
962.11594,0.74192
960.62615,0.66926
959.13636,0.62345
957.64657,0.57767
956.15678,0.55097
954.66699,0.56629
953.17721,0.55909
951.68742,0.53715
950.19763,0.53002
948.70784,0.52291
947.21805,0.51584
945.72826,0.49558
944.23848,0.51967
942.74869,0.55157
941.25890,0.61149
939.76911,0.61273
938.27932,0.61401
936.78953,0.71057
935.29974,0.66487
933.80996,0.64797
932.32017,0.64743
930.83038,0.66674
929.34059,0.68609
927.85080,0.67320
926.36101,0.68989
924.87123,0.56043
923.38144,0.56008
921.89165,0.55587
920.40186,0.55169
918.91207,0.51488
917.42228,0.54342
915.93250,0.59843
914.44271,0.55161
912.95292,0.60629
911.46313,0.66100
909.97334,0.66792
908.48355,0.69354
906.99376,0.61810
905.50398,0.58080
904.01419,0.58823
902.52440,0.59570
901.03461,0.67512
899.54482,0.68615
898.05503,0.69021
896.56525,0.66632
895.07546,0.67822
893.58567,0.69015
892.09588,0.63835
890.60609,0.67756
889.11630,0.68258
887.62651,0.66820
886.13673,0.71994
884.64694,0.77172
883.15715,0.66490
881.66736,0.67319
880.17757,0.67840
878.68778,0.70542
877.19800,0.73247
875.70821,0.73777
874.21842,0.77499
872.72863,0.87211
871.23884,0.90550
869.74905,0.89577
868.25927,0.88607
866.76948,0.89934
865.27969,0.85043
863.78990,0.93841
862.30011,0.95566
860.81032,0.92395
859.32053,0.89228
857.83075,0.87930
856.34096,0.85857
854.85117,0.83710
853.36138,0.76589
851.87159,0.69628
850.38180,0.62669
848.89202,0.55791
847.40223,0.45495
845.91244,0.37302
844.42265,0.36382
842.93286,0.35464
841.44307,0.38011
839.95329,0.29830
838.46350,0.29349
836.97371,0.27317
835.48392,0.25677
833.99413,0.24040
832.50434,0.25672
831.01455,0.33527
829.52477,0.33610
828.03498,0.29652
826.54519,0.25543
825.05540,0.21436
823.56561,0.21065
822.07582,0.25906
820.58604,0.19398
819.09625,0.15071
817.60646,0.10747
816.11667,0.07592
814.62688,0.07861
813.13709,0.03624
811.64730,0.03744
810.15752,0.02390
808.66773,0.01039
807.17794,0.03117
805.68815,0.10952
804.19836,0.13425
802.70857,0.13841
801.21879,0.14260
799.72900,0.12621
798.23921,0.19539
796.74942,0.35324
795.25963,0.39487
793.76984,0.43654
792.28006,0.45529
790.79027,0.47331
789.30048,0.50613
787.81069,0.51954
786.32090,0.55475
784.83111,0.58999
783.34132,0.64159
781.85154,0.69167
780.36175,0.62049
778.87196,0.60804
777.38217,0.59561
775.89238,0.68781
774.40259,0.74737
772.91281,0.81008
771.42302,0.79195
769.93323,0.77385
768.44344,0.83976
766.95365,0.76186
765.46386,0.75708
763.97407,0.78031
762.48429,0.74332
760.99450,0.70636
759.50471,0.58118
758.01492,0.42182
756.52513,0.42345
755.03534,0.37456
753.54556,0.32570
752.05577,0.26133
750.56598,0.20709
749.07619,0.18788
747.58640,0.14886
746.09661,0.10988
744.60683,0.05810
743.11704,0.11599
741.62725,0.09538
740.13746,0.07907
738.64767,0.06279
737.15788,0.01039
735.66809,0.06023
734.17831,0.01058
732.68852,0.01773
731.19873,0.02490
729.70894,0.05232
728.21915,0.07666
726.72936,0.06915
725.23958,0.04846
723.74979,0.07328
722.26000,0.09813
720.77021,0.12185
719.28042,0.04763
717.79063,0.09551
716.30084,0.07345
714.81106,0.05142
713.32127,0.05119
711.83148,0.03388
710.34169,0.01039
708.85190,0.02624
707.36211,0.04212
705.87233,0.12840
704.38254,0.07864
702.89275,0.06234
701.40296,0.09351
699.91317,0.12470
698.42338,0.10539
696.93360,0.14054
695.44381,0.10418
693.95402,0.11334
692.46423,0.12253
690.97444,0.17802
689.48465,0.17289
687.99486,0.19967
686.50508,0.20121
685.01529,0.20279
683.52550,0.24754
682.03571,0.21225
680.54592,0.16454
679.05613,0.18878
677.56635,0.21306
676.07656,0.17555
674.58677,0.14274
673.09698,0.06875
671.60719,0.07527
670.11740,0.08182
668.62761,0.12378
667.13783,0.11989
665.64804,0.10476
664.15825,0.08967
662.66846,0.08587
661.17867,0.03235
659.68888,0.03717
658.19910,0.08207
656.70931,0.12700
655.21952,0.11248
653.72973,0.08632
652.23994,0.11074
650.75015,0.13830
649.26037,0.16589
647.77058,0.11964
646.28079,0.05632
644.79100,0.05523
643.30121,0.03280
641.81142,0.01039
640.32163,0.05139
638.83185,0.07143
637.34206,0.04174
635.85227,0.04668
634.36248,0.05165
632.87269,0.01039
631.38290,0.04993
629.89312,0.03275
628.40333,0.04902
626.91354,0.06533
625.42375,0.04668
623.93396,0.07705
622.44417,0.07907
620.95438,0.08112
619.46460,0.07659
617.97481,0.09697
616.48502,0.07229
614.99523,0.08380
613.50544,0.09533
612.01565,0.10573
610.52587,0.12394
609.03608,0.10563
607.54629,0.09513
606.05650,0.08466
604.56671,0.16675
603.07692,0.16334
601.58714,0.14169
600.09735,0.12007
598.60756,0.05844
597.11777,0.10725
595.62798,0.10944
594.13819,0.12721
592.64840,0.14502
591.15862,0.07576
589.66883,0.16205
588.17904,0.06254
586.68925,0.05714
585.19946,0.05177
583.70967,0.07054
582.21989,0.09867
580.73010,0.12527
579.24031,0.15191
577.75052,0.14358
576.26073,0.20216
574.77094,0.16980
573.28115,0.18256
571.79137,0.19536
570.30158,0.24317
568.81179,0.31590
567.32200,0.32101
565.83221,0.32616
564.34242,0.31423
562.85264,0.28911
561.36285,0.31145
559.87306,0.37076
558.38327,0.43010
556.89348,0.49997
555.40369,0.52710
553.91391,0.53288
552.42412,0.53870
550.93433,0.62424
549.44454,0.55042
547.95475,0.60414
546.46496,0.61397
544.97517,0.62383
543.48539,0.64810
541.99560,0.66152
540.50581,0.69829
539.01602,0.73510
537.52623,0.70118
536.03644,0.59342
534.54666,0.62332
533.05687,0.60427
531.56708,0.58525
530.07729,0.56315
528.58750,0.57762
527.09771,0.54198
525.60792,0.50637
524.11814,0.55204
522.62835,0.49044
521.13856,0.48252
519.64877,0.44159
518.15898,0.40068
516.66919,0.40919
515.17941,0.34308
513.68962,0.34620
512.19983,0.34936
510.71004,0.35798
509.22025,0.33865
507.73046,0.34268
506.24068,0.36578
504.75089,0.38892
503.26110,0.38760
501.77131,0.38630
500.28152,0.39748
498.79173,0.40869
497.30194,0.32041
495.81216,0.32235
494.32237,0.34298
492.83258,0.36365
491.34279,0.41311
489.85300,0.34831
488.36321,0.28509
486.87343,0.26701
485.38364,0.24895
483.89385,0.22004
482.40406,0.20515
480.91427,0.17980
479.42448,0.15448
477.93469,0.13503
476.44491,0.11638
474.95512,0.12692
473.46533,0.13749
471.97554,0.09872
470.48575,0.09264
468.99596,0.01039
467.50618,0.03488
466.01639,0.05939
464.52660,0.04234
463.03681,0.04165
461.54702,0.04799
460.05723,0.05435
458.56745,0.12140
457.07766,0.08818
455.58787,0.16540
454.09808,0.24265
452.60829,0.18930
451.11850,0.15775
449.62871,0.14995
448.13893,0.14219
446.64914,0.28957
445.15935,0.40200
443.66956,0.49579
442.17977,0.50564
440.68998,0.51553
439.20020,0.53710
437.71041,0.64424
436.22062,0.67910
434.73083,0.71399
433.24104,0.86088
431.75125,0.89894
430.26146,0.98640
428.77168,1.07390
427.28189,1.10039
425.79210,1.13003
424.30231,1.15852
422.81252,1.18705
421.32273,1.07216
419.83295,0.96973
418.34316,0.95442
416.85337,0.93914
415.36358,0.82126
413.87379,0.71507
412.38400,0.68744
410.89422,0.65985
409.40443,0.61207
407.91464,0.59931
406.42485,0.59669
404.93506,0.56494
403.44527,0.53323
401.95548,0.44751
400.46570,0.41546
398.97591,0.42000
397.48612,0.42456
395.99633,0.47737
394.50654,0.49677
393.01675,0.49365
391.52697,0.49056
390.03718,0.41675
388.54739,0.23489
387.05760,0.27583
385.56781,0.31680
384.07802,0.36052
382.58824,0.39883
381.09845,0.37031
379.60866,0.34181
378.11887,0.30479
376.62908,0.23515
375.13929,0.21219
373.64950,0.18926
372.15972,0.20602
370.66993,0.16371
369.18014,0.13854
367.69035,0.11341
366.20056,0.12562
364.71077,0.15420
363.22099,0.16065
361.73120,0.16712
360.24141,0.17480
358.75162,0.19261
357.26183,0.15875
355.77204,0.12492
354.28225,0.12495
352.79247,0.07602
351.30268,0.07649
349.81289,0.07700
348.32310,0.09581
346.83331,0.06333
345.34352,0.06044
343.85374,0.05757
342.36395,0.15737
340.87416,0.10869
339.38437,0.11757
337.89458,0.12649
336.40479,0.15177
334.91501,0.13976
333.42522,0.13361
331.93543,0.12749
330.44564,0.14979
328.95585,0.21332
327.46606,0.17542
325.97627,0.13755
324.48649,0.06122
322.99670,0.10449
321.50691,0.13651
320.01712,0.16857
318.52733,0.17150
317.03754,0.21490
315.54776,0.22722
314.05797,0.23958
312.56818,0.19443
311.07839,0.20996
309.58860,0.14854
308.09881,0.08715
306.60902,0.01957
305.11924,0.06431
303.62945,0.06165
302.13966,0.02345
300.64987,0.01039
299.16008,0.01039
