1778.52000,0.03433
1777.03021,0.02246
1775.54042,0.03256
1774.05063,0.00431
1772.56085,0.00259
1771.07106,0.03745
1769.58127,0.03123
1768.09148,0.03326
1766.60169,0.01979
1765.11190,0.03741
1763.62212,0.02218
1762.13233,0.03804
1760.64254,0.01464
1759.15275,0.06986
1757.66296,0.01820
1756.17317,0.01043
1754.68339,0.00269
1753.19360,0.03793
1751.70381,0.03756
1750.21402,0.00342
1748.72423,0.01957
1747.23444,0.06772
1745.74465,0.03733
1744.25487,0.04900
1742.76508,0.05157
1741.27529,0.02766
1739.78550,0.02481
1738.29571,0.00828
1736.80592,0.03471
1735.31614,0.02370
1733.82635,0.02644
1732.33656,0.01732
1730.84677,0.03108
1729.35698,0.00376
1727.86719,0.03403
1726.37740,0.00951
1724.88762,0.02431
1723.39783,0.00259
1721.90804,0.01680
1720.41825,0.03105
1718.92846,0.01699
1717.43867,0.01668
1715.94889,0.04746
1714.45910,0.05178
1712.96931,0.07988
1711.47952,0.03675
1709.98973,0.04573
1708.49994,0.06936
1707.01016,0.06424
1705.52037,0.05915
1704.03058,0.05546
1702.54079,0.06003
1701.05100,0.09113
1699.56121,0.10398
1698.07142,0.08672
1696.58164,0.12522
1695.09185,0.14730
1693.60206,0.15389
1692.11227,0.19340
1690.62248,0.15162
1689.13269,0.15647
1687.64291,0.14308
1686.15312,0.19824
1684.66333,0.20685
1683.17354,0.19812
1681.68375,0.21043
1680.19396,0.15060
1678.70417,0.16481
1677.21439,0.16991
1675.72460,0.18235
1674.23481,0.13635
1672.74502,0.18997
1671.25523,0.22353
1669.76544,0.23061
1668.27566,0.22402
1666.78587,0.16812
1665.29608,0.18536
1663.80629,0.16607
1662.31650,0.19342
1660.82671,0.16597
1659.33693,0.17602
1657.84714,0.16234
1656.35735,0.12311
1654.86756,0.15792
1653.37777,0.15348
1651.88798,0.11068
1650.39819,0.15290
1648.90841,0.16957
1647.41862,0.10311
1645.92883,0.11527
1644.43904,0.12746
1642.94925,0.14059
1641.45946,0.14828
1639.96968,0.12218
1638.47989,0.15826
1636.99010,0.13771
1635.50031,0.11628
1634.01052,0.11681
1632.52073,0.11554
1631.03094,0.09421
1629.54116,0.12316
1628.05137,0.13295
1626.56158,0.14004
1625.07179,0.14989
1623.58200,0.17623
1622.09221,0.16422
1620.60243,0.15133
1619.11264,0.16862
1617.62285,0.16584
1616.13306,0.14847
1614.64327,0.13845
1613.15348,0.14582
1611.66370,0.11484
1610.17391,0.15333
1608.68412,0.11602
1607.19433,0.12260
1605.70454,0.10545
1604.21475,0.10159
1602.72496,0.09775
1601.23518,0.15106
1599.74539,0.10754
1598.25560,0.11979
1596.76581,0.10740
1595.27602,0.07768
1593.78623,0.09368
1592.29645,0.10514
1590.80666,0.06455
1589.31687,0.06054
1587.82708,0.05291
1586.33729,0.05719
1584.84750,0.04688
1583.35771,0.04665
1581.86793,0.00259
1580.37814,0.04442
1578.88835,0.06252
1577.39856,0.06329
1575.90877,0.05952
1574.41898,0.02655
1572.92920,0.05665
1571.43941,0.01003
1569.94962,0.01370
1568.45983,0.01740
1566.97004,0.03210
1565.48025,0.04317
1563.99047,0.01590
1562.50068,0.03435
1561.01089,0.03363
1559.52110,0.03113
1558.03131,0.02226
1556.54152,0.05727
1555.05173,0.05029
1553.56195,0.06070
1552.07216,0.04556
1550.58237,0.05421
1549.09258,0.02633
1547.60279,0.04327
1546.11300,0.03465
1544.62322,0.05712
1543.13343,0.04308
1541.64364,0.06654
1540.15385,0.04845
1538.66406,0.03039
1537.17427,0.01556
1535.68448,0.00259
1534.19470,0.03281
1532.70491,0.02651
1531.21512,0.01842
1529.72533,0.03868
1528.23554,0.01420
1526.74575,0.05554
1525.25597,0.03752
1523.76618,0.05426
1522.27639,0.01802
1520.78660,0.00193
1519.29681,0.03186
1517.80702,0.01066
1516.31724,0.00411
1514.82745,0.05178
1513.33766,0.05151
1511.84787,0.05127
1510.35808,0.06797
1508.86829,0.06003
1507.37850,0.00187
1505.88872,0.00587
1504.39893,0.00259
1502.90914,0.04865
1501.41935,0.05453
1499.92956,0.03120
1498.43977,0.09106
1496.94999,0.08881
1495.46020,0.15238
1493.97041,0.13375
1492.48062,0.22023
1490.99083,0.24369
1489.50104,0.30099
1488.01125,0.30853
1486.52147,0.31609
1485.03168,0.39542
1483.54189,0.46838
1482.05210,0.51670
1480.56231,0.58790
1479.07252,0.68745
1477.58274,0.79252
1476.09295,0.88574
1474.60316,0.92691
1473.11337,0.97177
1471.62358,1.03767
1470.13379,0.97568
1468.64401,0.95210
1467.15422,0.83352
1465.66443,0.82508
1464.17464,0.81667
1462.68485,0.80783
1461.19506,0.80542
1459.70527,0.71533
1458.21549,0.69471
1456.72570,0.65036
1455.23591,0.59965
1453.74612,0.57821
1452.25633,0.55132
1450.76654,0.46415
1449.27676,0.47479
1447.78697,0.42332
1446.29718,0.39564
1444.80739,0.37668
1443.31760,0.35774
1441.82781,0.31005
1440.33802,0.26148
1438.84824,0.19650
1437.35845,0.16170
1435.86866,0.14795
1434.37887,0.19636
1432.88908,0.17719
1431.39929,0.14708
1429.90951,0.16087
1428.41972,0.17012
1426.92993,0.15198
1425.44014,0.18779
1423.95035,0.18252
1422.46056,0.17727
1420.97078,0.18759
1419.48099,0.19794
1417.99120,0.21289
1416.50141,0.24158
1415.01162,0.25568
1413.52183,0.25245
1412.03204,0.20996
1410.54226,0.16841
1409.05247,0.20000
1407.56268,0.22157
1406.07289,0.21118
1404.58310,0.20814
1403.09331,0.20513
1401.60353,0.21038
1400.11374,0.21383
1398.62395,0.26482
1397.13416,0.29849
1395.64437,0.23076
1394.15458,0.23799
1392.66479,0.25804
1391.17501,0.29732
1389.68522,0.27174
1388.19543,0.22519
1386.70564,0.23989
1385.21585,0.25461
1383.72606,0.26572
1382.23628,0.22112
1380.74649,0.20670
1379.25670,0.15485
1377.76691,0.25106
1376.27712,0.24130
1374.78733,0.28001
1373.29755,0.26575
1371.80776,0.35203
1370.31797,0.40637
1368.82818,0.47124
1367.33839,0.53614
1365.84860,0.66915
1364.35881,0.68615
1362.86903,0.79638
1361.37924,0.84176
1359.88945,0.84241
1358.39966,0.91435
1356.90987,0.97719
1355.42008,0.94595
1353.93030,0.92570
1352.44051,0.92878
1350.95072,0.93190
1349.46093,0.83773
1347.97114,0.81030
1346.48135,0.61020
1344.99156,0.60110
1343.50178,0.51711
1342.01199,0.44869
1340.52220,0.48446
1339.03241,0.39143
1337.54262,0.44188
1336.05283,0.40968
1334.56305,0.37750
1333.07326,0.33211
1331.58347,0.36624
1330.09368,0.25512
1328.60389,0.26191
1327.11410,0.23674
1325.62432,0.27009
1324.13453,0.27240
1322.64474,0.30581
1321.15495,0.31458
1319.66516,0.28729
1318.17537,0.26003
1316.68558,0.26615
1315.19580,0.27047
1313.70601,0.21727
1312.21622,0.20886
1310.72643,0.14110
1309.23664,0.19032
1307.74685,0.22679
1306.25707,0.18927
1304.76728,0.18559
1303.27749,0.18195
1301.78770,0.23042
1300.29791,0.19120
1298.80812,0.18856
1297.31834,0.20057
1295.82855,0.17241
1294.33876,0.23383
1292.84897,0.20116
1291.35918,0.22061
1289.86939,0.21634
1288.37960,0.21209
1286.88982,0.21793
1285.40003,0.23385
1283.91024,0.23975
1282.42045,0.29228
1280.93066,0.31743
1279.44087,0.26038
1277.95109,0.25270
1276.46130,0.27886
1274.97151,0.28632
1273.48172,0.29381
1271.99193,0.33742
1270.50214,0.45234
1269.01235,0.39459
1267.52257,0.40084
1266.03278,0.43087
1264.54299,0.42347
1263.05320,0.42890
1261.56341,0.44349
1260.07362,0.45812
1258.58384,0.53035
1257.09405,0.52950
1255.60426,0.49397
1254.11447,0.48131
1252.62468,0.55000
1251.13489,0.48989
1249.64511,0.41336
1248.15532,0.36519
1246.66553,0.33761
1245.17574,0.31006
1243.68595,0.30584
1242.19616,0.33729
1240.70637,0.32674
1239.21659,0.32079
1237.72680,0.26279
1236.23701,0.21396
1234.74722,0.24100
1233.25743,0.25482
1231.76764,0.26867
1230.27786,0.20260
1228.78807,0.17129
1227.29828,0.19026
1225.80849,0.15353
1224.31870,0.12231
1222.82891,0.05000
1221.33912,0.11296
1219.84934,0.11153
1218.35955,0.11013
1216.86976,0.16130
1215.37997,0.16773
1213.89018,0.17694
1212.40039,0.13866
1210.91061,0.10041
1209.42082,0.08047
1207.93103,0.09346
1206.44124,0.10647
1204.95145,0.11404
1203.46166,0.06590
1201.97188,0.02327
1200.48209,0.09398
1198.99230,0.09984
1197.50251,0.05000
1196.01272,0.05684
1194.52293,0.05914
1193.03314,0.06147
1191.54336,0.05836
1190.05357,0.05801
1188.56378,0.03120
1187.07399,0.00259
1185.58420,0.04502
1184.09441,0.01072
1182.60463,0.04270
1181.11484,0.07471
1179.62505,0.08163
1178.13526,0.03466
1176.64547,0.06083
1175.15568,0.09433
1173.66589,0.06391
1172.17611,0.03535
1170.68632,0.03514
1169.19653,0.03497
1167.70674,0.06680
1166.21695,0.02740
1164.72716,0.04102
1163.23738,0.06382
1161.74759,0.04553
1160.25780,0.00259
1158.76801,0.03754
1157.27822,0.07251
1155.78843,0.04402
1154.29865,0.02560
1152.80886,0.07849
1151.31907,0.07384
1149.82928,0.06923
1148.33949,0.09297
1146.84970,0.09344
1145.35991,0.09395
1143.87013,0.05291
1142.38034,0.13160
1140.89055,0.12352
1139.40076,0.14380
1137.91097,0.16228
1136.42118,0.16800
1134.93140,0.19157
1133.44161,0.21517
1131.95182,0.25296
1130.46203,0.26429
1128.97224,0.28753
1127.48245,0.29069
1125.99266,0.28658
1124.50288,0.29621
1123.01309,0.32688
1121.52330,0.35758
1120.03351,0.38010
1118.54372,0.41726
1117.05393,0.42065
1115.56415,0.40762
1114.07436,0.40010
1112.58457,0.41729
1111.09478,0.43451
1109.60499,0.40881
1108.11520,0.52752
1106.62542,0.52930
1105.13563,0.65995
1103.64584,0.70656
1102.15605,0.74590
1100.66626,0.76105
1099.17647,0.77624
1097.68668,0.77364
1096.19690,0.86336
1094.70711,0.88001
1093.21732,0.93232
1091.72753,0.93168
1090.23774,0.94796
1088.74795,0.96428
1087.25817,1.01490
1085.76838,1.02077
1084.27859,1.05500
1082.78880,1.06642
1081.29901,1.05412
1079.80922,1.10398
1078.31943,1.11046
1076.82965,1.11698
1075.33986,1.15871
1073.85007,1.20139
1072.36028,1.24866
1070.87049,1.16530
1069.38070,1.31224
1067.89092,1.35047
1066.40113,1.38874
1064.91134,1.33200
1063.42155,1.13915
1061.93176,1.05324
1060.44197,1.02858
1058.95219,0.96192
1057.46240,0.90762
1055.97261,0.85336
1054.48282,0.79137
1052.99303,0.77509
1051.50324,0.77437
1050.01345,0.65216
1048.52367,0.65608
1047.03388,0.63536
1045.54409,0.61467
1044.05430,0.66437
1042.56451,0.60993
1041.07472,0.54274
1039.58494,0.39973
1038.09515,0.32985
1036.60536,0.31529
1035.11557,0.30076
1033.62578,0.38723
1032.13599,0.38418
1030.64620,0.31264
1029.15642,0.40468
1027.66663,0.41224
1026.17684,0.41983
1024.68705,0.49369
1023.19726,0.60414
1021.70747,0.72010
1020.21769,0.96493
1018.72790,1.08096
1017.23811,1.17234
1015.74832,1.26376
1014.25853,1.50963
1012.76874,1.52252
1011.27896,1.68896
1009.78917,1.84538
1008.29938,2.00000
1006.80959,1.97876
1005.31980,1.95754
1003.83001,1.81803
1002.34022,1.71327
1000.85044,1.71454
999.36065,1.53218
997.87086,1.47914
996.38107,1.42614
994.89128,1.53901
993.40149,1.46003
991.91171,1.53001
990.42192,1.45932
988.93213,1.45261
987.44234,1.42584
985.95255,1.39909
984.46276,1.43909
982.97297,1.34936
981.48319,1.21763
979.99340,1.26594
978.50361,1.31017
977.01382,1.35443
975.52403,1.34435
974.03424,1.24110
972.54446,1.22926
971.05467,1.15532
969.56488,1.13715
968.07509,1.09433
966.58530,1.05155
965.09551,1.00240
963.60573,0.97704
962.11594,0.95080
960.62615,0.85332
959.13636,0.85319
957.64657,0.85308
956.15678,0.82423
954.66699,0.77713
953.17721,0.76021
951.68742,0.78353
950.19763,0.79501
948.70784,0.80651
947.21805,0.74952
945.72826,0.73368
944.23848,0.66761
942.74869,0.72858
941.25890,0.69090
939.76911,0.75925
938.27932,0.82763
936.78953,0.82568
935.29974,0.78721
933.80996,0.72502
932.32017,0.77251
930.83038,0.80769
929.34059,0.84291
927.85080,0.80185
926.36101,0.84033
924.87123,0.80025
923.38144,0.74194
921.89165,0.75538
920.40186,0.76885
918.91207,0.71428
917.42228,0.74929
915.93250,0.74321
914.44271,0.82032
912.95292,0.79557
911.46313,0.77086
909.97334,0.77861
908.48355,0.80559
906.99376,0.87736
905.50398,0.81120
904.01419,0.78847
902.52440,0.76577
901.03461,0.82671
899.54482,0.85022
898.05503,0.88107
896.56525,0.85895
895.07546,0.89809
893.58567,0.93725
892.09588,0.96823
890.60609,0.91700
889.11630,0.88225
887.62651,0.87585
886.13673,0.86263
884.64694,0.84945
883.15715,0.79746
881.66736,0.78114
880.17757,0.85714
878.68778,0.83220
877.19800,0.80730
875.70821,0.84593
874.21842,0.95038
872.72863,0.95618
871.23884,0.98028
869.74905,0.97244
868.25927,0.96463
866.76948,0.90567
865.27969,0.91985
863.78990,0.92036
862.30011,1.01775
860.81032,0.95664
859.32053,0.89556
857.83075,0.98482
856.34096,0.93614
854.85117,0.88384
853.36138,0.77400
851.87159,0.72678
850.38180,0.67960
848.89202,0.59087
847.40223,0.48664
845.91244,0.45920
844.42265,0.39249
842.93286,0.32582
841.44307,0.33045
839.95329,0.30953
838.46350,0.31331
836.97371,0.27326
835.48392,0.24877
833.99413,0.22432
832.50434,0.28031
831.01455,0.30344
829.52477,0.29461
828.03498,0.22369
826.54519,0.21401
825.05540,0.20437
823.56561,0.18196
822.07582,0.26467
820.58604,0.19573
819.09625,0.13732
817.60646,0.07895
816.11667,0.01193
814.62688,0.09297
813.13709,0.07810
811.64730,0.05411
810.15752,0.02834
808.66773,0.00259
807.17794,0.02106
805.68815,0.05784
804.19836,0.10836
802.70857,0.11596
801.21879,0.12359
799.72900,0.13308
798.23921,0.20291
796.74942,0.33582
795.25963,0.37602
793.76984,0.41624
792.28006,0.46701
790.79027,0.51964
789.30048,0.62895
787.81069,0.62772
786.32090,0.61648
784.83111,0.60527
783.34132,0.69552
781.85154,0.72457
780.36175,0.70523
778.87196,0.70055
777.38217,0.69589
775.89238,0.74335
774.40259,0.81459
772.91281,0.86394
771.42302,0.86261
769.93323,0.86130
768.44344,0.88790
766.95365,0.93646
765.46386,0.90921
763.97407,0.84544
762.48429,0.75704
760.99450,0.66866
759.50471,0.54742
758.01492,0.55505
756.52513,0.47956
755.03534,0.39633
753.54556,0.31314
752.05577,0.19114
750.56598,0.23091
749.07619,0.15832
747.58640,0.12368
746.09661,0.08907
744.60683,0.05586
743.11704,0.09122
741.62725,0.03706
740.13746,0.05283
738.64767,0.06864
737.15788,0.04199
735.66809,0.01354
734.17831,0.05091
732.68852,0.04125
731.19873,0.03163
729.70894,0.01427
728.21915,0.04812
726.72936,0.06829
725.23958,0.00259
723.74979,0.05504
722.26000,0.10752
720.77021,0.11480
719.28042,0.05998
717.79063,0.04631
716.30084,0.04089
714.81106,0.03551
713.32127,0.00000
711.83148,0.05263
710.34169,0.05046
708.85190,0.05427
707.36211,0.05811
705.87233,0.01949
704.38254,0.03389
702.89275,0.05839
701.40296,0.06646
699.91317,0.07457
698.42338,0.05895
696.93360,0.12834
695.44381,0.06983
693.95402,0.10045
692.46423,0.13110
690.97444,0.13940
689.48465,0.17696
687.99486,0.14238
686.50508,0.15122
685.01529,0.16010
683.52550,0.24074
682.03571,0.19805
680.54592,0.13895
679.05613,0.18496
677.56635,0.23100
676.07656,0.18935
674.58677,0.11119
673.09698,0.08422
671.60719,0.10983
670.11740,0.13547
668.62761,0.18353
667.13783,0.05069
665.64804,0.02663
664.15825,0.00259
662.66846,0.08047
661.17867,0.08892
659.68888,0.07731
658.19910,0.06939
656.70931,0.06149
655.21952,0.06094
653.72973,0.07413
652.23994,0.09008
650.75015,0.13486
649.26037,0.17966
647.77058,0.11713
646.28079,0.09575
644.79100,0.09542
643.30121,0.08461
641.81142,0.07383
640.32163,0.07359
638.83185,0.05602
637.34206,0.02387
635.85227,0.01321
634.36248,0.00259
632.87269,0.04885
631.38290,0.05768
629.89312,0.04735
628.40333,0.05532
626.91354,0.06333
625.42375,0.04030
623.93396,0.08949
622.44417,0.10993
620.95438,0.13040
619.46460,0.04719
617.97481,0.10107
616.48502,0.14494
614.99523,0.13903
613.50544,0.13316
612.01565,0.15153
610.52587,0.11237
609.03608,0.14999
607.54629,0.12917
606.05650,0.10838
604.56671,0.15980
603.07692,0.17562
601.58714,0.14762
600.09735,0.11964
598.60756,0.09352
597.11777,0.11312
595.62798,0.07336
594.13819,0.08069
592.64840,0.08805
591.15862,0.10229
589.66883,0.08276
588.17904,0.07148
586.68925,0.06572
585.19946,0.05999
583.70967,0.10363
582.21989,0.14730
580.73010,0.14760
579.24031,0.14793
577.75052,0.09301
576.26073,0.14961
574.77094,0.21628
573.28115,0.20349
571.79137,0.19073
570.30158,0.26572
568.81179,0.32612
567.32200,0.32853
565.83221,0.33098
564.34242,0.35584
562.85264,0.39078
561.36285,0.37276
559.87306,0.44203
558.38327,0.51133
556.89348,0.55006
555.40369,0.55683
553.91391,0.56135
552.42412,0.56591
550.93433,0.49693
549.44454,0.59521
547.95475,0.62224
546.46496,0.63972
544.97517,0.65722
543.48539,0.74100
541.99560,0.80197
540.50581,0.74464
539.01602,0.68734
537.52623,0.69723
536.03644,0.62583
534.54666,0.64310
533.05687,0.64989
531.56708,0.65671
530.07729,0.54066
528.58750,0.54800
527.09771,0.53161
525.60792,0.51526
524.11814,0.55742
522.62835,0.53381
521.13856,0.43989
519.64877,0.40630
518.15898,0.37274
516.66919,0.30723
515.17941,0.32856
513.68962,0.31428
512.19983,0.30004
510.71004,0.33334
509.22025,0.36393
507.73046,0.34613
506.24068,0.35485
504.75089,0.36361
503.26110,0.36874
501.77131,0.40406
500.28152,0.37682
498.79173,0.34961
497.30194,0.31283
495.81216,0.32269
494.32237,0.33350
492.83258,0.34433
491.34279,0.33418
489.85300,0.32772
488.36321,0.30576
486.87343,0.24225
485.38364,0.17877
483.89385,0.23000
482.40406,0.22461
480.91427,0.18726
479.42448,0.14995
477.93469,0.09166
476.44491,0.07817
474.95512,0.07887
473.46533,0.07961
471.97554,0.08540
470.48575,0.00259
468.99596,0.11362
467.50618,0.07984
466.01639,0.04610
464.52660,0.01650
463.03681,0.05181
461.54702,0.06979
460.05723,0.08780
458.56745,0.00259
457.07766,0.07085
455.58787,0.08111
454.09808,0.09140
452.60829,0.14513
451.11850,0.14771
449.62871,0.19145
448.13893,0.23522
446.64914,0.35121
445.15935,0.39504
443.66956,0.46084
442.17977,0.46225
440.68998,0.46368
439.20020,0.45739
437.71041,0.66311
436.22062,0.67469
434.73083,0.68631
433.24104,0.83547
431.75125,0.97827
430.26146,1.01146
428.77168,1.04467
427.28189,1.08340
425.79210,1.11667
424.30231,1.15090
422.81252,1.18515
421.32273,1.11252
419.83295,0.98876
418.34316,1.00209
416.85337,1.01546
415.36358,0.82600
413.87379,0.74165
412.38400,0.71079
410.89422,0.67996
409.40443,0.60394
407.91464,0.65952
406.42485,0.53421
404.93506,0.52133
403.44527,0.50847
401.95548,0.44083
400.46570,0.42438
398.97591,0.40888
397.48612,0.39341
395.99633,0.43280
394.50654,0.49049
393.01675,0.48791
391.52697,0.48536
390.03718,0.41705
388.54739,0.37345
387.05760,0.39018
385.56781,0.40694
384.07802,0.48313
382.58824,0.43234
381.09845,0.35371
379.60866,0.27511
378.11887,0.26462
376.62908,0.20573
375.13929,0.18662
373.64950,0.16755
372.15972,0.22388
370.66993,0.19984
369.18014,0.18634
367.69035,0.17287
366.20056,0.14618
364.71077,0.14877
363.22099,0.13722
361.73120,0.12570
360.24141,0.08543
358.75162,0.06804
357.26183,0.09043
355.77204,0.11285
354.28225,0.11839
352.79247,0.02620
351.30268,0.05191
349.81289,0.07765
348.32310,0.03946
346.83331,0.05704
345.34352,0.04221
343.85374,0.02742
342.36395,0.15292
340.87416,0.12768
339.38437,0.12440
337.89458,0.12115
336.40479,0.10880
334.91501,0.08825
333.42522,0.08830
331.93543,0.08837
330.44564,0.13280
328.95585,0.06761
327.46606,0.09199
325.97627,0.11641
324.48649,0.08420
322.99670,0.01365
321.50691,0.04996
320.01712,0.08630
318.52733,0.19440
317.03754,0.11064
315.54776,0.11007
314.05797,0.10953
312.56818,0.09531
311.07839,0.05280
309.58860,0.02768
308.09881,0.00259
306.60902,0.05962
305.11924,0.01252
303.62945,0.01844
302.13966,0.02440
300.64987,0.08429
299.16008,0.00259
