1778.52000,0.04495
1777.03021,0.04387
1775.54042,0.04842
1774.05063,0.00904
1772.56085,0.04963
1771.07106,0.07346
1769.58127,0.03177
1768.09148,0.02769
1766.60169,0.05481
1765.11190,0.03880
1763.62212,0.04040
1762.13233,0.07161
1760.64254,0.05010
1759.15275,0.06458
1757.66296,0.06072
1756.17317,0.03050
1754.68339,0.02750
1753.19360,0.03971
1751.70381,0.00000
1750.21402,0.01947
1748.72423,0.00939
1747.23444,0.00494
1745.74465,0.03570
1744.25487,0.02412
1742.76508,0.04933
1741.27529,0.04021
1739.78550,0.07589
1738.29571,0.03805
1736.80592,0.00904
1735.31614,0.02402
1733.82635,0.01504
1732.33656,0.01969
1730.84677,0.01637
1729.35698,0.01948
1727.86719,0.02502
1726.37740,0.01060
1724.88762,0.03698
1723.39783,0.00904
1721.90804,0.01014
1720.41825,0.01417
1718.92846,0.03822
1717.43867,0.03592
1715.94889,0.02726
1714.45910,0.03542
1712.96931,0.02282
1711.47952,0.05502
1709.98973,0.03849
1708.49994,0.02918
1707.01016,0.02590
1705.52037,0.02265
1704.03058,0.06700
1702.54079,0.06421
1701.05100,0.09503
1699.56121,0.07792
1698.07142,0.07842
1696.58164,0.10693
1695.09185,0.14907
1693.60206,0.15206
1692.11227,0.13351
1690.62248,0.17094
1689.13269,0.16124
1687.64291,0.18514
1686.15312,0.18590
1684.66333,0.15950
1683.17354,0.19149
1681.68375,0.16596
1680.19396,0.18603
1678.70417,0.15177
1677.21439,0.15031
1675.72460,0.16727
1674.23481,0.17707
1672.74502,0.18609
1671.25523,0.20394
1669.76544,0.22023
1668.27566,0.19898
1666.78587,0.16656
1665.29608,0.18054
1663.80629,0.11063
1662.31650,0.13426
1660.82671,0.13874
1659.33693,0.14565
1657.84714,0.15179
1656.35735,0.12680
1654.86756,0.09623
1653.37777,0.13204
1651.88798,0.12552
1650.39819,0.10064
1648.90841,0.16213
1647.41862,0.14211
1645.92883,0.13132
1644.43904,0.12055
1642.94925,0.09743
1641.45946,0.14948
1639.96968,0.14081
1638.47989,0.10739
1636.99010,0.14035
1635.50031,0.12458
1634.01052,0.13122
1632.52073,0.11711
1631.03094,0.10143
1629.54116,0.07779
1628.05137,0.10214
1626.56158,0.07697
1625.07179,0.16692
1623.58200,0.19856
1622.09221,0.15350
1620.60243,0.16681
1619.11264,0.13540
1617.62285,0.14478
1616.13306,0.14860
1614.64327,0.15325
1613.15348,0.10437
1611.66370,0.09869
1610.17391,0.13701
1608.68412,0.15856
1607.19433,0.15138
1605.70454,0.14103
1604.21475,0.14230
1602.72496,0.14360
1601.23518,0.14533
1599.74539,0.15189
1598.25560,0.12571
1596.76581,0.10355
1595.27602,0.09742
1593.78623,0.11769
1592.29645,0.09563
1590.80666,0.09758
1589.31687,0.09796
1587.82708,0.10397
1586.33729,0.10681
1584.84750,0.06732
1583.35771,0.06703
1581.86793,0.01881
1580.37814,0.06014
1578.88835,0.05355
1577.39856,0.07576
1575.90877,0.05964
1574.41898,0.06433
1572.92920,0.02989
1571.43941,0.01706
1569.94962,0.03343
1568.45983,0.04984
1566.97004,0.05149
1565.48025,0.03638
1563.99047,0.01811
1562.50068,0.02305
1561.01089,0.03202
1559.52110,0.00904
1558.03131,0.04566
1556.54152,0.05592
1555.05173,0.07102
1553.56195,0.05897
1552.07216,0.06693
1550.58237,0.03576
1549.09258,0.04698
1547.60279,0.05104
1546.11300,0.11428
1544.62322,0.10001
1543.13343,0.06420
1541.64364,0.01084
1540.15385,0.03144
1538.66406,0.05207
1537.17427,0.04196
1535.68448,0.02229
1534.19470,0.00904
1532.70491,0.02382
1531.21512,0.04742
1529.72533,0.05267
1528.23554,0.01639
1526.74575,0.05847
1525.25597,0.08140
1523.76618,0.06599
1522.27639,0.00904
1520.78660,0.02822
1519.29681,0.05303
1517.80702,0.01792
1516.31724,0.04439
1514.82745,0.04451
1513.33766,0.04866
1511.84787,0.05284
1510.35808,0.02668
1508.86829,0.04451
1507.37850,0.03200
1505.88872,0.01473
1504.39893,0.02546
1502.90914,0.00904
1501.41935,0.06017
1499.92956,0.04099
1498.43977,0.05382
1496.94999,0.09705
1495.46020,0.13551
1493.97041,0.17001
1492.48062,0.19575
1490.99083,0.25269
1489.50104,0.36002
1488.01125,0.38585
1486.52147,0.41172
1485.03168,0.48237
1483.54189,0.56505
1482.05210,0.53665
1480.56231,0.64497
1479.07252,0.73813
1477.58274,0.81454
1476.09295,0.84541
1474.60316,0.94346
1473.11337,1.00877
1471.62358,0.99338
1470.13379,1.07794
1468.64401,1.02584
1467.15422,0.94420
1465.66443,0.93573
1464.17464,0.92729
1462.68485,0.84974
1461.19506,0.77222
1459.70527,0.75388
1458.21549,0.70360
1456.72570,0.69732
1455.23591,0.65269
1453.74612,0.60491
1452.25633,0.49880
1450.76654,0.47425
1449.27676,0.47052
1447.78697,0.41806
1446.29718,0.41279
1444.80739,0.41435
1443.31760,0.41594
1441.82781,0.28287
1440.33802,0.27453
1438.84824,0.27182
1437.35845,0.19160
1435.86866,0.21453
1434.37887,0.16155
1432.88908,0.18693
1431.39929,0.18038
1429.90951,0.19544
1428.41972,0.20093
1426.92993,0.22804
1425.44014,0.19284
1423.95035,0.18564
1422.46056,0.17847
1420.97078,0.22569
1419.48099,0.25615
1417.99120,0.27785
1416.50141,0.24763
1415.01162,0.27898
1413.52183,0.31277
1412.03204,0.25786
1410.54226,0.20938
1409.05247,0.26483
1407.56268,0.24359
1406.07289,0.23916
1404.58310,0.23037
1403.09331,0.22161
1401.60353,0.30600
1400.11374,0.29690
1398.62395,0.35418
1397.13416,0.36353
1395.64437,0.39689
1394.15458,0.43028
1392.66479,0.42454
1391.17501,0.40763
1389.68522,0.45630
1388.19543,0.47063
1386.70564,0.46981
1385.21585,0.46902
1383.72606,0.47545
1382.23628,0.45553
1380.74649,0.41727
1379.25670,0.40701
1377.76691,0.41116
1376.27712,0.45212
1374.78733,0.52588
1373.29755,0.54612
1371.80776,0.61275
1370.31797,0.74256
1368.82818,0.83763
1367.33839,0.93273
1365.84860,1.14336
1364.35881,1.29647
1362.86903,1.38008
1361.37924,1.45172
1359.88945,1.47224
1358.39966,1.54235
1356.90987,1.63487
1355.42008,1.56756
1353.93030,1.51146
1352.44051,1.42903
1350.95072,1.34662
1349.46093,1.34338
1347.97114,1.17950
1346.48135,0.92774
1344.99156,0.84306
1343.50178,0.80397
1342.01199,0.72894
1340.52220,0.62038
1339.03241,0.54782
1337.54262,0.53363
1336.05283,0.49590
1334.56305,0.45820
1333.07326,0.50246
1331.58347,0.42446
1330.09368,0.40563
1328.60389,0.38364
1327.11410,0.36648
1325.62432,0.33736
1324.13453,0.26111
1322.64474,0.33756
1321.15495,0.34690
1319.66516,0.33269
1318.17537,0.31851
1316.68558,0.26800
1315.19580,0.27586
1313.70601,0.25339
1312.21622,0.24453
1310.72643,0.23091
1309.23664,0.28286
1307.74685,0.24932
1306.25707,0.19262
1304.76728,0.22389
1303.27749,0.25518
1301.78770,0.26173
1300.29791,0.24833
1298.80812,0.26373
1297.31834,0.24080
1295.82855,0.28903
1294.33876,0.23899
1292.84897,0.24252
1291.35918,0.26368
1289.86939,0.25129
1288.37960,0.23894
1286.88982,0.27457
1285.40003,0.27746
1283.91024,0.34993
1282.42045,0.30972
1280.93066,0.30392
1279.44087,0.31733
1277.95109,0.32677
1276.46130,0.33945
1274.97151,0.33816
1273.48172,0.33691
1271.99193,0.33609
1270.50214,0.38485
1269.01235,0.41926
1267.52257,0.46650
1266.03278,0.41864
1264.54299,0.43795
1263.05320,0.46130
1261.56341,0.49587
1260.07362,0.53046
1258.58384,0.54671
1257.09405,0.49264
1255.60426,0.49936
1254.11447,0.49172
1252.62468,0.45293
1251.13489,0.50770
1249.64511,0.45379
1248.15532,0.38313
1246.66553,0.38883
1245.17574,0.39456
1243.68595,0.31600
1242.19616,0.35097
1240.70637,0.32523
1239.21659,0.28672
1237.72680,0.24905
1236.23701,0.19782
1234.74722,0.22575
1233.25743,0.20496
1231.76764,0.18420
1230.27786,0.16027
1228.78807,0.17873
1227.29828,0.21562
1225.80849,0.17260
1224.31870,0.09444
1222.82891,0.15619
1221.33912,0.14524
1219.84934,0.14111
1218.35955,0.13702
1216.86976,0.12136
1215.37997,0.18887
1213.89018,0.15729
1212.40039,0.12254
1210.91061,0.12460
1209.42082,0.12589
1207.93103,0.15798
1206.44124,0.19010
1204.95145,0.12833
1203.46166,0.08418
1201.97188,0.11520
1200.48209,0.08070
1198.99230,0.13097
1197.50251,0.06376
1196.01272,0.09650
1194.52293,0.07492
1193.03314,0.05337
1191.54336,0.10539
1190.05357,0.04633
1188.56378,0.05765
1187.07399,0.00904
1185.58420,0.02078
1184.09441,0.09570
1182.60463,0.10071
1181.11484,0.10574
1179.62505,0.11441
1178.13526,0.15748
1176.64547,0.09667
1175.15568,0.15019
1173.66589,0.11822
1172.17611,0.09986
1170.68632,0.07874
1169.19653,0.05765
1167.70674,0.01941
1166.21695,0.05073
1164.72716,0.10128
1163.23738,0.05513
1161.74759,0.06577
1160.25780,0.01570
1158.76801,0.02160
1157.27822,0.02754
1155.78843,0.05509
1154.29865,0.05949
1152.80886,0.08230
1151.31907,0.06119
1149.82928,0.09206
1148.33949,0.09978
1146.84970,0.11273
1145.35991,0.12571
1143.87013,0.10795
1142.38034,0.05265
1140.89055,0.08851
1139.40076,0.14198
1137.91097,0.17070
1136.42118,0.20025
1134.93140,0.19147
1133.44161,0.18272
1131.95182,0.25713
1130.46203,0.30679
1128.97224,0.25497
1127.48245,0.31189
1125.99266,0.33127
1124.50288,0.36586
1123.01309,0.35573
1121.52330,0.34563
1120.03351,0.38832
1118.54372,0.44302
1117.05393,0.45300
1115.56415,0.37428
1114.07436,0.47464
1112.58457,0.46593
1111.09478,0.45724
1109.60499,0.43301
1108.11520,0.47514
1106.62542,0.46775
1105.13563,0.51714
1103.64584,0.61452
1102.15605,0.70474
1100.66626,0.70107
1099.17647,0.69744
1097.68668,0.67584
1096.19690,0.76539
1094.70711,0.78462
1093.21732,0.83427
1091.72753,0.87275
1090.23774,0.85571
1088.74795,0.83870
1087.25817,0.87248
1085.76838,0.86792
1084.27859,0.90576
1082.78880,0.98759
1081.29901,1.06146
1079.80922,1.05303
1078.31943,1.06262
1076.82965,1.07224
1075.33986,1.18380
1073.85007,1.19868
1072.36028,1.11287
1070.87049,1.16858
1069.38070,1.19154
1067.89092,1.23771
1066.40113,1.28392
1064.91134,1.24143
1063.42155,1.08947
1061.93176,1.08301
1060.44197,1.06700
1058.95219,0.93431
1057.46240,0.92755
1055.97261,0.92082
1054.48282,0.81540
1052.99303,0.75718
1051.50324,0.68460
1050.01345,0.59686
1048.52367,0.61067
1047.03388,0.56656
1045.54409,0.52247
1044.05430,0.51400
1042.56451,0.50794
1041.07472,0.44278
1039.58494,0.35686
1038.09515,0.31493
1036.60536,0.27064
1035.11557,0.22637
1033.62578,0.27326
1032.13599,0.26184
1030.64620,0.27282
1029.15642,0.33499
1027.66663,0.35044
1026.17684,0.36591
1024.68705,0.43297
1023.19726,0.53843
1021.70747,0.69828
1020.21769,0.84696
1018.72790,1.04843
1017.23811,1.19039
1015.74832,1.33237
1014.25853,1.52115
1012.76874,1.68118
1011.27896,1.74532
1009.78917,1.84947
1008.29938,2.00000
1006.80959,1.91916
1005.31980,1.83835
1003.83001,1.72441
1002.34022,1.67524
1000.85044,1.63089
999.36065,1.45629
997.87086,1.41520
996.38107,1.37415
994.89128,1.42505
993.40149,1.41523
991.91171,1.39425
990.42192,1.33814
988.93213,1.33001
987.44234,1.31632
985.95255,1.30266
984.46276,1.30582
982.97297,1.24667
981.48319,1.18994
979.99340,1.12125
978.50361,1.08297
977.01382,1.04472
975.52403,1.08164
974.03424,1.01547
972.54446,0.99330
971.05467,0.86805
969.56488,0.86512
968.07509,0.79829
966.58530,0.73148
965.09551,0.75502
963.60573,0.69148
962.11594,0.61677
960.62615,0.66039
959.13636,0.62212
957.64657,0.58387
956.15678,0.56524
954.66699,0.54424
953.17721,0.56564
951.68742,0.56549
950.19763,0.54419
948.70784,0.52291
947.21805,0.50767
945.72826,0.45728
944.23848,0.50525
942.74869,0.53006
941.25890,0.52613
939.76911,0.57059
938.27932,0.61508
936.78953,0.63922
935.29974,0.71854
933.80996,0.67720
932.32017,0.67825
930.83038,0.68533
929.34059,0.69243
927.85080,0.70637
926.36101,0.65639
924.87123,0.67039
923.38144,0.60288
921.89165,0.56938
920.40186,0.53592
918.91207,0.55723
917.42228,0.51863
915.93250,0.53121
914.44271,0.57740
912.95292,0.54689
911.46313,0.51640
909.97334,0.55709
908.48355,0.59141
906.99376,0.59539
905.50398,0.57063
904.01419,0.55668
902.52440,0.54277
901.03461,0.63960
899.54482,0.70368
898.05503,0.56157
896.56525,0.61853
895.07546,0.63515
893.58567,0.65180
892.09588,0.61932
890.60609,0.68439
889.11630,0.67676
887.62651,0.63318
886.13673,0.65318
884.64694,0.67322
883.15715,0.64732
881.66736,0.65983
880.17757,0.66437
878.68778,0.70851
877.19800,0.75268
875.70821,0.71814
874.21842,0.73720
872.72863,0.84660
871.23884,0.98562
869.74905,0.95721
868.25927,0.92882
866.76948,0.99279
865.27969,0.88574
863.78990,0.92979
862.30011,0.96508
860.81032,0.95764
859.32053,0.95023
857.83075,0.93206
856.34096,0.89873
854.85117,0.89581
853.36138,0.75623
851.87159,0.72340
850.38180,0.69059
848.89202,0.57749
847.40223,0.51637
845.91244,0.36177
844.42265,0.37625
842.93286,0.39076
841.44307,0.38013
839.95329,0.37592
838.46350,0.33577
836.97371,0.31484
835.48392,0.32711
833.99413,0.33941
832.50434,0.30099
831.01455,0.26499
829.52477,0.27779
828.03498,0.27303
826.54519,0.26230
825.05540,0.25161
823.56561,0.21897
822.07582,0.19116
820.58604,0.15058
819.09625,0.11923
817.60646,0.08792
816.11667,0.08021
814.62688,0.11250
813.13709,0.07128
811.64730,0.03170
810.15752,0.02372
808.66773,0.01576
807.17794,0.00904
805.68815,0.07610
804.19836,0.13998
802.70857,0.14835
801.21879,0.15674
799.72900,0.12160
798.23921,0.21919
796.74942,0.38954
795.25963,0.41604
793.76984,0.44258
792.28006,0.45795
790.79027,0.49574
789.30048,0.54555
787.81069,0.52665
786.32090,0.55614
784.83111,0.58566
783.34132,0.62121
781.85154,0.58005
780.36175,0.66682
778.87196,0.64091
777.38217,0.61504
775.89238,0.66353
774.40259,0.72404
772.91281,0.79258
771.42302,0.79920
769.93323,0.80585
768.44344,0.74819
766.95365,0.73852
765.46386,0.73767
763.97407,0.72966
762.48429,0.68211
760.99450,0.63460
759.50471,0.50918
758.01492,0.43975
756.52513,0.37594
755.03534,0.32136
753.54556,0.26680
752.05577,0.27982
750.56598,0.20255
749.07619,0.13411
747.58640,0.12204
746.09661,0.11001
744.60683,0.06564
743.11704,0.01570
741.62725,0.05771
740.13746,0.05660
738.64767,0.05551
737.15788,0.03447
735.66809,0.01666
734.17831,0.02766
732.68852,0.05507
731.19873,0.08252
729.70894,0.04645
728.21915,0.06876
726.72936,0.06873
725.23958,0.01437
723.74979,0.04636
722.26000,0.07839
720.77021,0.08967
719.28042,0.09458
717.79063,0.07795
716.30084,0.08892
714.81106,0.09992
713.32127,0.00904
711.83148,0.03569
710.34169,0.04718
708.85190,0.05191
707.36211,0.05667
705.87233,0.11302
704.38254,0.04950
702.89275,0.09392
701.40296,0.08682
699.91317,0.07975
698.42338,0.06511
696.93360,0.15841
695.44381,0.18461
693.95402,0.18845
692.46423,0.19232
690.97444,0.19463
689.48465,0.21215
687.99486,0.18334
686.50508,0.18335
685.01529,0.18338
683.52550,0.24979
682.03571,0.28105
680.54592,0.21244
679.05613,0.21340
677.56635,0.21438
676.07656,0.21780
674.58677,0.11254
673.09698,0.17197
671.60719,0.13392
670.11740,0.09590
668.62761,0.13304
667.13783,0.04472
665.64804,0.07713
664.15825,0.10957
662.66846,0.05252
661.17867,0.10261
659.68888,0.12795
658.19910,0.12135
656.70931,0.11478
655.21952,0.07787
653.72973,0.12572
652.23994,0.14242
650.75015,0.14118
649.26037,0.13996
647.77058,0.14716
646.28079,0.09925
644.79100,0.08174
643.30121,0.09064
641.81142,0.09957
640.32163,0.06936
638.83185,0.03919
637.34206,0.00904
635.85227,0.02997
634.36248,0.05093
632.87269,0.00678
631.38290,0.04633
629.89312,0.04994
628.40333,0.05199
626.91354,0.05406
625.42375,0.01381
623.93396,0.08549
622.44417,0.08606
620.95438,0.08666
619.46460,0.06651
617.97481,0.12632
616.48502,0.14140
614.99523,0.15052
613.50544,0.15967
612.01565,0.12929
610.52587,0.14929
609.03608,0.09979
607.54629,0.09707
606.05650,0.09439
604.56671,0.14009
603.07692,0.17144
601.58714,0.14847
600.09735,0.12553
598.60756,0.09543
597.11777,0.13329
595.62798,0.13762
594.13819,0.08563
592.64840,0.03367
591.15862,0.13961
589.66883,0.06733
588.17904,0.06621
586.68925,0.07952
585.19946,0.09286
583.70967,0.08225
582.21989,0.12283
580.73010,0.14346
579.24031,0.16412
577.75052,0.14964
576.26073,0.19114
574.77094,0.15354
573.28115,0.17272
571.79137,0.19194
570.30158,0.27273
568.81179,0.32239
567.32200,0.33730
565.83221,0.35224
564.34242,0.35323
562.85264,0.34785
561.36285,0.35290
559.87306,0.37876
558.38327,0.40465
556.89348,0.49052
555.40369,0.52287
553.91391,0.52047
552.42412,0.51811
550.93433,0.59851
549.44454,0.64457
547.95475,0.62432
546.46496,0.61289
544.97517,0.60150
543.48539,0.70443
541.99560,0.69310
540.50581,0.68100
539.01602,0.66892
537.52623,0.73282
536.03644,0.66406
534.54666,0.60012
533.05687,0.59217
531.56708,0.58425
530.07729,0.60914
528.58750,0.54453
527.09771,0.53071
525.60792,0.51692
524.11814,0.45480
522.62835,0.41989
521.13856,0.40900
519.64877,0.41292
518.15898,0.41687
516.66919,0.31014
515.17941,0.33054
513.68962,0.31421
512.19983,0.29790
510.71004,0.36156
509.22025,0.33412
507.73046,0.38106
506.24068,0.39005
504.75089,0.39908
503.26110,0.32941
501.77131,0.38526
500.28152,0.42395
498.79173,0.46268
497.30194,0.43789
495.81216,0.36838
494.32237,0.39121
492.83258,0.41408
491.34279,0.41419
489.85300,0.35359
488.36321,0.34817
486.87343,0.30202
485.38364,0.25590
483.89385,0.25378
482.40406,0.13898
480.91427,0.13092
479.42448,0.12289
477.93469,0.08413
476.44491,0.07656
474.95512,0.09740
473.46533,0.11828
471.97554,0.07723
470.48575,0.00904
468.99596,0.07210
467.50618,0.06046
466.01639,0.04884
464.52660,0.02567
463.03681,0.04969
461.54702,0.06814
460.05723,0.08662
458.56745,0.07636
457.07766,0.07013
455.58787,0.10270
454.09808,0.13529
452.60829,0.17791
451.11850,0.18859
449.62871,0.17053
448.13893,0.15249
446.64914,0.23280
445.15935,0.39228
443.66956,0.41111
442.17977,0.44156
440.68998,0.47203
439.20020,0.49335
437.71041,0.63540
436.22062,0.67277
434.73083,0.71017
433.24104,0.86350
431.75125,0.96011
430.26146,1.04476
428.77168,1.12944
427.28189,1.18378
425.79210,1.17980
424.30231,1.18225
422.81252,1.18473
421.32273,1.20482
419.83295,1.12423
418.34316,1.05687
416.85337,0.98953
415.36358,0.86267
413.87379,0.74064
412.38400,0.69978
410.89422,0.65894
409.40443,0.63772
407.91464,0.69566
406.42485,0.61376
404.93506,0.57864
403.44527,0.54356
401.95548,0.52489
400.46570,0.47987
398.97591,0.47006
397.48612,0.46028
395.99633,0.47371
394.50654,0.49277
393.01675,0.50226
391.52697,0.51179
390.03718,0.44541
388.54739,0.39106
387.05760,0.36511
385.56781,0.33919
384.07802,0.37925
382.58824,0.42094
381.09845,0.37872
379.60866,0.33655
378.11887,0.30559
376.62908,0.27706
375.13929,0.24337
373.64950,0.20970
372.15972,0.22044
370.66993,0.19443
369.18014,0.15806
367.69035,0.12173
366.20056,0.12060
364.71077,0.17065
363.22099,0.15239
361.73120,0.13417
360.24141,0.15554
358.75162,0.13778
357.26183,0.14682
355.77204,0.15590
354.28225,0.13343
352.79247,0.07503
351.30268,0.07581
349.81289,0.07662
348.32310,0.01351
346.83331,0.09539
345.34352,0.05220
343.85374,0.00904
342.36395,0.17089
340.87416,0.09217
339.38437,0.08622
337.89458,0.08030
336.40479,0.08560
334.91501,0.02380
333.42522,0.05194
331.93543,0.08012
330.44564,0.08155
328.95585,0.12617
327.46606,0.11528
325.97627,0.10441
324.48649,0.03643
322.99670,0.05697
321.50691,0.06116
320.01712,0.06538
318.52733,0.09161
317.03754,0.08430
315.54776,0.10899
314.05797,0.13372
312.56818,0.19044
311.07839,0.11212
309.58860,0.11296
308.09881,0.11383
306.60902,0.06677
305.11924,0.01895
303.62945,0.06188
302.13966,0.07081
300.64987,0.00904
299.16008,0.00904
