1778.52000,0.00769
1777.03021,0.04064
1775.54042,0.05040
1774.05063,0.02460
1772.56085,0.03289
1771.07106,0.00252
1769.58127,0.01397
1768.09148,0.05176
1766.60169,0.04625
1765.11190,0.05625
1763.62212,0.08331
1762.13233,0.03303
1760.64254,0.05861
1759.15275,0.05482
1757.66296,0.07273
1756.17317,0.03651
1754.68339,0.06532
1753.19360,0.07714
1751.70381,0.05495
1750.21402,0.05601
1748.72423,0.04008
1747.23444,0.00252
1745.74465,0.05531
1744.25487,0.10039
1742.76508,0.12385
1741.27529,0.07306
1739.78550,0.11825
1738.29571,0.07836
1736.80592,0.06171
1735.31614,0.06831
1733.82635,0.07650
1732.33656,0.09245
1730.84677,0.12547
1729.35698,0.06721
1727.86719,0.05541
1726.37740,0.09317
1724.88762,0.00252
1723.39783,0.08967
1721.90804,0.05616
1720.41825,0.02577
1718.92846,0.05731
1717.43867,0.08116
1715.94889,0.11587
1714.45910,0.17382
1712.96931,0.08635
1711.47952,0.09175
1709.98973,0.08018
1708.49994,0.08875
1707.01016,0.09271
1705.52037,0.09671
1704.03058,0.10538
1702.54079,0.18992
1701.05100,0.18009
1699.56121,0.17649
1698.07142,0.24875
1696.58164,0.18176
1695.09185,0.26647
1693.60206,0.24288
1692.11227,0.24874
1690.62248,0.22986
1689.13269,0.27447
1687.64291,0.27423
1686.15312,0.34522
1684.66333,0.32184
1683.17354,0.39753
1681.68375,0.34482
1680.19396,0.34320
1678.70417,0.30912
1677.21439,0.38186
1675.72460,0.30607
1674.23481,0.33399
1672.74502,0.30160
1671.25523,0.35126
1669.76544,0.37774
1668.27566,0.33926
1666.78587,0.37200
1665.29608,0.27787
1663.80629,0.18997
1662.31650,0.26924
1660.82671,0.31295
1659.33693,0.34121
1657.84714,0.27357
1656.35735,0.25702
1654.86756,0.21575
1653.37777,0.24261
1651.88798,0.24783
1650.39819,0.16024
1648.90841,0.21815
1647.41862,0.16931
1645.92883,0.17931
1644.43904,0.18935
1642.94925,0.14061
1641.45946,0.17857
1639.96968,0.22585
1638.47989,0.14008
1636.99010,0.15802
1635.50031,0.17755
1634.01052,0.17854
1632.52073,0.20278
1631.03094,0.17288
1629.54116,0.14612
1628.05137,0.15344
1626.56158,0.20567
1625.07179,0.20222
1623.58200,0.26844
1622.09221,0.18304
1620.60243,0.21684
1619.11264,0.25221
1617.62285,0.24275
1616.13306,0.21629
1614.64327,0.15892
1613.15348,0.21455
1611.66370,0.19438
1610.17391,0.18354
1608.68412,0.14487
1607.19433,0.16659
1605.70454,0.17751
1604.21475,0.17918
1602.72496,0.18089
1601.23518,0.14239
1599.74539,0.17666
1598.25560,0.18466
1596.76581,0.14936
1595.27602,0.12957
1593.78623,0.10518
1592.29645,0.09010
1590.80666,0.11993
1589.31687,0.06933
1587.82708,0.12089
1586.33729,0.13380
1584.84750,0.06164
1583.35771,0.10247
1581.86793,0.00252
1580.37814,0.07279
1578.88835,0.08738
1577.39856,0.07725
1575.90877,0.10739
1574.41898,0.04626
1572.92920,0.08575
1571.43941,0.06647
1569.94962,0.06811
1568.45983,0.06979
1566.97004,0.04597
1565.48025,0.07325
1563.99047,0.03557
1562.50068,0.05828
1561.01089,0.07328
1559.52110,0.04344
1558.03131,0.10958
1556.54152,0.11695
1555.05173,0.11816
1553.56195,0.15036
1552.07216,0.18259
1550.58237,0.10652
1549.09258,0.09085
1547.60279,0.03033
1546.11300,0.08436
1544.62322,0.08117
1543.13343,0.14765
1541.64364,0.02382
1540.15385,0.02847
1538.66406,0.03315
1537.17427,0.05334
1535.68448,0.01940
1534.19470,0.00252
1532.70491,0.01053
1531.21512,0.00000
1529.72533,0.05296
1528.23554,0.03321
1526.74575,0.00576
1525.25597,0.04954
1523.76618,0.04228
1522.27639,0.00255
1520.78660,0.06654
1519.29681,0.01451
1517.80702,0.03214
1516.31724,0.02350
1514.82745,0.00252
1513.33766,0.03867
1511.84787,0.07486
1510.35808,0.04763
1508.86829,0.01425
1507.37850,0.00412
1505.88872,0.02187
1504.39893,0.00252
1502.90914,0.01231
1501.41935,0.02678
1499.92956,0.03200
1498.43977,0.09606
1496.94999,0.04100
1495.46020,0.09739
1493.97041,0.13214
1492.48062,0.22574
1490.99083,0.22653
1489.50104,0.28769
1488.01125,0.33806
1486.52147,0.38847
1485.03168,0.45129
1483.54189,0.52497
1482.05210,0.65750
1480.56231,0.69721
1479.07252,0.73231
1477.58274,0.79684
1476.09295,0.93879
1474.60316,0.96780
1473.11337,1.13922
1471.62358,1.16675
1470.13379,1.14480
1468.64401,1.12597
1467.15422,1.05920
1465.66443,0.98783
1464.17464,0.91649
1462.68485,0.99839
1461.19506,1.02616
1459.70527,0.94100
1458.21549,0.93789
1456.72570,0.71661
1455.23591,0.81106
1453.74612,0.80031
1452.25633,0.79115
1450.76654,0.67059
1449.27676,0.67852
1447.78697,0.65243
1446.29718,0.59388
1444.80739,0.56090
1443.31760,0.52795
1441.82781,0.42772
1440.33802,0.40490
1438.84824,0.33723
1437.35845,0.32222
1435.86866,0.24843
1434.37887,0.30158
1432.88908,0.29904
1431.39929,0.27024
1429.90951,0.27087
1428.41972,0.19725
1426.92993,0.26604
1425.44014,0.31320
1423.95035,0.30158
1422.46056,0.29000
1420.97078,0.29393
1419.48099,0.35980
1417.99120,0.31273
1416.50141,0.33378
1415.01162,0.28214
1413.52183,0.31564
1412.03204,0.29501
1410.54226,0.29918
1409.05247,0.25696
1407.56268,0.32155
1406.07289,0.22833
1404.58310,0.21793
1403.09331,0.20757
1401.60353,0.36360
1400.11374,0.33705
1398.62395,0.27495
1397.13416,0.32895
1395.64437,0.33964
1394.15458,0.31169
1392.66479,0.35186
1391.17501,0.27600
1389.68522,0.25588
1388.19543,0.28068
1386.70564,0.27843
1385.21585,0.27621
1383.72606,0.35682
1382.23628,0.28736
1380.74649,0.28756
1379.25670,0.26769
1377.76691,0.22463
1376.27712,0.26208
1374.78733,0.28718
1373.29755,0.34172
1371.80776,0.40249
1370.31797,0.45245
1368.82818,0.51174
1367.33839,0.57106
1365.84860,0.60565
1364.35881,0.79348
1362.86903,0.81886
1361.37924,0.84427
1359.88945,0.76758
1358.39966,0.83793
1356.90987,0.97332
1355.42008,0.99732
1353.93030,0.97647
1352.44051,0.94715
1350.95072,0.91786
1349.46093,0.87855
1347.97114,0.87796
1346.48135,0.66694
1344.99156,0.72212
1343.50178,0.78044
1342.01199,0.55095
1340.52220,0.58767
1339.03241,0.51455
1337.54262,0.53432
1336.05283,0.53864
1334.56305,0.54300
1333.07326,0.46073
1331.58347,0.45123
1330.09368,0.42783
1328.60389,0.45709
1327.11410,0.42447
1325.62432,0.42130
1324.13453,0.43982
1322.64474,0.38719
1321.15495,0.37174
1319.66516,0.37799
1318.17537,0.38427
1316.68558,0.38284
1315.19580,0.33503
1313.70601,0.37081
1312.21622,0.28747
1310.72643,0.30475
1309.23664,0.30505
1307.74685,0.34252
1306.25707,0.31348
1304.76728,0.33786
1303.27749,0.36228
1301.78770,0.34108
1300.29791,0.27813
1298.80812,0.34520
1297.31834,0.37053
1295.82855,0.30768
1294.33876,0.26189
1292.84897,0.33684
1291.35918,0.31278
1289.86939,0.33054
1288.37960,0.34834
1286.88982,0.33676
1285.40003,0.37629
1283.91024,0.36633
1282.42045,0.37498
1280.93066,0.33568
1279.44087,0.43260
1277.95109,0.42278
1276.46130,0.36966
1274.97151,0.36455
1273.48172,0.35947
1271.99193,0.46430
1270.50214,0.51190
1269.01235,0.51621
1267.52257,0.61650
1266.03278,0.53112
1264.54299,0.58351
1263.05320,0.55545
1261.56341,0.58005
1260.07362,0.60468
1258.58384,0.62316
1257.09405,0.69274
1255.60426,0.59831
1254.11447,0.61689
1252.62468,0.56276
1251.13489,0.52725
1249.64511,0.57223
1248.15532,0.50119
1246.66553,0.47506
1245.17574,0.44896
1243.68595,0.49718
1242.19616,0.46806
1240.70637,0.42195
1239.21659,0.42229
1237.72680,0.36851
1236.23701,0.31012
1234.74722,0.27962
1233.25743,0.25302
1231.76764,0.22646
1230.27786,0.23320
1228.78807,0.28176
1227.29828,0.27155
1225.80849,0.22423
1224.31870,0.16766
1222.82891,0.14826
1221.33912,0.15676
1219.84934,0.19701
1218.35955,0.23730
1216.86976,0.22113
1215.37997,0.21738
1213.89018,0.22914
1212.40039,0.16975
1210.91061,0.13051
1209.42082,0.15939
1207.93103,0.17902
1206.44124,0.19869
1204.95145,0.13328
1203.46166,0.10659
1201.97188,0.14338
1200.48209,0.14616
1198.99230,0.17219
1197.50251,0.08838
1196.01272,0.05876
1194.52293,0.06323
1193.03314,0.06772
1191.54336,0.03047
1190.05357,0.09694
1188.56378,0.06440
1187.07399,0.03499
1185.58420,0.00252
1184.09441,0.01179
1182.60463,0.04585
1181.11484,0.07995
1179.62505,0.09552
1178.13526,0.13897
1176.64547,0.12056
1175.15568,0.20586
1173.66589,0.16275
1172.17611,0.09028
1170.68632,0.06658
1169.19653,0.04292
1167.70674,0.05102
1166.21695,0.02666
1164.72716,0.08125
1163.23738,0.02445
1161.74759,0.05435
1160.25780,0.02239
1158.76801,0.02527
1157.27822,0.02819
1155.78843,0.00252
1154.29865,0.07353
1152.80886,0.08268
1151.31907,0.12591
1149.82928,0.07477
1148.33949,0.18770
1146.84970,0.18770
1145.35991,0.18773
1143.87013,0.05935
1142.38034,0.15695
1140.89055,0.20815
1139.40076,0.18665
1137.91097,0.20697
1136.42118,0.32947
1134.93140,0.29414
1133.44161,0.25885
1131.95182,0.28241
1130.46203,0.41896
1128.97224,0.30176
1127.48245,0.40898
1125.99266,0.37231
1124.50288,0.44246
1123.01309,0.44687
1121.52330,0.45132
1120.03351,0.49526
1118.54372,0.46341
1117.05393,0.47956
1115.56415,0.40290
1114.07436,0.42995
1112.58457,0.39591
1111.09478,0.36191
1109.60499,0.52370
1108.11520,0.54006
1106.62542,0.57503
1105.13563,0.60383
1103.64584,0.78433
1102.15605,0.86273
1100.66626,0.84289
1099.17647,0.82309
1097.68668,0.83040
1096.19690,0.89965
1094.70711,0.82656
1093.21732,0.83088
1091.72753,0.92034
1090.23774,0.96342
1088.74795,1.00653
1087.25817,1.01098
1085.76838,1.19808
1084.27859,1.11594
1082.78880,1.18395
1081.29901,1.25044
1079.80922,1.05080
1078.31943,1.07248
1076.82965,1.09420
1075.33986,1.24749
1073.85007,1.27546
1072.36028,1.27407
1070.87049,1.26497
1069.38070,1.34876
1067.89092,1.32967
1066.40113,1.31062
1064.91134,1.28618
1063.42155,1.22618
1061.93176,1.16158
1060.44197,1.05368
1058.95219,1.08200
1057.46240,1.00202
1055.97261,0.92208
1054.48282,0.85455
1052.99303,0.85514
1051.50324,0.74126
1050.01345,0.62276
1048.52367,0.63739
1047.03388,0.68377
1045.54409,0.73019
1044.05430,0.72480
1042.56451,0.64981
1041.07472,0.62901
1039.58494,0.47516
1038.09515,0.39873
1036.60536,0.39970
1035.11557,0.40070
1033.62578,0.47447
1032.13599,0.43686
1030.64620,0.44416
1029.15642,0.40816
1027.66663,0.40237
1026.17684,0.39662
1024.68705,0.48607
1023.19726,0.56782
1021.70747,0.75174
1020.21769,0.81963
1018.72790,1.01290
1017.23811,1.17990
1015.74832,1.34693
1014.25853,1.54185
1012.76874,1.68419
1011.27896,1.70431
1009.78917,1.89624
1008.29938,2.00000
1006.80959,1.99314
1005.31980,1.98632
1003.83001,1.82400
1002.34022,1.83194
1000.85044,1.58149
999.36065,1.58640
997.87086,1.54648
996.38107,1.50658
994.89128,1.44506
993.40149,1.58165
991.91171,1.51556
990.42192,1.37057
988.93213,1.42060
987.44234,1.39949
985.95255,1.37840
984.46276,1.35426
982.97297,1.44002
981.48319,1.43451
979.99340,1.47547
978.50361,1.43985
977.01382,1.40427
975.52403,1.41902
974.03424,1.38428
972.54446,1.17935
971.05467,1.16015
969.56488,1.17040
968.07509,1.10562
966.58530,1.04087
965.09551,1.04657
963.60573,1.10956
962.11594,1.01165
960.62615,0.93853
959.13636,0.95907
957.64657,0.97964
956.15678,0.91591
954.66699,0.90637
953.17721,0.92318
951.68742,0.95240
950.19763,0.91898
948.70784,0.88559
947.21805,0.81587
945.72826,0.86380
944.23848,0.86688
942.74869,0.91952
941.25890,0.86542
939.76911,0.87015
938.27932,0.87491
936.78953,0.85341
935.29974,0.93098
933.80996,0.96215
932.32017,0.95468
930.83038,0.99211
929.34059,1.02958
927.85080,1.00673
926.36101,0.98701
924.87123,0.86673
923.38144,0.97398
921.89165,0.95513
920.40186,0.93632
918.91207,0.93224
917.42228,0.92820
915.93250,0.85456
914.44271,0.95272
912.95292,0.92789
911.46313,0.90309
909.97334,0.91624
908.48355,1.01145
906.99376,0.94420
905.50398,0.89245
904.01419,0.89800
902.52440,0.90359
901.03461,0.93706
899.54482,0.98914
898.05503,0.90816
896.56525,1.03304
895.07546,1.03957
893.58567,1.04613
892.09588,0.98232
890.60609,1.02377
889.11630,0.98633
887.62651,0.97833
886.13673,1.01756
884.64694,1.05682
883.15715,0.97464
881.66736,0.97760
880.17757,0.85680
878.68778,0.93102
877.19800,1.00528
875.70821,0.84279
874.21842,0.95890
872.72863,0.95278
871.23884,1.01170
869.74905,0.96232
868.25927,0.91298
866.76948,1.08187
865.27969,1.04343
863.78990,1.07620
862.30011,1.02700
860.81032,1.01651
859.32053,1.00606
857.83075,1.15195
856.34096,1.05335
854.85117,0.89599
853.36138,0.85008
851.87159,0.81504
850.38180,0.78003
848.89202,0.72649
847.40223,0.55228
845.91244,0.46011
844.42265,0.47322
842.93286,0.48635
841.44307,0.51345
839.95329,0.48178
838.46350,0.37586
836.97371,0.39996
835.48392,0.38774
833.99413,0.37554
832.50434,0.27904
831.01455,0.44101
829.52477,0.42196
828.03498,0.35806
826.54519,0.35610
825.05540,0.35417
823.56561,0.28263
822.07582,0.26065
820.58604,0.24180
819.09625,0.20519
817.60646,0.16861
816.11667,0.10653
814.62688,0.09710
813.13709,0.10473
811.64730,0.00252
810.15752,0.05382
808.66773,0.10515
807.17794,0.11010
805.68815,0.11043
804.19836,0.12473
802.70857,0.11275
801.21879,0.10081
799.72900,0.16937
798.23921,0.18845
796.74942,0.38397
795.25963,0.42865
793.76984,0.47336
792.28006,0.54364
790.79027,0.51491
789.30048,0.59610
787.81069,0.60612
786.32090,0.59607
784.83111,0.58605
783.34132,0.71070
781.85154,0.71776
780.36175,0.79605
778.87196,0.78617
777.38217,0.77632
775.89238,0.78817
774.40259,0.83564
772.91281,0.83827
771.42302,0.90284
769.93323,0.96744
768.44344,0.92220
766.95365,0.93426
765.46386,1.02527
763.97407,0.95073
762.48429,0.88783
760.99450,0.82496
759.50471,0.66850
758.01492,0.57862
756.52513,0.56616
755.03534,0.51735
753.54556,0.46859
752.05577,0.31075
750.56598,0.19783
749.07619,0.14065
747.58640,0.15392
746.09661,0.16723
744.60683,0.08384
743.11704,0.07942
741.62725,0.07658
740.13746,0.08924
738.64767,0.10194
737.15788,0.06206
735.66809,0.05935
734.17831,0.00252
732.68852,0.04751
731.19873,0.09253
729.70894,0.09039
728.21915,0.04495
726.72936,0.13572
725.23958,0.06250
723.74979,0.09531
722.26000,0.12816
720.77021,0.02098
719.28042,0.12122
717.79063,0.08066
716.30084,0.09430
714.81106,0.10797
713.32127,0.00252
711.83148,0.05075
710.34169,0.02782
708.85190,0.02892
707.36211,0.03005
705.87233,0.04437
704.38254,0.03861
702.89275,0.02823
701.40296,0.02176
699.91317,0.01533
698.42338,0.06851
696.93360,0.14803
695.44381,0.16104
693.95402,0.14545
692.46423,0.12990
690.97444,0.19408
689.48465,0.22425
687.99486,0.20338
686.50508,0.19571
685.01529,0.18807
683.52550,0.21373
682.03571,0.10789
680.54592,0.13826
679.05613,0.13153
677.56635,0.12483
676.07656,0.15685
674.58677,0.08213
673.09698,0.11113
671.60719,0.09992
670.11740,0.08875
668.62761,0.07452
667.13783,0.06032
665.64804,0.06240
664.15825,0.06452
662.66846,0.09376
661.17867,0.05339
659.68888,0.06412
658.19910,0.11280
656.70931,0.16152
655.21952,0.10890
653.72973,0.14763
652.23994,0.19877
650.75015,0.24607
649.26037,0.29341
647.77058,0.21930
646.28079,0.21332
644.79100,0.06654
643.30121,0.06218
641.81142,0.05784
640.32163,0.16032
638.83185,0.08487
637.34206,0.01564
635.85227,0.05327
634.36248,0.09094
632.87269,0.00252
631.38290,0.06758
629.89312,0.12029
628.40333,0.09025
626.91354,0.06024
625.42375,0.10841
623.93396,0.14424
622.44417,0.14219
620.95438,0.14017
619.46460,0.06932
617.97481,0.06815
616.48502,0.03451
614.99523,0.06280
613.50544,0.09113
612.01565,0.19842
610.52587,0.20824
609.03608,0.12370
607.54629,0.09259
606.05650,0.06151
604.56671,0.15504
603.07692,0.21610
601.58714,0.19828
600.09735,0.18049
598.60756,0.10702
597.11777,0.19608
595.62798,0.11804
594.13819,0.10193
592.64840,0.08586
591.15862,0.03423
589.66883,0.06929
588.17904,0.22355
586.68925,0.17511
585.19946,0.12671
583.70967,0.12168
582.21989,0.13525
580.73010,0.14034
579.24031,0.14546
577.75052,0.21330
576.26073,0.14344
574.77094,0.17110
573.28115,0.18952
571.79137,0.20797
570.30158,0.33168
568.81179,0.33473
567.32200,0.35018
565.83221,0.36568
564.34242,0.41525
562.85264,0.44628
561.36285,0.47116
559.87306,0.52315
558.38327,0.57518
556.89348,0.59242
555.40369,0.67624
553.91391,0.70207
552.42412,0.72792
550.93433,0.67566
549.44454,0.68998
547.95475,0.68576
546.46496,0.71330
544.97517,0.74088
543.48539,0.79712
541.99560,0.74970
540.50581,0.74566
539.01602,0.74164
537.52623,0.77171
536.03644,0.69193
534.54666,0.70969
533.05687,0.73521
531.56708,0.76077
530.07729,0.54805
528.58750,0.67117
527.09771,0.60553
525.60792,0.53992
524.11814,0.58113
522.62835,0.42119
521.13856,0.41603
519.64877,0.44032
518.15898,0.46464
516.66919,0.37912
515.17941,0.31994
513.68962,0.32269
512.19983,0.32548
510.71004,0.34068
509.22025,0.40390
507.73046,0.47797
506.24068,0.41977
504.75089,0.36160
503.26110,0.43888
501.77131,0.40631
500.28152,0.40087
498.79173,0.39545
497.30194,0.28871
495.81216,0.29806
494.32237,0.33762
492.83258,0.37722
491.34279,0.40835
489.85300,0.46736
488.36321,0.28035
486.87343,0.24503
485.38364,0.20974
483.89385,0.18378
482.40406,0.16403
480.91427,0.13349
479.42448,0.10299
477.93469,0.09418
476.44491,0.16123
474.95512,0.10375
473.46533,0.04630
471.97554,0.13821
470.48575,0.16517
468.99596,0.11943
467.50618,0.06443
466.01639,0.00947
464.52660,0.00252
463.03681,0.15142
461.54702,0.11697
460.05723,0.08255
458.56745,0.00252
457.07766,0.14063
455.58787,0.17354
454.09808,0.20649
452.60829,0.14197
451.11850,0.24463
449.62871,0.26529
448.13893,0.28600
446.64914,0.33923
445.15935,0.56273
443.66956,0.51235
442.17977,0.51152
440.68998,0.51073
439.20020,0.61829
437.71041,0.77696
436.22062,0.79639
434.73083,0.81585
433.24104,0.89416
431.75125,1.05915
430.26146,1.09651
428.77168,1.13391
427.28189,1.26805
425.79210,1.39914
424.30231,1.36545
422.81252,1.33180
421.32273,1.27728
419.83295,1.35589
418.34316,1.20859
416.85337,1.06133
415.36358,1.00850
413.87379,0.93559
412.38400,0.84569
410.89422,0.75582
409.40443,0.70467
407.91464,0.76653
406.42485,0.69688
404.93506,0.65203
403.44527,0.60721
401.95548,0.49434
400.46570,0.41090
398.97591,0.41106
397.48612,0.41125
395.99633,0.53374
394.50654,0.60828
393.01675,0.57840
391.52697,0.54856
390.03718,0.40345
388.54739,0.38374
387.05760,0.39964
385.56781,0.41559
384.07802,0.41299
382.58824,0.47079
381.09845,0.41333
379.60866,0.35590
378.11887,0.29618
376.62908,0.29376
375.13929,0.26197
373.64950,0.23021
372.15972,0.22015
370.66993,0.25036
369.18014,0.18311
367.69035,0.11590
366.20056,0.14621
364.71077,0.19358
363.22099,0.24099
361.73120,0.28842
360.24141,0.12234
358.75162,0.05069
357.26183,0.13304
355.77204,0.21544
354.28225,0.21353
352.79247,0.11261
351.30268,0.08832
349.81289,0.06407
348.32310,0.12265
346.83331,0.14877
345.34352,0.09444
343.85374,0.04015
342.36395,0.16850
340.87416,0.08643
339.38437,0.09491
337.89458,0.10344
336.40479,0.12979
334.91501,0.14070
333.42522,0.10754
331.93543,0.07441
330.44564,0.15661
328.95585,0.14600
327.46606,0.15011
325.97627,0.15426
324.48649,0.05709
322.99670,0.09387
321.50691,0.08968
320.01712,0.08553
318.52733,0.16729
317.03754,0.29707
315.54776,0.24040
314.05797,0.18376
312.56818,0.21460
311.07839,0.16654
309.58860,0.10769
308.09881,0.04887
306.60902,0.04579
305.11924,0.00252
303.62945,0.06406
302.13966,0.10180
300.64987,0.00417
299.16008,0.00252
