1778.52000,0.00335
1777.03021,0.04044
1775.54042,0.02918
1774.05063,0.02054
1772.56085,0.00156
1771.07106,0.03186
1769.58127,0.03714
1768.09148,0.01653
1766.60169,0.02274
1765.11190,0.05317
1763.62212,0.04562
1762.13233,0.04155
1760.64254,0.05480
1759.15275,0.02833
1757.66296,0.04856
1756.17317,0.07746
1754.68339,0.05022
1753.19360,0.04980
1751.70381,0.05201
1750.21402,0.01969
1748.72423,0.03725
1747.23444,0.03670
1745.74465,0.06469
1744.25487,0.06334
1742.76508,0.06116
1741.27529,0.05987
1739.78550,0.03010
1738.29571,0.03406
1736.80592,0.03633
1735.31614,0.04640
1733.82635,0.02713
1732.33656,0.03467
1730.84677,0.04484
1729.35698,0.01962
1727.86719,0.06528
1726.37740,0.01506
1724.88762,0.02190
1723.39783,0.00544
1721.90804,0.00976
1720.41825,0.02188
1718.92846,0.00897
1717.43867,0.00820
1715.94889,0.00918
1714.45910,0.00156
1712.96931,0.03390
1711.47952,0.07750
1709.98973,0.04596
1708.49994,0.01877
1707.01016,0.03180
1705.52037,0.04486
1704.03058,0.01863
1702.54079,0.00712
1701.05100,0.07083
1699.56121,0.07148
1698.07142,0.06180
1696.58164,0.06598
1695.09185,0.07018
1693.60206,0.12368
1692.11227,0.10376
1690.62248,0.15213
1689.13269,0.11326
1687.64291,0.12281
1686.15312,0.10129
1684.66333,0.12041
1683.17354,0.10673
1681.68375,0.14579
1680.19396,0.08637
1678.70417,0.08229
1677.21439,0.07565
1675.72460,0.12261
1674.23481,0.13073
1672.74502,0.09912
1671.25523,0.09952
1669.76544,0.15007
1668.27566,0.14707
1666.78587,0.09400
1665.29608,0.09884
1663.80629,0.08558
1662.31650,0.06975
1660.82671,0.08420
1659.33693,0.10645
1657.84714,0.09245
1656.35735,0.08712
1654.86756,0.05849
1653.37777,0.04891
1651.88798,0.04194
1650.39819,0.07044
1648.90841,0.11971
1647.41862,0.06100
1645.92883,0.06885
1644.43904,0.07674
1642.94925,0.09157
1641.45946,0.08138
1639.96968,0.09281
1638.47989,0.08873
1636.99010,0.11752
1635.50031,0.10918
1634.01052,0.09396
1632.52073,0.08396
1631.03094,0.05411
1629.54116,0.06837
1628.05137,0.05932
1626.56158,0.05204
1625.07179,0.11219
1623.58200,0.13694
1622.09221,0.12025
1620.60243,0.12346
1619.11264,0.12152
1617.62285,0.11357
1616.13306,0.12552
1614.64327,0.08047
1613.15348,0.10113
1611.66370,0.10885
1610.17391,0.09414
1608.68412,0.07342
1607.19433,0.11321
1605.70454,0.10638
1604.21475,0.10605
1602.72496,0.10576
1601.23518,0.11285
1599.74539,0.12169
1598.25560,0.10465
1596.76581,0.06171
1595.27602,0.04560
1593.78623,0.11506
1592.29645,0.07826
1590.80666,0.05879
1589.31687,0.07477
1587.82708,0.09770
1586.33729,0.10424
1584.84750,0.05897
1583.35771,0.08890
1581.86793,0.01431
1580.37814,0.02790
1578.88835,0.05965
1577.39856,0.06034
1575.90877,0.05414
1574.41898,0.02119
1572.92920,0.00123
1571.43941,0.03661
1569.94962,0.04177
1568.45983,0.04697
1566.97004,0.03146
1565.48025,0.00129
1563.99047,0.01523
1562.50068,0.03438
1561.01089,0.02332
1559.52110,0.02179
1558.03131,0.01943
1556.54152,0.00156
1555.05173,0.08246
1553.56195,0.02254
1552.07216,0.06203
1550.58237,0.04797
1549.09258,0.04951
1547.60279,0.02601
1546.11300,0.04662
1544.62322,0.05515
1543.13343,0.04558
1541.64364,0.03431
1540.15385,0.04900
1538.66406,0.06371
1537.17427,0.00156
1535.68448,0.00869
1534.19470,0.03054
1532.70491,0.02477
1531.21512,0.00003
1529.72533,0.00000
1528.23554,0.00260
1526.74575,0.04411
1525.25597,0.04159
1523.76618,0.02182
1522.27639,0.02628
1520.78660,0.01175
1519.29681,0.01368
1517.80702,0.02169
1516.31724,0.00380
1514.82745,0.02397
1513.33766,0.01523
1511.84787,0.00651
1510.35808,0.02937
1508.86829,0.01769
1507.37850,0.03111
1505.88872,0.01691
1504.39893,0.00187
1502.90914,0.00156
1501.41935,0.00766
1499.92956,0.02330
1498.43977,0.04935
1496.94999,0.05296
1495.46020,0.12486
1493.97041,0.11730
1492.48062,0.19099
1490.99083,0.19559
1489.50104,0.28664
1488.01125,0.30685
1486.52147,0.32710
1485.03168,0.35430
1483.54189,0.43251
1482.05210,0.49606
1480.56231,0.57606
1479.07252,0.61893
1477.58274,0.67567
1476.09295,0.70478
1474.60316,0.79614
1473.11337,0.80890
1471.62358,0.84071
1470.13379,0.81724
1468.64401,0.85516
1467.15422,0.73843
1465.66443,0.70944
1464.17464,0.68049
1462.68485,0.68656
1461.19506,0.65292
1459.70527,0.55882
1458.21549,0.55030
1456.72570,0.47527
1455.23591,0.50916
1453.74612,0.45234
1452.25633,0.40420
1450.76654,0.31289
1449.27676,0.32184
1447.78697,0.29194
1446.29718,0.28108
1444.80739,0.27933
1443.31760,0.27761
1441.82781,0.18303
1440.33802,0.15502
1438.84824,0.14345
1437.35845,0.07317
1435.86866,0.07031
1434.37887,0.08563
1432.88908,0.07074
1431.39929,0.08958
1429.90951,0.08339
1428.41972,0.16883
1426.92993,0.09358
1425.44014,0.11169
1423.95035,0.11168
1422.46056,0.11170
1420.97078,0.13422
1419.48099,0.15764
1417.99120,0.14134
1416.50141,0.22098
1415.01162,0.21339
1413.52183,0.19459
1412.03204,0.14559
1410.54226,0.13636
1409.05247,0.13494
1407.56268,0.14997
1406.07289,0.10887
1404.58310,0.12872
1403.09331,0.14860
1401.60353,0.20005
1400.11374,0.24894
1398.62395,0.31255
1397.13416,0.31830
1395.64437,0.30940
1394.15458,0.38520
1392.66479,0.34439
1391.17501,0.35977
1389.68522,0.46246
1388.19543,0.40705
1386.70564,0.42469
1385.21585,0.44236
1383.72606,0.43284
1382.23628,0.40608
1380.74649,0.42341
1379.25670,0.31808
1377.76691,0.37523
1376.27712,0.40303
1374.78733,0.46542
1373.29755,0.56587
1371.80776,0.62833
1370.31797,0.77723
1368.82818,0.85703
1367.33839,0.93687
1365.84860,1.18783
1364.35881,1.32821
1362.86903,1.46517
1361.37924,1.51058
1359.88945,1.47219
1358.39966,1.53753
1356.90987,1.67894
1355.42008,1.58535
1353.93030,1.48229
1352.44051,1.37494
1350.95072,1.26762
1349.46093,1.13096
1347.97114,1.02370
1346.48135,0.84476
1344.99156,0.77646
1343.50178,0.64942
1342.01199,0.65376
1340.52220,0.48791
1339.03241,0.49577
1337.54262,0.39825
1336.05283,0.39062
1334.56305,0.38302
1333.07326,0.35818
1331.58347,0.37570
1330.09368,0.29994
1328.60389,0.27173
1327.11410,0.26688
1325.62432,0.23874
1324.13453,0.25729
1322.64474,0.20847
1321.15495,0.21845
1319.66516,0.19043
1318.17537,0.16245
1316.68558,0.15523
1315.19580,0.22323
1313.70601,0.16769
1312.21622,0.13292
1310.72643,0.12843
1309.23664,0.18532
1307.74685,0.16101
1306.25707,0.12724
1304.76728,0.13713
1303.27749,0.14705
1301.78770,0.15831
1300.29791,0.19638
1298.80812,0.14289
1297.31834,0.15337
1295.82855,0.14747
1294.33876,0.17443
1292.84897,0.14095
1291.35918,0.17143
1289.86939,0.16350
1288.37960,0.15559
1286.88982,0.17322
1285.40003,0.17963
1283.91024,0.19559
1282.42045,0.20207
1280.93066,0.18007
1279.44087,0.22291
1277.95109,0.23554
1276.46130,0.27153
1274.97151,0.25527
1273.48172,0.23905
1271.99193,0.24489
1270.50214,0.30002
1269.01235,0.27136
1267.52257,0.36198
1266.03278,0.33598
1264.54299,0.34198
1263.05320,0.39209
1261.56341,0.39340
1260.07362,0.39475
1258.58384,0.39915
1257.09405,0.39926
1255.60426,0.39336
1254.11447,0.39959
1252.62468,0.41708
1251.13489,0.36634
1249.64511,0.34242
1248.15532,0.26323
1246.66553,0.24542
1245.17574,0.22764
1243.68595,0.19348
1242.19616,0.23971
1240.70637,0.22808
1239.21659,0.21561
1237.72680,0.16257
1236.23701,0.13289
1234.74722,0.17841
1233.25743,0.15052
1231.76764,0.12267
1230.27786,0.12940
1228.78807,0.11198
1227.29828,0.10409
1225.80849,0.09796
1224.31870,0.11865
1222.82891,0.08408
1221.33912,0.07804
1219.84934,0.09321
1218.35955,0.10842
1216.86976,0.06360
1215.37997,0.07843
1213.89018,0.12267
1212.40039,0.10474
1210.91061,0.05745
1209.42082,0.05513
1207.93103,0.04939
1206.44124,0.04368
1204.95145,0.04750
1203.46166,0.06778
1201.97188,0.08117
1200.48209,0.09027
1198.99230,0.13138
1197.50251,0.08957
1196.01272,0.09704
1194.52293,0.07733
1193.03314,0.05765
1191.54336,0.03670
1190.05357,0.00542
1188.56378,0.00873
1187.07399,0.02763
1185.58420,0.00076
1184.09441,0.08423
1182.60463,0.04288
1181.11484,0.00156
1179.62505,0.05414
1178.13526,0.10934
1176.64547,0.08422
1175.15568,0.09801
1173.66589,0.10320
1172.17611,0.07817
1170.68632,0.07132
1169.19653,0.06450
1167.70674,0.08364
1166.21695,0.06652
1164.72716,0.05029
1163.23738,0.06434
1161.74759,0.03521
1160.25780,0.05278
1158.76801,0.04749
1157.27822,0.04222
1155.78843,0.08494
1154.29865,0.10869
1152.80886,0.09099
1151.31907,0.07591
1149.82928,0.11012
1148.33949,0.17634
1146.84970,0.15445
1145.35991,0.13259
1143.87013,0.07447
1142.38034,0.03280
1140.89055,0.11818
1139.40076,0.13533
1137.91097,0.16721
1136.42118,0.22590
1134.93140,0.21290
1133.44161,0.19994
1131.95182,0.25614
1130.46203,0.29163
1128.97224,0.22951
1127.48245,0.26419
1125.99266,0.29546
1124.50288,0.35182
1123.01309,0.34945
1121.52330,0.34711
1120.03351,0.38628
1118.54372,0.49633
1117.05393,0.44397
1115.56415,0.39510
1114.07436,0.41021
1112.58457,0.43182
1111.09478,0.45347
1109.60499,0.44361
1108.11520,0.45366
1106.62542,0.52076
1105.13563,0.49286
1103.64584,0.58509
1102.15605,0.70154
1100.66626,0.71391
1099.17647,0.72631
1097.68668,0.76164
1096.19690,0.79873
1094.70711,0.81597
1093.21732,0.83930
1091.72753,0.80477
1090.23774,0.81390
1088.74795,0.82307
1087.25817,0.80072
1085.76838,0.87865
1084.27859,0.95920
1082.78880,1.03891
1081.29901,1.08669
1079.80922,1.05846
1078.31943,1.05921
1076.82965,1.05999
1075.33986,1.14160
1073.85007,1.25693
1072.36028,1.12949
1070.87049,1.26390
1069.38070,1.29379
1067.89092,1.31377
1066.40113,1.33379
1064.91134,1.28946
1063.42155,1.09135
1061.93176,1.06264
1060.44197,0.99422
1058.95219,0.93878
1057.46240,0.91665
1055.97261,0.89455
1054.48282,0.80637
1052.99303,0.73897
1051.50324,0.68888
1050.01345,0.63278
1048.52367,0.54992
1047.03388,0.51764
1045.54409,0.48539
1044.05430,0.53915
1042.56451,0.46765
1041.07472,0.44803
1039.58494,0.34721
1038.09515,0.30605
1036.60536,0.26060
1035.11557,0.21519
1033.62578,0.25535
1032.13599,0.20999
1030.64620,0.28824
1029.15642,0.37083
1027.66663,0.39384
1026.17684,0.41688
1024.68705,0.48315
1023.19726,0.51576
1021.70747,0.67369
1020.21769,0.87226
1018.72790,1.10802
1017.23811,1.27858
1015.74832,1.44917
1014.25853,1.58306
1012.76874,1.72736
1011.27896,1.82935
1009.78917,1.90631
1008.29938,1.97121
1006.80959,1.98559
1005.31980,2.00000
1003.83001,1.79713
1002.34022,1.68501
1000.85044,1.69131
999.36065,1.54211
997.87086,1.46552
996.38107,1.38896
994.89128,1.41958
993.40149,1.45369
991.91171,1.46105
990.42192,1.44078
988.93213,1.44043
987.44234,1.43276
985.95255,1.42512
984.46276,1.46028
982.97297,1.31748
981.48319,1.27235
979.99340,1.09936
978.50361,1.12040
977.01382,1.14147
975.52403,1.08091
974.03424,1.05322
972.54446,0.95298
971.05467,0.94437
969.56488,0.87357
968.07509,0.86545
966.58530,0.85736
965.09551,0.75556
963.60573,0.73759
962.11594,0.75855
960.62615,0.68622
959.13636,0.66403
957.64657,0.64188
956.15678,0.53681
954.66699,0.53286
953.17721,0.51599
951.68742,0.56309
950.19763,0.54153
948.70784,0.52000
947.21805,0.54214
945.72826,0.51851
944.23848,0.54245
942.74869,0.57851
941.25890,0.58954
939.76911,0.61486
938.27932,0.64022
936.78953,0.64703
935.29974,0.60375
933.80996,0.59162
932.32017,0.64086
930.83038,0.66162
929.34059,0.68242
927.85080,0.74991
926.36101,0.69991
924.87123,0.61106
923.38144,0.55335
921.89165,0.55443
920.40186,0.55554
918.91207,0.54113
917.42228,0.67538
915.93250,0.56685
914.44271,0.54908
912.95292,0.53221
911.46313,0.51536
909.97334,0.55904
908.48355,0.67015
906.99376,0.66982
905.50398,0.53645
904.01419,0.54829
902.52440,0.56015
901.03461,0.61784
899.54482,0.67384
898.05503,0.64087
896.56525,0.61225
895.07546,0.61736
893.58567,0.62251
892.09588,0.58448
890.60609,0.68474
889.11630,0.66405
887.62651,0.65636
886.13673,0.69537
884.64694,0.73440
883.15715,0.66027
881.66736,0.65012
880.17757,0.68752
878.68778,0.71459
877.19800,0.74168
875.70821,0.76190
874.21842,0.82190
872.72863,0.90180
871.23884,0.93853
869.74905,0.98134
868.25927,1.02419
866.76948,0.97720
865.27969,0.95443
863.78990,1.06563
862.30011,0.98331
860.81032,0.98484
859.32053,0.98640
857.83075,0.90244
856.34096,0.90839
854.85117,0.89708
853.36138,0.80977
851.87159,0.76828
850.38180,0.72683
848.89202,0.58690
847.40223,0.48848
845.91244,0.39355
844.42265,0.37987
842.93286,0.36623
841.44307,0.36385
839.95329,0.34941
838.46350,0.29611
836.97371,0.31716
835.48392,0.31016
833.99413,0.30319
832.50434,0.29149
831.01455,0.30576
829.52477,0.32869
828.03498,0.33351
826.54519,0.31288
825.05540,0.29227
823.56561,0.21251
822.07582,0.22005
820.58604,0.21467
819.09625,0.17561
817.60646,0.13659
816.11667,0.08982
814.62688,0.13641
813.13709,0.10958
811.64730,0.00156
810.15752,0.00805
808.66773,0.01458
807.17794,0.04404
805.68815,0.06834
804.19836,0.11082
802.70857,0.14210
801.21879,0.17342
799.72900,0.18229
798.23921,0.18775
796.74942,0.36260
795.25963,0.42212
793.76984,0.48168
792.28006,0.47948
790.79027,0.48855
789.30048,0.54864
787.81069,0.54567
786.32090,0.55181
784.83111,0.55799
783.34132,0.69424
781.85154,0.74584
780.36175,0.73613
778.87196,0.69490
777.38217,0.65371
775.89238,0.70112
774.40259,0.70104
772.91281,0.76320
771.42302,0.78868
769.93323,0.81418
768.44344,0.78398
766.95365,0.73653
765.46386,0.76948
763.97407,0.71950
762.48429,0.68900
760.99450,0.65853
759.50471,0.54298
758.01492,0.44561
756.52513,0.39493
755.03534,0.37106
753.54556,0.34723
752.05577,0.26295
750.56598,0.20203
749.07619,0.12472
747.58640,0.10404
746.09661,0.08340
744.60683,0.09692
743.11704,0.06035
741.62725,0.03591
740.13746,0.03613
738.64767,0.03638
737.15788,0.03624
735.66809,0.00156
734.17831,0.06684
732.68852,0.04575
731.19873,0.02469
729.70894,0.10303
728.21915,0.06735
726.72936,0.05070
725.23958,0.06347
723.74979,0.07281
722.26000,0.08219
720.77021,0.10628
719.28042,0.06647
717.79063,0.09236
716.30084,0.04742
714.81106,0.00252
713.32127,0.05603
711.83148,0.00156
710.34169,0.01492
708.85190,0.01449
707.36211,0.01410
705.87233,0.06731
704.38254,0.03587
702.89275,0.09433
701.40296,0.09838
699.91317,0.10247
698.42338,0.07548
696.93360,0.10382
695.44381,0.17021
693.95402,0.17356
692.46423,0.17694
690.97444,0.17172
689.48465,0.14319
687.99486,0.18209
686.50508,0.20375
685.01529,0.22543
683.52550,0.25925
682.03571,0.31729
680.54592,0.24143
679.05613,0.23775
677.56635,0.23411
676.07656,0.17822
674.58677,0.15606
673.09698,0.15986
671.60719,0.15202
670.11740,0.14421
668.62761,0.09021
667.13783,0.09154
665.64804,0.09032
664.15825,0.08912
662.66846,0.03006
661.17867,0.13175
659.68888,0.07449
658.19910,0.11403
656.70931,0.15361
655.21952,0.09644
653.72973,0.14904
652.23994,0.17920
650.75015,0.14114
649.26037,0.10310
647.77058,0.12645
646.28079,0.06947
644.79100,0.07647
643.30121,0.03900
641.81142,0.00156
640.32163,0.04049
638.83185,0.06303
637.34206,0.10721
635.85227,0.09784
634.36248,0.08851
632.87269,0.03083
631.38290,0.05353
629.89312,0.05725
628.40333,0.04459
626.91354,0.03197
625.42375,0.05480
623.93396,0.09322
622.44417,0.08976
620.95438,0.08633
619.46460,0.09978
617.97481,0.12623
616.48502,0.13284
614.99523,0.14552
613.50544,0.15824
612.01565,0.16235
610.52587,0.16217
609.03608,0.16462
607.54629,0.15975
606.05650,0.15491
604.56671,0.19548
603.07692,0.19114
601.58714,0.15140
600.09735,0.11170
598.60756,0.12819
597.11777,0.12657
595.62798,0.15868
594.13819,0.11824
592.64840,0.07784
591.15862,0.12560
589.66883,0.07834
588.17904,0.13999
586.68925,0.14335
585.19946,0.14674
583.70967,0.12726
582.21989,0.16657
580.73010,0.13463
579.24031,0.10272
577.75052,0.14212
576.26073,0.19280
574.77094,0.19079
573.28115,0.19185
571.79137,0.19293
570.30158,0.22472
568.81179,0.23408
567.32200,0.28537
565.83221,0.33670
564.34242,0.30641
562.85264,0.43168
561.36285,0.43687
559.87306,0.43605
558.38327,0.43527
556.89348,0.46302
555.40369,0.54871
553.91391,0.59554
552.42412,0.64240
550.93433,0.63141
549.44454,0.62303
547.95475,0.60864
546.46496,0.62409
544.97517,0.63958
543.48539,0.76267
541.99560,0.65509
540.50581,0.70394
539.01602,0.75282
537.52623,0.74988
536.03644,0.62947
534.54666,0.60932
533.05687,0.58790
531.56708,0.56652
530.07729,0.56893
528.58750,0.59643
527.09771,0.56953
525.60792,0.54265
524.11814,0.51495
522.62835,0.42938
521.13856,0.44927
519.64877,0.43549
518.15898,0.42173
516.66919,0.30865
515.17941,0.32088
513.68962,0.33401
512.19983,0.34718
510.71004,0.40703
509.22025,0.33731
507.73046,0.37303
506.24068,0.39842
504.75089,0.42384
503.26110,0.50114
501.77131,0.43503
500.28152,0.43851
498.79173,0.44203
497.30194,0.38898
495.81216,0.41286
494.32237,0.42727
492.83258,0.44171
491.34279,0.43286
489.85300,0.38429
488.36321,0.37809
486.87343,0.34125
485.38364,0.30443
483.89385,0.21797
482.40406,0.21363
480.91427,0.14754
479.42448,0.08147
477.93469,0.15672
476.44491,0.15769
474.95512,0.14314
473.46533,0.12862
471.97554,0.10290
470.48575,0.05042
468.99596,0.09562
467.50618,0.07604
466.01639,0.05650
464.52660,0.00156
463.03681,0.10376
461.54702,0.10533
460.05723,0.10694
458.56745,0.10728
457.07766,0.15172
455.58787,0.17502
454.09808,0.19836
452.60829,0.26795
451.11850,0.20710
449.62871,0.23269
448.13893,0.25831
446.64914,0.30903
445.15935,0.38742
443.66956,0.48227
442.17977,0.48771
440.68998,0.49319
439.20020,0.53715
437.71041,0.64163
436.22062,0.69732
434.73083,0.75304
433.24104,0.86971
431.75125,0.93370
430.26146,0.99557
428.77168,1.05746
427.28189,1.12760
425.79210,1.19259
424.30231,1.18545
422.81252,1.17835
421.32273,1.07494
419.83295,1.01908
418.34316,0.95504
416.85337,0.89104
415.36358,0.74714
413.87379,0.73462
412.38400,0.69836
410.89422,0.66213
409.40443,0.67735
407.91464,0.66064
406.42485,0.53939
404.93506,0.53268
403.44527,0.52599
401.95548,0.48780
400.46570,0.45741
398.97591,0.44996
397.48612,0.44254
395.99633,0.47619
394.50654,0.49346
393.01675,0.48872
391.52697,0.48402
390.03718,0.41843
388.54739,0.27770
387.05760,0.27871
385.56781,0.27975
384.07802,0.32922
382.58824,0.42624
381.09845,0.39713
379.60866,0.36806
378.11887,0.28631
376.62908,0.30396
375.13929,0.24344
373.64950,0.18296
372.15972,0.22317
370.66993,0.16664
369.18014,0.14298
367.69035,0.11934
366.20056,0.13117
364.71077,0.08600
363.22099,0.12986
361.73120,0.17376
360.24141,0.18917
358.75162,0.10956
357.26183,0.13108
355.77204,0.15264
354.28225,0.15176
352.79247,0.07142
351.30268,0.03647
349.81289,0.00156
348.32310,0.08578
346.83331,0.07239
345.34352,0.04434
343.85374,0.01632
342.36395,0.07302
340.87416,0.08136
339.38437,0.12386
337.89458,0.16640
336.40479,0.08583
334.91501,0.09084
333.42522,0.09545
331.93543,0.10010
330.44564,0.14322
328.95585,0.09479
327.46606,0.11379
325.97627,0.13282
324.48649,0.14237
322.99670,0.01630
321.50691,0.03602
320.01712,0.05578
318.52733,0.11056
317.03754,0.07983
315.54776,0.13079
314.05797,0.18178
312.56818,0.17793
311.07839,0.09981
309.58860,0.07226
308.09881,0.04475
306.60902,0.05140
305.11924,0.02265
303.62945,0.03239
302.13966,0.00156
300.64987,0.00197
299.16008,0.00156
