1778.52000,0.08722
1777.03021,0.03412
1775.54042,0.05183
1774.05063,0.04409
1772.56085,0.05196
1771.07106,0.06411
1769.58127,0.04515
1768.09148,0.06586
1766.60169,0.05687
1765.11190,0.04650
1763.62212,0.04748
1762.13233,0.03151
1760.64254,0.00000
1759.15275,0.01666
1757.66296,0.03335
1756.17317,0.08972
1754.68339,0.03285
1753.19360,0.03124
1751.70381,0.04664
1750.21402,0.00687
1748.72423,0.03791
1747.23444,0.04917
1745.74465,0.02648
1744.25487,0.04488
1742.76508,0.01518
1741.27529,0.05630
1739.78550,0.06631
1738.29571,0.00273
1736.80592,0.05102
1735.31614,0.04131
1733.82635,0.04012
1732.33656,0.02055
1730.84677,0.06190
1729.35698,0.00560
1727.86719,0.01162
1726.37740,0.06014
1724.88762,0.00677
1723.39783,0.02704
1721.90804,0.07425
1720.41825,0.04646
1718.92846,0.05267
1717.43867,0.05892
1715.94889,0.00574
1714.45910,0.03896
1712.96931,0.00000
1711.47952,0.07351
1709.98973,0.07910
1708.49994,0.08755
1707.01016,0.08046
1705.52037,0.07340
1704.03058,0.07487
1702.54079,0.12592
1701.05100,0.08357
1699.56121,0.08231
1698.07142,0.13771
1696.58164,0.08837
1695.09185,0.15800
1693.60206,0.11439
1692.11227,0.11046
1690.62248,0.18301
1689.13269,0.16499
1687.64291,0.20363
1686.15312,0.23381
1684.66333,0.20880
1683.17354,0.20507
1681.68375,0.25234
1680.19396,0.17929
1678.70417,0.22662
1677.21439,0.23293
1675.72460,0.20388
1674.23481,0.18335
1672.74502,0.19825
1671.25523,0.15230
1669.76544,0.23806
1668.27566,0.21766
1666.78587,0.17323
1665.29608,0.13591
1663.80629,0.17082
1662.31650,0.16047
1660.82671,0.23368
1659.33693,0.20498
1657.84714,0.12535
1656.35735,0.16751
1654.86756,0.15874
1653.37777,0.17831
1651.88798,0.13420
1650.39819,0.12977
1648.90841,0.18767
1647.41862,0.13234
1645.92883,0.13509
1644.43904,0.13786
1642.94925,0.16475
1641.45946,0.18741
1639.96968,0.17330
1638.47989,0.12808
1636.99010,0.18624
1635.50031,0.16231
1634.01052,0.17240
1632.52073,0.12023
1631.03094,0.14737
1629.54116,0.13349
1628.05137,0.15928
1626.56158,0.12847
1625.07179,0.18831
1623.58200,0.19013
1622.09221,0.20756
1620.60243,0.22219
1619.11264,0.19014
1617.62285,0.20342
1616.13306,0.15868
1614.64327,0.17486
1613.15348,0.17408
1611.66370,0.23987
1610.17391,0.20518
1608.68412,0.17335
1607.19433,0.20102
1605.70454,0.18341
1604.21475,0.19841
1602.72496,0.21343
1601.23518,0.19734
1599.74539,0.20676
1598.25560,0.18224
1596.76581,0.19315
1595.27602,0.17719
1593.78623,0.11737
1592.29645,0.18218
1590.80666,0.14650
1589.31687,0.09952
1587.82708,0.12620
1586.33729,0.13308
1584.84750,0.16266
1583.35771,0.08750
1581.86793,0.07608
1580.37814,0.12841
1578.88835,0.16802
1577.39856,0.10998
1575.90877,0.10011
1574.41898,0.08461
1572.92920,0.13710
1571.43941,0.06786
1569.94962,0.08148
1568.45983,0.09513
1566.97004,0.08263
1565.48025,0.12537
1563.99047,0.11576
1562.50068,0.00000
1561.01089,0.03751
1559.52110,0.07788
1558.03131,0.17350
1556.54152,0.07378
1555.05173,0.08877
1553.56195,0.12502
1552.07216,0.12733
1550.58237,0.09711
1549.09258,0.09807
1547.60279,0.04810
1546.11300,0.08027
1544.62322,0.14221
1543.13343,0.11357
1541.64364,0.08213
1540.15385,0.06700
1538.66406,0.05191
1537.17427,0.08003
1535.68448,0.06430
1534.19470,0.03302
1532.70491,0.02868
1531.21512,0.03003
1529.72533,0.09654
1528.23554,0.05549
1526.74575,0.05269
1525.25597,0.05842
1523.76618,0.08967
1522.27639,0.07140
1520.78660,0.03334
1519.29681,0.01230
1517.80702,0.07483
1516.31724,0.04961
1514.82745,0.03434
1513.33766,0.05449
1511.84787,0.07467
1510.35808,0.07365
1508.86829,0.10240
1507.37850,0.06463
1505.88872,0.00000
1504.39893,0.06503
1502.90914,0.04232
1501.41935,0.07910
1499.92956,0.07911
1498.43977,0.11454
1496.94999,0.13726
1495.46020,0.18409
1493.97041,0.18847
1492.48062,0.30898
1490.99083,0.35024
1489.50104,0.38446
1488.01125,0.38260
1486.52147,0.38078
1485.03168,0.58357
1483.54189,0.57544
1482.05210,0.68344
1480.56231,0.69802
1479.07252,0.75654
1477.58274,0.87454
1476.09295,0.96002
1474.60316,0.93793
1473.11337,1.09993
1471.62358,1.15860
1470.13379,1.14227
1468.64401,1.18969
1467.15422,1.03467
1465.66443,1.03118
1464.17464,1.02773
1462.68485,0.98183
1461.19506,0.88783
1459.70527,0.76696
1458.21549,0.79761
1456.72570,0.74902
1455.23591,0.71744
1453.74612,0.59387
1452.25633,0.55953
1450.76654,0.48133
1449.27676,0.53625
1447.78697,0.50909
1446.29718,0.52018
1444.80739,0.46901
1443.31760,0.41788
1441.82781,0.32855
1440.33802,0.33411
1438.84824,0.26184
1437.35845,0.17969
1435.86866,0.14712
1434.37887,0.21370
1432.88908,0.15996
1431.39929,0.18412
1429.90951,0.17859
1428.41972,0.22123
1426.92993,0.24266
1425.44014,0.24855
1423.95035,0.24527
1422.46056,0.24202
1420.97078,0.31172
1419.48099,0.27102
1417.99120,0.22469
1416.50141,0.27750
1415.01162,0.25389
1413.52183,0.28977
1412.03204,0.18411
1410.54226,0.26678
1409.05247,0.24613
1407.56268,0.28497
1406.07289,0.24599
1404.58310,0.26791
1403.09331,0.28986
1401.60353,0.29911
1400.11374,0.29989
1398.62395,0.34601
1397.13416,0.31996
1395.64437,0.36474
1394.15458,0.46476
1392.66479,0.41474
1391.17501,0.45536
1389.68522,0.43938
1388.19543,0.43193
1386.70564,0.45708
1385.21585,0.48226
1383.72606,0.42253
1382.23628,0.44069
1380.74649,0.44898
1379.25670,0.40633
1377.76691,0.43026
1376.27712,0.44431
1374.78733,0.49237
1373.29755,0.60135
1371.80776,0.66788
1370.31797,0.78400
1368.82818,0.80671
1367.33839,0.82945
1365.84860,1.10990
1364.35881,1.21624
1362.86903,1.31128
1361.37924,1.26336
1359.88945,1.34290
1358.39966,1.45079
1356.90987,1.55729
1355.42008,1.39199
1353.93030,1.40512
1352.44051,1.35386
1350.95072,1.30263
1349.46093,1.27621
1347.97114,1.16346
1346.48135,0.91342
1344.99156,0.82905
1343.50178,0.71073
1342.01199,0.68306
1340.52220,0.58464
1339.03241,0.51739
1337.54262,0.52804
1336.05283,0.54652
1334.56305,0.56502
1333.07326,0.50074
1331.58347,0.42941
1330.09368,0.37510
1328.60389,0.34914
1327.11410,0.34870
1325.62432,0.32281
1324.13453,0.27712
1322.64474,0.38438
1321.15495,0.35858
1319.66516,0.31937
1318.17537,0.28019
1316.68558,0.25732
1315.19580,0.23307
1313.70601,0.28814
1312.21622,0.23564
1310.72643,0.20724
1309.23664,0.21852
1307.74685,0.31903
1306.25707,0.19020
1304.76728,0.19379
1303.27749,0.19741
1301.78770,0.24991
1300.29791,0.16511
1298.80812,0.18228
1297.31834,0.24620
1295.82855,0.20539
1294.33876,0.23398
1292.84897,0.24987
1291.35918,0.23889
1289.86939,0.21732
1288.37960,0.19578
1286.88982,0.25144
1285.40003,0.28306
1283.91024,0.25525
1282.42045,0.31809
1280.93066,0.28468
1279.44087,0.35041
1277.95109,0.28309
1276.46130,0.25120
1274.97151,0.24766
1273.48172,0.24415
1271.99193,0.29022
1270.50214,0.45101
1269.01235,0.40654
1267.52257,0.47820
1266.03278,0.46494
1264.54299,0.43756
1263.05320,0.49374
1261.56341,0.46076
1260.07362,0.42781
1258.58384,0.51382
1257.09405,0.57580
1255.60426,0.50614
1254.11447,0.46483
1252.62468,0.60052
1251.13489,0.49698
1249.64511,0.47984
1248.15532,0.33530
1246.66553,0.32389
1245.17574,0.31250
1243.68595,0.27708
1242.19616,0.27001
1240.70637,0.31536
1239.21659,0.24323
1237.72680,0.23909
1236.23701,0.22224
1234.74722,0.21250
1233.25743,0.16103
1231.76764,0.10959
1230.27786,0.15941
1228.78807,0.19936
1227.29828,0.21527
1225.80849,0.13494
1224.31870,0.10278
1222.82891,0.06357
1221.33912,0.13341
1219.84934,0.11975
1218.35955,0.10613
1216.86976,0.17465
1215.37997,0.19365
1213.89018,0.19570
1212.40039,0.08452
1210.91061,0.09512
1209.42082,0.07037
1207.93103,0.09732
1206.44124,0.12431
1204.95145,0.10815
1203.46166,0.08777
1201.97188,0.06884
1200.48209,0.11508
1198.99230,0.10754
1197.50251,0.08021
1196.01272,0.11239
1194.52293,0.07876
1193.03314,0.04516
1191.54336,0.07318
1190.05357,0.06443
1188.56378,0.01465
1187.07399,0.03569
1185.58420,0.00438
1184.09441,0.00000
1182.60463,0.05282
1181.11484,0.10566
1179.62505,0.08068
1178.13526,0.06422
1176.64547,0.12707
1175.15568,0.12909
1173.66589,0.13962
1172.17611,0.07374
1170.68632,0.08789
1169.19653,0.10206
1167.70674,0.07026
1166.21695,0.09370
1164.72716,0.12567
1163.23738,0.06424
1161.74759,0.00000
1160.25780,0.06863
1158.76801,0.06722
1157.27822,0.06583
1155.78843,0.03121
1154.29865,0.11272
1152.80886,0.06967
1151.31907,0.07195
1149.82928,0.14223
1148.33949,0.17856
1146.84970,0.13423
1145.35991,0.08993
1143.87013,0.04990
1142.38034,0.06513
1140.89055,0.12286
1139.40076,0.17072
1137.91097,0.14074
1136.42118,0.21697
1134.93140,0.22457
1133.44161,0.23221
1131.95182,0.33686
1130.46203,0.31837
1128.97224,0.29000
1127.48245,0.28007
1125.99266,0.30840
1124.50288,0.36224
1123.01309,0.38497
1121.52330,0.40774
1120.03351,0.42629
1118.54372,0.50575
1117.05393,0.44083
1115.56415,0.45523
1114.07436,0.46400
1112.58457,0.46077
1111.09478,0.45757
1109.60499,0.44095
1108.11520,0.48949
1106.62542,0.61452
1105.13563,0.57960
1103.64584,0.78681
1102.15605,0.84398
1100.66626,0.83747
1099.17647,0.83099
1097.68668,0.87127
1096.19690,0.81389
1094.70711,0.93634
1093.21732,0.93991
1091.72753,1.01430
1090.23774,1.04341
1088.74795,1.07256
1087.25817,1.03236
1085.76838,0.99503
1084.27859,1.09082
1082.78880,1.18664
1081.29901,1.18905
1079.80922,1.28069
1078.31943,1.28317
1076.82965,1.28568
1075.33986,1.27123
1073.85007,1.23983
1072.36028,1.20704
1070.87049,1.30029
1069.38070,1.40349
1067.89092,1.41964
1066.40113,1.43583
1064.91134,1.29561
1063.42155,1.21063
1061.93176,1.11295
1060.44197,1.12431
1058.95219,1.00545
1057.46240,1.00627
1055.97261,1.00711
1054.48282,0.82181
1052.99303,0.76396
1051.50324,0.70190
1050.01345,0.65262
1048.52367,0.68548
1047.03388,0.66387
1045.54409,0.64229
1044.05430,0.63419
1042.56451,0.55676
1041.07472,0.50059
1039.58494,0.38216
1038.09515,0.31898
1036.60536,0.29901
1035.11557,0.27908
1033.62578,0.29669
1032.13599,0.36389
1030.64620,0.36459
1029.15642,0.47575
1027.66663,0.43474
1026.17684,0.39376
1024.68705,0.50644
1023.19726,0.57667
1021.70747,0.76444
1020.21769,0.97632
1018.72790,1.11460
1017.23811,1.26637
1015.74832,1.41818
1014.25853,1.65142
1012.76874,1.70914
1011.27896,1.91555
1009.78917,1.98041
1008.29938,2.00000
1006.80959,1.97149
1005.31980,1.94300
1003.83001,1.88199
1002.34022,1.75447
1000.85044,1.79829
999.36065,1.61562
997.87086,1.55545
996.38107,1.49530
994.89128,1.64969
993.40149,1.53652
991.91171,1.48710
990.42192,1.51558
988.93213,1.54409
987.44234,1.50892
985.95255,1.47378
984.46276,1.45426
982.97297,1.36539
981.48319,1.36433
979.99340,1.20898
978.50361,1.20657
977.01382,1.20420
975.52403,1.26982
974.03424,1.21937
972.54446,1.10241
971.05467,1.15114
969.56488,1.03566
968.07509,0.99596
966.58530,0.95630
965.09551,0.93012
963.60573,0.97051
962.11594,0.93732
960.62615,0.74559
959.13636,0.72732
957.64657,0.70909
956.15678,0.69868
954.66699,0.72511
953.17721,0.80255
951.68742,0.73560
950.19763,0.73098
948.70784,0.72640
947.21805,0.63690
945.72826,0.59699
944.23848,0.68594
942.74869,0.67158
941.25890,0.71105
939.76911,0.73781
938.27932,0.76460
936.78953,0.78010
935.29974,0.77723
933.80996,0.72625
932.32017,0.82679
930.83038,0.83110
929.34059,0.83543
927.85080,0.83980
926.36101,0.78332
924.87123,0.71838
923.38144,0.63224
921.89165,0.66930
920.40186,0.70640
918.91207,0.64726
917.42228,0.70141
915.93250,0.69754
914.44271,0.73760
912.95292,0.70620
911.46313,0.67482
909.97334,0.73197
908.48355,0.81322
906.99376,0.89733
905.50398,0.70115
904.01419,0.68551
902.52440,0.66991
901.03461,0.81503
899.54482,0.79029
898.05503,0.76841
896.56525,0.77347
895.07546,0.77290
893.58567,0.77236
892.09588,0.69964
890.60609,0.84499
889.11630,0.80349
887.62651,0.87387
886.13673,0.82394
884.64694,0.77405
883.15715,0.71710
881.66736,0.73240
880.17757,0.76188
878.68778,0.79777
877.19800,0.83370
875.70821,0.77408
874.21842,0.86600
872.72863,1.01174
871.23884,0.87861
869.74905,0.91186
868.25927,0.94515
866.76948,0.88573
865.27969,0.84193
863.78990,1.01901
862.30011,0.91722
860.81032,0.94218
859.32053,0.96717
857.83075,0.90229
856.34096,0.86434
854.85117,0.78112
853.36138,0.71775
851.87159,0.67141
850.38180,0.62510
848.89202,0.55475
847.40223,0.45187
845.91244,0.42972
844.42265,0.38283
842.93286,0.33598
841.44307,0.25305
839.95329,0.32873
838.46350,0.30108
836.97371,0.27630
835.48392,0.31951
833.99413,0.36276
832.50434,0.22906
831.01455,0.21574
829.52477,0.26474
828.03498,0.22033
826.54519,0.23047
825.05540,0.24064
823.56561,0.13404
822.07582,0.25683
820.58604,0.22108
819.09625,0.15422
817.60646,0.08739
816.11667,0.08289
814.62688,0.06285
813.13709,0.01877
811.64730,0.03278
810.15752,0.01637
808.66773,0.00000
807.17794,0.09425
805.68815,0.06535
804.19836,0.17099
802.70857,0.17189
801.21879,0.17282
799.72900,0.19219
798.23921,0.22576
796.74942,0.37262
795.25963,0.41899
793.76984,0.46539
792.28006,0.41414
790.79027,0.57670
789.30048,0.57790
787.81069,0.57063
786.32090,0.62569
784.83111,0.68079
783.34132,0.73450
781.85154,0.68772
780.36175,0.76274
778.87196,0.70328
777.38217,0.64386
775.89238,0.78552
774.40259,0.81394
772.91281,0.83107
771.42302,0.84682
769.93323,0.86260
768.44344,0.89115
766.95365,0.83337
765.46386,0.89597
763.97407,0.86092
762.48429,0.80253
760.99450,0.74418
759.50471,0.58604
758.01492,0.47466
756.52513,0.46809
755.03534,0.42261
753.54556,0.37716
752.05577,0.30272
750.56598,0.16461
749.07619,0.22332
747.58640,0.18296
746.09661,0.14263
744.60683,0.04712
743.11704,0.08331
741.62725,0.10537
740.13746,0.09208
738.64767,0.07881
737.15788,0.04010
735.66809,0.00000
734.17831,0.01902
732.68852,0.03666
731.19873,0.05433
729.70894,0.07487
728.21915,0.07278
726.72936,0.06365
725.23958,0.05172
723.74979,0.05894
722.26000,0.06619
720.77021,0.09117
719.28042,0.10769
717.79063,0.09309
716.30084,0.04738
714.81106,0.00170
713.32127,0.00844
711.83148,0.01804
710.34169,0.03475
708.85190,0.05362
707.36211,0.07253
705.87233,0.09925
704.38254,0.00000
702.89275,0.02229
701.40296,0.04957
699.91317,0.07688
698.42338,0.05821
696.93360,0.15992
695.44381,0.18662
693.95402,0.18504
692.46423,0.18349
690.97444,0.20463
689.48465,0.22014
687.99486,0.22860
686.50508,0.22930
685.01529,0.23004
683.52550,0.21170
682.03571,0.20189
680.54592,0.20060
679.05613,0.20855
677.56635,0.21653
676.07656,0.22384
674.58677,0.14198
673.09698,0.19183
671.60719,0.17658
670.11740,0.16137
668.62761,0.21273
667.13783,0.06308
665.64804,0.06070
664.15825,0.05836
662.66846,0.16790
661.17867,0.07926
659.68888,0.17471
658.19910,0.17391
656.70931,0.17315
655.21952,0.16676
653.72973,0.12642
652.23994,0.23477
650.75015,0.23556
649.26037,0.23637
647.77058,0.09706
646.28079,0.10927
644.79100,0.14133
643.30121,0.14228
641.81142,0.14326
640.32163,0.13436
638.83185,0.13258
637.34206,0.08552
635.85227,0.04275
634.36248,0.00000
632.87269,0.04754
631.38290,0.05265
629.89312,0.13706
628.40333,0.10047
626.91354,0.06390
625.42375,0.06772
623.93396,0.16218
622.44417,0.19509
620.95438,0.22802
619.46460,0.17817
617.97481,0.15667
616.48502,0.15360
614.99523,0.16119
613.50544,0.16881
612.01565,0.12054
610.52587,0.19547
609.03608,0.16001
607.54629,0.13873
606.05650,0.11749
604.56671,0.25202
603.07692,0.24359
601.58714,0.21041
600.09735,0.17726
598.60756,0.13495
597.11777,0.21018
595.62798,0.14528
594.13819,0.14554
592.64840,0.14583
591.15862,0.06403
589.66883,0.15217
588.17904,0.16672
586.68925,0.14448
585.19946,0.12229
583.70967,0.17091
582.21989,0.20399
580.73010,0.22437
579.24031,0.24477
577.75052,0.30485
576.26073,0.24462
574.77094,0.24956
573.28115,0.21488
571.79137,0.18023
570.30158,0.23623
568.81179,0.41402
567.32200,0.44672
565.83221,0.47946
564.34242,0.38268
562.85264,0.33974
561.36285,0.48229
559.87306,0.52224
558.38327,0.56222
556.89348,0.53215
555.40369,0.68475
553.91391,0.64695
552.42412,0.60919
550.93433,0.71942
549.44454,0.72066
547.95475,0.74317
546.46496,0.74164
544.97517,0.74015
543.48539,0.81231
541.99560,0.74434
540.50581,0.80949
539.01602,0.87467
537.52623,0.80821
536.03644,0.69932
534.54666,0.77167
533.05687,0.76336
531.56708,0.75509
530.07729,0.57270
528.58750,0.68342
527.09771,0.64763
525.60792,0.61187
524.11814,0.58819
522.62835,0.54188
521.13856,0.57347
519.64877,0.48193
518.15898,0.39041
516.66919,0.43768
515.17941,0.24854
513.68962,0.31569
512.19983,0.38288
510.71004,0.36940
509.22025,0.40692
507.73046,0.38642
506.24068,0.38437
504.75089,0.38234
503.26110,0.35911
501.77131,0.32034
500.28152,0.32691
498.79173,0.33351
497.30194,0.31608
495.81216,0.37088
494.32237,0.36201
492.83258,0.35317
491.34279,0.33020
489.85300,0.31435
488.36321,0.24473
486.87343,0.21902
485.38364,0.19336
483.89385,0.12383
482.40406,0.13788
480.91427,0.14912
479.42448,0.16039
477.93469,0.08250
476.44491,0.08676
474.95512,0.09601
473.46533,0.10530
471.97554,0.02471
470.48575,0.06591
468.99596,0.10856
467.50618,0.05426
466.01639,0.00000
464.52660,0.01807
463.03681,0.12111
461.54702,0.09181
460.05723,0.06255
458.56745,0.09207
457.07766,0.06216
455.58787,0.08255
454.09808,0.10297
452.60829,0.18925
451.11850,0.24159
449.62871,0.21468
448.13893,0.18780
446.64914,0.38890
445.15935,0.49234
443.66956,0.56749
442.17977,0.60304
440.68998,0.63862
439.20020,0.48310
437.71041,0.74527
436.22062,0.80218
434.73083,0.85913
433.24104,0.88072
431.75125,1.08072
430.26146,1.15051
428.77168,1.22033
427.28189,1.34823
425.79210,1.35441
424.30231,1.30611
422.81252,1.25784
421.32273,1.26836
419.83295,1.29307
418.34316,1.24844
416.85337,1.20385
415.36358,0.90585
413.87379,0.86840
412.38400,0.82603
410.89422,0.78368
409.40443,0.75199
407.91464,0.77272
406.42485,0.63066
404.93506,0.60615
403.44527,0.58167
401.95548,0.59120
400.46570,0.57386
398.97591,0.61319
397.48612,0.65255
395.99633,0.62399
394.50654,0.57846
393.01675,0.57686
391.52697,0.57530
390.03718,0.42369
388.54739,0.29477
387.05760,0.35914
385.56781,0.42353
384.07802,0.52690
382.58824,0.53827
381.09845,0.45624
379.60866,0.37423
378.11887,0.44233
376.62908,0.27545
375.13929,0.26150
373.64950,0.24758
372.15972,0.18698
370.66993,0.26516
369.18014,0.24992
367.69035,0.23472
366.20056,0.19549
364.71077,0.19734
363.22099,0.22401
361.73120,0.25070
360.24141,0.12807
358.75162,0.13288
357.26183,0.15472
355.77204,0.17660
354.28225,0.04701
352.79247,0.12275
351.30268,0.08455
349.81289,0.04638
348.32310,0.20009
346.83331,0.04660
345.34352,0.12258
343.85374,0.19860
342.36395,0.21661
340.87416,0.08033
339.38437,0.10264
337.89458,0.12499
336.40479,0.15729
334.91501,0.08060
333.42522,0.08323
331.93543,0.08589
330.44564,0.12256
328.95585,0.22581
327.46606,0.16627
325.97627,0.10677
324.48649,0.07562
322.99670,0.08669
321.50691,0.12611
320.01712,0.16557
318.52733,0.15975
317.03754,0.24599
315.54776,0.22962
314.05797,0.21328
312.56818,0.18211
311.07839,0.04196
309.58860,0.02430
308.09881,0.00668
306.60902,0.06796
305.11924,0.07972
303.62945,0.05824
302.13966,0.01530
300.64987,0.00000
299.16008,0.00000
