1778.52000,0.01651
1777.03021,0.04429
1775.54042,-0.00000
1774.05063,0.02895
1772.56085,0.00358
1771.07106,0.03148
1769.58127,0.00062
1768.09148,0.02304
1766.60169,0.06213
1765.11190,0.02803
1763.62212,0.01061
1762.13233,0.03648
1760.64254,0.01246
1759.15275,0.02619
1757.66296,0.03552
1756.17317,0.00050
1754.68339,0.00767
1753.19360,0.00377
1751.70381,0.00324
1750.21402,0.01493
1748.72423,0.03442
1747.23444,0.05395
1745.74465,0.02137
1744.25487,0.04206
1742.76508,0.02951
1741.27529,0.04583
1739.78550,0.00450
1738.29571,0.00676
1736.80592,0.06784
1735.31614,0.03023
1733.82635,0.04701
1732.33656,0.05050
1730.84677,0.04848
1729.35698,0.03318
1727.86719,0.02123
1726.37740,0.03040
1724.88762,0.01741
1723.39783,0.03107
1721.90804,0.04366
1720.41825,0.04074
1718.92846,0.04784
1717.43867,0.00062
1715.94889,0.05859
1714.45910,0.07222
1712.96931,0.07035
1711.47952,0.03634
1709.98973,0.04119
1708.49994,0.02499
1707.01016,0.03378
1705.52037,0.04260
1704.03058,0.08751
1702.54079,0.11913
1701.05100,0.15855
1699.56121,0.13699
1698.07142,0.14764
1696.58164,0.16607
1695.09185,0.20118
1693.60206,0.16311
1692.11227,0.20493
1690.62248,0.21351
1689.13269,0.21435
1687.64291,0.21523
1686.15312,0.24608
1684.66333,0.26809
1683.17354,0.26129
1681.68375,0.21681
1680.19396,0.26554
1678.70417,0.23221
1677.21439,0.23996
1675.72460,0.23443
1674.23481,0.26331
1672.74502,0.23898
1671.25523,0.23354
1669.76544,0.28692
1668.27566,0.25492
1666.78587,0.25179
1665.29608,0.18436
1663.80629,0.19460
1662.31650,0.25368
1660.82671,0.27397
1659.33693,0.23772
1657.84714,0.21814
1656.35735,0.15754
1654.86756,0.18239
1653.37777,0.19396
1651.88798,0.20113
1650.39819,0.16506
1648.90841,0.15454
1647.41862,0.13628
1645.92883,0.14080
1644.43904,0.14534
1642.94925,0.17487
1641.45946,0.17005
1639.96968,0.15306
1638.47989,0.13055
1636.99010,0.13137
1635.50031,0.15551
1634.01052,0.14086
1632.52073,0.17616
1631.03094,0.10944
1629.54116,0.15589
1628.05137,0.15689
1626.56158,0.19120
1625.07179,0.18672
1623.58200,0.21111
1622.09221,0.20225
1620.60243,0.17790
1619.11264,0.20571
1617.62285,0.23133
1616.13306,0.16825
1614.64327,0.16620
1613.15348,0.20523
1611.66370,0.16775
1610.17391,0.12808
1608.68412,0.15056
1607.19433,0.15200
1605.70454,0.15457
1604.21475,0.14941
1602.72496,0.14429
1601.23518,0.20796
1599.74539,0.16962
1598.25560,0.16570
1596.76581,0.15182
1595.27602,0.13909
1593.78623,0.14967
1592.29645,0.13478
1590.80666,0.11548
1589.31687,0.12062
1587.82708,0.07254
1586.33729,0.10214
1584.84750,0.08296
1583.35771,0.04829
1581.86793,0.07244
1580.37814,0.09883
1578.88835,0.09864
1577.39856,0.08516
1575.90877,0.08503
1574.41898,0.08382
1572.92920,0.07155
1571.43941,0.07151
1569.94962,0.05985
1568.45983,0.04823
1566.97004,0.08600
1565.48025,0.03616
1563.99047,0.04404
1562.50068,0.08412
1561.01089,0.04880
1559.52110,0.07230
1558.03131,0.06811
1556.54152,0.12384
1555.05173,0.10195
1553.56195,0.15553
1552.07216,0.10819
1550.58237,0.06976
1549.09258,0.11345
1547.60279,0.09283
1546.11300,0.07668
1544.62322,0.09272
1543.13343,0.10658
1541.64364,0.06279
1540.15385,0.05120
1538.66406,0.03964
1537.17427,0.06139
1535.68448,0.04434
1534.19470,0.03953
1532.70491,0.08577
1531.21512,0.07658
1529.72533,0.03970
1528.23554,0.00062
1526.74575,0.06918
1525.25597,0.05346
1523.76618,0.04000
1522.27639,0.04209
1520.78660,0.02536
1519.29681,0.05303
1517.80702,0.08184
1516.31724,0.05078
1514.82745,0.08187
1513.33766,0.06751
1511.84787,0.05318
1510.35808,0.02225
1508.86829,0.04126
1507.37850,0.03479
1505.88872,0.00062
1504.39893,0.04096
1502.90914,0.05914
1501.41935,0.03742
1499.92956,0.04678
1498.43977,0.05618
1496.94999,0.12330
1495.46020,0.13498
1493.97041,0.15667
1492.48062,0.23275
1490.99083,0.25783
1489.50104,0.31290
1488.01125,0.36245
1486.52147,0.41203
1485.03168,0.47495
1483.54189,0.50906
1482.05210,0.54875
1480.56231,0.61842
1479.07252,0.83676
1477.58274,0.86767
1476.09295,0.95518
1474.60316,0.97062
1473.11337,1.07262
1471.62358,1.16022
1470.13379,1.09478
1468.64401,1.08150
1467.15422,0.99505
1465.66443,0.98017
1464.17464,0.96533
1462.68485,0.86122
1461.19506,0.90023
1459.70527,0.87383
1458.21549,0.80087
1456.72570,0.76788
1455.23591,0.72826
1453.74612,0.71529
1452.25633,0.67684
1450.76654,0.57298
1449.27676,0.56455
1447.78697,0.55392
1446.29718,0.51227
1444.80739,0.47231
1443.31760,0.43239
1441.82781,0.35200
1440.33802,0.37370
1438.84824,0.30669
1437.35845,0.26190
1435.86866,0.24709
1434.37887,0.25449
1432.88908,0.23974
1431.39929,0.25053
1429.90951,0.18482
1428.41972,0.25002
1426.92993,0.26645
1425.44014,0.22967
1423.95035,0.24173
1422.46056,0.25382
1420.97078,0.28368
1419.48099,0.34796
1417.99120,0.35460
1416.50141,0.30358
1415.01162,0.33912
1413.52183,0.33364
1412.03204,0.36591
1410.54226,0.29505
1409.05247,0.31408
1407.56268,0.30761
1406.07289,0.29786
1404.58310,0.32141
1403.09331,0.34499
1401.60353,0.35529
1400.11374,0.37117
1398.62395,0.39263
1397.13416,0.45294
1395.64437,0.47335
1394.15458,0.48824
1392.66479,0.44881
1391.17501,0.52699
1389.68522,0.48430
1388.19543,0.45938
1386.70564,0.45890
1385.21585,0.45845
1383.72606,0.49131
1382.23628,0.48981
1380.74649,0.47836
1379.25670,0.46916
1377.76691,0.49105
1376.27712,0.50077
1374.78733,0.56487
1373.29755,0.68558
1371.80776,0.63105
1370.31797,0.77068
1368.82818,0.88205
1367.33839,0.99345
1365.84860,1.17531
1364.35881,1.29842
1362.86903,1.40936
1361.37924,1.37835
1359.88945,1.50266
1358.39966,1.60149
1356.90987,1.67816
1355.42008,1.66280
1353.93030,1.56539
1352.44051,1.51071
1350.95072,1.45607
1349.46093,1.40533
1347.97114,1.18602
1346.48135,1.08655
1344.99156,0.91278
1343.50178,0.93871
1342.01199,0.80272
1340.52220,0.71002
1339.03241,0.62401
1337.54262,0.66559
1336.05283,0.64342
1334.56305,0.62128
1333.07326,0.59529
1331.58347,0.49723
1330.09368,0.44801
1328.60389,0.38662
1327.11410,0.38627
1325.62432,0.44695
1324.13453,0.39786
1322.64474,0.42200
1321.15495,0.41733
1319.66516,0.38386
1318.17537,0.35041
1316.68558,0.33697
1315.19580,0.33575
1313.70601,0.27689
1312.21622,0.28017
1310.72643,0.28792
1309.23664,0.28683
1307.74685,0.28910
1306.25707,0.30471
1304.76728,0.31647
1303.27749,0.32826
1301.78770,0.25300
1300.29791,0.28427
1298.80812,0.32443
1297.31834,0.27700
1295.82855,0.31058
1294.33876,0.28539
1292.84897,0.28464
1291.35918,0.33273
1289.86939,0.32982
1288.37960,0.32694
1286.88982,0.29193
1285.40003,0.30243
1283.91024,0.38838
1282.42045,0.43777
1280.93066,0.40510
1279.44087,0.38798
1277.95109,0.35981
1276.46130,0.37050
1274.97151,0.37622
1273.48172,0.38197
1271.99193,0.50145
1270.50214,0.52557
1269.01235,0.55748
1267.52257,0.48959
1266.03278,0.43726
1264.54299,0.54137
1263.05320,0.61001
1261.56341,0.61379
1260.07362,0.61761
1258.58384,0.49444
1257.09405,0.57874
1255.60426,0.54104
1254.11447,0.59101
1252.62468,0.56226
1251.13489,0.46920
1249.64511,0.49042
1248.15532,0.47618
1246.66553,0.46141
1245.17574,0.44668
1243.68595,0.37707
1242.19616,0.42285
1240.70637,0.34220
1239.21659,0.31040
1237.72680,0.34296
1236.23701,0.30567
1234.74722,0.20297
1233.25743,0.19403
1231.76764,0.18512
1230.27786,0.22449
1228.78807,0.21398
1227.29828,0.23234
1225.80849,0.22078
1224.31870,0.11274
1222.82891,0.10346
1221.33912,0.13637
1219.84934,0.12216
1218.35955,0.10798
1216.86976,0.13987
1215.37997,0.24943
1213.89018,0.21371
1212.40039,0.14031
1210.91061,0.12906
1209.42082,0.13337
1207.93103,0.10555
1206.44124,0.07775
1204.95145,0.11654
1203.46166,0.09879
1201.97188,0.08551
1200.48209,0.09111
1198.99230,0.16441
1197.50251,0.06026
1196.01272,0.03379
1194.52293,0.03231
1193.03314,0.03086
1191.54336,0.04996
1190.05357,0.00809
1188.56378,0.02614
1187.07399,0.02758
1185.58420,0.06567
1184.09441,0.00062
1182.60463,0.03109
1181.11484,0.06159
1179.62505,0.02168
1178.13526,0.10160
1176.64547,0.12942
1175.15568,0.19498
1173.66589,0.07200
1172.17611,0.07440
1170.68632,0.03745
1169.19653,0.00053
1167.70674,0.05094
1166.21695,0.06034
1164.72716,0.07420
1163.23738,0.06813
1161.74759,0.06875
1160.25780,0.00062
1158.76801,0.05164
1157.27822,0.10270
1155.78843,0.05173
1154.29865,0.05959
1152.80886,0.05638
1151.31907,0.08205
1149.82928,0.11772
1148.33949,0.08688
1146.84970,0.09877
1145.35991,0.11070
1143.87013,0.08771
1142.38034,0.09359
1140.89055,0.19158
1139.40076,0.20640
1137.91097,0.27560
1136.42118,0.22393
1134.93140,0.23218
1133.44161,0.24047
1131.95182,0.29982
1130.46203,0.34034
1128.97224,0.41305
1127.48245,0.41259
1125.99266,0.42769
1124.50288,0.42951
1123.01309,0.44411
1121.52330,0.45875
1120.03351,0.49394
1118.54372,0.53360
1117.05393,0.43241
1115.56415,0.39670
1114.07436,0.46307
1112.58457,0.46236
1111.09478,0.46169
1109.60499,0.46714
1108.11520,0.50369
1106.62542,0.64121
1105.13563,0.59019
1103.64584,0.76215
1102.15605,0.81990
1100.66626,0.78061
1099.17647,0.74136
1097.68668,0.70491
1096.19690,0.81048
1094.70711,0.74303
1093.21732,0.81649
1091.72753,0.91772
1090.23774,0.90804
1088.74795,0.89840
1087.25817,0.97532
1085.76838,0.97350
1084.27859,1.02164
1082.78880,1.10197
1081.29901,1.11467
1079.80922,1.09745
1078.31943,1.08359
1076.82965,1.06976
1075.33986,1.26449
1073.85007,1.27624
1072.36028,1.19484
1070.87049,1.29871
1069.38070,1.36268
1067.89092,1.39785
1066.40113,1.43304
1064.91134,1.23089
1063.42155,1.22066
1061.93176,1.13282
1060.44197,1.07163
1058.95219,0.93727
1057.46240,0.91940
1055.97261,0.90157
1054.48282,0.81943
1052.99303,0.79167
1051.50324,0.68187
1050.01345,0.64308
1048.52367,0.62873
1047.03388,0.60720
1045.54409,0.58570
1044.05430,0.76889
1042.56451,0.61268
1041.07472,0.50641
1039.58494,0.43013
1038.09515,0.39935
1036.60536,0.36251
1035.11557,0.32570
1033.62578,0.29280
1032.13599,0.28877
1030.64620,0.37241
1029.15642,0.33738
1027.66663,0.38780
1026.17684,0.43825
1024.68705,0.41330
1023.19726,0.59137
1021.70747,0.77724
1020.21769,0.93319
1018.72790,1.13133
1017.23811,1.22023
1015.74832,1.30917
1014.25853,1.51627
1012.76874,1.55035
1011.27896,1.72202
1009.78917,1.93365
1008.29938,2.00000
1006.80959,1.97320
1005.31980,1.94644
1003.83001,1.76330
1002.34022,1.70776
1000.85044,1.56018
999.36065,1.46254
997.87086,1.46367
996.38107,1.46482
994.89128,1.43050
993.40149,1.35962
991.91171,1.35421
990.42192,1.31555
988.93213,1.37897
987.44234,1.33927
985.95255,1.29959
984.46276,1.27992
982.97297,1.25916
981.48319,1.19407
979.99340,1.16007
978.50361,1.15161
977.01382,1.14318
975.52403,1.10594
974.03424,1.08426
972.54446,0.88070
971.05467,0.89901
969.56488,0.83638
968.07509,0.79265
966.58530,0.74894
965.09551,0.80953
963.60573,0.71375
962.11594,0.75554
960.62615,0.73414
959.13636,0.66508
957.64657,0.59604
956.15678,0.53369
954.66699,0.61890
953.17721,0.57769
951.68742,0.62303
950.19763,0.58078
948.70784,0.53855
947.21805,0.63501
945.72826,0.55402
944.23848,0.58176
942.74869,0.63838
941.25890,0.65066
939.76911,0.69791
938.27932,0.74520
936.78953,0.78419
935.29974,0.71229
933.80996,0.65484
932.32017,0.73830
930.83038,0.74414
929.34059,0.75001
927.85080,0.77034
926.36101,0.72968
924.87123,0.71568
923.38144,0.62739
921.89165,0.62953
920.40186,0.63171
918.91207,0.62781
917.42228,0.57847
915.93250,0.60459
914.44271,0.63517
912.95292,0.65802
911.46313,0.68091
909.97334,0.71824
908.48355,0.68794
906.99376,0.66543
905.50398,0.56199
904.01419,0.57837
902.52440,0.59478
901.03461,0.62786
899.54482,0.66430
898.05503,0.66195
896.56525,0.73284
895.07546,0.75384
893.58567,0.77488
892.09588,0.68502
890.60609,0.71942
889.11630,0.74610
887.62651,0.69737
886.13673,0.74796
884.64694,0.79857
883.15715,0.75327
881.66736,0.66585
880.17757,0.76370
878.68778,0.77728
877.19800,0.79089
875.70821,0.82671
874.21842,0.91581
872.72863,0.95836
871.23884,1.01091
869.74905,0.98863
868.25927,0.96637
866.76948,0.93250
865.27969,1.06949
863.78990,1.01682
862.30011,1.07178
860.81032,1.03249
859.32053,0.99323
857.83075,0.97618
856.34096,0.96249
854.85117,1.00097
853.36138,0.90415
851.87159,0.81125
850.38180,0.71837
848.89202,0.61610
847.40223,0.50942
845.91244,0.46156
844.42265,0.47253
842.93286,0.48352
841.44307,0.42022
839.95329,0.37249
838.46350,0.42018
836.97371,0.35587
835.48392,0.36314
833.99413,0.37044
832.50434,0.42269
831.01455,0.35628
829.52477,0.36867
828.03498,0.32451
826.54519,0.30811
825.05540,0.29174
823.56561,0.31423
822.07582,0.25023
820.58604,0.21732
819.09625,0.18000
817.60646,0.14272
816.11667,0.07884
814.62688,0.14145
813.13709,0.11756
811.64730,0.06820
810.15752,0.03439
808.66773,0.00062
807.17794,0.07445
805.68815,0.09728
804.19836,0.11460
802.70857,0.13750
801.21879,0.16043
799.72900,0.12238
798.23921,0.23189
796.74942,0.35363
795.25963,0.38112
793.76984,0.40864
792.28006,0.42177
790.79027,0.41274
789.30048,0.52133
787.81069,0.54010
786.32090,0.56334
784.83111,0.58660
783.34132,0.56886
781.85154,0.69202
780.36175,0.66325
778.87196,0.66834
777.38217,0.67346
775.89238,0.70911
774.40259,0.68490
772.91281,0.74391
771.42302,0.75193
769.93323,0.75997
768.44344,0.75252
766.95365,0.71405
765.46386,0.81647
763.97407,0.78027
762.48429,0.71305
760.99450,0.64585
759.50471,0.55761
758.01492,0.50268
756.52513,0.47218
755.03534,0.41066
753.54556,0.34916
752.05577,0.25331
750.56598,0.19632
749.07619,0.13159
747.58640,0.08963
746.09661,0.04770
744.60683,0.02632
743.11704,0.02384
741.62725,0.02138
740.13746,0.02450
738.64767,0.02765
737.15788,0.03971
735.66809,0.07398
734.17831,0.04617
732.68852,0.03890
731.19873,0.03167
729.70894,0.00062
728.21915,0.02689
726.72936,0.06649
725.23958,0.07618
723.74979,0.08146
722.26000,0.08678
720.77021,0.06439
719.28042,0.07975
717.79063,0.04079
716.30084,0.04678
714.81106,0.05280
713.32127,0.00062
711.83148,0.03362
710.34169,0.05224
708.85190,0.04759
707.36211,0.04297
705.87233,0.05502
704.38254,0.04936
702.89275,0.02708
701.40296,0.03035
699.91317,0.03365
698.42338,0.07914
696.93360,0.10358
695.44381,0.15578
693.95402,0.19470
692.46423,0.23365
690.97444,0.21717
689.48465,0.18076
687.99486,0.19318
686.50508,0.22116
685.01529,0.24917
683.52550,0.24283
682.03571,0.23209
680.54592,0.23801
679.05613,0.22899
677.56635,0.22000
676.07656,0.14393
674.58677,0.17881
673.09698,0.12388
671.60719,0.13664
670.11740,0.14944
668.62761,0.09903
667.13783,0.03868
665.64804,0.04658
664.15825,0.05450
662.66846,0.04637
661.17867,0.07156
659.68888,0.04463
658.19910,0.06544
656.70931,0.08628
655.21952,0.11824
653.72973,0.15799
652.23994,0.19667
650.75015,0.17881
649.26037,0.16098
647.77058,0.10879
646.28079,0.06218
644.79100,0.01227
643.30121,0.02784
641.81142,0.04344
640.32163,0.01138
638.83185,0.00707
637.34206,0.01598
635.85227,0.00829
634.36248,0.00062
632.87269,0.02994
631.38290,0.05929
629.89312,0.08091
628.40333,0.05764
626.91354,0.03439
625.42375,0.04612
623.93396,0.07341
622.44417,0.06800
620.95438,0.06263
619.46460,0.07004
617.97481,0.01315
616.48502,0.14154
614.99523,0.09192
613.50544,0.04233
612.01565,0.08872
610.52587,0.10409
609.03608,0.09286
607.54629,0.04673
606.05650,0.00062
604.56671,0.11431
603.07692,0.16480
601.58714,0.13491
600.09735,0.10504
598.60756,0.07243
597.11777,0.05871
595.62798,0.08939
594.13819,0.09293
592.64840,0.09650
591.15862,0.11285
589.66883,0.08708
588.17904,0.14565
586.68925,0.10275
585.19946,0.05989
583.70967,0.10523
582.21989,0.16282
580.73010,0.16940
579.24031,0.17602
577.75052,0.17823
576.26073,0.15718
574.77094,0.16722
573.28115,0.16897
571.79137,0.17075
570.30158,0.20972
568.81179,0.21989
567.32200,0.24838
565.83221,0.27691
564.34242,0.28605
562.85264,0.31187
561.36285,0.28447
559.87306,0.32144
558.38327,0.35844
556.89348,0.47756
555.40369,0.53903
553.91391,0.55282
552.42412,0.56665
550.93433,0.62600
549.44454,0.52009
547.95475,0.64494
546.46496,0.66222
544.97517,0.67953
543.48539,0.64918
541.99560,0.67765
540.50581,0.69394
539.01602,0.71027
537.52623,0.65009
536.03644,0.52893
534.54666,0.60747
533.05687,0.60562
531.56708,0.60380
530.07729,0.58038
528.58750,0.51706
527.09771,0.52198
525.60792,0.52694
524.11814,0.45595
522.62835,0.47151
521.13856,0.45604
519.64877,0.41564
518.15898,0.37528
516.66919,0.33772
515.17941,0.27356
513.68962,0.29319
512.19983,0.31285
510.71004,0.41961
509.22025,0.38331
507.73046,0.43579
506.24068,0.43727
504.75089,0.43877
503.26110,0.45141
501.77131,0.47073
500.28152,0.39746
498.79173,0.32422
497.30194,0.34695
495.81216,0.37084
494.32237,0.40196
492.83258,0.43311
491.34279,0.48481
489.85300,0.45890
488.36321,0.46519
486.87343,0.36668
485.38364,0.26821
483.89385,0.32672
482.40406,0.22775
480.91427,0.18594
479.42448,0.14416
477.93469,0.04529
476.44491,0.16275
474.95512,0.12106
473.46533,0.07940
471.97554,0.00838
470.48575,0.05077
468.99596,0.06656
467.50618,0.03357
466.01639,0.00062
464.52660,0.03646
463.03681,0.06901
461.54702,0.04058
460.05723,0.01217
458.56745,0.02041
457.07766,0.04642
455.58787,0.06470
454.09808,0.08301
452.60829,0.14350
451.11850,0.13747
449.62871,0.16974
448.13893,0.20204
446.64914,0.28373
445.15935,0.47305
443.66956,0.53151
442.17977,0.48463
440.68998,0.43777
439.20020,0.50631
437.71041,0.56711
436.22062,0.64125
434.73083,0.71543
433.24104,0.88725
431.75125,0.98700
430.26146,1.03963
428.77168,1.09230
427.28189,1.07013
425.79210,1.10012
424.30231,1.17506
422.81252,1.25004
421.32273,1.16698
419.83295,1.15938
418.34316,1.07084
416.85337,0.98232
415.36358,0.83394
413.87379,0.68559
412.38400,0.68037
410.89422,0.67517
409.40443,0.66224
407.91464,0.63492
406.42485,0.53110
404.93506,0.49940
403.44527,0.46774
401.95548,0.37732
400.46570,0.38454
398.97591,0.41176
397.48612,0.43901
395.99633,0.45187
394.50654,0.48362
393.01675,0.47714
391.52697,0.47068
390.03718,0.29509
388.54739,0.23046
387.05760,0.26569
385.56781,0.30096
384.07802,0.45716
382.58824,0.33275
381.09845,0.30710
379.60866,0.28148
378.11887,0.17158
376.62908,0.19927
375.13929,0.16043
373.64950,0.12162
372.15972,0.12721
370.66993,0.12396
369.18014,0.12074
367.69035,0.11755
366.20056,0.13214
364.71077,0.07133
363.22099,0.15199
361.73120,0.23267
360.24141,0.12204
358.75162,0.16784
357.26183,0.21922
355.77204,0.27063
354.28225,0.10799
352.79247,0.04521
351.30268,0.06843
349.81289,0.09168
348.32310,0.09888
346.83331,0.11719
345.34352,0.09617
343.85374,0.07517
342.36395,0.18565
340.87416,0.23959
339.38437,0.21480
337.89458,0.19005
336.40479,0.12095
334.91501,0.06076
333.42522,0.10931
331.93543,0.15789
330.44564,0.25642
328.95585,0.17750
327.46606,0.13743
325.97627,0.09739
324.48649,0.05627
322.99670,0.04289
321.50691,0.08889
320.01712,0.13491
318.52733,0.19039
317.03754,0.27475
315.54776,0.26762
314.05797,0.26053
312.56818,0.14198
311.07839,0.08670
309.58860,0.04364
308.09881,0.00062
306.60902,0.00838
305.11924,0.06165
303.62945,0.03841
302.13966,0.01137
300.64987,0.07642
299.16008,0.00062
