1778.52000,0.00000
1777.03021,0.02870
1775.54042,0.02656
1774.05063,0.02445
1772.56085,0.03561
1771.07106,0.00820
1769.58127,0.02934
1768.09148,0.01192
1766.60169,0.02319
1765.11190,0.02678
1763.62212,0.02158
1762.13233,0.04287
1760.64254,0.02450
1759.15275,0.08995
1757.66296,0.06393
1756.17317,0.00265
1754.68339,0.01054
1753.19360,0.01296
1751.70381,0.01981
1750.21402,0.04434
1748.72423,0.02258
1747.23444,0.02843
1745.74465,0.04753
1744.25487,0.08100
1742.76508,0.03953
1741.27529,0.04660
1739.78550,0.05370
1738.29571,0.01893
1736.80592,0.01397
1735.31614,0.00903
1733.82635,0.06968
1732.33656,0.03885
1730.84677,0.03782
1729.35698,0.05226
1727.86719,0.01932
1726.37740,0.04263
1724.88762,0.00093
1723.39783,0.00659
1721.90804,0.02882
1720.41825,0.01689
1718.92846,0.01051
1717.43867,0.02401
1715.94889,0.01328
1714.45910,0.03346
1712.96931,0.05256
1711.47952,0.06398
1709.98973,0.00927
1708.49994,0.03177
1707.01016,0.03997
1705.52037,0.04820
1704.03058,0.04213
1702.54079,0.03278
1701.05100,0.04441
1699.56121,0.08915
1698.07142,0.09864
1696.58164,0.04641
1695.09185,0.15740
1693.60206,0.09531
1692.11227,0.10051
1690.62248,0.08810
1689.13269,0.13967
1687.64291,0.12952
1686.15312,0.15579
1684.66333,0.14351
1683.17354,0.16763
1681.68375,0.17856
1680.19396,0.14321
1678.70417,0.11010
1677.21439,0.15750
1675.72460,0.15642
1674.23481,0.17743
1672.74502,0.14223
1671.25523,0.11368
1669.76544,0.18329
1668.27566,0.18347
1666.78587,0.14068
1665.29608,0.14423
1663.80629,0.17316
1662.31650,0.10841
1660.82671,0.12087
1659.33693,0.14990
1657.84714,0.13486
1656.35735,0.09559
1654.86756,0.10266
1653.37777,0.09212
1651.88798,0.08271
1650.39819,0.12295
1648.90841,0.10038
1647.41862,0.07562
1645.92883,0.08398
1644.43904,0.09237
1642.94925,0.09858
1641.45946,0.12908
1639.96968,0.12654
1638.47989,0.11520
1636.99010,0.06751
1635.50031,0.11578
1634.01052,0.13430
1632.52073,0.13632
1631.03094,0.09758
1629.54116,0.10076
1628.05137,0.08192
1626.56158,0.10391
1625.07179,0.16562
1623.58200,0.11600
1622.09221,0.15241
1620.60243,0.17232
1619.11264,0.14153
1617.62285,0.14055
1616.13306,0.14842
1614.64327,0.06370
1613.15348,0.14771
1611.66370,0.12921
1610.17391,0.13941
1608.68412,0.10884
1607.19433,0.10587
1605.70454,0.14262
1604.21475,0.13475
1602.72496,0.12690
1601.23518,0.18690
1599.74539,0.16865
1598.25560,0.12175
1596.76581,0.03520
1595.27602,0.04901
1593.78623,0.12901
1592.29645,0.06901
1590.80666,0.08402
1589.31687,0.07590
1587.82708,0.09428
1586.33729,0.02999
1584.84750,0.07379
1583.35771,0.07682
1581.86793,0.02144
1580.37814,0.04549
1578.88835,0.07397
1577.39856,0.06830
1575.90877,0.07149
1574.41898,0.05596
1572.92920,0.03054
1571.43941,0.03933
1569.94962,0.03272
1568.45983,0.02613
1566.97004,0.04714
1565.48025,0.02077
1563.99047,0.00326
1562.50068,0.03097
1561.01089,0.03116
1559.52110,0.02255
1558.03131,0.01949
1556.54152,0.03190
1555.05173,0.05977
1553.56195,0.05570
1552.07216,0.07481
1550.58237,0.04875
1549.09258,0.08998
1547.60279,0.05957
1546.11300,0.07549
1544.62322,0.09256
1543.13343,0.05893
1541.64364,0.04849
1540.15385,0.04304
1538.66406,0.03762
1537.17427,0.06255
1535.68448,0.03349
1534.19470,0.02761
1532.70491,0.03059
1531.21512,0.03910
1529.72533,0.01127
1528.23554,0.00000
1526.74575,0.02758
1525.25597,0.07283
1523.76618,0.03652
1522.27639,0.01899
1520.78660,0.00810
1519.29681,0.02591
1517.80702,0.02280
1516.31724,0.02083
1514.82745,0.06298
1513.33766,0.04949
1511.84787,0.03603
1510.35808,0.00000
1508.86829,0.05446
1507.37850,0.03838
1505.88872,0.03004
1504.39893,0.01954
1502.90914,0.01127
1501.41935,0.02839
1499.92956,0.01467
1498.43977,0.03075
1496.94999,0.07112
1495.46020,0.10049
1493.97041,0.16076
1492.48062,0.21115
1490.99083,0.22738
1489.50104,0.32744
1488.01125,0.34539
1486.52147,0.36337
1485.03168,0.41280
1483.54189,0.46778
1482.05210,0.52609
1480.56231,0.59767
1479.07252,0.70456
1477.58274,0.71115
1476.09295,0.78943
1474.60316,0.86775
1473.11337,0.93727
1471.62358,0.97927
1470.13379,0.97608
1468.64401,0.91780
1467.15422,0.83530
1465.66443,0.79747
1464.17464,0.75968
1462.68485,0.77870
1461.19506,0.73711
1459.70527,0.67240
1458.21549,0.59228
1456.72570,0.62356
1455.23591,0.57658
1453.74612,0.52742
1452.25633,0.45625
1450.76654,0.38400
1449.27676,0.37794
1447.78697,0.37081
1446.29718,0.35599
1444.80739,0.32356
1443.31760,0.29116
1441.82781,0.25328
1440.33802,0.25953
1438.84824,0.14673
1437.35845,0.11446
1435.86866,0.12852
1434.37887,0.10733
1432.88908,0.12586
1431.39929,0.10804
1429.90951,0.17405
1428.41972,0.15850
1426.92993,0.22126
1425.44014,0.15394
1423.95035,0.14840
1422.46056,0.14290
1420.97078,0.18593
1419.48099,0.27531
1417.99120,0.18720
1416.50141,0.26561
1415.01162,0.18638
1413.52183,0.21083
1412.03204,0.20664
1410.54226,0.17822
1409.05247,0.19394
1407.56268,0.18764
1406.07289,0.20342
1404.58310,0.19276
1403.09331,0.18214
1401.60353,0.28071
1400.11374,0.29330
1398.62395,0.37208
1397.13416,0.37151
1395.64437,0.38089
1394.15458,0.43660
1392.66479,0.38099
1391.17501,0.40700
1389.68522,0.43304
1388.19543,0.51314
1386.70564,0.51609
1385.21585,0.51906
1383.72606,0.48679
1382.23628,0.53173
1380.74649,0.43998
1379.25670,0.46403
1377.76691,0.52008
1376.27712,0.50671
1374.78733,0.57054
1373.29755,0.65756
1371.80776,0.76336
1370.31797,0.85816
1368.82818,0.97614
1367.33839,1.09416
1365.84860,1.24197
1364.35881,1.43172
1362.86903,1.57959
1361.37924,1.65473
1359.88945,1.68800
1358.39966,1.71799
1356.90987,1.78881
1355.42008,1.76153
1353.93030,1.60859
1352.44051,1.57751
1350.95072,1.54647
1349.46093,1.40795
1347.97114,1.19669
1346.48135,1.05824
1344.99156,0.86358
1343.50178,0.81890
1342.01199,0.72244
1340.52220,0.65136
1339.03241,0.51416
1337.54262,0.53907
1336.05283,0.53810
1334.56305,0.53717
1333.07326,0.43096
1331.58347,0.47253
1330.09368,0.45460
1328.60389,0.34848
1327.11410,0.26004
1325.62432,0.26535
1324.13453,0.31149
1322.64474,0.32348
1321.15495,0.29249
1319.66516,0.27973
1318.17537,0.26700
1316.68558,0.26478
1315.19580,0.27141
1313.70601,0.17001
1312.21622,0.13480
1310.72643,0.24737
1309.23664,0.18245
1307.74685,0.20798
1306.25707,0.19494
1304.76728,0.21777
1303.27749,0.24063
1301.78770,0.23430
1300.29791,0.19383
1298.80812,0.21513
1297.31834,0.16589
1295.82855,0.19717
1294.33876,0.16674
1292.84897,0.20360
1291.35918,0.19639
1289.86939,0.20519
1288.37960,0.21402
1286.88982,0.26203
1285.40003,0.23179
1283.91024,0.23354
1282.42045,0.27062
1280.93066,0.27575
1279.44087,0.30075
1277.95109,0.26735
1276.46130,0.28250
1274.97151,0.24861
1273.48172,0.21475
1271.99193,0.33473
1270.50214,0.40402
1269.01235,0.35868
1267.52257,0.37731
1266.03278,0.39047
1264.54299,0.40806
1263.05320,0.42348
1261.56341,0.44334
1260.07362,0.46324
1258.58384,0.42252
1257.09405,0.50091
1255.60426,0.47128
1254.11447,0.43947
1252.62468,0.48377
1251.13489,0.43880
1249.64511,0.43024
1248.15532,0.37099
1246.66553,0.31618
1245.17574,0.26141
1243.68595,0.23092
1242.19616,0.30521
1240.70637,0.24832
1239.21659,0.27195
1237.72680,0.20850
1236.23701,0.22999
1234.74722,0.13022
1233.25743,0.13468
1231.76764,0.13917
1230.27786,0.07698
1228.78807,0.20227
1227.29828,0.11699
1225.80849,0.05710
1224.31870,0.12183
1222.82891,0.11162
1221.33912,0.00000
1219.84934,0.06131
1218.35955,0.12265
1216.86976,0.10243
1215.37997,0.05137
1213.89018,0.15029
1212.40039,0.15663
1210.91061,0.11338
1209.42082,0.09993
1207.93103,0.11738
1206.44124,0.13487
1204.95145,0.06859
1203.46166,0.03100
1201.97188,0.09378
1200.48209,0.05736
1198.99230,0.07169
1197.50251,0.10370
1196.01272,0.09714
1194.52293,0.06746
1193.03314,0.03781
1191.54336,0.04788
1190.05357,0.05798
1188.56378,0.01409
1187.07399,0.00000
1185.58420,0.02245
1184.09441,0.06368
1182.60463,0.05863
1181.11484,0.05362
1179.62505,0.11148
1178.13526,0.08998
1176.64547,0.07734
1175.15568,0.11103
1173.66589,0.21091
1172.17611,0.14213
1170.68632,0.11858
1169.19653,0.09507
1167.70674,0.06497
1166.21695,0.12200
1164.72716,0.09527
1163.23738,0.07518
1161.74759,0.00000
1160.25780,0.09362
1158.76801,0.07977
1157.27822,0.06594
1155.78843,0.05711
1154.29865,0.08801
1152.80886,0.15422
1151.31907,0.06058
1149.82928,0.13788
1148.33949,0.14464
1146.84970,0.11614
1145.35991,0.08768
1143.87013,0.07469
1142.38034,0.08819
1140.89055,0.12597
1139.40076,0.19135
1137.91097,0.18730
1136.42118,0.21746
1134.93140,0.22836
1133.44161,0.23929
1131.95182,0.31144
1130.46203,0.38803
1128.97224,0.37093
1127.48245,0.40128
1125.99266,0.36439
1124.50288,0.37054
1123.01309,0.40319
1121.52330,0.43586
1120.03351,0.40241
1118.54372,0.54760
1117.05393,0.49988
1115.56415,0.43344
1114.07436,0.48391
1112.58457,0.46219
1111.09478,0.44050
1109.60499,0.53626
1108.11520,0.50967
1106.62542,0.47760
1105.13563,0.57125
1103.64584,0.57673
1102.15605,0.71786
1100.66626,0.71071
1099.17647,0.70360
1097.68668,0.78969
1096.19690,0.84163
1094.70711,0.84068
1093.21732,0.89709
1091.72753,0.81130
1090.23774,0.83469
1088.74795,0.85811
1087.25817,0.89480
1085.76838,0.97342
1084.27859,0.92416
1082.78880,1.09987
1081.29901,1.12345
1079.80922,1.09413
1078.31943,1.11336
1076.82965,1.13262
1075.33986,1.24012
1073.85007,1.24621
1072.36028,1.26556
1070.87049,1.26731
1069.38070,1.29664
1067.89092,1.32932
1066.40113,1.36203
1064.91134,1.31097
1063.42155,1.19709
1061.93176,1.09097
1060.44197,1.03339
1058.95219,1.03206
1057.46240,1.01148
1055.97261,0.99093
1054.48282,0.84195
1052.99303,0.76027
1051.50324,0.76682
1050.01345,0.56502
1048.52367,0.55840
1047.03388,0.55677
1045.54409,0.55518
1044.05430,0.56188
1042.56451,0.46057
1041.07472,0.47285
1039.58494,0.41680
1038.09515,0.30234
1036.60536,0.28274
1035.11557,0.26317
1033.62578,0.31309
1032.13599,0.25389
1030.64620,0.30718
1029.15642,0.41011
1027.66663,0.43811
1026.17684,0.46613
1024.68705,0.52175
1023.19726,0.58401
1021.70747,0.72018
1020.21769,0.94789
1018.72790,1.12382
1017.23811,1.23802
1015.74832,1.35226
1014.25853,1.61869
1012.76874,1.77048
1011.27896,1.81755
1009.78917,1.91979
1008.29938,2.00000
1006.80959,1.98983
1005.31980,1.97969
1003.83001,1.84720
1002.34022,1.80074
1000.85044,1.71241
999.36065,1.62853
997.87086,1.49340
996.38107,1.35830
994.89128,1.45864
993.40149,1.51931
991.91171,1.45763
990.42192,1.41693
988.93213,1.33436
987.44234,1.35436
985.95255,1.37439
984.46276,1.37461
982.97297,1.22711
981.48319,1.19100
979.99340,1.07885
978.50361,1.06871
977.01382,1.05861
975.52403,1.04578
974.03424,0.98557
972.54446,0.91657
971.05467,0.90934
969.56488,0.81174
968.07509,0.83048
966.58530,0.84926
965.09551,0.65031
963.60573,0.69175
962.11594,0.71338
960.62615,0.62147
959.13636,0.61394
957.64657,0.60644
956.15678,0.50139
954.66699,0.50002
953.17721,0.52183
951.68742,0.50618
950.19763,0.54845
948.70784,0.59075
947.21805,0.50573
945.72826,0.47036
944.23848,0.48464
942.74869,0.51879
941.25890,0.53975
939.76911,0.57286
938.27932,0.60600
936.78953,0.67556
935.29974,0.60954
933.80996,0.61190
932.32017,0.70801
930.83038,0.71871
929.34059,0.72943
927.85080,0.72530
926.36101,0.64953
924.87123,0.59475
923.38144,0.59953
921.89165,0.59553
920.40186,0.59155
918.91207,0.54130
917.42228,0.55613
915.93250,0.58201
914.44271,0.48665
912.95292,0.52307
911.46313,0.55952
909.97334,0.57340
908.48355,0.55865
906.99376,0.60015
905.50398,0.63838
904.01419,0.59781
902.52440,0.55726
901.03461,0.68269
899.54482,0.71222
898.05503,0.61168
896.56525,0.56630
895.07546,0.58324
893.58567,0.60022
892.09588,0.65195
890.60609,0.69049
889.11630,0.65849
887.62651,0.76104
886.13673,0.70430
884.64694,0.64758
883.15715,0.68517
881.66736,0.62466
880.17757,0.73949
878.68778,0.73527
877.19800,0.73108
875.70821,0.72693
874.21842,0.97309
872.72863,1.00207
871.23884,1.01344
869.74905,1.02981
868.25927,1.04620
866.76948,1.01797
865.27969,0.97985
863.78990,1.04099
862.30011,1.03270
860.81032,1.00073
859.32053,0.96880
857.83075,0.97494
856.34096,1.07262
854.85117,0.95202
853.36138,0.88106
851.87159,0.80187
850.38180,0.72271
848.89202,0.71690
847.40223,0.56448
845.91244,0.47053
844.42265,0.46426
842.93286,0.45802
841.44307,0.40716
839.95329,0.37728
838.46350,0.39043
836.97371,0.35399
835.48392,0.35122
833.99413,0.34847
832.50434,0.37718
831.01455,0.34528
829.52477,0.41595
828.03498,0.32457
826.54519,0.29992
825.05540,0.27531
823.56561,0.26672
822.07582,0.27249
820.58604,0.30585
819.09625,0.24718
817.60646,0.18854
816.11667,0.09190
814.62688,0.16287
813.13709,0.13575
811.64730,0.11086
810.15752,0.11357
808.66773,0.11631
807.17794,0.00000
805.68815,0.11203
804.19836,0.23732
802.70857,0.23915
801.21879,0.24101
799.72900,0.24290
798.23921,0.32421
796.74942,0.44414
795.25963,0.42297
793.76984,0.40183
792.28006,0.44687
790.79027,0.50849
789.30048,0.60542
787.81069,0.64173
786.32090,0.62791
784.83111,0.61412
783.34132,0.58107
781.85154,0.72556
780.36175,0.70801
778.87196,0.67174
777.38217,0.63550
775.89238,0.72940
774.40259,0.72851
772.91281,0.76513
771.42302,0.74666
769.93323,0.72821
768.44344,0.87629
766.95365,0.80058
765.46386,0.77340
763.97407,0.74626
762.48429,0.72246
760.99450,0.69869
759.50471,0.51618
758.01492,0.45608
756.52513,0.41586
755.03534,0.41041
753.54556,0.40498
752.05577,0.27886
750.56598,0.22443
749.07619,0.15459
747.58640,0.16197
746.09661,0.16938
744.60683,0.08420
743.11704,0.08505
741.62725,0.05948
740.13746,0.04881
738.64767,0.03818
737.15788,0.08106
735.66809,0.04568
734.17831,0.03349
732.68852,0.06598
731.19873,0.09850
729.70894,0.04120
728.21915,0.00487
726.72936,0.04780
725.23958,0.08745
723.74979,0.09570
722.26000,0.10399
720.77021,0.10625
719.28042,0.09420
717.79063,0.06233
716.30084,0.03987
714.81106,0.01744
713.32127,0.00000
711.83148,0.01564
710.34169,0.06329
708.85190,0.04647
707.36211,0.02968
705.87233,0.05978
704.38254,0.07557
702.89275,0.03848
701.40296,0.05930
699.91317,0.08015
698.42338,0.06189
696.93360,0.08114
695.44381,0.13461
693.95402,0.15945
692.46423,0.18431
690.97444,0.24890
689.48465,0.23854
687.99486,0.23593
686.50508,0.23996
685.01529,0.24403
683.52550,0.28231
682.03571,0.30408
680.54592,0.25201
679.05613,0.21320
677.56635,0.17442
676.07656,0.23380
674.58677,0.11459
673.09698,0.15198
671.60719,0.14144
670.11740,0.13093
668.62761,0.11990
667.13783,0.19160
665.64804,0.13763
664.15825,0.08369
662.66846,0.06727
661.17867,0.09939
659.68888,0.05657
658.19910,0.04134
656.70931,0.02615
655.21952,0.08155
653.72973,0.15462
652.23994,0.19685
650.75015,0.18013
649.26037,0.16343
647.77058,0.09439
646.28079,0.09705
644.79100,0.08762
643.30121,0.07766
641.81142,0.06773
640.32163,0.13116
638.83185,0.07444
637.34206,0.06956
635.85227,0.07244
634.36248,0.07535
632.87269,0.00000
631.38290,0.10023
629.89312,0.09353
628.40333,0.10065
626.91354,0.10780
625.42375,0.02181
623.93396,0.08139
622.44417,0.07926
620.95438,0.07716
619.46460,0.11588
617.97481,0.05320
616.48502,0.10853
614.99523,0.12419
613.50544,0.13989
612.01565,0.19971
610.52587,0.13608
609.03608,0.08792
607.54629,0.07232
606.05650,0.05674
604.56671,0.11341
603.07692,0.24399
601.58714,0.19929
600.09735,0.15462
598.60756,0.09565
597.11777,0.08963
595.62798,0.13436
594.13819,0.12344
592.64840,0.11255
591.15862,0.10445
589.66883,0.09086
588.17904,0.15339
586.68925,0.11506
585.19946,0.07676
583.70967,0.05778
582.21989,0.11051
580.73010,0.13956
579.24031,0.16864
577.75052,0.24130
576.26073,0.17287
574.77094,0.20590
573.28115,0.22518
571.79137,0.24449
570.30158,0.27651
568.81179,0.35487
567.32200,0.32411
565.83221,0.29337
564.34242,0.36080
562.85264,0.31138
561.36285,0.40313
559.87306,0.40560
558.38327,0.40809
556.89348,0.54514
555.40369,0.59511
553.91391,0.55470
552.42412,0.51432
550.93433,0.60297
549.44454,0.51193
547.95475,0.61939
546.46496,0.60394
544.97517,0.58852
543.48539,0.71481
541.99560,0.74411
540.50581,0.70453
539.01602,0.66498
537.52623,0.58080
536.03644,0.66755
534.54666,0.64408
533.05687,0.61623
531.56708,0.58841
530.07729,0.51431
528.58750,0.56483
527.09771,0.53159
525.60792,0.49838
524.11814,0.45417
522.62835,0.36038
521.13856,0.43090
519.64877,0.43640
518.15898,0.44193
516.66919,0.34606
515.17941,0.33180
513.68962,0.31152
512.19983,0.29126
510.71004,0.34767
509.22025,0.25966
507.73046,0.36575
506.24068,0.37263
504.75089,0.37954
503.26110,0.43169
501.77131,0.41991
500.28152,0.40762
498.79173,0.39536
497.30194,0.36604
495.81216,0.34116
494.32237,0.40287
492.83258,0.46460
491.34279,0.41886
489.85300,0.33677
488.36321,0.28559
486.87343,0.26806
485.38364,0.25056
483.89385,0.27334
482.40406,0.17486
480.91427,0.17400
479.42448,0.17316
477.93469,0.13983
476.44491,0.09881
474.95512,0.05947
473.46533,0.02017
471.97554,0.08068
470.48575,0.02766
468.99596,0.00885
467.50618,0.02479
466.01639,0.04077
464.52660,0.00000
463.03681,0.08342
461.54702,0.08472
460.05723,0.08606
458.56745,0.08467
457.07766,0.07560
455.58787,0.11617
454.09808,0.15677
452.60829,0.18968
451.11850,0.22263
449.62871,0.18779
448.13893,0.15299
446.64914,0.26431
445.15935,0.42638
443.66956,0.46279
442.17977,0.47386
440.68998,0.48497
439.20020,0.49170
437.71041,0.61203
436.22062,0.67615
434.73083,0.74031
433.24104,0.86513
431.75125,0.94809
430.26146,1.04101
428.77168,1.13395
427.28189,1.18282
425.79210,1.24606
424.30231,1.20403
422.81252,1.16203
421.32273,1.25183
419.83295,1.14428
418.34316,1.08584
416.85337,1.02743
415.36358,0.92880
413.87379,0.74971
412.38400,0.70903
410.89422,0.66838
409.40443,0.63162
407.91464,0.68971
406.42485,0.68940
404.93506,0.61414
403.44527,0.53892
401.95548,0.47915
400.46570,0.46132
398.97591,0.48707
397.48612,0.51285
395.99633,0.52929
394.50654,0.56341
393.01675,0.56833
391.52697,0.57329
390.03718,0.48290
388.54739,0.44326
387.05760,0.42405
385.56781,0.40487
384.07802,0.51638
382.58824,0.50223
381.09845,0.47101
379.60866,0.43983
378.11887,0.34307
376.62908,0.30037
375.13929,0.29795
373.64950,0.29555
372.15972,0.28492
370.66993,0.25668
369.18014,0.22791
367.69035,0.19918
366.20056,0.11810
364.71077,0.25537
363.22099,0.26422
361.73120,0.27309
360.24141,0.32886
358.75162,0.30417
357.26183,0.28061
355.77204,0.25709
354.28225,0.29424
352.79247,0.19249
351.30268,0.12660
349.81289,0.06075
348.32310,0.14284
346.83331,0.21614
345.34352,0.18803
343.85374,0.15995
342.36395,0.29950
340.87416,0.22628
339.38437,0.19994
337.89458,0.17364
336.40479,0.11154
334.91501,0.12223
333.42522,0.15667
331.93543,0.19113
330.44564,0.18869
328.95585,0.10579
327.46606,0.12491
325.97627,0.14406
324.48649,0.10756
322.99670,0.09567
321.50691,0.08436
320.01712,0.07309
318.52733,0.12524
317.03754,0.20499
315.54776,0.24067
314.05797,0.27637
312.56818,0.23713
311.07839,0.16926
309.58860,0.12953
308.09881,0.08983
306.60902,0.00000
305.11924,0.05975
303.62945,0.08700
302.13966,0.10832
300.64987,0.01004
299.16008,0.00000
