1778.52000,0.01193
1777.03021,0.01724
1775.54042,0.04039
1774.05063,0.00682
1772.56085,0.05341
1771.07106,0.04885
1769.58127,0.00759
1768.09148,0.03983
1766.60169,0.02981
1765.11190,0.05433
1763.62212,0.02212
1762.13233,0.05228
1760.64254,0.03350
1759.15275,0.03368
1757.66296,0.03835
1756.17317,0.06532
1754.68339,0.03556
1753.19360,0.07484
1751.70381,0.06073
1750.21402,0.09563
1748.72423,0.02817
1747.23444,0.05875
1745.74465,0.07044
1744.25487,0.09218
1742.76508,0.06722
1741.27529,0.08236
1739.78550,0.05301
1738.29571,0.04374
1736.80592,0.05454
1735.31614,0.06537
1733.82635,0.08180
1732.33656,0.08937
1730.84677,0.08139
1729.35698,0.04340
1727.86719,0.03550
1726.37740,0.00759
1724.88762,0.10256
1723.39783,0.03617
1721.90804,0.03660
1720.41825,0.07269
1718.92846,0.06429
1717.43867,0.04257
1715.94889,0.07988
1714.45910,0.06046
1712.96931,0.09561
1711.47952,0.08628
1709.98973,0.09813
1708.49994,0.09110
1707.01016,0.11750
1705.52037,0.14393
1704.03058,0.12031
1702.54079,0.13569
1701.05100,0.16668
1699.56121,0.15097
1698.07142,0.17647
1696.58164,0.15081
1695.09185,0.18084
1693.60206,0.22871
1692.11227,0.27216
1690.62248,0.22995
1689.13269,0.28127
1687.64291,0.25027
1686.15312,0.30277
1684.66333,0.24402
1683.17354,0.25764
1681.68375,0.28020
1680.19396,0.25606
1678.70417,0.24976
1677.21439,0.28134
1675.72460,0.28290
1674.23481,0.28005
1672.74502,0.28613
1671.25523,0.21880
1669.76544,0.30955
1668.27566,0.28347
1666.78587,0.25409
1665.29608,0.24367
1663.80629,0.28225
1662.31650,0.26967
1660.82671,0.25491
1659.33693,0.28358
1657.84714,0.23105
1656.35735,0.24978
1654.86756,0.17617
1653.37777,0.21167
1651.88798,0.17598
1650.39819,0.18373
1648.90841,0.15478
1647.41862,0.14146
1645.92883,0.17491
1644.43904,0.20841
1642.94925,0.18851
1641.45946,0.16309
1639.96968,0.17889
1638.47989,0.12571
1636.99010,0.16050
1635.50031,0.18531
1634.01052,0.16898
1632.52073,0.12930
1631.03094,0.13641
1629.54116,0.12241
1628.05137,0.13405
1626.56158,0.14238
1625.07179,0.23868
1623.58200,0.17919
1622.09221,0.16537
1620.60243,0.21281
1619.11264,0.23691
1617.62285,0.15642
1616.13306,0.17502
1614.64327,0.18921
1613.15348,0.18229
1611.66370,0.15871
1610.17391,0.16077
1608.68412,0.14617
1607.19433,0.20395
1605.70454,0.11374
1604.21475,0.14154
1602.72496,0.16937
1601.23518,0.13047
1599.74539,0.17507
1598.25560,0.11621
1596.76581,0.11080
1595.27602,0.09319
1593.78623,0.11012
1592.29645,0.11818
1590.80666,0.12850
1589.31687,0.10213
1587.82708,0.13367
1586.33729,0.09847
1584.84750,0.10448
1583.35771,0.03819
1581.86793,0.02091
1580.37814,0.06154
1578.88835,0.07326
1577.39856,0.07390
1575.90877,0.07902
1574.41898,0.08084
1572.92920,0.04485
1571.43941,0.00000
1569.94962,0.00861
1568.45983,0.01725
1566.97004,0.06823
1565.48025,0.07360
1563.99047,0.05342
1562.50068,0.00878
1561.01089,0.00759
1559.52110,0.08794
1558.03131,0.11379
1556.54152,0.12187
1555.05173,0.11996
1553.56195,0.08805
1552.07216,0.08510
1550.58237,0.06439
1549.09258,0.09046
1547.60279,0.02641
1546.11300,0.10597
1544.62322,0.04979
1543.13343,0.07823
1541.64364,0.09001
1540.15385,0.06565
1538.66406,0.04133
1537.17427,0.00759
1535.68448,0.03088
1534.19470,0.02527
1532.70491,0.03861
1531.21512,0.04309
1529.72533,0.02200
1528.23554,0.01876
1526.74575,0.01221
1525.25597,0.01572
1523.76618,0.01927
1522.27639,0.04956
1520.78660,0.03760
1519.29681,0.05906
1517.80702,0.03159
1516.31724,0.03755
1514.82745,0.01126
1513.33766,0.04344
1511.84787,0.07566
1510.35808,0.06618
1508.86829,0.04004
1507.37850,0.03286
1505.88872,0.00568
1504.39893,0.05414
1502.90914,0.04810
1501.41935,0.00759
1499.92956,0.06161
1498.43977,0.08005
1496.94999,0.13860
1495.46020,0.15377
1493.97041,0.22129
1492.48062,0.25546
1490.99083,0.27742
1489.50104,0.30387
1488.01125,0.34315
1486.52147,0.38248
1485.03168,0.47915
1483.54189,0.52690
1482.05210,0.57245
1480.56231,0.62805
1479.07252,0.80056
1477.58274,0.86960
1476.09295,0.92198
1474.60316,0.98218
1473.11337,1.11699
1471.62358,1.16614
1470.13379,1.15411
1468.64401,1.08869
1467.15422,0.98881
1465.66443,0.99302
1464.17464,0.99728
1462.68485,0.93534
1461.19506,0.91240
1459.70527,0.88838
1458.21549,0.83991
1456.72570,0.80706
1455.23591,0.77202
1453.74612,0.72923
1452.25633,0.60856
1450.76654,0.63819
1449.27676,0.60552
1447.78697,0.57734
1446.29718,0.50913
1444.80739,0.51887
1443.31760,0.52864
1441.82781,0.38374
1440.33802,0.32792
1438.84824,0.28661
1437.35845,0.23754
1435.86866,0.26196
1434.37887,0.22743
1432.88908,0.26640
1431.39929,0.19299
1429.90951,0.26542
1428.41972,0.18318
1426.92993,0.22563
1425.44014,0.25365
1423.95035,0.28950
1422.46056,0.32538
1420.97078,0.26670
1419.48099,0.27260
1417.99120,0.24960
1416.50141,0.29565
1415.01162,0.30389
1413.52183,0.28546
1412.03204,0.29043
1410.54226,0.29544
1409.05247,0.25263
1407.56268,0.32561
1406.07289,0.27842
1404.58310,0.28580
1403.09331,0.29322
1401.60353,0.22944
1400.11374,0.28925
1398.62395,0.29678
1397.13416,0.26428
1395.64437,0.26409
1394.15458,0.25503
1392.66479,0.21930
1391.17501,0.31716
1389.68522,0.33493
1388.19543,0.27259
1386.70564,0.23979
1385.21585,0.20702
1383.72606,0.21158
1382.23628,0.17833
1380.74649,0.21190
1379.25670,0.16091
1377.76691,0.22126
1376.27712,0.30057
1374.78733,0.26416
1373.29755,0.24560
1371.80776,0.32057
1370.31797,0.33881
1368.82818,0.38491
1367.33839,0.43105
1365.84860,0.58741
1364.35881,0.61915
1362.86903,0.62867
1361.37924,0.64713
1359.88945,0.65227
1358.39966,0.70308
1356.90987,0.90084
1355.42008,0.83819
1353.93030,0.82344
1352.44051,0.82877
1350.95072,0.83412
1349.46093,0.81169
1347.97114,0.71473
1346.48135,0.62003
1344.99156,0.56877
1343.50178,0.54871
1342.01199,0.44410
1340.52220,0.42523
1339.03241,0.43756
1337.54262,0.47218
1336.05283,0.49404
1334.56305,0.51594
1333.07326,0.43492
1331.58347,0.40180
1330.09368,0.33755
1328.60389,0.28558
1327.11410,0.35051
1325.62432,0.35872
1324.13453,0.37253
1322.64474,0.37079
1321.15495,0.40693
1319.66516,0.35128
1318.17537,0.29567
1316.68558,0.33637
1315.19580,0.32257
1313.70601,0.30324
1312.21622,0.31845
1310.72643,0.26247
1309.23664,0.25883
1307.74685,0.27861
1306.25707,0.22051
1304.76728,0.23868
1303.27749,0.25690
1301.78770,0.26123
1300.29791,0.20439
1298.80812,0.20880
1297.31834,0.26890
1295.82855,0.30121
1294.33876,0.35136
1292.84897,0.27689
1291.35918,0.32266
1289.86939,0.29836
1288.37960,0.27408
1286.88982,0.27879
1285.40003,0.30578
1283.91024,0.33838
1282.42045,0.34320
1280.93066,0.30241
1279.44087,0.38298
1277.95109,0.34004
1276.46130,0.36169
1274.97151,0.36613
1273.48172,0.37061
1271.99193,0.41018
1270.50214,0.50098
1269.01235,0.51169
1267.52257,0.49794
1266.03278,0.49870
1264.54299,0.48169
1263.05320,0.52927
1261.56341,0.52903
1260.07362,0.52882
1258.58384,0.57095
1257.09405,0.63760
1255.60426,0.65753
1254.11447,0.68641
1252.62468,0.61627
1251.13489,0.54171
1249.64511,0.50169
1248.15532,0.43834
1246.66553,0.41843
1245.17574,0.39855
1243.68595,0.36981
1242.19616,0.46910
1240.70637,0.47493
1239.21659,0.37284
1237.72680,0.34425
1236.23701,0.28897
1234.74722,0.25266
1233.25743,0.24254
1231.76764,0.23245
1230.27786,0.24633
1228.78807,0.26136
1227.29828,0.27420
1225.80849,0.23588
1224.31870,0.18313
1222.82891,0.15156
1221.33912,0.21129
1219.84934,0.16644
1218.35955,0.12162
1216.86976,0.13472
1215.37997,0.25024
1213.89018,0.21333
1212.40039,0.18980
1210.91061,0.17745
1209.42082,0.17069
1207.93103,0.17176
1206.44124,0.17287
1204.95145,0.17290
1203.46166,0.09506
1201.97188,0.14414
1200.48209,0.14205
1198.99230,0.15448
1197.50251,0.07901
1196.01272,0.03808
1194.52293,0.07398
1193.03314,0.10992
1191.54336,0.00566
1190.05357,0.06869
1188.56378,0.09058
1187.07399,0.00789
1185.58420,0.00759
1184.09441,0.04175
1182.60463,0.06982
1181.11484,0.09793
1179.62505,0.09101
1178.13526,0.08747
1176.64547,0.07729
1175.15568,0.07160
1173.66589,0.09488
1172.17611,0.07924
1170.68632,0.07255
1169.19653,0.06589
1167.70674,0.03700
1166.21695,0.08829
1164.72716,0.09065
1163.23738,0.01401
1161.74759,0.05985
1160.25780,0.03003
1158.76801,0.01918
1157.27822,0.00836
1155.78843,0.00759
1154.29865,0.08802
1152.80886,0.08056
1151.31907,0.05978
1149.82928,0.05461
1148.33949,0.05394
1146.84970,0.07334
1145.35991,0.09277
1143.87013,0.04434
1142.38034,0.10281
1140.89055,0.13904
1139.40076,0.15306
1137.91097,0.10700
1136.42118,0.20902
1134.93140,0.20645
1133.44161,0.20391
1131.95182,0.26596
1130.46203,0.31247
1128.97224,0.31784
1127.48245,0.28206
1125.99266,0.30419
1124.50288,0.35753
1123.01309,0.34189
1121.52330,0.32629
1120.03351,0.34523
1118.54372,0.36198
1117.05393,0.37766
1115.56415,0.41340
1114.07436,0.46922
1112.58457,0.48166
1111.09478,0.49414
1109.60499,0.49330
1108.11520,0.56485
1106.62542,0.61751
1105.13563,0.67243
1103.64584,0.77302
1102.15605,0.83358
1100.66626,0.84520
1099.17647,0.85686
1097.68668,0.88414
1096.19690,0.85246
1094.70711,1.01115
1093.21732,0.99847
1091.72753,1.04704
1090.23774,1.09509
1088.74795,1.14318
1087.25817,1.20077
1085.76838,1.11593
1084.27859,1.20697
1082.78880,1.30362
1081.29901,1.27009
1079.80922,1.19986
1078.31943,1.17530
1076.82965,1.15078
1075.33986,1.39898
1073.85007,1.34003
1072.36028,1.33677
1070.87049,1.33020
1069.38070,1.39713
1067.89092,1.38785
1066.40113,1.37861
1064.91134,1.36551
1063.42155,1.32240
1061.93176,1.22812
1060.44197,1.15614
1058.95219,1.11091
1057.46240,1.09132
1055.97261,1.07176
1054.48282,0.94539
1052.99303,0.92145
1051.50324,0.79849
1050.01345,0.72009
1048.52367,0.78085
1047.03388,0.75484
1045.54409,0.72886
1044.05430,0.72295
1042.56451,0.67033
1041.07472,0.58547
1039.58494,0.46503
1038.09515,0.40027
1036.60536,0.44240
1035.11557,0.48457
1033.62578,0.52455
1032.13599,0.49333
1030.64620,0.45993
1029.15642,0.51560
1027.66663,0.50174
1026.17684,0.48792
1024.68705,0.57820
1023.19726,0.65517
1021.70747,0.89800
1020.21769,1.03625
1018.72790,1.25802
1017.23811,1.33179
1015.74832,1.40559
1014.25853,1.47832
1012.76874,1.70691
1011.27896,1.70959
1009.78917,1.89262
1008.29938,2.00000
1006.80959,1.97942
1005.31980,1.95888
1003.83001,1.82930
1002.34022,1.61962
1000.85044,1.56023
999.36065,1.40404
997.87086,1.43989
996.38107,1.47577
994.89128,1.59350
993.40149,1.59105
991.91171,1.57307
990.42192,1.53063
988.93213,1.54722
987.44234,1.54269
985.95255,1.53821
984.46276,1.58050
982.97297,1.55272
981.48319,1.44372
979.99340,1.44160
978.50361,1.42227
977.01382,1.40298
975.52403,1.41656
974.03424,1.30329
972.54446,1.33252
971.05467,1.34064
969.56488,1.21079
968.07509,1.21676
966.58530,1.22276
965.09551,1.29670
963.60573,1.18702
962.11594,1.14083
960.62615,1.08020
959.13636,1.01348
957.64657,0.94681
956.15678,0.96420
954.66699,0.95046
953.17721,0.92563
951.68742,0.93534
950.19763,0.96234
948.70784,0.98937
947.21805,0.86118
945.72826,0.84877
944.23848,0.91320
942.74869,0.90309
941.25890,0.86297
939.76911,0.85517
938.27932,0.84740
936.78953,0.99993
935.29974,1.06458
933.80996,1.01351
932.32017,1.08380
930.83038,1.08122
929.34059,1.07868
927.85080,1.05113
926.36101,1.02696
924.87123,0.97722
923.38144,0.91194
921.89165,0.88509
920.40186,0.85828
918.91207,0.94225
917.42228,1.12754
915.93250,1.04909
914.44271,0.99961
912.95292,1.01361
911.46313,1.02764
909.97334,1.15524
908.48355,1.28955
906.99376,1.25806
905.50398,1.11196
904.01419,1.15957
902.52440,1.20721
901.03461,1.30832
899.54482,1.35047
898.05503,1.28915
896.56525,1.25903
895.07546,1.33468
893.58567,1.41036
892.09588,1.30133
890.60609,1.38710
889.11630,1.27703
887.62651,1.24713
886.13673,1.26735
884.64694,1.28760
883.15715,1.22442
881.66736,1.09783
880.17757,1.16272
878.68778,1.17867
877.19800,1.19466
875.70821,1.19176
874.21842,1.16330
872.72863,1.14044
871.23884,1.22001
869.74905,1.17942
868.25927,1.13886
866.76948,1.15621
865.27969,1.15357
863.78990,1.26004
862.30011,1.12502
860.81032,1.08187
859.32053,1.03874
857.83075,0.98954
856.34096,1.07727
854.85117,0.96803
853.36138,0.83880
851.87159,0.79642
850.38180,0.75407
848.89202,0.67837
847.40223,0.63165
845.91244,0.47143
844.42265,0.45817
842.93286,0.44495
841.44307,0.41395
839.95329,0.42862
838.46350,0.43554
836.97371,0.40354
835.48392,0.41165
833.99413,0.41979
832.50434,0.43353
831.01455,0.38164
829.52477,0.43330
828.03498,0.34031
826.54519,0.31134
825.05540,0.28242
823.56561,0.25520
822.07582,0.27031
820.58604,0.28323
819.09625,0.21271
817.60646,0.14223
816.11667,0.18977
814.62688,0.12381
813.13709,0.12579
811.64730,0.00759
810.15752,0.01232
808.66773,0.01707
807.17794,0.12093
805.68815,0.13021
804.19836,0.15734
802.70857,0.15946
801.21879,0.16162
799.72900,0.19108
798.23921,0.35860
796.74942,0.46827
795.25963,0.48615
793.76984,0.50408
792.28006,0.49477
790.79027,0.66135
789.30048,0.69218
787.81069,0.76646
786.32090,0.79792
784.83111,0.82942
783.34132,0.90826
781.85154,0.92146
780.36175,0.88796
778.87196,0.91627
777.38217,0.94461
775.89238,1.02697
774.40259,0.97024
772.91281,1.08606
771.42302,1.08283
769.93323,1.07963
768.44344,1.14659
766.95365,1.12566
765.46386,1.20382
763.97407,1.11618
762.48429,1.02135
760.99450,0.92655
759.50471,0.80674
758.01492,0.73372
756.52513,0.60842
755.03534,0.55161
753.54556,0.49483
752.05577,0.34293
750.56598,0.27454
749.07619,0.23179
747.58640,0.17850
746.09661,0.12525
744.60683,0.16942
743.11704,0.10232
741.62725,0.09871
740.13746,0.14911
738.64767,0.19955
737.15788,0.10144
735.66809,0.00781
734.17831,0.03888
732.68852,0.04773
731.19873,0.05661
729.70894,0.07110
728.21915,0.07449
726.72936,0.10685
725.23958,0.09028
723.74979,0.08822
722.26000,0.08619
720.77021,0.20107
719.28042,0.14123
717.79063,0.15267
716.30084,0.08011
714.81106,0.00759
713.32127,0.06629
711.83148,0.11279
710.34169,0.06917
708.85190,0.07511
707.36211,0.08109
705.87233,0.12551
704.38254,0.03529
702.89275,0.07087
701.40296,0.10872
699.91317,0.14660
698.42338,0.17339
696.93360,0.19910
695.44381,0.14917
693.95402,0.15492
692.46423,0.16071
690.97444,0.15095
689.48465,0.23918
687.99486,0.20167
686.50508,0.24378
685.01529,0.28592
683.52550,0.27412
682.03571,0.24344
680.54592,0.23505
679.05613,0.19164
677.56635,0.14826
676.07656,0.20120
674.58677,0.17515
673.09698,0.18364
671.60719,0.18883
670.11740,0.19405
668.62761,0.04015
667.13783,0.06771
665.64804,0.09307
664.15825,0.11848
662.66846,0.10719
661.17867,0.15604
659.68888,0.13480
658.19910,0.17204
656.70931,0.20931
655.21952,0.22381
653.72973,0.21385
652.23994,0.25513
650.75015,0.25971
649.26037,0.26433
647.77058,0.21223
646.28079,0.15125
644.79100,0.12705
643.30121,0.11178
641.81142,0.09655
640.32163,0.09360
638.83185,0.14634
637.34206,0.07223
635.85227,0.03989
634.36248,0.00759
632.87269,0.08915
631.38290,0.12734
629.89312,0.10101
628.40333,0.12425
626.91354,0.14752
625.42375,0.12353
623.93396,0.15522
622.44417,0.15467
620.95438,0.15416
619.46460,0.07466
617.97481,0.09760
616.48502,0.15396
614.99523,0.11408
613.50544,0.07424
612.01565,0.16299
610.52587,0.15161
609.03608,0.15806
607.54629,0.16901
606.05650,0.18000
604.56671,0.28451
603.07692,0.19651
601.58714,0.18812
600.09735,0.17978
598.60756,0.11749
597.11777,0.12980
595.62798,0.11767
594.13819,0.11002
592.64840,0.10241
591.15862,0.14270
589.66883,0.11736
588.17904,0.17553
586.68925,0.13467
585.19946,0.09386
583.70967,0.08758
582.21989,0.11584
580.73010,0.15917
579.24031,0.20253
577.75052,0.21421
576.26073,0.17584
574.77094,0.21096
573.28115,0.21384
571.79137,0.21676
570.30158,0.30653
568.81179,0.31175
567.32200,0.34483
565.83221,0.37795
564.34242,0.33319
562.85264,0.50662
561.36285,0.46305
559.87306,0.53193
558.38327,0.60084
556.89348,0.64197
555.40369,0.66087
553.91391,0.66201
552.42412,0.66317
550.93433,0.76121
549.44454,0.76245
547.95475,0.83162
546.46496,0.83572
544.97517,0.83985
543.48539,0.92805
541.99560,0.90388
540.50581,0.86861
539.01602,0.83338
537.52623,0.83491
536.03644,0.75857
534.54666,0.75906
533.05687,0.76850
531.56708,0.77797
530.07729,0.72848
528.58750,0.73580
527.09771,0.76263
525.60792,0.78950
524.11814,0.71568
522.62835,0.72314
521.13856,0.62045
519.64877,0.60462
518.15898,0.58882
516.66919,0.51184
515.17941,0.57068
513.68962,0.54943
512.19983,0.52821
510.71004,0.47809
509.22025,0.47697
507.73046,0.47813
506.24068,0.45260
504.75089,0.42711
503.26110,0.40611
501.77131,0.39628
500.28152,0.34586
498.79173,0.29547
497.30194,0.33472
495.81216,0.29721
494.32237,0.36713
492.83258,0.43710
491.34279,0.44199
489.85300,0.36233
488.36321,0.25933
486.87343,0.23818
485.38364,0.21706
483.89385,0.16092
482.40406,0.16157
480.91427,0.14557
479.42448,0.12961
477.93469,0.03577
476.44491,0.05995
474.95512,0.05634
473.46533,0.05276
471.97554,0.03921
470.48575,0.12363
468.99596,0.10458
467.50618,0.07277
466.01639,0.04100
464.52660,0.00759
463.03681,0.05887
461.54702,0.09794
460.05723,0.13705
458.56745,0.06935
457.07766,0.07737
455.58787,0.18393
454.09808,0.29052
452.60829,0.18289
451.11850,0.19440
449.62871,0.21985
448.13893,0.24534
446.64914,0.34377
445.15935,0.59916
443.66956,0.60862
442.17977,0.62424
440.68998,0.63989
439.20020,0.63833
437.71041,0.79152
436.22062,0.86516
434.73083,0.93883
433.24104,0.98639
431.75125,1.25325
430.26146,1.29030
428.77168,1.32740
427.28189,1.41183
425.79210,1.44399
424.30231,1.44057
422.81252,1.43718
421.32273,1.44274
419.83295,1.33146
418.34316,1.27476
416.85337,1.21810
415.36358,1.07689
413.87379,1.01250
412.38400,0.93313
410.89422,0.85380
409.40443,0.88970
407.91464,0.83325
406.42485,0.74902
404.93506,0.70601
403.44527,0.66303
401.95548,0.69577
400.46570,0.72855
398.97591,0.67232
397.48612,0.61614
395.99633,0.69577
394.50654,0.69308
393.01675,0.66037
391.52697,0.62770
390.03718,0.53052
388.54739,0.61367
387.05760,0.61784
385.56781,0.62205
384.07802,0.61738
382.58824,0.64058
381.09845,0.58925
379.60866,0.53795
378.11887,0.49782
376.62908,0.41543
375.13929,0.38928
373.64950,0.36317
372.15972,0.40889
370.66993,0.38341
369.18014,0.35574
367.69035,0.32810
366.20056,0.22371
364.71077,0.21730
363.22099,0.26323
361.73120,0.30920
360.24141,0.29288
358.75162,0.23987
357.26183,0.23419
355.77204,0.22856
354.28225,0.16897
352.79247,0.11277
351.30268,0.12171
349.81289,0.13069
348.32310,0.08906
346.83331,0.14875
345.34352,0.13947
343.85374,0.13023
342.36395,0.07762
340.87416,0.14080
339.38437,0.18843
337.89458,0.23609
336.40479,0.18140
334.91501,0.11228
333.42522,0.15393
331.93543,0.19563
330.44564,0.13774
328.95585,0.12219
327.46606,0.11891
325.97627,0.11568
324.48649,0.11382
322.99670,0.09085
321.50691,0.14528
320.01712,0.19974
318.52733,0.17021
317.03754,0.25201
315.54776,0.24648
314.05797,0.24098
312.56818,0.13368
311.07839,0.08319
309.58860,0.06389
308.09881,0.04463
306.60902,0.00759
305.11924,0.13813
303.62945,0.09841
302.13966,0.03879
300.64987,0.03041
299.16008,0.00759
