1778.52000,0.05747
1777.03021,0.06828
1775.54042,0.08441
1774.05063,0.05129
1772.56085,0.02611
1771.07106,0.00538
1769.58127,0.05068
1768.09148,0.03881
1766.60169,0.05425
1765.11190,0.06181
1763.62212,0.05708
1762.13233,0.05326
1760.64254,0.06179
1759.15275,0.07828
1757.66296,0.05960
1756.17317,0.03919
1754.68339,0.04081
1753.19360,0.03719
1751.70381,0.04768
1750.21402,0.01332
1748.72423,0.03004
1747.23444,0.05735
1745.74465,0.01340
1744.25487,0.03022
1742.76508,0.04883
1741.27529,0.04371
1739.78550,0.06590
1738.29571,0.05645
1736.80592,0.03998
1735.31614,0.05523
1733.82635,0.02475
1732.33656,0.03127
1730.84677,0.06422
1729.35698,0.04968
1727.86719,0.05190
1726.37740,0.06558
1724.88762,0.00538
1723.39783,0.03760
1721.90804,0.07602
1720.41825,0.07663
1718.92846,0.03502
1717.43867,0.05506
1715.94889,0.06897
1714.45910,0.09259
1712.96931,0.06519
1711.47952,0.05280
1709.98973,0.08796
1708.49994,0.05802
1707.01016,0.08489
1705.52037,0.11179
1704.03058,0.12420
1702.54079,0.14896
1701.05100,0.11831
1699.56121,0.11497
1698.07142,0.13279
1696.58164,0.15681
1695.09185,0.20726
1693.60206,0.17501
1692.11227,0.18592
1690.62248,0.21447
1689.13269,0.22016
1687.64291,0.22853
1686.15312,0.21581
1684.66333,0.20928
1683.17354,0.22391
1681.68375,0.22273
1680.19396,0.19429
1678.70417,0.21518
1677.21439,0.25546
1675.72460,0.23417
1674.23481,0.20410
1672.74502,0.23656
1671.25523,0.24881
1669.76544,0.24965
1668.27566,0.22940
1666.78587,0.18542
1665.29608,0.16612
1663.80629,0.21814
1662.31650,0.22090
1660.82671,0.19993
1659.33693,0.20980
1657.84714,0.23819
1656.35735,0.16099
1654.86756,0.16568
1653.37777,0.16600
1651.88798,0.21212
1650.39819,0.16146
1648.90841,0.16716
1647.41862,0.12360
1645.92883,0.14257
1644.43904,0.16157
1642.94925,0.22020
1641.45946,0.20758
1639.96968,0.12811
1638.47989,0.15692
1636.99010,0.18664
1635.50031,0.16183
1634.01052,0.13265
1632.52073,0.14135
1631.03094,0.12192
1629.54116,0.16325
1628.05137,0.15884
1626.56158,0.17120
1625.07179,0.20910
1623.58200,0.21272
1622.09221,0.24365
1620.60243,0.18132
1619.11264,0.16919
1617.62285,0.22398
1616.13306,0.16175
1614.64327,0.16116
1613.15348,0.19581
1611.66370,0.16448
1610.17391,0.14639
1608.68412,0.12393
1607.19433,0.19479
1605.70454,0.12663
1604.21475,0.15971
1602.72496,0.19283
1601.23518,0.15205
1599.74539,0.15355
1598.25560,0.13396
1596.76581,0.10560
1595.27602,0.10015
1593.78623,0.14315
1592.29645,0.09992
1590.80666,0.10162
1589.31687,0.07254
1587.82708,0.06374
1586.33729,0.12010
1584.84750,0.08936
1583.35771,0.04281
1581.86793,0.09751
1580.37814,0.11088
1578.88835,0.09963
1577.39856,0.05497
1575.90877,0.06140
1574.41898,0.02913
1572.92920,0.07698
1571.43941,0.02717
1569.94962,0.02756
1568.45983,0.02799
1566.97004,0.04429
1565.48025,0.05798
1563.99047,0.01714
1562.50068,0.00538
1561.01089,0.04046
1559.52110,0.03333
1558.03131,0.03239
1556.54152,0.02356
1555.05173,0.07550
1553.56195,0.09403
1552.07216,0.09938
1550.58237,0.10565
1549.09258,0.04946
1547.60279,0.02675
1546.11300,0.02255
1544.62322,0.06504
1543.13343,0.06003
1541.64364,0.04801
1540.15385,0.04790
1538.66406,0.04783
1537.17427,0.04647
1535.68448,0.00906
1534.19470,0.04385
1532.70491,0.01355
1531.21512,0.00000
1529.72533,0.00320
1528.23554,0.03725
1526.74575,0.05548
1525.25597,0.07903
1523.76618,0.05948
1522.27639,0.04437
1520.78660,0.08121
1519.29681,0.06441
1517.80702,0.03091
1516.31724,0.03441
1514.82745,0.00538
1513.33766,0.04738
1511.84787,0.08942
1510.35808,0.05404
1508.86829,0.06709
1507.37850,0.00538
1505.88872,0.02615
1504.39893,0.01088
1502.90914,0.04317
1501.41935,0.02180
1499.92956,0.03391
1498.43977,0.06189
1496.94999,0.11015
1495.46020,0.14261
1493.97041,0.18301
1492.48062,0.26657
1490.99083,0.27008
1489.50104,0.32290
1488.01125,0.35772
1486.52147,0.39256
1485.03168,0.46925
1483.54189,0.53365
1482.05210,0.61216
1480.56231,0.71535
1479.07252,0.79568
1477.58274,0.85493
1476.09295,0.95030
1474.60316,1.03953
1473.11337,1.12176
1471.62358,1.15210
1470.13379,1.12173
1468.64401,1.07820
1467.15422,0.98189
1465.66443,0.95471
1464.17464,0.92756
1462.68485,0.88152
1461.19506,0.91384
1459.70527,0.87227
1458.21549,0.79288
1456.72570,0.69328
1455.23591,0.72486
1453.74612,0.69309
1452.25633,0.59359
1450.76654,0.52229
1449.27676,0.53111
1447.78697,0.51356
1446.29718,0.46612
1444.80739,0.43764
1443.31760,0.40918
1441.82781,0.33456
1440.33802,0.30309
1438.84824,0.21533
1437.35845,0.21209
1435.86866,0.17720
1434.37887,0.22419
1432.88908,0.21225
1431.39929,0.16338
1429.90951,0.19903
1428.41972,0.20567
1426.92993,0.20970
1425.44014,0.19704
1423.95035,0.23106
1422.46056,0.26511
1420.97078,0.22615
1419.48099,0.26203
1417.99120,0.21961
1416.50141,0.20979
1415.01162,0.26073
1413.52183,0.24834
1412.03204,0.20957
1410.54226,0.24653
1409.05247,0.27207
1407.56268,0.29501
1406.07289,0.23965
1404.58310,0.24946
1403.09331,0.25929
1401.60353,0.22076
1400.11374,0.31955
1398.62395,0.31804
1397.13416,0.31129
1395.64437,0.31073
1394.15458,0.30140
1392.66479,0.29298
1391.17501,0.36733
1389.68522,0.36337
1388.19543,0.31281
1386.70564,0.30760
1385.21585,0.30243
1383.72606,0.28541
1382.23628,0.28250
1380.74649,0.26466
1379.25670,0.27766
1377.76691,0.28101
1376.27712,0.30992
1374.78733,0.36087
1373.29755,0.37400
1371.80776,0.42237
1370.31797,0.52974
1368.82818,0.56409
1367.33839,0.59847
1365.84860,0.70418
1364.35881,0.84953
1362.86903,1.01515
1361.37924,1.00830
1359.88945,0.98388
1358.39966,1.09328
1356.90987,1.20974
1355.42008,1.12117
1353.93030,1.08280
1352.44051,1.05238
1350.95072,1.02200
1349.46093,0.97052
1347.97114,0.87860
1346.48135,0.79990
1344.99156,0.69836
1343.50178,0.68838
1342.01199,0.57810
1340.52220,0.51538
1339.03241,0.44917
1337.54262,0.43229
1336.05283,0.44184
1334.56305,0.45142
1333.07326,0.40910
1331.58347,0.41171
1330.09368,0.41875
1328.60389,0.26388
1327.11410,0.27362
1325.62432,0.24556
1324.13453,0.31874
1322.64474,0.30658
1321.15495,0.30677
1319.66516,0.29996
1318.17537,0.29318
1316.68558,0.28555
1315.19580,0.26475
1313.70601,0.32320
1312.21622,0.25406
1310.72643,0.25800
1309.23664,0.22413
1307.74685,0.24487
1306.25707,0.25243
1304.76728,0.22086
1303.27749,0.18932
1301.78770,0.21987
1300.29791,0.17123
1298.80812,0.23705
1297.31834,0.22016
1295.82855,0.24116
1294.33876,0.25074
1292.84897,0.19787
1291.35918,0.25329
1289.86939,0.24713
1288.37960,0.24100
1286.88982,0.21643
1285.40003,0.27285
1283.91024,0.28355
1282.42045,0.35941
1280.93066,0.31208
1279.44087,0.35984
1277.95109,0.31785
1276.46130,0.29175
1274.97151,0.31540
1273.48172,0.33908
1271.99193,0.36764
1270.50214,0.41472
1269.01235,0.44686
1267.52257,0.44383
1266.03278,0.42500
1264.54299,0.45900
1263.05320,0.48335
1261.56341,0.49630
1260.07362,0.50928
1258.58384,0.52493
1257.09405,0.53621
1255.60426,0.57305
1254.11447,0.55360
1252.62468,0.49457
1251.13489,0.48486
1249.64511,0.47342
1248.15532,0.34584
1246.66553,0.34724
1245.17574,0.34866
1243.68595,0.31975
1242.19616,0.33224
1240.70637,0.34477
1239.21659,0.30627
1237.72680,0.25901
1236.23701,0.20915
1234.74722,0.15491
1233.25743,0.15308
1231.76764,0.15128
1230.27786,0.16139
1228.78807,0.16273
1227.29828,0.19491
1225.80849,0.14087
1224.31870,0.07103
1222.82891,0.07954
1221.33912,0.05553
1219.84934,0.09183
1218.35955,0.12817
1216.86976,0.13065
1215.37997,0.16222
1213.89018,0.14629
1212.40039,0.13303
1210.91061,0.09164
1209.42082,0.11277
1207.93103,0.10929
1206.44124,0.10585
1204.95145,0.11035
1203.46166,0.04184
1201.97188,0.09130
1200.48209,0.09943
1198.99230,0.09263
1197.50251,0.08674
1196.01272,0.02015
1194.52293,0.02225
1193.03314,0.02438
1191.54336,0.02478
1190.05357,0.00233
1188.56378,0.03209
1187.07399,0.00732
1185.58420,0.02747
1184.09441,0.00628
1182.60463,0.00581
1181.11484,0.00538
1179.62505,0.05282
1178.13526,0.03780
1176.64547,0.05978
1175.15568,0.07387
1173.66589,0.08096
1172.17611,0.01943
1170.68632,0.02702
1169.19653,0.03464
1167.70674,0.01633
1166.21695,0.04294
1164.72716,0.03526
1163.23738,0.05138
1161.74759,0.05432
1160.25780,0.00538
1158.76801,0.02235
1157.27822,0.03937
1155.78843,0.04805
1154.29865,0.02156
1152.80886,0.03823
1151.31907,0.07606
1149.82928,0.04350
1148.33949,0.09372
1146.84970,0.07707
1145.35991,0.06046
1143.87013,0.03508
1142.38034,0.08366
1140.89055,0.12964
1139.40076,0.17565
1137.91097,0.14776
1136.42118,0.20880
1134.93140,0.19593
1133.44161,0.18311
1131.95182,0.29089
1130.46203,0.25084
1128.97224,0.33228
1127.48245,0.29494
1125.99266,0.30956
1124.50288,0.31893
1123.01309,0.33361
1121.52330,0.34833
1120.03351,0.36132
1118.54372,0.38578
1117.05393,0.39708
1115.56415,0.38992
1114.07436,0.43121
1112.58457,0.42148
1111.09478,0.41178
1109.60499,0.47340
1108.11520,0.52890
1106.62542,0.52018
1105.13563,0.61623
1103.64584,0.70967
1102.15605,0.72657
1100.66626,0.75275
1099.17647,0.77896
1097.68668,0.79948
1096.19690,0.85700
1094.70711,0.86879
1093.21732,0.82252
1091.72753,0.94790
1090.23774,0.99807
1088.74795,1.04827
1087.25817,0.98101
1085.76838,1.01676
1084.27859,1.06398
1082.78880,1.13411
1081.29901,1.15235
1079.80922,1.10374
1078.31943,1.10752
1076.82965,1.11134
1075.33986,1.23005
1073.85007,1.26957
1072.36028,1.20352
1070.87049,1.21759
1069.38070,1.39451
1067.89092,1.35232
1066.40113,1.31016
1064.91134,1.26539
1063.42155,1.13792
1061.93176,1.09322
1060.44197,1.06263
1058.95219,1.02592
1057.46240,0.98483
1055.97261,0.94378
1054.48282,0.80507
1052.99303,0.75440
1051.50324,0.72401
1050.01345,0.58275
1048.52367,0.54099
1047.03388,0.58990
1045.54409,0.63886
1044.05430,0.65175
1042.56451,0.58811
1041.07472,0.48226
1039.58494,0.35972
1038.09515,0.33226
1036.60536,0.34224
1035.11557,0.35226
1033.62578,0.26945
1032.13599,0.32133
1030.64620,0.38734
1029.15642,0.44985
1027.66663,0.42966
1026.17684,0.40951
1024.68705,0.40787
1023.19726,0.58405
1021.70747,0.77082
1020.21769,0.91451
1018.72790,1.11895
1017.23811,1.22177
1015.74832,1.32462
1014.25853,1.46051
1012.76874,1.66508
1011.27896,1.69631
1009.78917,1.81733
1008.29938,2.00000
1006.80959,1.96619
1005.31980,1.93241
1003.83001,1.82298
1002.34022,1.69685
1000.85044,1.64997
999.36065,1.54503
997.87086,1.51362
996.38107,1.48224
994.89128,1.46189
993.40149,1.49086
991.91171,1.47322
990.42192,1.44681
988.93213,1.46972
987.44234,1.47419
985.95255,1.47868
984.46276,1.50169
982.97297,1.32406
981.48319,1.27320
979.99340,1.24702
978.50361,1.24332
977.01382,1.23965
975.52403,1.31742
974.03424,1.17695
972.54446,1.08933
971.05467,1.12407
969.56488,1.00923
968.07509,1.01984
966.58530,1.03048
965.09551,0.93069
963.60573,1.00521
962.11594,0.97150
960.62615,0.90526
959.13636,0.83421
957.64657,0.76319
956.15678,0.72346
954.66699,0.74624
953.17721,0.79546
951.68742,0.73293
950.19763,0.71929
948.70784,0.70568
947.21805,0.68286
945.72826,0.62135
944.23848,0.68133
942.74869,0.71669
941.25890,0.68520
939.76911,0.72063
938.27932,0.75610
936.78953,0.84793
935.29974,0.80512
933.80996,0.79228
932.32017,0.85692
930.83038,0.88067
929.34059,0.90445
927.85080,0.88909
926.36101,0.84121
924.87123,0.74583
923.38144,0.74378
921.89165,0.71755
920.40186,0.69136
918.91207,0.71493
917.42228,0.73237
915.93250,0.71992
914.44271,0.72686
912.95292,0.75585
911.46313,0.78486
909.97334,0.74349
908.48355,0.90371
906.99376,0.88706
905.50398,0.80530
904.01419,0.78475
902.52440,0.76424
901.03461,0.85773
899.54482,0.87908
898.05503,0.81950
896.56525,0.82331
895.07546,0.84521
893.58567,0.86713
892.09588,0.86312
890.60609,0.95332
889.11630,0.89482
887.62651,0.87947
886.13673,0.90376
884.64694,0.92808
883.15715,0.88466
881.66736,0.77879
880.17757,0.73896
878.68778,0.79642
877.19800,0.85391
875.70821,0.81682
874.21842,0.93202
872.72863,0.95220
871.23884,0.91257
869.74905,0.92974
868.25927,0.94694
866.76948,0.94173
865.27969,0.92687
863.78990,0.97717
862.30011,0.94038
860.81032,0.93222
859.32053,0.92409
857.83075,0.80554
856.34096,0.88329
854.85117,0.83258
853.36138,0.70004
851.87159,0.68020
850.38180,0.66038
848.89202,0.55611
847.40223,0.45363
845.91244,0.35999
844.42265,0.34559
842.93286,0.33122
841.44307,0.37057
839.95329,0.34923
838.46350,0.29272
836.97371,0.34185
835.48392,0.32104
833.99413,0.30027
832.50434,0.27909
831.01455,0.23858
829.52477,0.34685
828.03498,0.23951
826.54519,0.24443
825.05540,0.24937
823.56561,0.15446
822.07582,0.22856
820.58604,0.15660
819.09625,0.16124
817.60646,0.16591
816.11667,0.09404
814.62688,0.10670
813.13709,0.07010
811.64730,0.00538
810.15752,0.02379
808.66773,0.04224
807.17794,0.06820
805.68815,0.10300
804.19836,0.12550
802.70857,0.16080
801.21879,0.19614
799.72900,0.20026
798.23921,0.29771
796.74942,0.41895
795.25963,0.43461
793.76984,0.45031
792.28006,0.45195
790.79027,0.55749
789.30048,0.62433
787.81069,0.72113
786.32090,0.70178
784.83111,0.68246
783.34132,0.77584
781.85154,0.70378
780.36175,0.69601
778.87196,0.69839
777.38217,0.70080
775.89238,0.81634
774.40259,0.85799
772.91281,0.89966
771.42302,0.89781
769.93323,0.89598
768.44344,0.89463
766.95365,0.87307
765.46386,0.93691
763.97407,0.90926
762.48429,0.81386
760.99450,0.71850
759.50471,0.61349
758.01492,0.58244
756.52513,0.45902
755.03534,0.42408
753.54556,0.38917
752.05577,0.31248
750.56598,0.21207
749.07619,0.17946
747.58640,0.16713
746.09661,0.15482
744.60683,0.07654
743.11704,0.11359
741.62725,0.03714
740.13746,0.04433
738.64767,0.05156
737.15788,0.06146
735.66809,0.00538
734.17831,0.02821
732.68852,0.05327
731.19873,0.07836
729.70894,0.10921
728.21915,0.04152
726.72936,0.14109
725.23958,0.06202
723.74979,0.07496
722.26000,0.08793
720.77021,0.09785
719.28042,0.11221
717.79063,0.06323
716.30084,0.07545
714.81106,0.08770
713.32127,0.00538
711.83148,0.03860
710.34169,0.03664
708.85190,0.03385
707.36211,0.03108
705.87233,0.04331
704.38254,0.01860
702.89275,0.00538
701.40296,0.04327
699.91317,0.08119
698.42338,0.11431
696.93360,0.14570
695.44381,0.11640
693.95402,0.13465
692.46423,0.15294
690.97444,0.13781
689.48465,0.15705
687.99486,0.20360
686.50508,0.19341
685.01529,0.18326
683.52550,0.26335
682.03571,0.22114
680.54592,0.19392
679.05613,0.16805
677.56635,0.14222
676.07656,0.18903
674.58677,0.06601
673.09698,0.13137
671.60719,0.12855
670.11740,0.12577
668.62761,0.11290
667.13783,0.02524
665.64804,0.06788
664.15825,0.11056
662.66846,0.03092
661.17867,0.10006
659.68888,0.10059
658.19910,0.10555
656.70931,0.11054
655.21952,0.15341
653.72973,0.17166
652.23994,0.13275
650.75015,0.16823
649.26037,0.20375
647.77058,0.19486
646.28079,0.07510
644.79100,0.03810
643.30121,0.05439
641.81142,0.07071
640.32163,0.05758
638.83185,0.08672
637.34206,0.06926
635.85227,0.03730
634.36248,0.00538
632.87269,0.01451
631.38290,0.08969
629.89312,0.04608
628.40333,0.04343
626.91354,0.04081
625.42375,0.03779
623.93396,0.07792
622.44417,0.08993
620.95438,0.10197
619.46460,0.09467
617.97481,0.11558
616.48502,0.09162
614.99523,0.11259
613.50544,0.13359
612.01565,0.09302
610.52587,0.14577
609.03608,0.15279
607.54629,0.14576
606.05650,0.13876
604.56671,0.21717
603.07692,0.20143
601.58714,0.13072
600.09735,0.06004
598.60756,0.08753
597.11777,0.11418
595.62798,0.12941
594.13819,0.12267
592.64840,0.11597
591.15862,0.08553
589.66883,0.07801
588.17904,0.06173
586.68925,0.05603
585.19946,0.05037
583.70967,0.09579
582.21989,0.09196
580.73010,0.11808
579.24031,0.14423
577.75052,0.24083
576.26073,0.17816
574.77094,0.17713
573.28115,0.18009
571.79137,0.18309
570.30158,0.21120
568.81179,0.26047
567.32200,0.29656
565.83221,0.33270
564.34242,0.36358
562.85264,0.35841
561.36285,0.44833
559.87306,0.46479
558.38327,0.48128
556.89348,0.53433
555.40369,0.61381
553.91391,0.56043
552.42412,0.50709
550.93433,0.55763
549.44454,0.61964
547.95475,0.69665
546.46496,0.70416
544.97517,0.71171
543.48539,0.77561
541.99560,0.78322
540.50581,0.75522
539.01602,0.72725
537.52623,0.68303
536.03644,0.67317
534.54666,0.59293
533.05687,0.59678
531.56708,0.60066
530.07729,0.63141
528.58750,0.54779
527.09771,0.52800
525.60792,0.50825
524.11814,0.49865
522.62835,0.51284
521.13856,0.47074
519.64877,0.45596
518.15898,0.44121
516.66919,0.34288
515.17941,0.35989
513.68962,0.33291
512.19983,0.30597
510.71004,0.28875
509.22025,0.32612
507.73046,0.36441
506.24068,0.40405
504.75089,0.44372
503.26110,0.37737
501.77131,0.32250
500.28152,0.26194
498.79173,0.20141
497.30194,0.16863
495.81216,0.23535
494.32237,0.28933
492.83258,0.34335
491.34279,0.33447
489.85300,0.30010
488.36321,0.27280
486.87343,0.22573
485.38364,0.17870
483.89385,0.19815
482.40406,0.15162
480.91427,0.12713
479.42448,0.10267
477.93469,0.06328
476.44491,0.04593
474.95512,0.02860
473.46533,0.01132
471.97554,0.02659
470.48575,0.01197
468.99596,0.10652
467.50618,0.06908
466.01639,0.03168
464.52660,0.02511
463.03681,0.00538
461.54702,0.01607
460.05723,0.02679
458.56745,0.07363
457.07766,0.12578
455.58787,0.15025
454.09808,0.17474
452.60829,0.21027
451.11850,0.09005
449.62871,0.14457
448.13893,0.19912
446.64914,0.40905
445.15935,0.45883
443.66956,0.54472
442.17977,0.56464
440.68998,0.58459
439.20020,0.56232
437.71041,0.63250
436.22062,0.67324
434.73083,0.71400
433.24104,0.88989
431.75125,1.09575
430.26146,1.12473
428.77168,1.15374
427.28189,1.26376
425.79210,1.23123
424.30231,1.25594
422.81252,1.28068
421.32273,1.23241
419.83295,1.06623
418.34316,1.06334
416.85337,1.06049
415.36358,0.91378
413.87379,0.84102
412.38400,0.81715
410.89422,0.79331
409.40443,0.63792
407.91464,0.68235
406.42485,0.58159
404.93506,0.56140
403.44527,0.54125
401.95548,0.47051
400.46570,0.54944
398.97591,0.53378
397.48612,0.51815
395.99633,0.62269
394.50654,0.62694
393.01675,0.62989
391.52697,0.63288
390.03718,0.55008
388.54739,0.40132
387.05760,0.44269
385.56781,0.48409
384.07802,0.53521
382.58824,0.49923
381.09845,0.45888
379.60866,0.41856
378.11887,0.38972
376.62908,0.33802
375.13929,0.30748
373.64950,0.27698
372.15972,0.26059
370.66993,0.25039
369.18014,0.24639
367.69035,0.24242
366.20056,0.22704
364.71077,0.28475
363.22099,0.28659
361.73120,0.28848
360.24141,0.31371
358.75162,0.19992
357.26183,0.21599
355.77204,0.23208
354.28225,0.24513
352.79247,0.11034
351.30268,0.06977
349.81289,0.02923
348.32310,0.13620
346.83331,0.16487
345.34352,0.12273
343.85374,0.08061
342.36395,0.17275
340.87416,0.19628
339.38437,0.18727
337.89458,0.17829
336.40479,0.15351
334.91501,0.17540
333.42522,0.12648
331.93543,0.07758
330.44564,0.18319
328.95585,0.20257
327.46606,0.19338
325.97627,0.18423
324.48649,0.06729
322.99670,0.15481
321.50691,0.15390
320.01712,0.15303
318.52733,0.25824
317.03754,0.22619
315.54776,0.23465
314.05797,0.24315
312.56818,0.23584
311.07839,0.14319
309.58860,0.10294
308.09881,0.06272
306.60902,0.00538
305.11924,0.02856
303.62945,0.06146
302.13966,0.06884
300.64987,0.01465
299.16008,0.00538
