1778.52000,0.07952
1777.03021,0.10019
1775.54042,0.12240
1774.05063,0.04692
1772.56085,0.04212
1771.07106,0.00579
1769.58127,0.03563
1768.09148,0.04144
1766.60169,0.03226
1765.11190,0.08473
1763.62212,0.09665
1762.13233,0.03043
1760.64254,0.10705
1759.15275,0.10553
1757.66296,0.07999
1756.17317,0.04395
1754.68339,0.10114
1753.19360,0.03510
1751.70381,0.05628
1750.21402,0.02187
1748.72423,0.05062
1747.23444,0.05234
1745.74465,0.06462
1744.25487,0.06189
1742.76508,0.05469
1741.27529,0.09561
1739.78550,0.07644
1738.29571,0.05128
1736.80592,0.07577
1735.31614,0.05518
1733.82635,0.08573
1732.33656,0.02312
1730.84677,0.07177
1729.35698,0.05731
1727.86719,0.00080
1726.37740,0.02549
1724.88762,0.03066
1723.39783,0.08398
1721.90804,0.02908
1720.41825,0.00579
1718.92846,0.07603
1717.43867,0.03055
1715.94889,0.08281
1714.45910,0.03138
1712.96931,0.10625
1711.47952,0.06991
1709.98973,0.09523
1708.49994,0.05745
1707.01016,0.08659
1705.52037,0.11576
1704.03058,0.12317
1702.54079,0.09151
1701.05100,0.07943
1699.56121,0.08242
1698.07142,0.09595
1696.58164,0.06592
1695.09185,0.15919
1693.60206,0.10367
1692.11227,0.11431
1690.62248,0.16107
1689.13269,0.15073
1687.64291,0.19605
1686.15312,0.25341
1684.66333,0.17251
1683.17354,0.13524
1681.68375,0.14910
1680.19396,0.11489
1678.70417,0.20999
1677.21439,0.18034
1675.72460,0.14322
1674.23481,0.21586
1672.74502,0.13219
1671.25523,0.17783
1669.76544,0.20546
1668.27566,0.17148
1666.78587,0.16159
1665.29608,0.13670
1663.80629,0.15393
1662.31650,0.20726
1660.82671,0.18546
1659.33693,0.13513
1657.84714,0.13294
1656.35735,0.08417
1654.86756,0.10008
1653.37777,0.11300
1651.88798,0.11092
1650.39819,0.08032
1648.90841,0.14294
1647.41862,0.08232
1645.92883,0.09465
1644.43904,0.10700
1642.94925,0.11713
1641.45946,0.12879
1639.96968,0.07434
1638.47989,0.11011
1636.99010,0.12637
1635.50031,0.11861
1634.01052,0.13192
1632.52073,0.10618
1631.03094,0.10152
1629.54116,0.13446
1628.05137,0.18698
1626.56158,0.15835
1625.07179,0.19289
1623.58200,0.18837
1622.09221,0.15081
1620.60243,0.11629
1619.11264,0.11637
1617.62285,0.14204
1616.13306,0.10310
1614.64327,0.09124
1613.15348,0.14406
1611.66370,0.11272
1610.17391,0.08893
1608.68412,0.08020
1607.19433,0.10156
1605.70454,0.17257
1604.21475,0.14589
1602.72496,0.11924
1601.23518,0.05805
1599.74539,0.13669
1598.25560,0.09810
1596.76581,0.06405
1595.27602,0.09919
1593.78623,0.07723
1592.29645,0.12896
1590.80666,0.05144
1589.31687,0.07015
1587.82708,0.06635
1586.33729,0.14676
1584.84750,0.07537
1583.35771,0.10924
1581.86793,0.07549
1580.37814,0.06583
1578.88835,0.06521
1577.39856,0.02404
1575.90877,0.04001
1574.41898,0.01694
1572.92920,0.06454
1571.43941,0.03101
1569.94962,0.05011
1568.45983,0.06924
1566.97004,0.03880
1565.48025,0.05348
1563.99047,0.04114
1562.50068,0.02732
1561.01089,0.04811
1559.52110,0.00579
1558.03131,0.04304
1556.54152,0.04875
1555.05173,0.03344
1553.56195,0.02418
1552.07216,0.03750
1550.58237,0.03431
1549.09258,0.07925
1547.60279,0.08214
1546.11300,0.11963
1544.62322,0.11355
1543.13343,0.07744
1541.64364,0.04737
1540.15385,0.04288
1538.66406,0.03843
1537.17427,0.07610
1535.68448,0.07170
1534.19470,0.07786
1532.70491,0.04346
1531.21512,0.11281
1529.72533,0.06194
1528.23554,0.02162
1526.74575,0.03394
1525.25597,0.03877
1523.76618,0.00605
1522.27639,0.05905
1520.78660,0.07600
1519.29681,0.00579
1517.80702,0.03692
1516.31724,0.08763
1514.82745,0.02562
1513.33766,0.06060
1511.84787,0.09561
1510.35808,0.05323
1508.86829,0.07402
1507.37850,0.07530
1505.88872,0.06308
1504.39893,0.00579
1502.90914,0.05351
1501.41935,0.04714
1499.92956,0.05584
1498.43977,0.11718
1496.94999,0.16652
1495.46020,0.16628
1493.97041,0.20817
1492.48062,0.22303
1490.99083,0.22890
1489.50104,0.35656
1488.01125,0.38128
1486.52147,0.40602
1485.03168,0.43155
1483.54189,0.55482
1482.05210,0.61198
1480.56231,0.70374
1479.07252,0.87521
1477.58274,0.95200
1476.09295,0.98372
1474.60316,1.04854
1473.11337,1.11489
1471.62358,1.18128
1470.13379,1.06279
1468.64401,1.06610
1467.15422,0.90258
1465.66443,0.95480
1464.17464,1.00706
1462.68485,0.93833
1461.19506,0.86813
1459.70527,0.87312
1458.21549,0.77892
1456.72570,0.71031
1455.23591,0.58912
1453.74612,0.65285
1452.25633,0.62643
1450.76654,0.55493
1449.27676,0.53006
1447.78697,0.48418
1446.29718,0.44134
1444.80739,0.41055
1443.31760,0.37979
1441.82781,0.27991
1440.33802,0.34692
1438.84824,0.27415
1437.35845,0.29613
1435.86866,0.25950
1434.37887,0.30559
1432.88908,0.24046
1431.39929,0.24451
1429.90951,0.26664
1428.41972,0.19108
1426.92993,0.25836
1425.44014,0.34821
1423.95035,0.33814
1422.46056,0.32809
1420.97078,0.40300
1419.48099,0.30206
1417.99120,0.33495
1416.50141,0.30623
1415.01162,0.37825
1413.52183,0.36763
1412.03204,0.36907
1410.54226,0.35550
1409.05247,0.41412
1407.56268,0.41414
1406.07289,0.45327
1404.58310,0.42253
1403.09331,0.39183
1401.60353,0.40700
1400.11374,0.44174
1398.62395,0.51109
1397.13416,0.53988
1395.64437,0.52511
1394.15458,0.60807
1392.66479,0.61591
1391.17501,0.64031
1389.68522,0.64369
1388.19543,0.61554
1386.70564,0.60245
1385.21585,0.58938
1383.72606,0.62446
1382.23628,0.55132
1380.74649,0.58044
1379.25670,0.63965
1377.76691,0.63275
1376.27712,0.71006
1374.78733,0.64009
1373.29755,0.78962
1371.80776,0.82944
1370.31797,1.00909
1368.82818,1.06099
1367.33839,1.11293
1365.84860,1.28515
1364.35881,1.51754
1362.86903,1.74695
1361.37924,1.86214
1359.88945,1.84958
1358.39966,1.86712
1356.90987,1.89070
1355.42008,2.00000
1353.93030,1.87181
1352.44051,1.82859
1350.95072,1.78540
1349.46093,1.63174
1347.97114,1.55028
1346.48135,1.14263
1344.99156,1.02214
1343.50178,0.98285
1342.01199,0.88497
1340.52220,0.81418
1339.03241,0.78700
1337.54262,0.78391
1336.05283,0.76131
1334.56305,0.73874
1333.07326,0.63352
1331.58347,0.59597
1330.09368,0.52539
1328.60389,0.50294
1327.11410,0.43541
1325.62432,0.45211
1324.13453,0.41772
1322.64474,0.42244
1321.15495,0.39863
1319.66516,0.43574
1318.17537,0.47287
1316.68558,0.39504
1315.19580,0.33527
1313.70601,0.39429
1312.21622,0.30452
1310.72643,0.27792
1309.23664,0.34905
1307.74685,0.36610
1306.25707,0.34109
1304.76728,0.32888
1303.27749,0.31671
1301.78770,0.31884
1300.29791,0.29094
1298.80812,0.27660
1297.31834,0.34046
1295.82855,0.33520
1294.33876,0.35252
1292.84897,0.33228
1291.35918,0.27600
1289.86939,0.29416
1288.37960,0.31235
1286.88982,0.34635
1285.40003,0.42397
1283.91024,0.35581
1282.42045,0.45906
1280.93066,0.46010
1279.44087,0.51981
1277.95109,0.42170
1276.46130,0.45742
1274.97151,0.43003
1273.48172,0.40266
1271.99193,0.44899
1270.50214,0.48181
1269.01235,0.51166
1267.52257,0.49344
1266.03278,0.52184
1264.54299,0.52322
1263.05320,0.60580
1261.56341,0.58995
1260.07362,0.57413
1258.58384,0.58916
1257.09405,0.56513
1255.60426,0.57871
1254.11447,0.61036
1252.62468,0.53982
1251.13489,0.51441
1249.64511,0.47550
1248.15532,0.47269
1246.66553,0.45864
1245.17574,0.44462
1243.68595,0.34720
1242.19616,0.35955
1240.70637,0.35689
1239.21659,0.33021
1237.72680,0.23442
1236.23701,0.37165
1234.74722,0.24886
1233.25743,0.22079
1231.76764,0.19276
1230.27786,0.26397
1228.78807,0.31116
1227.29828,0.27420
1225.80849,0.17864
1224.31870,0.23344
1222.82891,0.16950
1221.33912,0.18828
1219.84934,0.20784
1218.35955,0.22743
1216.86976,0.21623
1215.37997,0.19754
1213.89018,0.23301
1212.40039,0.21889
1210.91061,0.15369
1209.42082,0.19977
1207.93103,0.17296
1206.44124,0.14619
1204.95145,0.09765
1203.46166,0.10776
1201.97188,0.11941
1200.48209,0.17619
1198.99230,0.09920
1197.50251,0.05231
1196.01272,0.09715
1194.52293,0.08039
1193.03314,0.06365
1191.54336,0.10106
1190.05357,0.05132
1188.56378,0.07075
1187.07399,0.00302
1185.58420,0.07140
1184.09441,0.05563
1182.60463,0.06695
1181.11484,0.07830
1179.62505,0.06713
1178.13526,0.06801
1176.64547,0.00579
1175.15568,0.10790
1173.66589,0.10182
1172.17611,0.10177
1170.68632,0.06117
1169.19653,0.02060
1167.70674,0.08227
1166.21695,0.09588
1164.72716,0.07343
1163.23738,0.03899
1161.74759,0.06020
1160.25780,0.11301
1158.76801,0.09594
1157.27822,0.07891
1155.78843,0.06717
1154.29865,0.02238
1152.80886,0.10691
1151.31907,0.07721
1149.82928,0.11219
1148.33949,0.14419
1146.84970,0.13338
1145.35991,0.12260
1143.87013,0.05246
1142.38034,0.11465
1140.89055,0.15732
1139.40076,0.20904
1137.91097,0.23373
1136.42118,0.23440
1134.93140,0.24337
1133.44161,0.25237
1131.95182,0.34483
1130.46203,0.41176
1128.97224,0.28480
1127.48245,0.35180
1125.99266,0.41882
1124.50288,0.43776
1123.01309,0.49132
1121.52330,0.54490
1120.03351,0.49178
1118.54372,0.53189
1117.05393,0.56903
1115.56415,0.52051
1114.07436,0.59228
1112.58457,0.57388
1111.09478,0.55552
1109.60499,0.51764
1108.11520,0.54744
1106.62542,0.55171
1105.13563,0.77398
1103.64584,0.70165
1102.15605,0.80974
1100.66626,0.80661
1099.17647,0.80352
1097.68668,0.84405
1096.19690,0.91768
1094.70711,0.90866
1093.21732,0.92523
1091.72753,1.01849
1090.23774,1.03962
1088.74795,1.06079
1087.25817,1.02787
1085.76838,1.16936
1084.27859,1.17708
1082.78880,1.17882
1081.29901,1.31890
1079.80922,1.25756
1078.31943,1.31426
1076.82965,1.37099
1075.33986,1.35635
1073.85007,1.41239
1072.36028,1.39029
1070.87049,1.43436
1069.38070,1.49951
1067.89092,1.53086
1066.40113,1.56225
1064.91134,1.51624
1063.42155,1.38158
1061.93176,1.25446
1060.44197,1.17848
1058.95219,1.06495
1057.46240,1.08223
1055.97261,1.09954
1054.48282,0.97407
1052.99303,0.91177
1051.50324,0.90061
1050.01345,0.81732
1048.52367,0.71302
1047.03388,0.70045
1045.54409,0.68790
1044.05430,0.60774
1042.56451,0.52159
1041.07472,0.53770
1039.58494,0.50874
1038.09515,0.34752
1036.60536,0.34418
1035.11557,0.34086
1033.62578,0.38718
1032.13599,0.31026
1030.64620,0.36717
1029.15642,0.33541
1027.66663,0.33524
1026.17684,0.33511
1024.68705,0.35606
1023.19726,0.47775
1021.70747,0.51980
1020.21769,0.68063
1018.72790,0.76784
1017.23811,0.90393
1015.74832,1.04005
1014.25853,1.10480
1012.76874,1.28984
1011.27896,1.47641
1009.78917,1.55778
1008.29938,1.56702
1006.80959,1.54398
1005.31980,1.52097
1003.83001,1.34690
1002.34022,1.36679
1000.85044,1.28449
999.36065,1.16764
997.87086,1.14026
996.38107,1.11292
994.89128,1.13446
993.40149,1.06884
991.91171,1.00776
990.42192,0.98429
988.93213,1.06457
987.44234,1.04192
985.95255,1.01929
984.46276,1.01849
982.97297,0.99066
981.48319,0.86515
979.99340,0.86744
978.50361,0.88706
977.01382,0.90670
975.52403,0.79484
974.03424,0.82130
972.54446,0.69297
971.05467,0.73001
969.56488,0.66938
968.07509,0.65989
966.58530,0.65043
965.09551,0.58838
963.60573,0.57297
962.11594,0.53503
960.62615,0.46556
959.13636,0.46151
957.64657,0.45748
956.15678,0.43169
954.66699,0.49463
953.17721,0.36216
951.68742,0.36052
950.19763,0.38520
948.70784,0.40992
947.21805,0.43693
945.72826,0.45945
944.23848,0.53011
942.74869,0.47452
941.25890,0.48962
939.76911,0.55435
938.27932,0.61911
936.78953,0.69443
935.29974,0.64651
933.80996,0.65423
932.32017,0.74918
930.83038,0.74945
929.34059,0.74976
927.85080,0.63734
926.36101,0.57908
924.87123,0.56143
923.38144,0.68662
921.89165,0.69309
920.40186,0.69958
918.91207,0.78277
917.42228,0.78481
915.93250,0.73578
914.44271,0.76794
912.95292,0.79112
911.46313,0.81433
909.97334,0.79247
908.48355,0.91044
906.99376,0.76087
905.50398,0.75263
904.01419,0.76170
902.52440,0.77081
901.03461,0.77468
899.54482,0.92140
898.05503,0.92984
896.56525,0.92328
895.07546,0.87692
893.58567,0.83058
892.09588,0.83464
890.60609,0.97551
889.11630,0.73309
887.62651,0.74325
886.13673,0.78275
884.64694,0.82228
883.15715,0.80546
881.66736,0.88188
880.17757,0.90271
878.68778,0.90177
877.19800,0.90086
875.70821,0.96236
874.21842,0.97279
872.72863,1.14108
871.23884,1.15006
869.74905,1.10421
868.25927,1.05838
866.76948,1.09601
865.27969,1.16674
863.78990,1.15933
862.30011,1.10987
860.81032,1.12582
859.32053,1.14180
857.83075,1.04432
856.34096,1.08817
854.85117,1.06291
853.36138,0.99558
851.87159,0.88318
850.38180,0.77082
848.89202,0.62992
847.40223,0.63186
845.91244,0.48501
844.42265,0.51482
842.93286,0.54466
841.44307,0.47155
839.95329,0.41351
838.46350,0.38707
836.97371,0.34863
835.48392,0.40568
833.99413,0.46276
832.50434,0.34925
831.01455,0.43720
829.52477,0.42747
828.03498,0.34712
826.54519,0.31190
825.05540,0.27670
823.56561,0.28964
822.07582,0.32667
820.58604,0.16379
819.09625,0.17005
817.60646,0.17635
816.11667,0.15336
814.62688,0.23563
813.13709,0.09845
811.64730,0.08457
810.15752,0.04516
808.66773,0.00579
807.17794,0.10496
805.68815,0.11548
804.19836,0.08093
802.70857,0.11931
801.21879,0.15772
799.72900,0.16235
798.23921,0.28425
796.74942,0.26337
795.25963,0.27786
793.76984,0.29237
792.28006,0.36929
790.79027,0.46729
789.30048,0.53526
787.81069,0.53110
786.32090,0.53975
784.83111,0.54842
783.34132,0.66912
781.85154,0.54632
780.36175,0.64153
778.87196,0.62853
777.38217,0.61556
775.89238,0.67627
774.40259,0.68290
772.91281,0.69407
771.42302,0.74135
769.93323,0.78866
768.44344,0.76534
766.95365,0.64585
765.46386,0.78795
763.97407,0.66551
762.48429,0.65885
760.99450,0.65222
759.50471,0.57346
758.01492,0.59546
756.52513,0.42055
755.03534,0.35616
753.54556,0.29181
752.05577,0.25529
750.56598,0.17821
749.07619,0.15529
747.58640,0.17072
746.09661,0.18619
744.60683,0.05060
743.11704,0.10596
741.62725,0.15534
740.13746,0.09877
738.64767,0.04223
737.15788,0.06163
735.66809,0.11263
734.17831,0.03287
732.68852,0.07191
731.19873,0.11097
729.70894,0.03431
728.21915,0.00579
726.72936,0.03941
725.23958,0.03248
723.74979,0.02633
722.26000,0.02021
720.77021,0.05997
719.28042,0.08322
717.79063,0.00579
716.30084,0.01933
714.81106,0.03290
713.32127,0.01719
711.83148,0.00000
710.34169,0.05675
708.85190,0.10150
707.36211,0.14629
705.87233,0.05731
704.38254,0.01045
702.89275,0.08690
701.40296,0.06415
699.91317,0.04144
698.42338,0.16758
696.93360,0.22459
695.44381,0.26962
693.95402,0.25679
692.46423,0.24400
690.97444,0.24852
689.48465,0.23353
687.99486,0.22308
686.50508,0.29760
685.01529,0.37214
683.52550,0.32420
682.03571,0.37400
680.54592,0.32010
679.05613,0.33539
677.56635,0.35070
676.07656,0.33598
674.58677,0.24162
673.09698,0.27657
671.60719,0.25066
670.11740,0.22478
668.62761,0.12152
667.13783,0.13103
665.64804,0.14733
664.15825,0.16367
662.66846,0.17477
661.17867,0.11525
659.68888,0.18955
658.19910,0.13460
656.70931,0.07968
655.21952,0.17361
653.72973,0.17737
652.23994,0.15110
650.75015,0.15493
649.26037,0.15878
647.77058,0.15966
646.28079,0.08240
644.79100,0.05026
643.30121,0.07678
641.81142,0.10334
640.32163,0.15397
638.83185,0.17156
637.34206,0.00579
635.85227,0.02333
634.36248,0.04090
632.87269,0.05475
631.38290,0.08666
629.89312,0.13063
628.40333,0.10774
626.91354,0.08488
625.42375,0.10338
623.93396,0.07832
622.44417,0.11192
620.95438,0.14554
619.46460,0.06194
617.97481,0.10766
616.48502,0.11131
614.99523,0.09018
613.50544,0.06909
612.01565,0.16603
610.52587,0.17130
609.03608,0.19915
607.54629,0.18043
606.05650,0.16175
604.56671,0.12956
603.07692,0.02524
601.58714,0.06602
600.09735,0.10683
598.60756,0.08678
597.11777,0.11187
595.62798,0.11293
594.13819,0.11176
592.64840,0.11063
591.15862,0.02609
589.66883,0.03028
588.17904,0.06306
586.68925,0.09962
585.19946,0.13622
583.70967,0.18262
582.21989,0.16891
580.73010,0.15750
579.24031,0.14611
577.75052,0.15053
576.26073,0.15348
574.77094,0.17450
573.28115,0.20683
571.79137,0.23918
570.30158,0.26781
568.81179,0.26189
567.32200,0.26051
565.83221,0.25916
564.34242,0.22477
562.85264,0.29413
561.36285,0.37104
559.87306,0.36530
558.38327,0.35959
556.89348,0.33888
555.40369,0.38885
553.91391,0.44261
552.42412,0.49639
550.93433,0.54645
549.44454,0.47628
547.95475,0.54294
546.46496,0.54047
544.97517,0.53803
543.48539,0.66040
541.99560,0.65351
540.50581,0.63613
539.01602,0.61878
537.52623,0.53232
536.03644,0.56463
534.54666,0.58646
533.05687,0.58877
531.56708,0.59111
530.07729,0.58747
528.58750,0.58987
527.09771,0.59155
525.60792,0.59326
524.11814,0.48902
522.62835,0.55017
521.13856,0.49259
519.64877,0.42151
518.15898,0.35046
516.66919,0.50343
515.17941,0.48054
513.68962,0.44341
512.19983,0.40630
510.71004,0.40155
509.22025,0.49453
507.73046,0.42369
506.24068,0.48366
504.75089,0.54366
503.26110,0.49245
501.77131,0.61114
500.28152,0.55999
498.79173,0.50887
497.30194,0.53746
495.81216,0.57058
494.32237,0.59697
492.83258,0.62339
491.34279,0.60849
489.85300,0.57409
488.36321,0.45252
486.87343,0.46252
485.38364,0.47256
483.89385,0.42474
482.40406,0.25820
480.91427,0.29763
479.42448,0.33710
477.93469,0.20973
476.44491,0.19664
474.95512,0.14449
473.46533,0.09237
471.97554,0.18159
470.48575,0.07241
468.99596,0.05496
467.50618,0.04731
466.01639,0.03969
464.52660,0.14108
463.03681,0.08467
461.54702,0.06210
460.05723,0.03957
458.56745,0.00579
457.07766,0.09197
455.58787,0.11731
454.09808,0.14267
452.60829,0.24699
451.11850,0.21905
449.62871,0.19264
448.13893,0.16626
446.64914,0.28272
445.15935,0.38117
443.66956,0.35037
442.17977,0.42859
440.68998,0.50683
439.20020,0.54978
437.71041,0.47852
436.22062,0.54858
434.73083,0.61868
433.24104,0.82711
431.75125,1.01302
430.26146,1.02533
428.77168,1.03767
427.28189,1.14099
425.79210,1.11656
424.30231,1.08164
422.81252,1.04675
421.32273,1.12463
419.83295,1.12888
418.34316,1.01967
416.85337,0.91048
415.36358,0.68032
413.87379,0.61704
412.38400,0.60115
410.89422,0.58529
409.40443,0.50707
407.91464,0.47398
406.42485,0.46196
404.93506,0.42217
403.44527,0.38240
401.95548,0.38852
400.46570,0.41871
398.97591,0.38505
397.48612,0.35141
395.99633,0.33660
394.50654,0.42254
393.01675,0.36043
391.52697,0.29835
390.03718,0.16941
388.54739,0.19233
387.05760,0.25737
385.56781,0.32243
384.07802,0.26126
382.58824,0.31135
381.09845,0.27654
379.60866,0.24177
378.11887,0.21679
376.62908,0.15877
375.13929,0.14136
373.64950,0.12399
372.15972,0.07658
370.66993,0.18705
369.18014,0.15623
367.69035,0.12545
366.20056,0.04509
364.71077,0.04594
363.22099,0.12874
361.73120,0.21157
360.24141,0.12081
358.75162,0.10223
357.26183,0.09420
355.77204,0.08621
354.28225,0.10229
352.79247,0.12292
351.30268,0.11201
349.81289,0.10112
348.32310,0.13537
346.83331,0.00579
345.34352,0.03167
343.85374,0.05758
342.36395,0.23836
340.87416,0.16060
339.38437,0.10843
337.89458,0.05629
336.40479,0.08235
334.91501,0.04080
333.42522,0.03835
331.93543,0.03594
330.44564,0.03206
328.95585,0.05826
327.46606,0.04467
325.97627,0.03110
324.48649,0.07995
322.99670,0.12131
321.50691,0.12061
320.01712,0.11994
318.52733,0.17943
317.03754,0.05555
315.54776,0.05497
314.05797,0.05441
312.56818,0.00579
311.07839,0.10652
309.58860,0.09229
308.09881,0.07809
306.60902,0.13081
305.11924,0.10990
303.62945,0.09203
302.13966,0.07419
300.64987,0.00827
299.16008,0.00579
