1778.52000,0.04795
1777.03021,0.05266
1775.54042,0.06008
1774.05063,0.05680
1772.56085,0.06025
1771.07106,0.00606
1769.58127,0.04174
1768.09148,0.02247
1766.60169,0.07297
1765.11190,0.05643
1763.62212,0.01981
1762.13233,0.03685
1760.64254,0.05124
1759.15275,0.06834
1757.66296,0.06266
1756.17317,0.00606
1754.68339,0.03625
1753.19360,0.01148
1751.70381,0.05245
1750.21402,0.03444
1748.72423,0.01780
1747.23444,0.02801
1745.74465,0.08786
1744.25487,0.09276
1742.76508,0.04002
1741.27529,0.07849
1739.78550,0.05530
1738.29571,0.03483
1736.80592,0.09081
1735.31614,0.07709
1733.82635,0.08351
1732.33656,0.04839
1730.84677,0.06291
1729.35698,0.12171
1727.86719,0.04376
1726.37740,0.00606
1724.88762,0.05266
1723.39783,0.02687
1721.90804,0.06816
1720.41825,0.06120
1718.92846,0.05427
1717.43867,0.07686
1715.94889,0.08473
1714.45910,0.06983
1712.96931,0.09921
1711.47952,0.10851
1709.98973,0.09905
1708.49994,0.06950
1707.01016,0.08357
1705.52037,0.09766
1704.03058,0.12586
1702.54079,0.08300
1701.05100,0.13271
1699.56121,0.14356
1698.07142,0.10883
1696.58164,0.11034
1695.09185,0.12797
1693.60206,0.15233
1692.11227,0.19013
1690.62248,0.18102
1689.13269,0.21753
1687.64291,0.22858
1686.15312,0.22491
1684.66333,0.24005
1683.17354,0.18815
1681.68375,0.14299
1680.19396,0.21318
1678.70417,0.22440
1677.21439,0.21955
1675.72460,0.19327
1674.23481,0.17908
1672.74502,0.19577
1671.25523,0.13336
1669.76544,0.20910
1668.27566,0.22855
1666.78587,0.19304
1665.29608,0.17901
1663.80629,0.18245
1662.31650,0.21809
1660.82671,0.18537
1659.33693,0.17145
1657.84714,0.14146
1656.35735,0.13967
1654.86756,0.15935
1653.37777,0.17772
1651.88798,0.13443
1650.39819,0.16627
1648.90841,0.19142
1647.41862,0.09457
1645.92883,0.11642
1644.43904,0.13831
1642.94925,0.17027
1641.45946,0.20361
1639.96968,0.16589
1638.47989,0.14430
1636.99010,0.17637
1635.50031,0.16422
1634.01052,0.11990
1632.52073,0.13730
1631.03094,0.12389
1629.54116,0.24594
1628.05137,0.16955
1626.56158,0.17498
1625.07179,0.16972
1623.58200,0.21544
1622.09221,0.16732
1620.60243,0.18225
1619.11264,0.14759
1617.62285,0.10356
1616.13306,0.16283
1614.64327,0.17116
1613.15348,0.19963
1611.66370,0.16376
1610.17391,0.18827
1608.68412,0.19536
1607.19433,0.16628
1605.70454,0.13051
1604.21475,0.14573
1602.72496,0.16098
1601.23518,0.14810
1599.74539,0.13255
1598.25560,0.15727
1596.76581,0.10557
1595.27602,0.12766
1593.78623,0.09479
1592.29645,0.06328
1590.80666,0.09215
1589.31687,0.11837
1587.82708,0.13388
1586.33729,0.14004
1584.84750,0.17304
1583.35771,0.15913
1581.86793,0.12513
1580.37814,0.11261
1578.88835,0.09073
1577.39856,0.12253
1575.90877,0.06852
1574.41898,0.07890
1572.92920,0.10005
1571.43941,0.08635
1569.94962,0.07268
1568.45983,0.05903
1566.97004,0.07626
1565.48025,0.05998
1563.99047,0.08531
1562.50068,0.00606
1561.01089,0.09645
1559.52110,0.04203
1558.03131,0.04262
1556.54152,0.12639
1555.05173,0.09619
1553.56195,0.07943
1552.07216,0.11902
1550.58237,0.09963
1549.09258,0.02260
1547.60279,0.04484
1546.11300,0.04028
1544.62322,0.07196
1543.13343,0.04599
1541.64364,0.04554
1540.15385,0.04108
1538.66406,0.03666
1537.17427,0.03092
1535.68448,0.03727
1534.19470,0.07718
1532.70491,0.07688
1531.21512,0.08734
1529.72533,0.04686
1528.23554,0.05603
1526.74575,0.04779
1525.25597,0.00606
1523.76618,0.08752
1522.27639,0.02282
1520.78660,0.08690
1519.29681,0.05982
1517.80702,0.04751
1516.31724,0.05132
1514.82745,0.09806
1513.33766,0.07108
1511.84787,0.04413
1510.35808,0.03329
1508.86829,0.01980
1507.37850,0.01572
1505.88872,0.04922
1504.39893,0.07738
1502.90914,0.01304
1501.41935,0.02113
1499.92956,0.06547
1498.43977,0.13530
1496.94999,0.07777
1495.46020,0.18119
1493.97041,0.16394
1492.48062,0.25132
1490.99083,0.25289
1489.50104,0.32423
1488.01125,0.33793
1486.52147,0.35166
1485.03168,0.42710
1483.54189,0.49452
1482.05210,0.56197
1480.56231,0.67638
1479.07252,0.80825
1477.58274,0.87712
1476.09295,0.86689
1474.60316,0.96129
1473.11337,1.07986
1471.62358,1.02009
1470.13379,1.02070
1468.64401,0.90198
1467.15422,0.92276
1465.66443,0.88724
1464.17464,0.85174
1462.68485,0.81359
1461.19506,0.91494
1459.70527,0.77626
1458.21549,0.73015
1456.72570,0.67199
1455.23591,0.62190
1453.74612,0.59196
1452.25633,0.57947
1450.76654,0.54690
1449.27676,0.56531
1447.78697,0.54218
1446.29718,0.46543
1444.80739,0.44034
1443.31760,0.41527
1441.82781,0.30105
1440.33802,0.24855
1438.84824,0.23362
1437.35845,0.26297
1435.86866,0.24944
1434.37887,0.26275
1432.88908,0.26804
1431.39929,0.27605
1429.90951,0.20629
1428.41972,0.23580
1426.92993,0.27741
1425.44014,0.30966
1423.95035,0.32316
1422.46056,0.33668
1420.97078,0.31000
1419.48099,0.29139
1417.99120,0.23929
1416.50141,0.28510
1415.01162,0.26658
1413.52183,0.39559
1412.03204,0.30202
1410.54226,0.36403
1409.05247,0.32281
1407.56268,0.33526
1406.07289,0.41881
1404.58310,0.38907
1403.09331,0.35936
1401.60353,0.43360
1400.11374,0.42472
1398.62395,0.50841
1397.13416,0.48751
1395.64437,0.47470
1394.15458,0.54773
1392.66479,0.52424
1391.17501,0.62548
1389.68522,0.60204
1388.19543,0.54108
1386.70564,0.56463
1385.21585,0.58820
1383.72606,0.62253
1382.23628,0.57642
1380.74649,0.62958
1379.25670,0.62644
1377.76691,0.64881
1376.27712,0.62963
1374.78733,0.68960
1373.29755,0.79519
1371.80776,0.93969
1370.31797,1.09496
1368.82818,1.14162
1367.33839,1.18831
1365.84860,1.31549
1364.35881,1.58350
1362.86903,1.76974
1361.37924,1.88761
1359.88945,1.95455
1358.39966,1.88473
1356.90987,2.00000
1355.42008,1.86988
1353.93030,1.66738
1352.44051,1.70092
1350.95072,1.73449
1349.46093,1.64472
1347.97114,1.41013
1346.48135,1.10986
1344.99156,1.11136
1343.50178,0.98682
1342.01199,0.84621
1340.52220,0.78073
1339.03241,0.71394
1337.54262,0.72227
1336.05283,0.70246
1334.56305,0.68268
1333.07326,0.62538
1331.58347,0.58420
1330.09368,0.58193
1328.60389,0.52471
1327.11410,0.49300
1325.62432,0.49349
1324.13453,0.40819
1322.64474,0.42617
1321.15495,0.42674
1319.66516,0.42600
1318.17537,0.42529
1316.68558,0.42460
1315.19580,0.43736
1313.70601,0.35894
1312.21622,0.34895
1310.72643,0.28131
1309.23664,0.29283
1307.74685,0.36874
1306.25707,0.37495
1304.76728,0.32351
1303.27749,0.27210
1301.78770,0.27705
1300.29791,0.26458
1298.80812,0.24410
1297.31834,0.32422
1295.82855,0.30513
1294.33876,0.30886
1292.84897,0.32603
1291.35918,0.34323
1289.86939,0.30749
1288.37960,0.27177
1286.88982,0.33732
1285.40003,0.33451
1283.91024,0.39609
1282.42045,0.46307
1280.93066,0.44961
1279.44087,0.41740
1277.95109,0.44422
1276.46130,0.36781
1274.97151,0.38396
1273.48172,0.40013
1271.99193,0.38549
1270.50214,0.42317
1269.01235,0.47832
1267.52257,0.43693
1266.03278,0.55918
1264.54299,0.46153
1263.05320,0.54628
1261.56341,0.53987
1260.07362,0.53348
1258.58384,0.55529
1257.09405,0.53823
1255.60426,0.50108
1254.11447,0.62890
1252.62468,0.64143
1251.13489,0.55608
1249.64511,0.49490
1248.15532,0.41765
1246.66553,0.39340
1245.17574,0.36917
1243.68595,0.34297
1242.19616,0.35299
1240.70637,0.43144
1239.21659,0.40263
1237.72680,0.28533
1236.23701,0.25389
1234.74722,0.26539
1233.25743,0.23601
1231.76764,0.20666
1230.27786,0.29602
1228.78807,0.28617
1227.29828,0.25087
1225.80849,0.20084
1224.31870,0.13206
1222.82891,0.17327
1221.33912,0.22658
1219.84934,0.22628
1218.35955,0.22600
1216.86976,0.19490
1215.37997,0.31135
1213.89018,0.25751
1212.40039,0.18358
1210.91061,0.19818
1209.42082,0.18465
1207.93103,0.18657
1206.44124,0.18851
1204.95145,0.18311
1203.46166,0.13884
1201.97188,0.10667
1200.48209,0.11610
1198.99230,0.12018
1197.50251,0.10553
1196.01272,0.09358
1194.52293,0.07830
1193.03314,0.06305
1191.54336,0.10080
1190.05357,0.06481
1188.56378,0.00606
1187.07399,0.02934
1185.58420,0.15591
1184.09441,0.15510
1182.60463,0.14427
1181.11484,0.13346
1179.62505,0.09384
1178.13526,0.06230
1176.64547,0.08576
1175.15568,0.07037
1173.66589,0.09389
1172.17611,0.13218
1170.68632,0.07596
1169.19653,0.01977
1167.70674,0.07692
1166.21695,0.11264
1164.72716,0.09743
1163.23738,0.09566
1161.74759,0.11939
1160.25780,0.16058
1158.76801,0.12402
1157.27822,0.08748
1155.78843,0.06438
1154.29865,0.07484
1152.80886,0.03033
1151.31907,0.07839
1149.82928,0.10233
1148.33949,0.12898
1146.84970,0.12884
1145.35991,0.12873
1143.87013,0.03879
1142.38034,0.19294
1140.89055,0.17011
1139.40076,0.17681
1137.91097,0.17012
1136.42118,0.23587
1134.93140,0.29025
1133.44161,0.34466
1131.95182,0.31662
1130.46203,0.33555
1128.97224,0.29013
1127.48245,0.38554
1125.99266,0.42198
1124.50288,0.41687
1123.01309,0.44464
1121.52330,0.47244
1120.03351,0.47546
1118.54372,0.48655
1117.05393,0.47487
1115.56415,0.50746
1114.07436,0.52668
1112.58457,0.49027
1111.09478,0.45388
1109.60499,0.46245
1108.11520,0.53005
1106.62542,0.56146
1105.13563,0.69349
1103.64584,0.71155
1102.15605,0.73231
1100.66626,0.77859
1099.17647,0.82489
1097.68668,0.73041
1096.19690,0.84381
1094.70711,0.90495
1093.21732,0.92855
1091.72753,0.95085
1090.23774,0.93495
1088.74795,0.91908
1087.25817,0.96693
1085.76838,1.04297
1084.27859,1.05199
1082.78880,1.11334
1081.29901,1.10363
1079.80922,1.16369
1078.31943,1.13526
1076.82965,1.10686
1075.33986,1.27428
1073.85007,1.31567
1072.36028,1.40536
1070.87049,1.41327
1069.38070,1.42926
1067.89092,1.45600
1066.40113,1.48277
1064.91134,1.40630
1063.42155,1.28963
1061.93176,1.14214
1060.44197,1.13013
1058.95219,1.08863
1057.46240,1.04918
1055.97261,1.00975
1054.48282,0.92811
1052.99303,0.87197
1051.50324,0.81586
1050.01345,0.72357
1048.52367,0.73590
1047.03388,0.70401
1045.54409,0.67214
1044.05430,0.68321
1042.56451,0.47170
1041.07472,0.45198
1039.58494,0.44034
1038.09515,0.38581
1036.60536,0.38896
1035.11557,0.39215
1033.62578,0.33233
1032.13599,0.33825
1030.64620,0.30531
1029.15642,0.30994
1027.66663,0.34277
1026.17684,0.37561
1024.68705,0.34814
1023.19726,0.46016
1021.70747,0.52393
1020.21769,0.61723
1018.72790,0.81248
1017.23811,0.91053
1015.74832,1.00860
1014.25853,1.27098
1012.76874,1.34296
1011.27896,1.50749
1009.78917,1.54465
1008.29938,1.60732
1006.80959,1.52921
1005.31980,1.45112
1003.83001,1.39988
1002.34022,1.49082
1000.85044,1.38330
999.36065,1.24498
997.87086,1.20256
996.38107,1.16017
994.89128,0.98705
993.40149,1.00037
991.91171,0.99627
990.42192,1.04048
988.93213,0.93319
987.44234,0.94124
985.95255,0.94933
984.46276,0.96012
982.97297,0.86365
981.48319,0.91607
979.99340,0.83709
978.50361,0.79502
977.01382,0.75297
975.52403,0.79611
974.03424,0.63543
972.54446,0.65448
971.05467,0.70306
969.56488,0.64438
968.07509,0.58573
966.58530,0.52711
965.09551,0.50070
963.60573,0.53734
962.11594,0.43052
960.62615,0.44173
959.13636,0.41073
957.64657,0.37976
956.15678,0.43799
954.66699,0.46138
953.17721,0.44859
951.68742,0.41839
950.19763,0.43180
948.70784,0.44524
947.21805,0.37087
945.72826,0.39442
944.23848,0.40325
942.74869,0.45635
941.25890,0.44243
939.76911,0.55460
938.27932,0.66679
936.78953,0.64356
935.29974,0.68875
933.80996,0.65887
932.32017,0.64377
930.83038,0.69173
929.34059,0.73971
927.85080,0.62947
926.36101,0.61850
924.87123,0.58341
923.38144,0.68648
921.89165,0.66821
920.40186,0.64997
918.91207,0.69143
917.42228,0.67123
915.93250,0.69397
914.44271,0.74490
912.95292,0.74020
911.46313,0.73552
909.97334,0.75569
908.48355,0.77185
906.99376,0.77195
905.50398,0.70235
904.01419,0.65288
902.52440,0.60344
901.03461,0.69216
899.54482,0.76749
898.05503,0.77177
896.56525,0.88605
895.07546,0.85954
893.58567,0.83305
892.09588,0.76771
890.60609,0.84454
889.11630,0.67465
887.62651,0.77567
886.13673,0.76005
884.64694,0.74445
883.15715,0.80398
881.66736,0.72407
880.17757,0.88960
878.68778,0.89422
877.19800,0.89888
875.70821,0.92233
874.21842,0.96459
872.72863,1.08331
871.23884,0.98883
869.74905,1.05866
868.25927,1.12851
866.76948,1.15480
865.27969,1.21465
863.78990,1.18468
862.30011,1.16009
860.81032,1.16571
859.32053,1.17135
857.83075,1.13611
856.34096,1.11566
854.85117,1.07243
853.36138,0.93402
851.87159,0.87341
850.38180,0.81283
848.89202,0.67181
847.40223,0.53082
845.91244,0.52933
844.42265,0.55267
842.93286,0.57603
841.44307,0.50757
839.95329,0.44985
838.46350,0.42971
836.97371,0.32780
835.48392,0.35465
833.99413,0.38153
832.50434,0.45403
831.01455,0.43403
829.52477,0.45160
828.03498,0.37264
826.54519,0.39428
825.05540,0.41596
823.56561,0.31696
822.07582,0.28773
820.58604,0.19147
819.09625,0.22465
817.60646,0.25785
816.11667,0.17508
814.62688,0.21706
813.13709,0.09813
811.64730,0.00606
810.15752,0.01321
808.66773,0.02040
807.17794,0.00749
805.68815,0.03887
804.19836,0.04211
802.70857,0.06884
801.21879,0.09560
799.72900,0.13379
798.23921,0.20151
796.74942,0.31082
795.25963,0.30282
793.76984,0.29485
792.28006,0.34926
790.79027,0.46941
789.30048,0.49035
787.81069,0.57568
786.32090,0.57455
784.83111,0.57344
783.34132,0.67897
781.85154,0.57130
780.36175,0.59910
778.87196,0.57999
777.38217,0.56091
775.89238,0.66255
774.40259,0.67571
772.91281,0.67146
771.42302,0.68869
769.93323,0.70595
768.44344,0.62266
766.95365,0.63595
765.46386,0.71095
763.97407,0.65322
762.48429,0.63843
760.99450,0.62366
759.50471,0.53785
758.01492,0.49900
756.52513,0.35959
755.03534,0.34359
753.54556,0.32762
752.05577,0.25937
750.56598,0.13214
749.07619,0.07065
747.58640,0.06484
746.09661,0.05905
744.60683,0.04190
743.11704,0.07170
741.62725,0.08544
740.13746,0.09116
738.64767,0.09691
737.15788,0.08123
735.66809,0.05886
734.17831,0.06603
732.68852,0.09334
731.19873,0.12068
729.70894,0.05014
728.21915,0.08960
726.72936,0.16932
725.23958,0.03181
723.74979,0.04118
722.26000,0.05057
720.77021,0.04590
719.28042,0.11905
717.79063,0.00849
716.30084,0.00726
714.81106,0.00606
713.32127,0.04944
711.83148,0.04993
710.34169,0.07862
708.85190,0.07380
707.36211,0.06901
705.87233,0.15142
704.38254,0.03940
702.89275,0.11649
701.40296,0.10644
699.91317,0.09642
698.42338,0.11861
696.93360,0.21592
695.44381,0.18721
693.95402,0.20277
692.46423,0.21836
690.97444,0.28360
689.48465,0.26035
687.99486,0.24115
686.50508,0.26154
685.01529,0.28196
683.52550,0.30844
682.03571,0.36713
680.54592,0.32929
679.05613,0.32098
677.56635,0.31270
676.07656,0.26287
674.58677,0.24927
673.09698,0.21291
671.60719,0.20540
670.11740,0.19792
668.62761,0.17639
667.13783,0.12135
665.64804,0.12870
664.15825,0.13608
662.66846,0.06906
661.17867,0.14287
659.68888,0.10406
658.19910,0.10149
656.70931,0.09894
655.21952,0.10849
653.72973,0.07112
652.23994,0.12498
650.75015,0.12187
649.26037,0.11878
647.77058,0.12041
646.28079,0.04698
644.79100,0.05134
643.30121,0.08457
641.81142,0.11783
640.32163,0.08875
638.83185,0.00606
637.34206,0.06702
635.85227,0.04285
634.36248,0.01870
632.87269,0.02878
631.38290,0.07376
629.89312,0.07584
628.40333,0.04644
626.91354,0.01707
625.42375,0.12249
623.93396,0.05629
622.44417,0.06119
620.95438,0.06612
619.46460,0.00000
617.97481,0.03987
616.48502,0.06367
614.99523,0.08816
613.50544,0.11269
612.01565,0.09500
610.52587,0.12427
609.03608,0.07176
607.54629,0.10913
606.05650,0.14653
604.56671,0.11287
603.07692,0.16105
601.58714,0.13751
600.09735,0.11399
598.60756,0.17030
597.11777,0.02413
595.62798,0.08317
594.13819,0.09999
592.64840,0.11684
591.15862,0.06465
589.66883,0.10502
588.17904,0.10116
586.68925,0.11744
585.19946,0.13375
583.70967,0.18362
582.21989,0.17718
580.73010,0.17346
579.24031,0.16976
577.75052,0.13122
576.26073,0.10746
574.77094,0.09445
573.28115,0.12438
571.79137,0.15434
570.30158,0.14678
568.81179,0.16740
567.32200,0.15118
565.83221,0.13498
564.34242,0.19859
562.85264,0.24481
561.36285,0.27897
559.87306,0.28500
558.38327,0.29106
556.89348,0.28910
555.40369,0.34483
553.91391,0.41400
552.42412,0.48320
550.93433,0.43172
549.44454,0.40710
547.95475,0.47637
546.46496,0.49605
544.97517,0.51576
543.48539,0.53013
541.99560,0.59012
540.50581,0.57504
539.01602,0.55999
537.52623,0.49802
536.03644,0.56483
534.54666,0.55924
533.05687,0.62207
531.56708,0.68494
530.07729,0.43670
528.58750,0.48084
527.09771,0.48812
525.60792,0.49544
524.11814,0.45114
522.62835,0.44979
521.13856,0.40690
519.64877,0.38213
518.15898,0.35739
516.66919,0.44063
515.17941,0.42734
513.68962,0.42011
512.19983,0.41291
510.71004,0.37825
509.22025,0.40932
507.73046,0.43640
506.24068,0.49300
504.75089,0.54963
503.26110,0.39172
501.77131,0.44841
500.28152,0.48098
498.79173,0.51358
497.30194,0.53682
495.81216,0.46621
494.32237,0.53308
492.83258,0.59998
491.34279,0.55493
489.85300,0.57160
488.36321,0.43273
486.87343,0.43201
485.38364,0.43133
483.89385,0.33545
482.40406,0.31738
480.91427,0.25709
479.42448,0.19683
477.93469,0.22846
476.44491,0.13674
474.95512,0.12216
473.46533,0.10760
471.97554,0.11654
470.48575,0.10136
468.99596,0.03123
467.50618,0.04293
466.01639,0.05465
464.52660,0.00606
463.03681,0.05757
461.54702,0.04138
460.05723,0.02522
458.56745,0.03524
457.07766,0.10295
455.58787,0.11101
454.09808,0.11910
452.60829,0.18420
451.11850,0.14071
449.62871,0.13412
448.13893,0.12756
446.64914,0.26519
445.15935,0.27277
443.66956,0.34340
442.17977,0.38455
440.68998,0.42573
439.20020,0.46560
437.71041,0.54840
436.22062,0.56217
434.73083,0.57596
433.24104,0.70042
431.75125,0.90671
430.26146,0.90717
428.77168,0.90766
427.28189,1.00138
425.79210,1.04282
424.30231,0.99646
422.81252,0.95012
421.32273,0.92459
419.83295,0.81058
418.34316,0.76432
416.85337,0.71808
415.36358,0.61756
413.87379,0.61228
412.38400,0.54936
410.89422,0.48647
409.40443,0.51748
407.91464,0.41441
406.42485,0.35830
404.93506,0.37263
403.44527,0.38698
401.95548,0.35375
400.46570,0.37150
398.97591,0.37990
397.48612,0.38832
395.99633,0.31765
394.50654,0.40390
393.01675,0.33328
391.52697,0.26269
390.03718,0.22163
388.54739,0.21948
387.05760,0.25960
385.56781,0.29975
384.07802,0.43179
382.58824,0.27418
381.09845,0.24736
379.60866,0.22056
378.11887,0.29504
376.62908,0.06379
375.13929,0.06858
373.64950,0.07341
372.15972,0.14531
370.66993,0.16091
369.18014,0.13028
367.69035,0.09967
366.20056,0.04428
364.71077,0.10826
363.22099,0.11394
361.73120,0.11965
360.24141,0.12337
358.75162,0.06275
357.26183,0.08865
355.77204,0.11457
354.28225,0.02184
352.79247,0.09409
351.30268,0.10534
349.81289,0.11663
348.32310,0.04546
346.83331,0.09526
345.34352,0.05994
343.85374,0.02464
342.36395,0.07855
340.87416,0.15796
339.38437,0.13817
337.89458,0.11840
336.40479,0.14425
334.91501,0.04273
333.42522,0.02438
331.93543,0.00606
330.44564,0.05803
328.95585,0.07919
327.46606,0.08294
325.97627,0.08672
324.48649,0.05968
322.99670,0.06227
321.50691,0.14133
320.01712,0.22041
318.52733,0.16944
317.03754,0.07693
315.54776,0.08636
314.05797,0.09581
312.56818,0.00606
311.07839,0.07305
309.58860,0.08508
308.09881,0.09713
306.60902,0.04887
305.11924,0.07305
303.62945,0.07446
302.13966,0.07589
300.64987,0.01164
299.16008,0.00606
