1778.52000,0.04810
1777.03021,0.00840
1775.54042,0.11507
1774.05063,0.00351
1772.56085,0.01104
1771.07106,0.01860
1769.58127,0.11796
1768.09148,0.04374
1766.60169,0.02908
1765.11190,0.11367
1763.62212,0.11396
1762.13233,0.03244
1760.64254,0.05015
1759.15275,0.08527
1757.66296,0.10306
1756.17317,0.11096
1754.68339,0.10649
1753.19360,0.04253
1751.70381,0.05302
1750.21402,0.04865
1748.72423,0.04928
1747.23444,0.05986
1745.74465,0.05808
1744.25487,0.08858
1742.76508,0.09430
1741.27529,0.19183
1739.78550,0.13562
1738.29571,0.05960
1736.80592,0.07290
1735.31614,0.07880
1733.82635,0.11449
1732.33656,0.05597
1730.84677,0.16117
1729.35698,0.00351
1727.86719,0.13774
1726.37740,0.04879
1724.88762,0.05908
1723.39783,0.14133
1721.90804,0.13681
1720.41825,0.11248
1718.92846,0.06834
1717.43867,0.08128
1715.94889,0.11906
1714.45910,0.09487
1712.96931,0.10295
1711.47952,0.16811
1709.98973,0.20602
1708.49994,0.16212
1707.01016,0.14802
1705.52037,0.13395
1704.03058,0.20672
1702.54079,0.18279
1701.05100,0.17875
1699.56121,0.27146
1698.07142,0.17820
1696.58164,0.28338
1695.09185,0.21002
1693.60206,0.27063
1692.11227,0.26679
1690.62248,0.31506
1689.13269,0.35097
1687.64291,0.36459
1686.15312,0.36336
1684.66333,0.31008
1683.17354,0.21220
1681.68375,0.32516
1680.19396,0.24966
1678.70417,0.34037
1677.21439,0.31206
1675.72460,0.33340
1674.23481,0.30516
1672.74502,0.27696
1671.25523,0.33311
1669.76544,0.35458
1668.27566,0.29672
1666.78587,0.32073
1665.29608,0.30014
1663.80629,0.30438
1662.31650,0.29626
1660.82671,0.29561
1659.33693,0.24291
1657.84714,0.24728
1656.35735,0.35834
1654.86756,0.16190
1653.37777,0.18870
1651.88798,0.23289
1650.39819,0.23000
1648.90841,0.26931
1647.41862,0.17223
1645.92883,0.18309
1644.43904,0.19397
1642.94925,0.26317
1641.45946,0.18856
1639.96968,0.25287
1638.47989,0.17088
1636.99010,0.23774
1635.50031,0.21783
1634.01052,0.25003
1632.52073,0.15082
1631.03094,0.24013
1629.54116,0.25260
1628.05137,0.31470
1626.56158,0.20074
1625.07179,0.28027
1623.58200,0.20359
1622.09221,0.23358
1620.60243,0.20905
1619.11264,0.18207
1617.62285,0.24441
1616.13306,0.25470
1614.64327,0.24766
1613.15348,0.26794
1611.66370,0.17912
1610.17391,0.16226
1608.68412,0.13056
1607.19433,0.20058
1605.70454,0.22599
1604.21475,0.23531
1602.72496,0.24466
1601.23518,0.15112
1599.74539,0.21139
1598.25560,0.23697
1596.76581,0.15097
1595.27602,0.14190
1593.78623,0.10309
1592.29645,0.19081
1590.80666,0.17936
1589.31687,0.12825
1587.82708,0.05734
1586.33729,0.18736
1584.84750,0.15124
1583.35771,0.07547
1581.86793,0.05430
1580.37814,0.11005
1578.88835,0.11622
1577.39856,0.07531
1575.90877,0.09644
1574.41898,0.00351
1572.92920,0.09349
1571.43941,0.09670
1569.94962,0.08506
1568.45983,0.07345
1566.97004,0.05443
1565.48025,0.09994
1563.99047,0.09091
1562.50068,0.12409
1561.01089,0.09281
1559.52110,0.14589
1558.03131,0.13700
1556.54152,0.21247
1555.05173,0.15652
1553.56195,0.06837
1552.07216,0.16378
1550.58237,0.07322
1549.09258,0.07941
1547.60279,0.07324
1546.11300,0.09935
1544.62322,0.09076
1543.13343,0.09461
1541.64364,0.04889
1540.15385,0.06149
1538.66406,0.07413
1537.17427,0.09796
1535.68448,0.06477
1534.19470,0.09363
1532.70491,0.07788
1531.21512,0.05968
1529.72533,0.04399
1528.23554,0.07547
1526.74575,0.05737
1525.25597,0.05419
1523.76618,0.04112
1522.27639,0.06033
1520.78660,0.11677
1519.29681,0.02444
1517.80702,0.01895
1516.31724,0.11022
1514.82745,0.14199
1513.33766,0.16265
1511.84787,0.18333
1510.35808,0.05648
1508.86829,0.12312
1507.37850,0.05090
1505.88872,0.00351
1504.39893,0.13796
1502.90914,0.12611
1501.41935,0.00517
1499.92956,0.13769
1498.43977,0.10408
1496.94999,0.27139
1495.46020,0.32217
1493.97041,0.33826
1492.48062,0.30478
1490.99083,0.34078
1489.50104,0.45122
1488.01125,0.50464
1486.52147,0.55811
1485.03168,0.69593
1483.54189,0.72962
1482.05210,0.87743
1480.56231,1.05256
1479.07252,1.08139
1477.58274,1.22186
1476.09295,1.31524
1474.60316,1.45082
1473.11337,1.45499
1471.62358,1.58320
1470.13379,1.40390
1468.64401,1.37592
1467.15422,1.34798
1465.66443,1.35107
1464.17464,1.35420
1462.68485,1.32388
1461.19506,1.31839
1459.70527,1.08724
1458.21549,1.14383
1456.72570,1.03676
1455.23591,0.99669
1453.74612,0.97401
1452.25633,0.91168
1450.76654,0.90148
1449.27676,0.81194
1447.78697,0.80428
1446.29718,0.71729
1444.80739,0.65761
1443.31760,0.59797
1441.82781,0.49372
1440.33802,0.48375
1438.84824,0.38700
1437.35845,0.38454
1435.86866,0.38212
1434.37887,0.41941
1432.88908,0.43441
1431.39929,0.36016
1429.90951,0.32562
1428.41972,0.38537
1426.92993,0.42779
1425.44014,0.46280
1423.95035,0.47677
1422.46056,0.49077
1420.97078,0.46140
1419.48099,0.40726
1417.99120,0.34323
1416.50141,0.39581
1415.01162,0.47819
1413.52183,0.48123
1412.03204,0.52151
1410.54226,0.54446
1409.05247,0.54761
1407.56268,0.51110
1406.07289,0.46967
1404.58310,0.44439
1403.09331,0.41915
1401.60353,0.42495
1400.11374,0.53246
1398.62395,0.57553
1397.13416,0.54670
1395.64437,0.62208
1394.15458,0.61068
1392.66479,0.59436
1391.17501,0.62767
1389.68522,0.58413
1388.19543,0.52079
1386.70564,0.54676
1385.21585,0.57277
1383.72606,0.55169
1382.23628,0.52817
1380.74649,0.56172
1379.25670,0.51594
1377.76691,0.62148
1376.27712,0.51625
1374.78733,0.62930
1373.29755,0.73743
1371.80776,0.81087
1370.31797,0.94138
1368.82818,1.02233
1367.33839,1.10331
1365.84860,1.25874
1364.35881,1.37451
1362.86903,1.55480
1361.37924,1.74008
1359.88945,1.78155
1358.39966,1.77345
1356.90987,1.94892
1355.42008,1.74743
1353.93030,1.88576
1352.44051,1.83191
1350.95072,1.77809
1349.46093,1.64619
1347.97114,1.37046
1346.48135,1.35271
1344.99156,1.28043
1343.50178,1.13625
1342.01199,1.01196
1340.52220,0.96210
1339.03241,0.88003
1337.54262,0.71368
1336.05283,0.75321
1334.56305,0.79277
1333.07326,0.76541
1331.58347,0.72567
1330.09368,0.75046
1328.60389,0.64631
1327.11410,0.79765
1325.62432,0.59684
1324.13453,0.61184
1322.64474,0.61200
1321.15495,0.74364
1319.66516,0.66325
1318.17537,0.58290
1316.68558,0.54599
1315.19580,0.52647
1313.70601,0.46730
1312.21622,0.46025
1310.72643,0.44084
1309.23664,0.44378
1307.74685,0.44923
1306.25707,0.50680
1304.76728,0.47016
1303.27749,0.43355
1301.78770,0.40690
1300.29791,0.42493
1298.80812,0.33882
1297.31834,0.41892
1295.82855,0.47176
1294.33876,0.41552
1292.84897,0.48828
1291.35918,0.51395
1289.86939,0.47020
1288.37960,0.42650
1286.88982,0.43987
1285.40003,0.64673
1283.91024,0.62048
1282.42045,0.65379
1280.93066,0.55073
1279.44087,0.63372
1277.95109,0.55552
1276.46130,0.54929
1274.97151,0.50837
1273.48172,0.46748
1271.99193,0.54567
1270.50214,0.54950
1269.01235,0.61784
1267.52257,0.71101
1266.03278,0.66286
1264.54299,0.62713
1263.05320,0.69561
1261.56341,0.74180
1260.07362,0.78802
1258.58384,0.79708
1257.09405,0.74416
1255.60426,0.84505
1254.11447,0.89141
1252.62468,0.87580
1251.13489,0.77590
1249.64511,0.62394
1248.15532,0.57867
1246.66553,0.55203
1245.17574,0.52543
1243.68595,0.53731
1242.19616,0.36320
1240.70637,0.46691
1239.21659,0.31271
1237.72680,0.39169
1236.23701,0.45582
1234.74722,0.26452
1233.25743,0.31508
1231.76764,0.36567
1230.27786,0.35553
1228.78807,0.29829
1227.29828,0.40231
1225.80849,0.19882
1224.31870,0.23345
1222.82891,0.20860
1221.33912,0.19866
1219.84934,0.21356
1218.35955,0.22849
1216.86976,0.27818
1215.37997,0.32047
1213.89018,0.25365
1212.40039,0.26872
1210.91061,0.25654
1209.42082,0.09062
1207.93103,0.16532
1206.44124,0.24005
1204.95145,0.11887
1203.46166,0.02502
1201.97188,0.08497
1200.48209,0.11767
1198.99230,0.08840
1197.50251,0.00460
1196.01272,0.16885
1194.52293,0.11612
1193.03314,0.06343
1191.54336,0.01697
1190.05357,0.09207
1188.56378,0.00351
1187.07399,0.01787
1185.58420,0.02979
1184.09441,0.08638
1182.60463,0.06736
1181.11484,0.04837
1179.62505,0.03810
1178.13526,0.00554
1176.64547,0.09171
1175.15568,0.11590
1173.66589,0.17733
1172.17611,0.09742
1170.68632,0.08328
1169.19653,0.06916
1167.70674,0.00424
1166.21695,0.20673
1164.72716,0.15627
1163.23738,0.00416
1161.74759,0.06243
1160.25780,0.16042
1158.76801,0.08730
1157.27822,0.01422
1155.78843,0.02054
1154.29865,0.01201
1152.80886,0.00351
1151.31907,0.05651
1149.82928,0.08225
1148.33949,0.20476
1146.84970,0.12888
1145.35991,0.05304
1143.87013,0.07644
1142.38034,0.09740
1140.89055,0.12335
1139.40076,0.21630
1137.91097,0.33904
1136.42118,0.43454
1134.93140,0.43334
1133.44161,0.43218
1131.95182,0.41120
1130.46203,0.43491
1128.97224,0.54546
1127.48245,0.47003
1125.99266,0.46903
1124.50288,0.40855
1123.01309,0.50559
1121.52330,0.60267
1120.03351,0.55468
1118.54372,0.63323
1117.05393,0.64732
1115.56415,0.59448
1114.07436,0.65824
1112.58457,0.71336
1111.09478,0.76851
1109.60499,0.70836
1108.11520,0.73506
1106.62542,0.78163
1105.13563,0.87040
1103.64584,1.01129
1102.15605,1.09268
1100.66626,1.03150
1099.17647,0.97036
1097.68668,1.17586
1096.19690,1.12346
1094.70711,1.09590
1093.21732,1.22711
1091.72753,1.35834
1090.23774,1.32964
1088.74795,1.30098
1087.25817,1.37279
1085.76838,1.43224
1084.27859,1.55373
1082.78880,1.63061
1081.29901,1.65047
1079.80922,1.60837
1078.31943,1.65559
1076.82965,1.70284
1075.33986,1.71292
1073.85007,1.69079
1072.36028,1.71830
1070.87049,1.65656
1069.38070,1.86023
1067.89092,1.90893
1066.40113,1.95766
1064.91134,1.68772
1063.42155,1.66087
1061.93176,1.41083
1060.44197,1.50806
1058.95219,1.37715
1057.46240,1.38144
1055.97261,1.38576
1054.48282,1.36407
1052.99303,1.27050
1051.50324,1.08271
1050.01345,0.92719
1048.52367,0.89324
1047.03388,0.94737
1045.54409,1.00154
1044.05430,0.90816
1042.56451,0.76770
1041.07472,0.63719
1039.58494,0.63569
1038.09515,0.62430
1036.60536,0.57574
1035.11557,0.52721
1033.62578,0.55809
1032.13599,0.49971
1030.64620,0.47609
1029.15642,0.37561
1027.66663,0.44383
1026.17684,0.51207
1024.68705,0.56547
1023.19726,0.71564
1021.70747,0.73190
1020.21769,0.81021
1018.72790,1.01999
1017.23811,1.15789
1015.74832,1.29582
1014.25853,1.45611
1012.76874,1.60651
1011.27896,2.00000
1009.78917,1.97933
1008.29938,1.80989
1006.80959,1.82153
1005.31980,1.83321
1003.83001,1.70603
1002.34022,1.69546
1000.85044,1.47906
999.36065,1.48343
997.87086,1.46056
996.38107,1.43772
994.89128,1.46700
993.40149,1.42934
991.91171,1.43389
990.42192,1.34421
988.93213,1.33642
987.44234,1.26666
985.95255,1.19694
984.46276,1.18677
982.97297,1.24112
981.48319,1.14917
979.99340,1.29536
978.50361,1.22704
977.01382,1.15876
975.52403,1.19096
974.03424,0.95037
972.54446,1.00000
971.05467,0.91821
969.56488,0.97783
968.07509,0.97548
966.58530,0.97316
965.09551,0.80222
963.60573,0.81237
962.11594,0.85975
960.62615,0.75092
959.13636,0.68056
957.64657,0.61024
956.15678,0.65776
954.66699,0.68052
953.17721,0.65122
951.68742,0.66412
950.19763,0.63117
948.70784,0.59826
947.21805,0.64351
945.72826,0.58214
944.23848,0.67953
942.74869,0.71744
941.25890,0.70330
939.76911,0.81568
938.27932,0.92809
936.78953,1.01326
935.29974,0.80084
933.80996,0.83895
932.32017,0.94654
930.83038,0.99092
929.34059,1.03533
927.85080,0.92972
926.36101,0.81175
924.87123,0.73102
923.38144,0.92066
921.89165,0.88587
920.40186,0.85112
918.91207,0.95902
917.42228,1.01735
915.93250,0.87481
914.44271,1.02249
912.95292,1.02387
911.46313,1.02529
909.97334,1.03170
908.48355,1.16712
906.99376,1.11159
905.50398,1.02138
904.01419,1.05521
902.52440,1.08907
901.03461,1.09320
899.54482,1.20650
898.05503,1.21567
896.56525,1.21742
895.07546,1.23285
893.58567,1.24832
892.09588,1.07408
890.60609,1.14294
889.11630,1.00846
887.62651,1.14683
886.13673,1.08558
884.64694,1.02436
883.15715,1.12067
881.66736,1.15997
880.17757,1.11250
878.68778,1.14443
877.19800,1.17639
875.70821,1.30263
874.21842,1.29497
872.72863,1.29975
871.23884,1.29713
869.74905,1.28461
868.25927,1.27214
866.76948,1.19769
865.27969,1.35889
863.78990,1.37131
862.30011,1.29696
860.81032,1.29210
859.32053,1.28726
857.83075,1.08652
856.34096,1.08920
854.85117,1.20352
853.36138,1.08969
851.87159,0.96225
850.38180,0.83485
848.89202,0.73601
847.40223,0.68184
845.91244,0.60787
844.42265,0.63933
842.93286,0.67084
841.44307,0.55480
839.95329,0.43136
838.46350,0.37739
836.97371,0.42267
835.48392,0.44194
833.99413,0.46125
832.50434,0.40246
831.01455,0.49252
829.52477,0.51068
828.03498,0.42968
826.54519,0.40699
825.05540,0.38433
823.56561,0.30839
822.07582,0.19031
820.58604,0.22604
819.09625,0.19360
817.60646,0.16120
816.11667,0.06806
814.62688,0.18330
813.13709,0.11751
811.64730,0.12864
810.15752,0.11253
808.66773,0.09644
807.17794,0.00351
805.68815,0.14326
804.19836,0.11438
802.70857,0.14135
801.21879,0.16835
799.72900,0.24622
798.23921,0.28941
796.74942,0.23095
795.25963,0.32009
793.76984,0.40926
792.28006,0.45010
790.79027,0.66459
789.30048,0.79727
787.81069,0.68197
786.32090,0.66962
784.83111,0.65731
783.34132,0.61899
781.85154,0.62039
780.36175,0.60694
778.87196,0.63073
777.38217,0.65455
775.89238,0.75281
774.40259,0.77918
772.91281,0.89983
771.42302,0.89527
769.93323,0.89074
768.44344,0.92716
766.95365,0.92394
765.46386,0.96540
763.97407,0.80599
762.48429,0.77187
760.99450,0.73778
759.50471,0.70248
758.01492,0.61266
756.52513,0.42366
755.03534,0.40086
753.54556,0.37810
752.05577,0.29834
750.56598,0.29549
749.07619,0.28523
747.58640,0.16216
746.09661,0.03912
744.60683,0.12074
743.11704,0.10318
741.62725,0.05837
740.13746,0.03840
738.64767,0.01846
737.15788,0.00351
735.66809,0.10479
734.17831,0.04985
732.68852,0.07431
731.19873,0.09881
729.70894,0.06133
728.21915,0.09085
726.72936,0.02368
725.23958,0.07311
723.74979,0.09902
722.26000,0.12495
720.77021,0.14721
719.28042,0.01820
717.79063,0.02068
716.30084,0.02071
714.81106,0.02077
713.32127,0.00351
711.83148,0.08076
710.34169,0.10595
708.85190,0.14358
707.36211,0.18124
705.87233,0.12469
704.38254,0.13762
702.89275,0.04890
701.40296,0.11894
699.91317,0.18901
698.42338,0.10535
696.93360,0.17550
695.44381,0.17375
693.95402,0.17699
692.46423,0.18027
690.97444,0.29024
689.48465,0.34071
687.99486,0.31433
686.50508,0.29542
685.01529,0.27655
683.52550,0.20563
682.03571,0.28851
680.54592,0.32679
679.05613,0.30061
677.56635,0.27447
676.07656,0.21116
674.58677,0.35622
673.09698,0.19872
671.60719,0.19752
670.11740,0.19635
668.62761,0.16297
667.13783,0.10730
665.64804,0.11615
664.15825,0.12504
662.66846,0.15876
661.17867,0.03874
659.68888,0.09734
658.19910,0.09768
656.70931,0.09805
655.21952,0.13938
653.72973,0.06170
652.23994,0.18991
650.75015,0.15818
649.26037,0.12648
647.77058,0.10846
646.28079,0.06814
644.79100,0.06011
643.30121,0.06451
641.81142,0.06895
640.32163,0.01141
638.83185,0.00351
637.34206,0.13097
635.85227,0.11212
634.36248,0.09331
632.87269,0.03734
631.38290,0.07812
629.89312,0.10654
628.40333,0.10771
626.91354,0.10891
625.42375,0.21679
623.93396,0.03205
622.44417,0.07676
620.95438,0.12150
619.46460,0.04350
617.97481,0.08211
616.48502,0.03891
614.99523,0.06023
613.50544,0.08158
612.01565,0.08312
610.52587,0.00533
609.03608,0.14808
607.54629,0.09866
606.05650,0.04927
604.56671,0.28886
603.07692,0.18621
601.58714,0.18280
600.09735,0.17943
598.60756,0.00000
597.11777,0.01558
595.62798,0.04111
594.13819,0.04559
592.64840,0.05011
591.15862,0.22455
589.66883,0.14109
588.17904,0.10974
586.68925,0.09332
585.19946,0.07692
583.70967,0.00351
582.21989,0.03140
580.73010,0.08288
579.24031,0.13439
577.75052,0.05821
576.26073,0.16063
574.77094,0.13908
573.28115,0.16965
571.79137,0.20025
570.30158,0.20608
568.81179,0.20947
567.32200,0.21661
565.83221,0.22378
564.34242,0.33392
562.85264,0.34737
561.36285,0.41045
559.87306,0.42892
558.38327,0.44743
556.89348,0.43868
555.40369,0.59119
553.91391,0.49075
552.42412,0.39034
550.93433,0.56279
549.44454,0.52941
547.95475,0.63992
546.46496,0.69714
544.97517,0.75440
543.48539,0.70132
541.99560,0.64331
540.50581,0.61758
539.01602,0.59189
537.52623,0.49678
536.03644,0.63236
534.54666,0.61917
533.05687,0.60725
531.56708,0.59536
530.07729,0.72116
528.58750,0.62874
527.09771,0.60580
525.60792,0.58289
524.11814,0.58729
522.62835,0.60413
521.13856,0.56644
519.64877,0.49406
518.15898,0.42172
516.66919,0.45606
515.17941,0.32922
513.68962,0.43431
512.19983,0.53944
510.71004,0.55903
509.22025,0.40752
507.73046,0.37510
506.24068,0.39231
504.75089,0.40956
503.26110,0.56077
501.77131,0.48880
500.28152,0.52476
498.79173,0.56074
497.30194,0.51615
495.81216,0.62289
494.32237,0.58334
492.83258,0.54381
491.34279,0.52912
489.85300,0.52935
488.36321,0.41304
486.87343,0.42946
485.38364,0.44591
483.89385,0.31482
482.40406,0.27553
480.91427,0.28216
479.42448,0.28883
477.93469,0.24716
476.44491,0.18073
474.95512,0.15898
473.46533,0.13725
471.97554,0.07588
470.48575,0.01951
468.99596,0.08366
467.50618,0.05112
466.01639,0.01862
464.52660,0.00351
463.03681,0.02890
461.54702,0.04069
460.05723,0.05250
458.56745,0.10776
457.07766,0.12584
455.58787,0.10552
454.09808,0.08523
452.60829,0.23983
451.11850,0.20597
449.62871,0.22794
448.13893,0.24995
446.64914,0.24099
445.15935,0.49001
443.66956,0.44143
442.17977,0.45738
440.68998,0.47336
439.20020,0.56378
437.71041,0.69143
436.22062,0.69883
434.73083,0.70627
433.24104,1.00020
431.75125,0.90973
430.26146,0.96067
428.77168,1.01164
427.28189,1.11722
425.79210,1.26994
424.30231,1.22801
422.81252,1.18611
421.32273,1.04132
419.83295,0.95609
418.34316,0.92421
416.85337,0.89237
415.36358,0.91389
413.87379,0.72462
412.38400,0.67924
410.89422,0.63389
409.40443,0.63819
407.91464,0.53338
406.42485,0.53278
404.93506,0.53841
403.44527,0.54408
401.95548,0.42453
400.46570,0.43151
398.97591,0.46084
397.48612,0.49020
395.99633,0.52952
394.50654,0.42503
393.01675,0.38877
391.52697,0.35254
390.03718,0.52345
388.54739,0.43149
387.05760,0.44621
385.56781,0.46096
384.07802,0.54024
382.58824,0.36657
381.09845,0.36778
379.60866,0.36903
378.11887,0.28227
376.62908,0.23522
375.13929,0.19689
373.64950,0.15860
372.15972,0.33983
370.66993,0.41941
369.18014,0.33161
367.69035,0.24385
366.20056,0.20200
364.71077,0.26931
363.22099,0.26350
361.73120,0.25771
360.24141,0.07959
358.75162,0.15780
357.26183,0.13559
355.77204,0.11342
354.28225,0.12228
352.79247,0.11382
351.30268,0.13143
349.81289,0.14907
348.32310,0.12831
346.83331,0.11254
345.34352,0.10673
343.85374,0.10095
342.36395,0.12742
340.87416,0.23082
339.38437,0.16435
337.89458,0.09792
336.40479,0.18157
334.91501,0.08917
333.42522,0.09724
331.93543,0.10535
330.44564,0.18170
328.95585,0.28289
327.46606,0.20553
325.97627,0.12821
324.48649,0.16990
322.99670,0.13226
321.50691,0.14302
320.01712,0.15381
318.52733,0.18820
317.03754,0.23254
315.54776,0.14671
314.05797,0.06091
312.56818,0.02847
311.07839,0.07797
309.58860,0.06055
308.09881,0.04315
306.60902,0.19693
305.11924,0.00351
303.62945,0.06922
302.13966,0.11839
300.64987,0.04233
299.16008,0.00351
