1778.52000,0.10578
1777.03021,0.07216
1775.54042,0.00884
1774.05063,0.13211
1772.56085,0.02019
1771.07106,0.13002
1769.58127,0.04791
1768.09148,0.11185
1766.60169,0.00278
1765.11190,0.08301
1763.62212,0.09568
1762.13233,0.04891
1760.64254,0.02110
1759.15275,0.12040
1757.66296,0.11700
1756.17317,0.02712
1754.68339,0.11842
1753.19360,0.01509
1751.70381,0.04428
1750.21402,0.11947
1748.72423,0.07032
1747.23444,0.05906
1745.74465,0.04784
1744.25487,0.02314
1742.76508,0.07959
1741.27529,0.04955
1739.78550,0.11689
1738.29571,0.11937
1736.80592,0.06241
1735.31614,0.00278
1733.82635,0.05913
1732.33656,0.04522
1730.84677,0.08002
1729.35698,0.00670
1727.86719,0.09023
1726.37740,0.05214
1724.88762,0.06815
1723.39783,0.04635
1721.90804,0.04622
1720.41825,0.04882
1718.92846,0.07851
1717.43867,0.00278
1715.94889,0.07505
1714.45910,0.06354
1712.96931,0.09263
1711.47952,0.13527
1709.98973,0.14280
1708.49994,0.07466
1707.01016,0.17284
1705.52037,0.27106
1704.03058,0.18140
1702.54079,0.15126
1701.05100,0.19145
1699.56121,0.19653
1698.07142,0.18814
1696.58164,0.20411
1695.09185,0.20119
1693.60206,0.26320
1692.11227,0.15490
1690.62248,0.25213
1689.13269,0.23044
1687.64291,0.26555
1686.15312,0.24122
1684.66333,0.18449
1683.17354,0.26838
1681.68375,0.22794
1680.19396,0.31191
1678.70417,0.26613
1677.21439,0.31233
1675.72460,0.26392
1674.23481,0.25881
1672.74502,0.23481
1671.25523,0.19733
1669.76544,0.32752
1668.27566,0.22792
1666.78587,0.26356
1665.29608,0.22622
1663.80629,0.30789
1662.31650,0.33282
1660.82671,0.27667
1659.33693,0.21785
1657.84714,0.16718
1656.35735,0.12736
1654.86756,0.18762
1653.37777,0.19113
1651.88798,0.17306
1650.39819,0.16854
1648.90841,0.21542
1647.41862,0.16230
1645.92883,0.19304
1644.43904,0.22382
1642.94925,0.27355
1641.45946,0.25033
1639.96968,0.18117
1638.47989,0.23102
1636.99010,0.16734
1635.50031,0.20644
1634.01052,0.16177
1632.52073,0.26043
1631.03094,0.18068
1629.54116,0.16856
1628.05137,0.23489
1626.56158,0.29314
1625.07179,0.24868
1623.58200,0.27456
1622.09221,0.38700
1620.60243,0.15610
1619.11264,0.20912
1617.62285,0.21622
1616.13306,0.25310
1614.64327,0.20890
1613.15348,0.21341
1611.66370,0.24770
1610.17391,0.20902
1608.68412,0.23256
1607.19433,0.16691
1605.70454,0.12293
1604.21475,0.19255
1602.72496,0.26221
1601.23518,0.18589
1599.74539,0.16099
1598.25560,0.22534
1596.76581,0.21674
1595.27602,0.13516
1593.78623,0.15096
1592.29645,0.11272
1590.80666,0.19348
1589.31687,0.10394
1587.82708,0.14692
1586.33729,0.13316
1584.84750,0.12215
1583.35771,0.21391
1581.86793,0.11644
1580.37814,0.14609
1578.88835,0.10277
1577.39856,0.04597
1575.90877,0.09736
1574.41898,0.00278
1572.92920,0.11849
1571.43941,0.13420
1569.94962,0.13102
1568.45983,0.12787
1566.97004,0.15451
1565.48025,0.10006
1563.99047,0.18626
1562.50068,0.11837
1561.01089,0.12352
1559.52110,0.06382
1558.03131,0.12041
1556.54152,0.09593
1555.05173,0.19857
1553.56195,0.18227
1552.07216,0.17682
1550.58237,0.12816
1549.09258,0.07412
1547.60279,0.04715
1546.11300,0.10945
1544.62322,0.15827
1543.13343,0.11248
1541.64364,0.15596
1540.15385,0.12918
1538.66406,0.10244
1537.17427,0.11629
1535.68448,0.01391
1534.19470,0.22791
1532.70491,0.04179
1531.21512,0.05579
1529.72533,0.05901
1528.23554,0.00278
1526.74575,0.13574
1525.25597,0.12003
1523.76618,0.13409
1522.27639,0.13197
1520.78660,0.07852
1519.29681,0.04673
1517.80702,0.06365
1516.31724,0.10493
1514.82745,0.12192
1513.33766,0.13219
1511.84787,0.14250
1510.35808,0.00278
1508.86829,0.06693
1507.37850,0.09056
1505.88872,0.04123
1504.39893,0.09197
1502.90914,0.07246
1501.41935,0.06920
1499.92956,0.13087
1498.43977,0.06279
1496.94999,0.22187
1495.46020,0.24039
1493.97041,0.31573
1492.48062,0.35595
1490.99083,0.40703
1489.50104,0.34458
1488.01125,0.45250
1486.52147,0.56047
1485.03168,0.68740
1483.54189,0.76569
1482.05210,0.84943
1480.56231,0.95484
1479.07252,1.03325
1477.58274,1.26310
1476.09295,1.27940
1474.60316,1.26058
1473.11337,1.46891
1471.62358,1.41772
1470.13379,1.49634
1468.64401,1.31544
1467.15422,1.30762
1465.66443,1.29307
1464.17464,1.27857
1462.68485,1.18704
1461.19506,1.14962
1459.70527,1.00409
1458.21549,1.02623
1456.72570,0.79695
1455.23591,0.86783
1453.74612,0.74678
1452.25633,0.67984
1450.76654,0.74813
1449.27676,0.67856
1447.78697,0.61173
1446.29718,0.56387
1444.80739,0.52821
1443.31760,0.49258
1441.82781,0.46105
1440.33802,0.39981
1438.84824,0.34402
1437.35845,0.29367
1435.86866,0.30014
1434.37887,0.26067
1432.88908,0.32400
1431.39929,0.30624
1429.90951,0.33719
1428.41972,0.41954
1426.92993,0.34782
1425.44014,0.41403
1423.95035,0.39646
1422.46056,0.37892
1420.97078,0.39657
1419.48099,0.37911
1417.99120,0.28056
1416.50141,0.45785
1415.01162,0.43238
1413.52183,0.38803
1412.03204,0.44916
1410.54226,0.42651
1409.05247,0.45527
1407.56268,0.44080
1406.07289,0.43989
1404.58310,0.37277
1403.09331,0.30570
1401.60353,0.42116
1400.11374,0.43121
1398.62395,0.54945
1397.13416,0.59743
1395.64437,0.59677
1394.15458,0.63401
1392.66479,0.73617
1391.17501,0.78160
1389.68522,0.64049
1388.19543,0.55080
1386.70564,0.55036
1385.21585,0.54997
1383.72606,0.57664
1382.23628,0.59525
1380.74649,0.50033
1379.25670,0.59471
1377.76691,0.63235
1376.27712,0.65651
1374.78733,0.59688
1373.29755,0.71304
1371.80776,0.87791
1370.31797,1.05633
1368.82818,1.06986
1367.33839,1.08342
1365.84860,1.32144
1364.35881,1.57571
1362.86903,1.71376
1361.37924,1.84914
1359.88945,1.92237
1358.39966,1.95778
1356.90987,1.96890
1355.42008,1.95842
1353.93030,1.95879
1352.44051,1.94027
1350.95072,1.92179
1349.46093,1.61134
1347.97114,1.44423
1346.48135,1.20685
1344.99156,1.21285
1343.50178,0.97284
1342.01199,0.97351
1340.52220,0.79306
1339.03241,0.93440
1337.54262,0.68102
1336.05283,0.76159
1334.56305,0.84221
1333.07326,0.55919
1331.58347,0.73046
1330.09368,0.60704
1328.60389,0.59452
1327.11410,0.61448
1325.62432,0.56418
1324.13453,0.54095
1322.64474,0.52587
1321.15495,0.54869
1319.66516,0.51340
1318.17537,0.47815
1316.68558,0.44970
1315.19580,0.35910
1313.70601,0.29557
1312.21622,0.41324
1310.72643,0.34167
1309.23664,0.35667
1307.74685,0.39333
1306.25707,0.31917
1304.76728,0.33562
1303.27749,0.35212
1301.78770,0.32403
1300.29791,0.37169
1298.80812,0.27879
1297.31834,0.21296
1295.82855,0.32292
1294.33876,0.46265
1292.84897,0.32664
1291.35918,0.33126
1289.86939,0.36971
1288.37960,0.40820
1286.88982,0.34803
1285.40003,0.40958
1283.91024,0.52524
1282.42045,0.53278
1280.93066,0.34839
1279.44087,0.47227
1277.95109,0.47181
1276.46130,0.48220
1274.97151,0.48452
1273.48172,0.48687
1271.99193,0.42978
1270.50214,0.50521
1269.01235,0.56986
1267.52257,0.56425
1266.03278,0.65872
1264.54299,0.73159
1263.05320,0.54223
1261.56341,0.59220
1260.07362,0.64220
1258.58384,0.68548
1257.09405,0.67472
1255.60426,0.64777
1254.11447,0.77768
1252.62468,0.71836
1251.13489,0.70234
1249.64511,0.64039
1248.15532,0.55685
1246.66553,0.52742
1245.17574,0.49802
1243.68595,0.41189
1242.19616,0.37716
1240.70637,0.44792
1239.21659,0.44030
1237.72680,0.31645
1236.23701,0.22780
1234.74722,0.15540
1233.25743,0.19119
1231.76764,0.22702
1230.27786,0.27370
1228.78807,0.23659
1227.29828,0.15897
1225.80849,0.12735
1224.31870,0.29585
1222.82891,0.15074
1221.33912,0.16520
1219.84934,0.16752
1218.35955,0.16988
1216.86976,0.22230
1215.37997,0.27475
1213.89018,0.25694
1212.40039,0.16346
1210.91061,0.24577
1209.42082,0.22537
1207.93103,0.20500
1206.44124,0.18467
1204.95145,0.01838
1203.46166,0.12790
1201.97188,0.04279
1200.48209,0.20917
1198.99230,0.20255
1197.50251,0.14729
1196.01272,0.10559
1194.52293,0.09907
1193.03314,0.09259
1191.54336,0.09156
1190.05357,0.09056
1188.56378,0.05445
1187.07399,0.03460
1185.58420,0.03641
1184.09441,0.04637
1182.60463,0.06719
1181.11484,0.08804
1179.62505,0.04133
1178.13526,0.00278
1176.64547,0.06201
1175.15568,0.06991
1173.66589,0.22385
1172.17611,0.07771
1170.68632,0.09653
1169.19653,0.11539
1167.70674,0.06399
1166.21695,0.16134
1164.72716,0.11001
1163.23738,0.05872
1161.74759,0.10480
1160.25780,0.08332
1158.76801,0.04972
1157.27822,0.01615
1155.78843,0.07319
1154.29865,0.12757
1152.80886,0.03598
1151.31907,0.01472
1149.82928,0.13140
1148.33949,0.18052
1146.84970,0.13368
1145.35991,0.08689
1143.87013,0.05500
1142.38034,0.04478
1140.89055,0.21845
1139.40076,0.25698
1137.91097,0.35772
1136.42118,0.32872
1134.93140,0.34032
1133.44161,0.35195
1131.95182,0.50421
1130.46203,0.42669
1128.97224,0.53577
1127.48245,0.47454
1125.99266,0.48095
1124.50288,0.55498
1123.01309,0.60878
1121.52330,0.66261
1120.03351,0.67187
1118.54372,0.68116
1117.05393,0.69319
1115.56415,0.71608
1114.07436,0.70926
1112.58457,0.70924
1111.09478,0.70925
1109.60499,0.71336
1108.11520,0.77158
1106.62542,0.76494
1105.13563,0.80971
1103.64584,1.07894
1102.15605,1.10486
1100.66626,1.13081
1099.17647,1.15681
1097.68668,1.06387
1096.19690,1.16564
1094.70711,1.37290
1093.21732,1.29629
1091.72753,1.36303
1090.23774,1.36355
1088.74795,1.36412
1087.25817,1.43096
1085.76838,1.43565
1084.27859,1.56476
1082.78880,1.64793
1081.29901,1.65003
1079.80922,1.73869
1078.31943,1.78548
1076.82965,1.83230
1075.33986,1.72909
1073.85007,1.62593
1072.36028,1.95811
1070.87049,1.80906
1069.38070,1.91690
1067.89092,1.95177
1066.40113,1.98668
1064.91134,2.00000
1063.42155,1.78353
1061.93176,1.79422
1060.44197,1.63730
1058.95219,1.54262
1057.46240,1.44121
1055.97261,1.33983
1054.48282,1.39937
1052.99303,1.18857
1051.50324,1.23196
1050.01345,1.12938
1048.52367,0.98087
1047.03388,1.02032
1045.54409,1.05980
1044.05430,0.83569
1042.56451,0.84956
1041.07472,0.79587
1039.58494,0.77737
1038.09515,0.62100
1036.60536,0.59446
1035.11557,0.56796
1033.62578,0.47660
1032.13599,0.41501
1030.64620,0.50218
1029.15642,0.47582
1027.66663,0.46031
1026.17684,0.44484
1024.68705,0.48619
1023.19726,0.63032
1021.70747,0.70148
1020.21769,0.87001
1018.72790,1.00073
1017.23811,1.13825
1015.74832,1.27580
1014.25853,1.24169
1012.76874,1.49423
1011.27896,1.68462
1009.78917,1.67225
1008.29938,1.76537
1006.80959,1.77336
1005.31980,1.78139
1003.83001,1.52313
1002.34022,1.63532
1000.85044,1.51773
999.36065,1.37855
997.87086,1.33673
996.38107,1.29496
994.89128,1.26674
993.40149,1.39538
991.91171,1.36723
990.42192,1.36616
988.93213,1.28131
987.44234,1.25868
985.95255,1.23609
984.46276,1.21894
982.97297,1.28565
981.48319,1.10094
979.99340,1.16502
978.50361,1.10611
977.01382,1.04724
975.52403,1.10061
974.03424,1.01072
972.54446,0.89653
971.05467,0.87430
969.56488,0.89808
968.07509,0.83943
966.58530,0.78081
965.09551,0.72899
963.60573,0.80970
962.11594,0.89314
960.62615,0.73328
959.13636,0.74514
957.64657,0.75705
956.15678,0.63244
954.66699,0.59981
953.17721,0.47798
951.68742,0.68336
950.19763,0.66976
948.70784,0.65619
947.21805,0.63726
945.72826,0.68866
944.23848,0.68873
942.74869,0.64016
941.25890,0.80523
939.76911,0.80271
938.27932,0.80022
936.78953,0.83291
935.29974,0.88187
933.80996,0.91734
932.32017,0.99070
930.83038,1.01543
929.34059,1.04020
927.85080,1.06771
926.36101,0.85461
924.87123,0.99035
923.38144,0.94226
921.89165,1.03345
920.40186,1.12468
918.91207,1.13349
917.42228,0.97198
915.93250,1.05116
914.44271,1.20607
912.95292,1.25693
911.46313,1.30782
909.97334,1.16003
908.48355,1.25290
906.99376,1.40800
905.50398,1.26031
904.01419,1.25867
902.52440,1.25706
901.03461,1.47179
899.54482,1.47836
898.05503,1.46875
896.56525,1.49162
895.07546,1.50506
893.58567,1.51854
892.09588,1.48475
890.60609,1.51587
889.11630,1.50648
887.62651,1.25649
886.13673,1.32153
884.64694,1.38660
883.15715,1.42061
881.66736,1.52767
880.17757,1.38601
878.68778,1.39851
877.19800,1.41104
875.70821,1.47228
874.21842,1.40107
872.72863,1.45427
871.23884,1.45343
869.74905,1.41882
868.25927,1.38426
866.76948,1.51872
865.27969,1.52073
863.78990,1.60660
862.30011,1.55461
860.81032,1.53374
859.32053,1.51292
857.83075,1.38263
856.34096,1.44975
854.85117,1.33034
853.36138,1.19746
851.87159,1.11057
850.38180,1.02373
848.89202,0.87202
847.40223,0.82040
845.91244,0.66607
844.42265,0.66318
842.93286,0.66034
841.44307,0.59534
839.95329,0.50875
838.46350,0.54386
836.97371,0.39786
835.48392,0.36951
833.99413,0.34120
832.50434,0.40080
831.01455,0.41987
829.52477,0.50658
828.03498,0.42840
826.54519,0.43001
825.05540,0.43166
823.56561,0.32384
822.07582,0.35666
820.58604,0.28677
819.09625,0.26558
817.60646,0.24443
816.11667,0.17735
814.62688,0.06435
813.13709,0.04601
811.64730,0.04934
810.15752,0.05947
808.66773,0.06963
807.17794,0.00278
805.68815,0.09529
804.19836,0.07699
802.70857,0.16417
801.21879,0.25139
799.72900,0.09259
798.23921,0.31237
796.74942,0.28344
795.25963,0.38297
793.76984,0.48254
792.28006,0.59431
790.79027,0.64123
789.30048,0.72333
787.81069,0.68921
786.32090,0.74164
784.83111,0.79411
783.34132,0.73847
781.85154,0.71801
780.36175,0.79763
778.87196,0.79077
777.38217,0.78394
775.89238,1.03942
774.40259,1.02455
772.91281,0.94753
771.42302,0.99628
769.93323,1.04506
768.44344,1.02494
766.95365,1.02918
765.46386,0.95235
763.97407,0.90799
762.48429,0.86233
760.99450,0.81670
759.50471,0.74271
758.01492,0.58225
756.52513,0.58675
755.03534,0.51558
753.54556,0.44445
752.05577,0.37876
750.56598,0.23740
749.07619,0.17178
747.58640,0.15487
746.09661,0.13800
744.60683,0.17794
743.11704,0.08273
741.62725,0.05786
740.13746,0.09386
738.64767,0.12989
737.15788,0.04835
735.66809,0.03984
734.17831,0.13412
732.68852,0.09054
731.19873,0.04699
729.70894,0.03052
728.21915,0.10061
726.72936,0.13289
725.23958,0.24360
723.74979,0.22863
722.26000,0.21370
720.77021,0.00278
719.28042,0.08867
717.79063,0.00426
716.30084,0.02128
714.81106,0.03834
713.32127,0.00000
711.83148,0.15002
710.34169,0.03240
708.85190,0.10003
707.36211,0.16769
705.87233,0.10426
704.38254,0.15172
702.89275,0.25599
701.40296,0.23999
699.91317,0.22402
698.42338,0.13373
696.93360,0.26519
695.44381,0.24257
693.95402,0.27947
692.46423,0.31641
690.97444,0.28849
689.48465,0.32820
687.99486,0.48963
686.50508,0.48480
685.01529,0.48001
683.52550,0.47932
682.03571,0.51651
680.54592,0.44018
679.05613,0.42067
677.56635,0.40119
676.07656,0.41420
674.58677,0.33261
673.09698,0.24565
671.60719,0.22903
670.11740,0.21244
668.62761,0.22292
667.13783,0.16855
665.64804,0.22102
664.15825,0.27353
662.66846,0.24901
661.17867,0.18127
659.68888,0.18927
658.19910,0.22570
656.70931,0.26217
655.21952,0.17294
653.72973,0.17839
652.23994,0.24065
650.75015,0.26104
649.26037,0.28147
647.77058,0.31140
646.28079,0.24943
644.79100,0.22806
643.30121,0.20131
641.81142,0.17461
640.32163,0.23175
638.83185,0.25649
637.34206,0.00278
635.85227,0.03591
634.36248,0.06909
632.87269,0.11852
631.38290,0.07336
629.89312,0.20939
628.40333,0.16430
626.91354,0.11924
625.42375,0.11208
623.93396,0.17255
622.44417,0.17763
620.95438,0.18274
619.46460,0.02431
617.97481,0.11467
616.48502,0.16451
614.99523,0.14814
613.50544,0.13180
612.01565,0.09523
610.52587,0.16955
609.03608,0.19253
607.54629,0.16688
606.05650,0.14127
604.56671,0.31848
603.07692,0.17938
601.58714,0.21066
600.09735,0.24197
598.60756,0.18680
597.11777,0.10463
595.62798,0.21987
594.13819,0.18644
592.64840,0.15304
591.15862,0.22513
589.66883,0.13233
588.17904,0.21261
586.68925,0.19964
585.19946,0.18670
583.70967,0.11297
582.21989,0.20421
580.73010,0.18733
579.24031,0.17049
577.75052,0.11313
576.26073,0.24507
574.77094,0.29864
573.28115,0.29952
571.79137,0.30044
570.30158,0.25948
568.81179,0.33212
567.32200,0.35478
565.83221,0.37748
564.34242,0.49619
562.85264,0.47976
561.36285,0.53095
559.87306,0.51999
558.38327,0.50907
556.89348,0.68475
555.40369,0.58738
553.91391,0.59415
552.42412,0.60095
550.93433,0.80922
549.44454,0.64982
547.95475,0.86627
546.46496,0.80292
544.97517,0.73961
543.48539,0.95347
541.99560,0.89969
540.50581,0.92842
539.01602,0.95718
537.52623,0.74940
536.03644,0.87422
534.54666,0.91796
533.05687,0.93876
531.56708,0.95959
530.07729,0.87366
528.58750,0.72558
527.09771,0.72625
525.60792,0.72695
524.11814,0.73039
522.62835,0.95288
521.13856,0.76172
519.64877,0.77744
518.15898,0.79320
516.66919,0.67516
515.17941,0.63285
513.68962,0.74741
512.19983,0.86200
510.71004,0.73599
509.22025,0.71817
507.73046,0.68687
506.24068,0.68264
504.75089,0.67845
503.26110,0.66618
501.77131,0.84052
500.28152,0.78101
498.79173,0.72154
497.30194,0.63100
495.81216,0.63514
494.32237,0.68934
492.83258,0.74358
491.34279,0.90465
489.85300,0.72237
488.36321,0.65910
486.87343,0.59046
485.38364,0.52185
483.89385,0.56684
482.40406,0.46586
480.91427,0.38655
479.42448,0.30728
477.93469,0.25508
476.44491,0.26510
474.95512,0.17107
473.46533,0.07707
471.97554,0.21699
470.48575,0.14875
468.99596,0.16977
467.50618,0.19218
466.01639,0.21463
464.52660,0.03027
463.03681,0.00278
461.54702,0.07926
460.05723,0.15579
458.56745,0.25263
457.07766,0.19268
455.58787,0.20308
454.09808,0.21350
452.60829,0.47813
451.11850,0.33992
449.62871,0.26664
448.13893,0.19340
446.64914,0.33650
445.15935,0.50667
443.66956,0.50383
442.17977,0.64975
440.68998,0.79569
439.20020,0.79027
437.71041,0.83625
436.22062,1.04179
434.73083,1.24737
433.24104,1.24479
431.75125,1.47208
430.26146,1.50066
428.77168,1.52929
427.28189,1.55931
425.79210,1.70292
424.30231,1.59376
422.81252,1.48464
421.32273,1.54184
419.83295,1.43415
418.34316,1.30756
416.85337,1.18101
415.36358,1.09506
413.87379,1.04158
412.38400,0.95706
410.89422,0.87256
409.40443,0.86517
407.91464,0.88484
406.42485,0.79911
404.93506,0.79317
403.44527,0.78727
401.95548,0.83413
400.46570,0.77288
398.97591,0.75898
397.48612,0.74512
395.99633,0.62990
394.50654,0.70398
393.01675,0.65508
391.52697,0.60621
390.03718,0.53710
388.54739,0.55996
387.05760,0.71399
385.56781,0.86805
384.07802,0.75313
382.58824,0.54631
381.09845,0.52068
379.60866,0.49509
378.11887,0.56958
376.62908,0.39265
375.13929,0.35635
373.64950,0.32009
372.15972,0.40554
370.66993,0.47751
369.18014,0.43054
367.69035,0.38362
366.20056,0.24480
364.71077,0.16279
363.22099,0.22953
361.73120,0.29631
360.24141,0.21171
358.75162,0.41105
357.26183,0.36303
355.77204,0.31504
354.28225,0.10351
352.79247,0.14077
351.30268,0.20105
349.81289,0.26136
348.32310,0.23113
346.83331,0.21987
345.34352,0.11131
343.85374,0.00278
342.36395,0.21449
340.87416,0.17479
339.38437,0.15811
337.89458,0.14147
336.40479,0.22084
334.91501,0.15425
333.42522,0.21342
331.93543,0.27263
330.44564,0.24400
328.95585,0.33167
327.46606,0.23552
325.97627,0.13941
324.48649,0.00278
322.99670,0.12857
321.50691,0.14759
320.01712,0.16666
318.52733,0.11140
317.03754,0.23463
315.54776,0.12402
314.05797,0.01345
312.56818,0.08001
311.07839,0.08172
309.58860,0.08887
308.09881,0.09606
306.60902,0.23037
305.11924,0.22681
303.62945,0.14759
302.13966,0.06841
300.64987,0.00278
299.16008,0.00278
