1778.52000,0.07788
1777.03021,0.06104
1775.54042,0.14165
1774.05063,0.06225
1772.56085,0.06779
1771.07106,0.08310
1769.58127,0.06505
1768.09148,0.05400
1766.60169,0.04020
1765.11190,0.00417
1763.62212,0.04750
1762.13233,0.08530
1760.64254,0.06469
1759.15275,0.08726
1757.66296,0.05141
1756.17317,0.07127
1754.68339,0.08560
1753.19360,0.03734
1751.70381,0.02252
1750.21402,0.03835
1748.72423,0.05282
1747.23444,0.07847
1745.74465,0.07214
1744.25487,0.08395
1742.76508,0.03038
1741.27529,0.07566
1739.78550,0.04860
1738.29571,0.04942
1736.80592,0.06280
1735.31614,0.06509
1733.82635,0.07158
1732.33656,0.02384
1730.84677,0.04711
1729.35698,0.09129
1727.86719,0.03113
1726.37740,0.00998
1724.88762,0.00417
1723.39783,0.02959
1721.90804,0.02861
1720.41825,0.03462
1718.92846,0.04207
1717.43867,0.07738
1715.94889,0.02088
1714.45910,0.05905
1712.96931,0.03324
1711.47952,0.08122
1709.98973,0.05966
1708.49994,0.10215
1707.01016,0.07788
1705.52037,0.05365
1704.03058,0.08929
1702.54079,0.08879
1701.05100,0.10920
1699.56121,0.09486
1698.07142,0.15848
1696.58164,0.17065
1695.09185,0.15363
1693.60206,0.09769
1692.11227,0.11832
1690.62248,0.18491
1689.13269,0.20144
1687.64291,0.17765
1686.15312,0.23879
1684.66333,0.18585
1683.17354,0.18722
1681.68375,0.22620
1680.19396,0.20538
1678.70417,0.21382
1677.21439,0.15828
1675.72460,0.20158
1674.23481,0.15168
1672.74502,0.20202
1671.25523,0.21482
1669.76544,0.16224
1668.27566,0.23356
1666.78587,0.20055
1665.29608,0.16201
1663.80629,0.17916
1662.31650,0.21584
1660.82671,0.18854
1659.33693,0.15432
1657.84714,0.10900
1656.35735,0.13052
1654.86756,0.14512
1653.37777,0.17088
1651.88798,0.17442
1650.39819,0.12929
1648.90841,0.13847
1647.41862,0.10732
1645.92883,0.11936
1644.43904,0.13143
1642.94925,0.21173
1641.45946,0.20022
1639.96968,0.10385
1638.47989,0.14947
1636.99010,0.11580
1635.50031,0.11140
1634.01052,0.12094
1632.52073,0.15697
1631.03094,0.16380
1629.54116,0.16233
1628.05137,0.17898
1626.56158,0.23046
1625.07179,0.17761
1623.58200,0.22638
1622.09221,0.16525
1620.60243,0.14312
1619.11264,0.19896
1617.62285,0.16855
1616.13306,0.17437
1614.64327,0.12873
1613.15348,0.17359
1611.66370,0.16003
1610.17391,0.20774
1608.68412,0.19147
1607.19433,0.16133
1605.70454,0.17018
1604.21475,0.15820
1602.72496,0.14626
1601.23518,0.12879
1599.74539,0.21572
1598.25560,0.16910
1596.76581,0.10581
1595.27602,0.11632
1593.78623,0.13939
1592.29645,0.07761
1590.80666,0.04508
1589.31687,0.12254
1587.82708,0.12209
1586.33729,0.13143
1584.84750,0.13245
1583.35771,0.12099
1581.86793,0.11791
1580.37814,0.09957
1578.88835,0.06873
1577.39856,0.16039
1575.90877,0.02804
1574.41898,0.06134
1572.92920,0.05570
1571.43941,0.00417
1569.94962,0.01637
1568.45983,0.02861
1566.97004,0.05480
1565.48025,0.03510
1563.99047,0.08363
1562.50068,0.08071
1561.01089,0.03607
1559.52110,0.05132
1558.03131,0.11252
1556.54152,0.07634
1555.05173,0.12927
1553.56195,0.07369
1552.07216,0.04180
1550.58237,0.04752
1549.09258,0.03936
1547.60279,0.02011
1546.11300,0.09274
1544.62322,0.10000
1543.13343,0.09199
1541.64364,0.04366
1540.15385,0.02390
1538.66406,0.00417
1537.17427,0.03351
1535.68448,0.05453
1534.19470,0.05611
1532.70491,0.02572
1531.21512,0.04268
1529.72533,0.04297
1528.23554,0.04470
1526.74575,0.09517
1525.25597,0.05105
1523.76618,0.00000
1522.27639,0.00048
1520.78660,0.04275
1519.29681,0.01408
1517.80702,0.07173
1516.31724,0.00417
1514.82745,0.09273
1513.33766,0.08460
1511.84787,0.07651
1510.35808,0.05524
1508.86829,0.05488
1507.37850,0.08239
1505.88872,0.00417
1504.39893,0.05562
1502.90914,0.06953
1501.41935,0.02920
1499.92956,0.08911
1498.43977,0.06139
1496.94999,0.13111
1495.46020,0.18974
1493.97041,0.27902
1492.48062,0.24309
1490.99083,0.33384
1489.50104,0.48724
1488.01125,0.51474
1486.52147,0.54228
1485.03168,0.64570
1483.54189,0.69210
1482.05210,0.68982
1480.56231,0.87268
1479.07252,1.08200
1477.58274,1.16891
1476.09295,1.27255
1474.60316,1.32334
1473.11337,1.42149
1471.62358,1.44035
1470.13379,1.46064
1468.64401,1.28753
1467.15422,1.13812
1465.66443,1.17313
1464.17464,1.20818
1462.68485,1.17578
1461.19506,1.12671
1459.70527,1.10412
1458.21549,0.98971
1456.72570,0.91014
1455.23591,0.82782
1453.74612,0.72466
1452.25633,0.76488
1450.76654,0.62005
1449.27676,0.74244
1447.78697,0.66309
1446.29718,0.56012
1444.80739,0.49475
1443.31760,0.42943
1441.82781,0.34466
1440.33802,0.33925
1438.84824,0.36309
1437.35845,0.21025
1435.86866,0.31766
1434.37887,0.39868
1432.88908,0.26125
1431.39929,0.23936
1429.90951,0.27317
1428.41972,0.29310
1426.92993,0.27689
1425.44014,0.36509
1423.95035,0.41018
1422.46056,0.45531
1420.97078,0.40028
1419.48099,0.36894
1417.99120,0.38357
1416.50141,0.42328
1415.01162,0.37118
1413.52183,0.35530
1412.03204,0.44383
1410.54226,0.39462
1409.05247,0.40251
1407.56268,0.40765
1406.07289,0.47406
1404.58310,0.44449
1403.09331,0.41495
1401.60353,0.40215
1400.11374,0.50906
1398.62395,0.46293
1397.13416,0.51843
1395.64437,0.59902
1394.15458,0.63650
1392.66479,0.62114
1391.17501,0.61555
1389.68522,0.60026
1388.19543,0.60588
1386.70564,0.59693
1385.21585,0.58801
1383.72606,0.67585
1382.23628,0.66770
1380.74649,0.59141
1379.25670,0.64874
1377.76691,0.66993
1376.27712,0.68559
1374.78733,0.71102
1373.29755,0.81999
1371.80776,0.90673
1370.31797,1.12433
1368.82818,1.12834
1367.33839,1.13239
1365.84860,1.36957
1364.35881,1.53443
1362.86903,1.75081
1361.37924,1.87539
1359.88945,2.00000
1358.39966,1.97296
1356.90987,1.93483
1355.42008,1.93152
1353.93030,1.93382
1352.44051,1.87005
1350.95072,1.80632
1349.46093,1.74749
1347.97114,1.48970
1346.48135,1.31127
1344.99156,1.22473
1343.50178,1.07838
1342.01199,0.99887
1340.52220,0.87764
1339.03241,0.78707
1337.54262,0.81760
1336.05283,0.79042
1334.56305,0.76328
1333.07326,0.70208
1331.58347,0.65066
1330.09368,0.62015
1328.60389,0.58411
1327.11410,0.54532
1325.62432,0.52048
1324.13453,0.46089
1322.64474,0.50571
1321.15495,0.56031
1319.66516,0.51197
1318.17537,0.46366
1316.68558,0.50028
1315.19580,0.41586
1313.70601,0.38437
1312.21622,0.35291
1310.72643,0.38689
1309.23664,0.37638
1307.74685,0.39513
1306.25707,0.35129
1304.76728,0.36316
1303.27749,0.37506
1301.78770,0.30071
1300.29791,0.32382
1298.80812,0.38037
1297.31834,0.41886
1295.82855,0.34745
1294.33876,0.37209
1292.84897,0.30215
1291.35918,0.41315
1289.86939,0.38851
1288.37960,0.36390
1286.88982,0.37621
1285.40003,0.43030
1283.91024,0.42598
1282.42045,0.56643
1280.93066,0.50791
1279.44087,0.54963
1277.95109,0.41882
1276.46130,0.48288
1274.97151,0.44886
1273.48172,0.41488
1271.99193,0.48462
1270.50214,0.51820
1269.01235,0.60054
1267.52257,0.60915
1266.03278,0.63450
1264.54299,0.72946
1263.05320,0.70618
1261.56341,0.64258
1260.07362,0.57901
1258.58384,0.64629
1257.09405,0.70944
1255.60426,0.69886
1254.11447,0.67998
1252.62468,0.66948
1251.13489,0.65345
1249.64511,0.63745
1248.15532,0.59923
1246.66553,0.59236
1245.17574,0.58552
1243.68595,0.45835
1242.19616,0.44671
1240.70637,0.49078
1239.21659,0.38181
1237.72680,0.30627
1236.23701,0.28365
1234.74722,0.32926
1233.25743,0.29837
1231.76764,0.26751
1230.27786,0.32436
1228.78807,0.34367
1227.29828,0.34076
1225.80849,0.17645
1224.31870,0.11517
1222.82891,0.16942
1221.33912,0.20701
1219.84934,0.22098
1218.35955,0.23498
1216.86976,0.26851
1215.37997,0.30207
1213.89018,0.25635
1212.40039,0.21762
1210.91061,0.16641
1209.42082,0.20986
1207.93103,0.20743
1206.44124,0.20503
1204.95145,0.13726
1203.46166,0.09597
1201.97188,0.17440
1200.48209,0.15128
1198.99230,0.13375
1197.50251,0.12323
1196.01272,0.15449
1194.52293,0.12038
1193.03314,0.08631
1191.54336,0.05366
1190.05357,0.10038
1188.56378,0.09564
1187.07399,0.08259
1185.58420,0.00417
1184.09441,0.10022
1182.60463,0.11490
1181.11484,0.12961
1179.62505,0.10610
1178.13526,0.06035
1176.64547,0.10788
1175.15568,0.09421
1173.66589,0.13068
1172.17611,0.10039
1170.68632,0.08753
1169.19653,0.07471
1167.70674,0.00417
1166.21695,0.07097
1164.72716,0.08770
1163.23738,0.12952
1161.74759,0.07814
1160.25780,0.10612
1158.76801,0.12161
1157.27822,0.13713
1155.78843,0.05389
1154.29865,0.13629
1152.80886,0.08096
1151.31907,0.08689
1149.82928,0.12487
1148.33949,0.18932
1146.84970,0.12509
1145.35991,0.06089
1143.87013,0.11989
1142.38034,0.20259
1140.89055,0.28671
1139.40076,0.24423
1137.91097,0.26441
1136.42118,0.31246
1134.93140,0.33898
1133.44161,0.36554
1131.95182,0.42344
1130.46203,0.49530
1128.97224,0.52266
1127.48245,0.50135
1125.99266,0.59002
1124.50288,0.61888
1123.01309,0.64708
1121.52330,0.67533
1120.03351,0.61524
1118.54372,0.61363
1117.05393,0.70113
1115.56415,0.70099
1114.07436,0.67723
1112.58457,0.69665
1111.09478,0.71611
1109.60499,0.70637
1108.11520,0.72729
1106.62542,0.78722
1105.13563,0.80543
1103.64584,0.92387
1102.15605,0.96442
1100.66626,0.96674
1099.17647,0.96910
1097.68668,1.00558
1096.19690,1.08664
1094.70711,1.08145
1093.21732,1.16397
1091.72753,1.23818
1090.23774,1.21501
1088.74795,1.19188
1087.25817,1.34274
1085.76838,1.41431
1084.27859,1.35789
1082.78880,1.56870
1081.29901,1.40102
1079.80922,1.34471
1078.31943,1.36846
1076.82965,1.39224
1075.33986,1.58515
1073.85007,1.74051
1072.36028,1.67604
1070.87049,1.70345
1069.38070,1.80048
1067.89092,1.78273
1066.40113,1.76502
1064.91134,1.67151
1063.42155,1.44862
1061.93176,1.52635
1060.44197,1.35084
1058.95219,1.36602
1057.46240,1.26991
1055.97261,1.17383
1054.48282,1.22670
1052.99303,1.15714
1051.50324,0.99994
1050.01345,0.89567
1048.52367,0.89441
1047.03388,0.87022
1045.54409,0.84608
1044.05430,0.73221
1042.56451,0.60306
1041.07472,0.64513
1039.58494,0.57033
1038.09515,0.45383
1036.60536,0.44521
1035.11557,0.43663
1033.62578,0.35781
1032.13599,0.31660
1030.64620,0.35196
1029.15642,0.48199
1027.66663,0.42072
1026.17684,0.35948
1024.68705,0.34767
1023.19726,0.50708
1021.70747,0.59137
1020.21769,0.65622
1018.72790,0.81295
1017.23811,0.89944
1015.74832,0.98597
1014.25853,1.35016
1012.76874,1.29691
1011.27896,1.46913
1009.78917,1.59268
1008.29938,1.54789
1006.80959,1.53931
1005.31980,1.53077
1003.83001,1.36919
1002.34022,1.37882
1000.85044,1.30220
999.36065,1.33417
997.87086,1.32999
996.38107,1.32585
994.89128,1.15614
993.40149,1.29541
991.91171,1.30390
990.42192,1.25120
988.93213,1.28203
987.44234,1.24054
985.95255,1.19908
984.46276,1.26203
982.97297,1.12463
981.48319,1.18069
979.99340,1.12964
978.50361,1.12316
977.01382,1.11671
975.52403,0.93079
974.03424,0.98843
972.54446,0.95148
971.05467,0.94101
969.56488,0.90831
968.07509,0.83320
966.58530,0.75812
965.09551,0.76589
963.60573,0.80013
962.11594,0.66603
960.62615,0.69756
959.13636,0.61015
957.64657,0.52278
956.15678,0.50850
954.66699,0.58610
953.17721,0.54824
951.68742,0.54799
950.19763,0.56030
948.70784,0.57265
947.21805,0.54885
945.72826,0.55988
944.23848,0.56120
942.74869,0.63771
941.25890,0.62798
939.76911,0.69343
938.27932,0.75892
936.78953,0.80496
935.29974,0.80929
933.80996,0.85679
932.32017,0.82919
930.83038,0.86703
929.34059,0.90491
927.85080,0.85515
926.36101,0.73724
924.87123,0.71678
923.38144,0.75480
921.89165,0.80887
920.40186,0.86297
918.91207,0.89693
917.42228,0.83629
915.93250,0.89955
914.44271,0.82925
912.95292,0.85014
911.46313,0.87106
909.97334,0.88854
908.48355,1.01322
906.99376,1.09896
905.50398,0.86189
904.01419,0.86630
902.52440,0.87075
901.03461,0.90932
899.54482,1.00221
898.05503,0.99216
896.56525,1.06007
895.07546,1.06470
893.58567,1.06937
892.09588,1.02745
890.60609,0.98140
889.11630,0.92008
887.62651,0.93533
886.13673,0.93531
884.64694,0.93533
883.15715,0.98688
881.66736,1.02872
880.17757,1.10539
878.68778,1.12643
877.19800,1.14750
875.70821,1.09904
874.21842,1.10767
872.72863,1.15251
871.23884,1.26141
869.74905,1.26389
868.25927,1.26640
866.76948,1.23068
865.27969,1.26458
863.78990,1.41401
862.30011,1.32692
860.81032,1.29830
859.32053,1.26972
857.83075,1.31076
856.34096,1.32540
854.85117,1.32198
853.36138,1.10151
851.87159,0.99727
850.38180,0.89308
848.89202,0.75343
847.40223,0.63330
845.91244,0.59810
844.42265,0.57824
842.93286,0.55842
841.44307,0.50523
839.95329,0.42426
838.46350,0.35305
836.97371,0.45167
835.48392,0.42438
833.99413,0.39712
832.50434,0.45967
831.01455,0.48328
829.52477,0.43039
828.03498,0.41512
826.54519,0.38944
825.05540,0.36380
823.56561,0.42100
822.07582,0.20547
820.58604,0.29614
819.09625,0.22125
817.60646,0.14639
816.11667,0.12167
814.62688,0.14569
813.13709,0.11408
811.64730,0.02963
810.15752,0.01688
808.66773,0.00417
807.17794,0.02570
805.68815,0.05701
804.19836,0.10644
802.70857,0.12738
801.21879,0.14836
799.72900,0.12694
798.23921,0.32125
796.74942,0.36530
795.25963,0.34816
793.76984,0.33105
792.28006,0.40444
790.79027,0.50291
789.30048,0.53741
787.81069,0.62900
786.32090,0.60721
784.83111,0.58545
783.34132,0.75091
781.85154,0.70766
780.36175,0.61713
778.87196,0.65327
777.38217,0.68946
775.89238,0.74238
774.40259,0.78977
772.91281,0.83023
771.42302,0.87979
769.93323,0.92937
768.44344,0.79183
766.95365,0.83940
765.46386,0.79795
763.97407,0.79550
762.48429,0.70611
760.99450,0.61676
759.50471,0.68261
758.01492,0.55506
756.52513,0.49156
755.03534,0.40166
753.54556,0.31180
752.05577,0.22058
750.56598,0.19898
749.07619,0.13428
747.58640,0.15102
746.09661,0.16780
744.60683,0.04615
743.11704,0.07483
741.62725,0.09799
740.13746,0.08639
738.64767,0.07482
737.15788,0.09391
735.66809,0.05598
734.17831,0.00417
732.68852,0.04538
731.19873,0.08663
729.70894,0.12583
728.21915,0.03703
726.72936,0.08465
725.23958,0.06829
723.74979,0.06867
722.26000,0.06909
720.77021,0.11686
719.28042,0.12709
717.79063,0.04829
716.30084,0.04607
714.81106,0.04389
713.32127,0.00417
711.83148,0.08896
710.34169,0.06801
708.85190,0.12156
707.36211,0.17515
705.87233,0.10561
704.38254,0.08203
702.89275,0.08076
701.40296,0.08439
699.91317,0.08806
698.42338,0.17040
696.93360,0.18040
695.44381,0.16957
693.95402,0.19705
692.46423,0.22456
690.97444,0.31125
689.48465,0.39242
687.99486,0.31219
686.50508,0.35794
685.01529,0.40373
683.52550,0.43912
682.03571,0.41609
680.54592,0.36945
679.05613,0.33746
677.56635,0.30550
676.07656,0.31463
674.58677,0.23613
673.09698,0.26482
671.60719,0.19891
670.11740,0.13304
668.62761,0.09783
667.13783,0.16702
665.64804,0.16806
664.15825,0.16914
662.66846,0.10346
661.17867,0.10461
659.68888,0.13363
658.19910,0.13903
656.70931,0.14447
655.21952,0.09984
653.72973,0.10814
652.23994,0.17492
650.75015,0.15963
649.26037,0.14437
647.77058,0.17647
646.28079,0.08476
644.79100,0.03622
643.30121,0.03851
641.81142,0.04083
640.32163,0.07729
638.83185,0.07761
637.34206,0.01812
635.85227,0.03719
634.36248,0.05629
632.87269,0.02743
631.38290,0.03895
629.89312,0.02407
628.40333,0.01410
626.91354,0.00417
625.42375,0.02578
623.93396,0.12814
622.44417,0.11712
620.95438,0.10614
619.46460,0.08615
617.97481,0.03697
616.48502,0.06158
614.99523,0.08345
613.50544,0.10535
612.01565,0.13286
610.52587,0.07969
609.03608,0.17129
607.54629,0.17734
606.05650,0.18342
604.56671,0.20694
603.07692,0.11360
601.58714,0.13371
600.09735,0.15386
598.60756,0.07872
597.11777,0.06764
595.62798,0.20410
594.13819,0.17569
592.64840,0.14731
591.15862,0.00417
589.66883,0.06896
588.17904,0.08090
586.68925,0.10471
585.19946,0.12856
583.70967,0.13922
582.21989,0.12905
580.73010,0.15022
579.24031,0.17143
577.75052,0.21703
576.26073,0.13742
574.77094,0.20537
573.28115,0.22185
571.79137,0.23838
570.30158,0.29391
568.81179,0.23118
567.32200,0.25686
565.83221,0.28258
564.34242,0.30207
562.85264,0.43850
561.36285,0.52347
559.87306,0.50759
558.38327,0.49174
556.89348,0.48220
555.40369,0.45042
553.91391,0.52166
552.42412,0.59294
550.93433,0.66982
549.44454,0.63958
547.95475,0.72211
546.46496,0.73300
544.97517,0.74392
543.48539,0.79733
541.99560,0.85356
540.50581,0.76162
539.01602,0.66971
537.52623,0.64256
536.03644,0.66832
534.54666,0.70107
533.05687,0.74082
531.56708,0.78061
530.07729,0.83992
528.58750,0.73783
527.09771,0.66571
525.60792,0.59362
524.11814,0.61272
522.62835,0.68752
521.13856,0.61762
519.64877,0.57560
518.15898,0.53362
516.66919,0.60439
515.17941,0.63902
513.68962,0.58670
512.19983,0.53443
510.71004,0.48706
509.22025,0.51906
507.73046,0.66102
506.24068,0.65621
504.75089,0.65143
503.26110,0.59729
501.77131,0.63782
500.28152,0.62550
498.79173,0.61322
497.30194,0.58428
495.81216,0.71262
494.32237,0.72063
492.83258,0.72867
491.34279,0.71936
489.85300,0.68782
488.36321,0.61039
486.87343,0.60815
485.38364,0.60594
483.89385,0.45626
482.40406,0.47361
480.91427,0.41445
479.42448,0.35534
477.93469,0.29486
476.44491,0.19268
474.95512,0.22900
473.46533,0.26536
471.97554,0.20643
470.48575,0.14336
468.99596,0.12486
467.50618,0.10500
466.01639,0.08518
464.52660,0.00417
463.03681,0.13933
461.54702,0.13535
460.05723,0.13142
458.56745,0.12335
457.07766,0.19742
455.58787,0.25761
454.09808,0.31784
452.60829,0.23755
451.11850,0.36048
449.62871,0.34428
448.13893,0.32811
446.64914,0.41079
445.15935,0.50742
443.66956,0.54147
442.17977,0.66601
440.68998,0.79058
439.20020,0.70924
437.71041,0.75178
436.22062,0.89108
434.73083,1.03041
433.24104,1.25537
431.75125,1.40104
430.26146,1.38671
428.77168,1.37242
427.28189,1.55438
425.79210,1.67376
424.30231,1.61365
422.81252,1.55359
421.32273,1.46433
419.83295,1.28745
418.34316,1.16904
416.85337,1.05068
415.36358,1.06733
413.87379,0.97548
412.38400,0.88923
410.89422,0.80302
409.40443,0.84487
407.91464,0.74899
406.42485,0.59331
404.93506,0.62345
403.44527,0.65362
401.95548,0.62329
400.46570,0.68763
398.97591,0.68104
397.48612,0.67448
395.99633,0.56220
394.50654,0.70740
393.01675,0.69260
391.52697,0.67784
390.03718,0.54066
388.54739,0.47031
387.05760,0.53916
385.56781,0.60804
384.07802,0.58651
382.58824,0.59841
381.09845,0.55469
379.60866,0.51100
378.11887,0.41168
376.62908,0.33467
375.13929,0.28553
373.64950,0.23642
372.15972,0.22075
370.66993,0.42638
369.18014,0.33355
367.69035,0.24075
366.20056,0.21270
364.71077,0.14712
363.22099,0.21447
361.73120,0.28186
360.24141,0.24283
358.75162,0.17600
357.26183,0.16000
355.77204,0.14404
354.28225,0.16499
352.79247,0.08301
351.30268,0.13189
349.81289,0.18082
348.32310,0.12193
346.83331,0.16049
345.34352,0.14899
343.85374,0.13752
342.36395,0.27082
340.87416,0.26778
339.38437,0.22720
337.89458,0.18666
336.40479,0.07241
334.91501,0.05142
333.42522,0.09031
331.93543,0.12924
330.44564,0.17099
328.95585,0.21000
327.46606,0.16902
325.97627,0.12808
324.48649,0.13668
322.99670,0.23578
321.50691,0.26116
320.01712,0.28658
318.52733,0.23967
317.03754,0.14826
315.54776,0.09795
314.05797,0.04767
312.56818,0.03430
311.07839,0.07942
309.58860,0.04178
308.09881,0.00417
306.60902,0.09748
305.11924,0.09202
303.62945,0.08382
302.13966,0.06141
300.64987,0.09748
299.16008,0.00417
