1778.52000,0.05158
1777.03021,0.04442
1775.54042,0.00103
1774.05063,0.07335
1772.56085,0.02139
1771.07106,0.01263
1769.58127,0.02462
1768.09148,0.09879
1766.60169,0.03142
1765.11190,0.05041
1763.62212,0.04008
1762.13233,0.09712
1760.64254,0.08512
1759.15275,0.08179
1757.66296,0.09058
1756.17317,0.06659
1754.68339,0.06508
1753.19360,0.05670
1751.70381,0.00000
1750.21402,0.05556
1748.72423,0.12151
1747.23444,0.00103
1745.74465,0.05104
1744.25487,0.11316
1742.76508,0.12180
1741.27529,0.11320
1739.78550,0.10117
1738.29571,0.08055
1736.80592,0.06514
1735.31614,0.06875
1733.82635,0.08793
1732.33656,0.08298
1730.84677,0.09186
1729.35698,0.07661
1727.86719,0.06484
1726.37740,0.00648
1724.88762,0.08110
1723.39783,0.12986
1721.90804,0.06642
1720.41825,0.07207
1718.92846,0.03114
1717.43867,0.04031
1715.94889,0.06505
1714.45910,0.06910
1712.96931,0.07837
1711.47952,0.04795
1709.98973,0.03829
1708.49994,0.00103
1707.01016,0.03832
1705.52037,0.07563
1704.03058,0.10176
1702.54079,0.10547
1701.05100,0.15411
1699.56121,0.22695
1698.07142,0.17896
1696.58164,0.09819
1695.09185,0.11588
1693.60206,0.18884
1692.11227,0.13235
1690.62248,0.16739
1689.13269,0.24045
1687.64291,0.21340
1686.15312,0.20364
1684.66333,0.16112
1683.17354,0.23776
1681.68375,0.23846
1680.19396,0.20293
1678.70417,0.25204
1677.21439,0.18032
1675.72460,0.16561
1674.23481,0.22344
1672.74502,0.19498
1671.25523,0.17519
1669.76544,0.21067
1668.27566,0.08907
1666.78587,0.16260
1665.29608,0.16020
1663.80629,0.13020
1662.31650,0.22627
1660.82671,0.10656
1659.33693,0.23895
1657.84714,0.16419
1656.35735,0.14988
1654.86756,0.16324
1653.37777,0.15591
1651.88798,0.15033
1650.39819,0.08954
1648.90841,0.14964
1647.41862,0.11308
1645.92883,0.15252
1644.43904,0.19200
1642.94925,0.16590
1641.45946,0.10357
1639.96968,0.08961
1638.47989,0.13267
1636.99010,0.14122
1635.50031,0.10837
1634.01052,0.15669
1632.52073,0.09801
1631.03094,0.12050
1629.54116,0.11540
1628.05137,0.16213
1626.56158,0.14328
1625.07179,0.17798
1623.58200,0.17991
1622.09221,0.15770
1620.60243,0.18214
1619.11264,0.13410
1617.62285,0.15688
1616.13306,0.16933
1614.64327,0.16454
1613.15348,0.19259
1611.66370,0.14125
1610.17391,0.10376
1608.68412,0.10428
1607.19433,0.11519
1605.70454,0.16757
1604.21475,0.15524
1602.72496,0.14293
1601.23518,0.09009
1599.74539,0.17367
1598.25560,0.10190
1596.76581,0.16828
1595.27602,0.15527
1593.78623,0.05597
1592.29645,0.07410
1590.80666,0.10608
1589.31687,0.09665
1587.82708,0.05617
1586.33729,0.09688
1584.84750,0.05647
1583.35771,0.10414
1581.86793,0.11732
1580.37814,0.07182
1578.88835,0.09714
1577.39856,0.04480
1575.90877,0.06674
1574.41898,0.08007
1572.92920,0.06926
1571.43941,0.05158
1569.94962,0.04169
1568.45983,0.03184
1566.97004,0.03152
1565.48025,0.06576
1563.99047,0.10867
1562.50068,0.08081
1561.01089,0.03745
1559.52110,0.00103
1558.03131,0.03859
1556.54152,0.08137
1555.05173,0.08446
1553.56195,0.07205
1552.07216,0.05794
1550.58237,0.14573
1549.09258,0.06089
1547.60279,0.11076
1546.11300,0.09851
1544.62322,0.14671
1543.13343,0.19150
1541.64364,0.12927
1540.15385,0.11800
1538.66406,0.10676
1537.17427,0.16203
1535.68448,0.06367
1534.19470,0.11728
1532.70491,0.02416
1531.21512,0.03466
1529.72533,0.05729
1528.23554,0.01260
1526.74575,0.08536
1525.25597,0.00103
1523.76618,0.06170
1522.27639,0.06888
1520.78660,0.02256
1519.29681,0.08160
1517.80702,0.10614
1516.31724,0.05992
1514.82745,0.11387
1513.33766,0.09102
1511.84787,0.06820
1510.35808,0.07736
1508.86829,0.10036
1507.37850,0.10095
1505.88872,0.02387
1504.39893,0.07977
1502.90914,0.00103
1501.41935,0.05604
1499.92956,0.02302
1498.43977,0.10917
1496.94999,0.20571
1495.46020,0.24013
1493.97041,0.19688
1492.48062,0.32977
1490.99083,0.26587
1489.50104,0.37465
1488.01125,0.41613
1486.52147,0.45764
1485.03168,0.53544
1483.54189,0.66162
1482.05210,0.68596
1480.56231,0.85709
1479.07252,0.87113
1477.58274,0.98362
1476.09295,1.05125
1474.60316,0.98770
1473.11337,1.12273
1471.62358,1.12657
1470.13379,1.10627
1468.64401,0.98414
1467.15422,0.92592
1465.66443,0.91521
1464.17464,0.90453
1462.68485,0.94828
1461.19506,1.00932
1459.70527,0.98579
1458.21549,0.91740
1456.72570,0.71955
1455.23591,0.68230
1453.74612,0.66580
1452.25633,0.67005
1450.76654,0.60182
1449.27676,0.58714
1447.78697,0.56905
1446.29718,0.48019
1444.80739,0.47597
1443.31760,0.47178
1441.82781,0.39683
1440.33802,0.27875
1438.84824,0.27638
1437.35845,0.36900
1435.86866,0.27864
1434.37887,0.27118
1432.88908,0.28966
1431.39929,0.36342
1429.90951,0.28354
1428.41972,0.29866
1426.92993,0.37941
1425.44014,0.39114
1423.95035,0.39686
1422.46056,0.40260
1420.97078,0.29874
1419.48099,0.34513
1417.99120,0.37600
1416.50141,0.36720
1415.01162,0.39987
1413.52183,0.42566
1412.03204,0.44630
1410.54226,0.51532
1409.05247,0.39963
1407.56268,0.47044
1406.07289,0.49121
1404.58310,0.44295
1403.09331,0.39472
1401.60353,0.46738
1400.11374,0.56251
1398.62395,0.62488
1397.13416,0.50599
1395.64437,0.60294
1394.15458,0.65159
1392.66479,0.60358
1391.17501,0.66093
1389.68522,0.64578
1388.19543,0.53571
1386.70564,0.58366
1385.21585,0.63163
1383.72606,0.60625
1382.23628,0.50494
1380.74649,0.63157
1379.25670,0.57348
1377.76691,0.63974
1376.27712,0.58863
1374.78733,0.63078
1373.29755,0.78691
1371.80776,0.85503
1370.31797,0.94562
1368.82818,1.04228
1367.33839,1.13897
1365.84860,1.20894
1364.35881,1.49476
1362.86903,1.73917
1361.37924,1.77124
1359.88945,1.83961
1358.39966,1.74225
1356.90987,1.80205
1355.42008,2.00000
1353.93030,1.91310
1352.44051,1.80810
1350.95072,1.70314
1349.46093,1.56281
1347.97114,1.31547
1346.48135,1.15794
1344.99156,0.97626
1343.50178,0.98109
1342.01199,0.93588
1340.52220,0.81301
1339.03241,0.81275
1337.54262,0.73138
1336.05283,0.70529
1334.56305,0.67923
1333.07326,0.65838
1331.58347,0.65483
1330.09368,0.68066
1328.60389,0.50970
1327.11410,0.45099
1325.62432,0.44756
1324.13453,0.45971
1322.64474,0.48397
1321.15495,0.56524
1319.66516,0.51619
1318.17537,0.46717
1316.68558,0.47429
1315.19580,0.42275
1313.70601,0.27454
1312.21622,0.24205
1310.72643,0.33908
1309.23664,0.41197
1307.74685,0.35367
1306.25707,0.47670
1304.76728,0.40724
1303.27749,0.33782
1301.78770,0.27274
1300.29791,0.33891
1298.80812,0.36713
1297.31834,0.39366
1295.82855,0.36842
1294.33876,0.33631
1292.84897,0.34911
1291.35918,0.32915
1289.86939,0.35324
1288.37960,0.37737
1286.88982,0.37649
1285.40003,0.40499
1283.91024,0.44734
1282.42045,0.43275
1280.93066,0.37502
1279.44087,0.44163
1277.95109,0.47720
1276.46130,0.41266
1274.97151,0.40858
1273.48172,0.40453
1271.99193,0.42987
1270.50214,0.48459
1269.01235,0.52553
1267.52257,0.56477
1266.03278,0.54361
1264.54299,0.68133
1263.05320,0.58772
1261.56341,0.56839
1260.07362,0.54909
1258.58384,0.58679
1257.09405,0.65216
1255.60426,0.66230
1254.11447,0.68283
1252.62468,0.67405
1251.13489,0.63076
1249.64511,0.49255
1248.15532,0.53565
1246.66553,0.47175
1245.17574,0.40787
1243.68595,0.48732
1242.19616,0.49775
1240.70637,0.40980
1239.21659,0.37022
1237.72680,0.38419
1236.23701,0.34986
1234.74722,0.29483
1233.25743,0.29768
1231.76764,0.30056
1230.27786,0.30433
1228.78807,0.22699
1227.29828,0.26018
1225.80849,0.32102
1224.31870,0.27658
1222.82891,0.20281
1221.33912,0.20160
1219.84934,0.23322
1218.35955,0.26487
1216.86976,0.31727
1215.37997,0.31963
1213.89018,0.25124
1212.40039,0.32790
1210.91061,0.15943
1209.42082,0.19472
1207.93103,0.17135
1206.44124,0.14800
1204.95145,0.15922
1203.46166,0.08932
1201.97188,0.15412
1200.48209,0.06011
1198.99230,0.06109
1197.50251,0.10700
1196.01272,0.14603
1194.52293,0.16092
1193.03314,0.17584
1191.54336,0.14590
1190.05357,0.01758
1188.56378,0.14655
1187.07399,0.00103
1185.58420,0.03393
1184.09441,0.08585
1182.60463,0.05579
1181.11484,0.02577
1179.62505,0.10196
1178.13526,0.06077
1176.64547,0.02998
1175.15568,0.16496
1173.66589,0.16186
1172.17611,0.21403
1170.68632,0.13243
1169.19653,0.05086
1167.70674,0.12039
1166.21695,0.07255
1164.72716,0.11453
1163.23738,0.01668
1161.74759,0.04145
1160.25780,0.07834
1158.76801,0.06001
1157.27822,0.04171
1155.78843,0.08560
1154.29865,0.01902
1152.80886,0.01463
1151.31907,0.02581
1149.82928,0.14752
1148.33949,0.19502
1146.84970,0.16313
1145.35991,0.13127
1143.87013,0.00103
1142.38034,0.10015
1140.89055,0.12852
1139.40076,0.18109
1137.91097,0.25614
1136.42118,0.29496
1134.93140,0.24921
1133.44161,0.20349
1131.95182,0.38226
1130.46203,0.28480
1128.97224,0.34278
1127.48245,0.34207
1125.99266,0.45708
1124.50288,0.45645
1123.01309,0.47483
1121.52330,0.49325
1120.03351,0.55831
1118.54372,0.56126
1117.05393,0.55042
1115.56415,0.51371
1114.07436,0.43560
1112.58457,0.47579
1111.09478,0.51601
1109.60499,0.51568
1108.11520,0.61553
1106.62542,0.66016
1105.13563,0.70483
1103.64584,0.77887
1102.15605,0.81497
1100.66626,0.79929
1099.17647,0.78365
1097.68668,0.80948
1096.19690,0.80426
1094.70711,0.77318
1093.21732,0.93550
1091.72753,1.01498
1090.23774,0.99003
1088.74795,0.96511
1087.25817,1.07058
1085.76838,1.08113
1084.27859,1.13486
1082.78880,1.14892
1081.29901,1.28042
1079.80922,1.30662
1078.31943,1.28366
1076.82965,1.26072
1075.33986,1.23868
1073.85007,1.35824
1072.36028,1.34662
1070.87049,1.45589
1069.38070,1.42362
1067.89092,1.44317
1066.40113,1.46276
1064.91134,1.30799
1063.42155,1.35699
1061.93176,1.32832
1060.44197,1.16329
1058.95219,1.09843
1057.46240,1.03015
1055.97261,0.96191
1054.48282,0.95930
1052.99303,0.91010
1051.50324,0.87130
1050.01345,0.88260
1048.52367,0.70228
1047.03388,0.71882
1045.54409,0.73540
1044.05430,0.66567
1042.56451,0.52001
1041.07472,0.45208
1039.58494,0.44461
1038.09515,0.41299
1036.60536,0.35120
1035.11557,0.28943
1033.62578,0.29763
1032.13599,0.45261
1030.64620,0.38317
1029.15642,0.36556
1027.66663,0.38596
1026.17684,0.40640
1024.68705,0.33708
1023.19726,0.41456
1021.70747,0.45581
1020.21769,0.56098
1018.72790,0.69034
1017.23811,0.81801
1015.74832,0.94572
1014.25853,1.15288
1012.76874,1.08382
1011.27896,1.42225
1009.78917,1.35153
1008.29938,1.40515
1006.80959,1.37161
1005.31980,1.33810
1003.83001,1.37282
1002.34022,1.21248
1000.85044,1.21100
999.36065,1.00928
997.87086,0.98197
996.38107,0.95470
994.89128,0.95680
993.40149,0.94168
991.91171,0.85579
990.42192,0.85281
988.93213,0.92238
987.44234,0.92983
985.95255,0.93730
984.46276,0.78424
982.97297,0.85739
981.48319,0.79244
979.99340,0.73271
978.50361,0.70495
977.01382,0.67722
975.52403,0.77470
974.03424,0.73063
972.54446,0.66587
971.05467,0.66330
969.56488,0.67458
968.07509,0.62805
966.58530,0.58155
965.09551,0.48069
963.60573,0.54389
962.11594,0.52425
960.62615,0.44938
959.13636,0.39095
957.64657,0.33256
956.15678,0.34584
954.66699,0.41614
953.17721,0.40877
951.68742,0.31338
950.19763,0.38118
948.70784,0.44901
947.21805,0.44522
945.72826,0.44318
944.23848,0.34277
942.74869,0.57389
941.25890,0.52188
939.76911,0.55019
938.27932,0.57853
936.78953,0.63712
935.29974,0.57660
933.80996,0.63007
932.32017,0.70602
930.83038,0.72934
929.34059,0.75269
927.85080,0.60428
926.36101,0.65100
924.87123,0.63905
923.38144,0.62713
921.89165,0.67222
920.40186,0.71735
918.91207,0.68998
917.42228,0.75071
915.93250,0.76485
914.44271,0.72031
912.95292,0.71121
911.46313,0.70213
909.97334,0.83207
908.48355,0.81011
906.99376,0.84689
905.50398,0.75420
904.01419,0.71852
902.52440,0.68287
901.03461,0.75257
899.54482,0.79814
898.05503,0.86100
896.56525,0.97051
895.07546,0.94538
893.58567,0.92028
892.09588,0.81406
890.60609,0.92542
889.11630,0.80200
887.62651,0.79084
886.13673,0.79094
884.64694,0.79106
883.15715,0.93539
881.66736,0.94334
880.17757,0.94615
878.68778,0.95245
877.19800,0.95877
875.70821,0.92715
874.21842,1.02332
872.72863,1.03664
871.23884,1.11043
869.74905,1.08066
868.25927,1.05091
866.76948,1.05746
865.27969,1.17799
863.78990,1.06202
862.30011,1.15844
860.81032,1.09950
859.32053,1.04060
857.83075,0.97482
856.34096,1.14734
854.85117,0.99874
853.36138,0.91407
851.87159,0.87863
850.38180,0.84322
848.89202,0.67576
847.40223,0.58949
845.91244,0.57230
844.42265,0.56033
842.93286,0.54839
841.44307,0.45533
839.95329,0.39684
838.46350,0.38326
836.97371,0.35418
835.48392,0.38729
833.99413,0.42043
832.50434,0.43116
831.01455,0.41774
829.52477,0.51831
828.03498,0.32885
826.54519,0.30690
825.05540,0.28498
823.56561,0.26827
822.07582,0.33101
820.58604,0.20731
819.09625,0.18379
817.60646,0.16030
816.11667,0.20245
814.62688,0.14795
813.13709,0.10383
811.64730,0.06148
810.15752,0.03124
808.66773,0.00103
807.17794,0.02764
805.68815,0.15959
804.19836,0.13101
802.70857,0.12059
801.21879,0.11020
799.72900,0.09380
798.23921,0.29325
796.74942,0.23893
795.25963,0.29082
793.76984,0.34275
792.28006,0.42664
790.79027,0.44151
789.30048,0.47540
787.81069,0.54385
786.32090,0.54155
784.83111,0.53928
783.34132,0.56121
781.85154,0.54691
780.36175,0.63624
778.87196,0.58316
777.38217,0.53011
775.89238,0.56429
774.40259,0.74870
772.91281,0.78985
771.42302,0.69980
769.93323,0.60979
768.44344,0.67693
766.95365,0.76654
765.46386,0.81130
763.97407,0.70587
762.48429,0.66004
760.99450,0.61425
759.50471,0.56244
758.01492,0.47268
756.52513,0.55388
755.03534,0.47455
753.54556,0.39524
752.05577,0.24518
750.56598,0.27471
749.07619,0.16960
747.58640,0.18538
746.09661,0.20119
744.60683,0.21186
743.11704,0.14831
741.62725,0.08998
740.13746,0.04549
738.64767,0.00103
737.15788,0.09853
735.66809,0.08728
734.17831,0.06917
732.68852,0.10978
731.19873,0.15043
729.70894,0.12895
728.21915,0.14031
726.72936,0.07401
725.23958,0.10270
723.74979,0.07962
722.26000,0.05657
720.77021,0.07672
719.28042,0.04684
717.79063,0.07050
716.30084,0.05276
714.81106,0.03505
713.32127,0.05191
711.83148,0.16203
710.34169,0.06154
708.85190,0.08885
707.36211,0.11619
705.87233,0.14356
704.38254,0.00867
702.89275,0.07409
701.40296,0.09637
699.91317,0.11869
698.42338,0.12378
696.93360,0.14270
695.44381,0.28252
693.95402,0.25403
692.46423,0.22558
690.97444,0.24981
689.48465,0.21883
687.99486,0.26211
686.50508,0.22601
685.01529,0.18995
683.52550,0.20225
682.03571,0.25948
680.54592,0.24422
679.05613,0.25144
677.56635,0.25870
676.07656,0.30396
674.58677,0.19042
673.09698,0.17878
671.60719,0.23795
670.11740,0.29716
668.62761,0.10950
667.13783,0.14632
665.64804,0.13656
664.15825,0.12683
662.66846,0.10850
661.17867,0.11956
659.68888,0.00978
658.19910,0.05888
656.70931,0.10801
655.21952,0.06739
653.72973,0.09242
652.23994,0.20552
650.75015,0.22112
649.26037,0.23674
647.77058,0.16002
646.28079,0.15757
644.79100,0.10164
643.30121,0.10098
641.81142,0.10036
640.32163,0.22926
638.83185,0.07158
637.34206,0.12976
635.85227,0.06538
634.36248,0.00103
632.87269,0.09889
631.38290,0.03967
629.89312,0.15832
628.40333,0.09916
626.91354,0.04004
625.42375,0.12597
623.93396,0.12734
622.44417,0.13910
620.95438,0.15089
619.46460,0.09192
617.97481,0.15384
616.48502,0.10184
614.99523,0.08613
613.50544,0.07045
612.01565,0.04790
610.52587,0.07545
609.03608,0.08922
607.54629,0.09093
606.05650,0.09268
604.56671,0.25675
603.07692,0.21539
601.58714,0.15249
600.09735,0.08961
598.60756,0.00519
597.11777,0.11762
595.62798,0.08506
594.13819,0.04303
592.64840,0.00103
591.15862,0.09954
589.66883,0.15146
588.17904,0.25866
586.68925,0.19755
585.19946,0.13648
583.70967,0.16090
582.21989,0.08349
580.73010,0.09243
579.24031,0.10141
577.75052,0.13459
576.26073,0.06421
574.77094,0.19241
573.28115,0.18166
571.79137,0.17094
570.30158,0.24744
568.81179,0.16513
567.32200,0.19249
565.83221,0.21988
564.34242,0.31032
562.85264,0.42669
561.36285,0.36871
559.87306,0.37292
558.38327,0.37716
556.89348,0.36589
555.40369,0.48070
553.91391,0.48848
552.42412,0.49630
550.93433,0.54214
549.44454,0.49477
547.95475,0.60455
546.46496,0.59695
544.97517,0.58939
543.48539,0.54042
541.99560,0.60026
540.50581,0.58934
539.01602,0.57845
537.52623,0.56932
536.03644,0.54468
534.54666,0.57187
533.05687,0.66729
531.56708,0.76274
530.07729,0.57075
528.58750,0.54109
527.09771,0.52613
525.60792,0.51121
524.11814,0.56107
522.62835,0.54535
521.13856,0.48131
519.64877,0.46738
518.15898,0.45348
516.66919,0.43788
515.17941,0.54318
513.68962,0.52851
512.19983,0.51387
510.71004,0.47077
509.22025,0.42080
507.73046,0.50209
506.24068,0.57304
504.75089,0.64402
503.26110,0.64770
501.77131,0.62206
500.28152,0.61199
498.79173,0.60196
497.30194,0.53325
495.81216,0.54917
494.32237,0.56685
492.83258,0.58457
491.34279,0.48836
489.85300,0.52513
488.36321,0.49114
486.87343,0.48567
485.38364,0.48023
483.89385,0.47396
482.40406,0.33133
480.91427,0.29922
479.42448,0.26715
477.93469,0.21784
476.44491,0.16511
474.95512,0.16594
473.46533,0.16680
471.97554,0.23330
470.48575,0.15997
468.99596,0.11258
467.50618,0.09285
466.01639,0.07315
464.52660,0.02240
463.03681,0.00103
461.54702,0.09326
460.05723,0.18551
458.56745,0.15694
457.07766,0.13531
455.58787,0.22075
454.09808,0.30623
452.60829,0.37275
451.11850,0.29426
449.62871,0.23480
448.13893,0.17538
446.64914,0.25411
445.15935,0.33287
443.66956,0.38231
442.17977,0.42401
440.68998,0.46574
439.20020,0.46521
437.71041,0.58901
436.22062,0.65588
434.73083,0.72277
433.24104,0.78797
431.75125,0.93435
430.26146,0.90638
428.77168,0.87844
427.28189,0.99211
425.79210,1.06783
424.30231,1.03998
422.81252,1.01217
421.32273,1.01029
419.83295,0.84786
418.34316,0.82015
416.85337,0.79246
415.36358,0.71991
413.87379,0.65085
412.38400,0.58441
410.89422,0.51800
409.40443,0.57162
407.91464,0.41808
406.42485,0.41652
404.93506,0.39599
403.44527,0.37549
401.95548,0.45516
400.46570,0.34667
398.97591,0.40483
397.48612,0.46302
395.99633,0.34427
394.50654,0.30842
393.01675,0.29419
391.52697,0.27998
390.03718,0.17862
388.54739,0.27930
387.05760,0.34720
385.56781,0.41514
384.07802,0.45721
382.58824,0.41126
381.09845,0.34721
379.60866,0.28319
378.11887,0.26840
376.62908,0.12416
375.13929,0.16210
373.64950,0.20008
372.15972,0.21650
370.66993,0.16217
369.18014,0.15448
367.69035,0.14683
366.20056,0.15129
364.71077,0.19032
363.22099,0.15427
361.73120,0.11825
360.24141,0.24370
358.75162,0.22415
357.26183,0.16751
355.77204,0.11090
354.28225,0.07418
352.79247,0.14454
351.30268,0.09234
349.81289,0.04018
348.32310,0.06401
346.83331,0.06888
345.34352,0.03494
343.85374,0.00103
342.36395,0.09859
340.87416,0.22726
339.38437,0.21007
337.89458,0.19291
336.40479,0.11966
334.91501,0.12415
333.42522,0.10017
331.93543,0.07623
330.44564,0.22757
328.95585,0.10614
327.46606,0.10560
325.97627,0.10510
324.48649,0.00103
322.99670,0.07786
321.50691,0.14351
320.01712,0.20918
318.52733,0.17388
317.03754,0.26293
315.54776,0.13964
314.05797,0.01638
312.56818,0.11070
311.07839,0.01685
309.58860,0.08534
308.09881,0.15386
306.60902,0.07219
305.11924,0.10797
303.62945,0.06176
302.13966,0.01559
300.64987,0.00311
299.16008,0.00103
