1778.52000,0.00483
1777.03021,0.03578
1775.54042,0.04403
1774.05063,0.02048
1772.56085,0.01668
1771.07106,0.07356
1769.58127,0.05770
1768.09148,0.07524
1766.60169,0.04429
1765.11190,0.07555
1763.62212,0.07349
1762.13233,0.09724
1760.64254,0.05735
1759.15275,0.07207
1757.66296,0.07774
1756.17317,0.06374
1754.68339,0.09677
1753.19360,0.00856
1751.70381,0.00528
1750.21402,0.02630
1748.72423,0.05038
1747.23444,0.06238
1745.74465,0.06986
1744.25487,0.02129
1742.76508,0.08495
1741.27529,0.07587
1739.78550,0.10928
1738.29571,0.04114
1736.80592,0.08069
1735.31614,0.05812
1733.82635,0.03103
1732.33656,0.05857
1730.84677,0.07704
1729.35698,0.06826
1727.86719,0.03375
1726.37740,0.04778
1724.88762,0.05125
1723.39783,0.08962
1721.90804,0.06283
1720.41825,0.06186
1718.92846,0.00483
1717.43867,0.10787
1715.94889,0.04115
1714.45910,0.14427
1712.96931,0.12007
1711.47952,0.11713
1709.98973,0.15365
1708.49994,0.14018
1707.01016,0.15025
1705.52037,0.16035
1704.03058,0.21977
1702.54079,0.12760
1701.05100,0.25532
1699.56121,0.27998
1698.07142,0.27131
1696.58164,0.19598
1695.09185,0.25259
1693.60206,0.26072
1692.11227,0.29466
1690.62248,0.35289
1689.13269,0.36113
1687.64291,0.32999
1686.15312,0.33073
1684.66333,0.36031
1683.17354,0.36567
1681.68375,0.35287
1680.19396,0.41137
1678.70417,0.38652
1677.21439,0.36322
1675.72460,0.37332
1674.23481,0.34858
1672.74502,0.29356
1671.25523,0.34925
1669.76544,0.34433
1668.27566,0.36826
1666.78587,0.35281
1665.29608,0.35710
1663.80629,0.28108
1662.31650,0.33245
1660.82671,0.26105
1659.33693,0.27914
1657.84714,0.33517
1656.35735,0.20930
1654.86756,0.19566
1653.37777,0.20480
1651.88798,0.21095
1650.39819,0.14285
1648.90841,0.17333
1647.41862,0.14926
1645.92883,0.17148
1644.43904,0.19374
1642.94925,0.18495
1641.45946,0.20955
1639.96968,0.19326
1638.47989,0.15729
1636.99010,0.20323
1635.50031,0.11125
1634.01052,0.11936
1632.52073,0.19270
1631.03094,0.19180
1629.54116,0.21215
1628.05137,0.25832
1626.56158,0.24085
1625.07179,0.17793
1623.58200,0.22572
1622.09221,0.15378
1620.60243,0.18649
1619.11264,0.11918
1617.62285,0.14893
1616.13306,0.14840
1614.64327,0.19339
1613.15348,0.19899
1611.66370,0.17583
1610.17391,0.13906
1608.68412,0.19027
1607.19433,0.16115
1605.70454,0.13359
1604.21475,0.14701
1602.72496,0.16046
1601.23518,0.19062
1599.74539,0.18899
1598.25560,0.16768
1596.76581,0.05089
1595.27602,0.13124
1593.78623,0.09034
1592.29645,0.04947
1590.80666,0.08141
1589.31687,0.10127
1587.82708,0.09842
1586.33729,0.12896
1584.84750,0.10799
1583.35771,0.04764
1581.86793,0.10103
1580.37814,0.08472
1578.88835,0.06997
1577.39856,0.02644
1575.90877,0.03905
1574.41898,0.03957
1572.92920,0.10684
1571.43941,0.04830
1569.94962,0.05197
1568.45983,0.05567
1566.97004,0.00483
1565.48025,0.05797
1563.99047,0.05810
1562.50068,0.07493
1561.01089,0.05694
1559.52110,0.09356
1558.03131,0.14841
1556.54152,0.08049
1555.05173,0.16726
1553.56195,0.11913
1552.07216,0.13016
1550.58237,0.10485
1549.09258,0.09322
1547.60279,0.06798
1546.11300,0.14284
1544.62322,0.18439
1543.13343,0.08497
1541.64364,0.06898
1540.15385,0.05075
1538.66406,0.03256
1537.17427,0.05610
1535.68448,0.02964
1534.19470,0.04871
1532.70491,0.05416
1531.21512,0.04905
1529.72533,0.00000
1528.23554,0.01206
1526.74575,0.02415
1525.25597,0.01202
1523.76618,0.02419
1522.27639,0.06672
1520.78660,0.02893
1519.29681,0.00483
1517.80702,0.01428
1516.31724,0.06168
1514.82745,0.02875
1513.33766,0.03150
1511.84787,0.03428
1510.35808,0.03331
1508.86829,0.00964
1507.37850,0.02239
1505.88872,0.03972
1504.39893,0.01464
1502.90914,0.05176
1501.41935,0.02979
1499.92956,0.00483
1498.43977,0.08654
1496.94999,0.18193
1495.46020,0.18184
1493.97041,0.14541
1492.48062,0.17269
1490.99083,0.26520
1489.50104,0.31378
1488.01125,0.35633
1486.52147,0.39892
1485.03168,0.48703
1483.54189,0.49028
1482.05210,0.63305
1480.56231,0.72430
1479.07252,0.84137
1477.58274,1.05399
1476.09295,1.01194
1474.60316,1.08212
1473.11337,1.17963
1471.62358,1.25292
1470.13379,1.20193
1468.64401,1.04939
1467.15422,1.06669
1465.66443,1.05599
1464.17464,1.04532
1462.68485,1.02483
1461.19506,1.01348
1459.70527,0.98246
1458.21549,0.93025
1456.72570,0.93720
1455.23591,0.84110
1453.74612,0.86177
1452.25633,0.87642
1450.76654,0.80772
1449.27676,0.74967
1447.78697,0.75836
1446.29718,0.67461
1444.80739,0.60000
1443.31760,0.52542
1441.82781,0.51152
1440.33802,0.38850
1438.84824,0.35800
1437.35845,0.36545
1435.86866,0.37748
1434.37887,0.39561
1432.88908,0.37435
1431.39929,0.34708
1429.90951,0.35925
1428.41972,0.31083
1426.92993,0.40798
1425.44014,0.42785
1423.95035,0.37575
1422.46056,0.32368
1420.97078,0.39369
1419.48099,0.39097
1417.99120,0.36100
1416.50141,0.40687
1415.01162,0.46946
1413.52183,0.55786
1412.03204,0.45678
1410.54226,0.46944
1409.05247,0.49579
1407.56268,0.46305
1406.07289,0.47886
1404.58310,0.50836
1403.09331,0.53789
1401.60353,0.42191
1400.11374,0.56826
1398.62395,0.64035
1397.13416,0.59423
1395.64437,0.56330
1394.15458,0.54757
1392.66479,0.62285
1391.17501,0.65875
1389.68522,0.65223
1388.19543,0.57752
1386.70564,0.59079
1385.21585,0.60410
1383.72606,0.60379
1382.23628,0.53833
1380.74649,0.57146
1379.25670,0.57127
1377.76691,0.53322
1376.27712,0.61345
1374.78733,0.74376
1373.29755,0.78466
1371.80776,0.87411
1370.31797,1.05153
1368.82818,1.05918
1367.33839,1.06687
1365.84860,1.25653
1364.35881,1.54933
1362.86903,1.64810
1361.37924,1.81513
1359.88945,1.81543
1358.39966,1.84609
1356.90987,1.95107
1355.42008,2.00000
1353.93030,1.90796
1352.44051,1.88874
1350.95072,1.86955
1349.46093,1.82008
1347.97114,1.47500
1346.48135,1.25125
1344.99156,1.04270
1343.50178,1.10557
1342.01199,0.93651
1340.52220,0.84482
1339.03241,0.86990
1337.54262,0.77069
1336.05283,0.74961
1334.56305,0.72856
1333.07326,0.75531
1331.58347,0.68506
1330.09368,0.60272
1328.60389,0.66900
1327.11410,0.63070
1325.62432,0.50754
1324.13453,0.53148
1322.64474,0.57062
1321.15495,0.62344
1319.66516,0.58761
1318.17537,0.55181
1316.68558,0.49862
1315.19580,0.44546
1313.70601,0.35141
1312.21622,0.36504
1310.72643,0.30744
1309.23664,0.36208
1307.74685,0.40918
1306.25707,0.42599
1304.76728,0.35641
1303.27749,0.28688
1301.78770,0.27196
1300.29791,0.29499
1298.80812,0.36050
1297.31834,0.34267
1295.82855,0.35974
1294.33876,0.42991
1292.84897,0.34548
1291.35918,0.30202
1289.86939,0.35108
1288.37960,0.40018
1286.88982,0.37503
1285.40003,0.43936
1283.91024,0.50980
1282.42045,0.51660
1280.93066,0.48402
1279.44087,0.60157
1277.95109,0.52206
1276.46130,0.52749
1274.97151,0.51931
1273.48172,0.51117
1271.99193,0.55614
1270.50214,0.54959
1269.01235,0.61889
1267.52257,0.58058
1266.03278,0.58172
1264.54299,0.64507
1263.05320,0.63416
1261.56341,0.62026
1260.07362,0.60639
1258.58384,0.60924
1257.09405,0.72281
1255.60426,0.68934
1254.11447,0.78176
1252.62468,0.77415
1251.13489,0.76505
1249.64511,0.64078
1248.15532,0.51198
1246.66553,0.51513
1245.17574,0.51832
1243.68595,0.53216
1242.19616,0.51723
1240.70637,0.49021
1239.21659,0.37680
1237.72680,0.39079
1236.23701,0.38056
1234.74722,0.33701
1233.25743,0.33747
1231.76764,0.33796
1230.27786,0.34456
1228.78807,0.41183
1227.29828,0.28812
1225.80849,0.19173
1224.31870,0.18180
1222.82891,0.20374
1221.33912,0.26817
1219.84934,0.23940
1218.35955,0.21067
1216.86976,0.28734
1215.37997,0.30644
1213.89018,0.30132
1212.40039,0.20679
1210.91061,0.20781
1209.42082,0.23767
1207.93103,0.21299
1206.44124,0.18835
1204.95145,0.19710
1203.46166,0.07550
1201.97188,0.10858
1200.48209,0.07347
1198.99230,0.11876
1197.50251,0.10799
1196.01272,0.03964
1194.52293,0.07139
1193.03314,0.10319
1191.54336,0.08195
1190.05357,0.02133
1188.56378,0.00624
1187.07399,0.00483
1185.58420,0.05201
1184.09441,0.00826
1182.60463,0.04111
1181.11484,0.07400
1179.62505,0.05462
1178.13526,0.02466
1176.64547,0.09178
1175.15568,0.12558
1173.66589,0.16244
1172.17611,0.09625
1170.68632,0.06876
1169.19653,0.04131
1167.70674,0.04649
1166.21695,0.03048
1164.72716,0.07363
1163.23738,0.06377
1161.74759,0.04635
1160.25780,0.06536
1158.76801,0.04727
1157.27822,0.02921
1155.78843,0.01498
1154.29865,0.05992
1152.80886,0.00483
1151.31907,0.04935
1149.82928,0.10755
1148.33949,0.06270
1146.84970,0.03456
1145.35991,0.00646
1143.87013,0.08755
1142.38034,0.04588
1140.89055,0.10128
1139.40076,0.12791
1137.91097,0.21370
1136.42118,0.25860
1134.93140,0.30505
1133.44161,0.35154
1131.95182,0.46629
1130.46203,0.40066
1128.97224,0.41390
1127.48245,0.44235
1125.99266,0.37077
1124.50288,0.43416
1123.01309,0.46347
1121.52330,0.49283
1120.03351,0.57149
1118.54372,0.51374
1117.05393,0.53335
1115.56415,0.44384
1114.07436,0.47262
1112.58457,0.52570
1111.09478,0.57882
1109.60499,0.50158
1108.11520,0.60935
1106.62542,0.50036
1105.13563,0.69311
1103.64584,0.78128
1102.15605,0.89678
1100.66626,0.78263
1099.17647,0.66851
1097.68668,0.75532
1096.19690,0.83307
1094.70711,0.82747
1093.21732,0.93410
1091.72753,0.88309
1090.23774,0.94204
1088.74795,1.00103
1087.25817,1.06536
1085.76838,1.05392
1084.27859,1.13045
1082.78880,1.22066
1081.29901,1.27453
1079.80922,1.22989
1078.31943,1.25578
1076.82965,1.28171
1075.33986,1.33270
1073.85007,1.31246
1072.36028,1.31500
1070.87049,1.39339
1069.38070,1.33840
1067.89092,1.41383
1066.40113,1.48929
1064.91134,1.37377
1063.42155,1.25979
1061.93176,1.34144
1060.44197,1.26241
1058.95219,1.01210
1057.46240,0.96423
1055.97261,0.91640
1054.48282,0.94668
1052.99303,0.96032
1051.50324,0.82088
1050.01345,0.74818
1048.52367,0.68613
1047.03388,0.71508
1045.54409,0.74408
1044.05430,0.67608
1042.56451,0.52169
1041.07472,0.57354
1039.58494,0.53294
1038.09515,0.44235
1036.60536,0.43215
1035.11557,0.42199
1033.62578,0.30573
1032.13599,0.28958
1030.64620,0.29469
1029.15642,0.40142
1027.66663,0.38765
1026.17684,0.37392
1024.68705,0.30489
1023.19726,0.35416
1021.70747,0.54749
1020.21769,0.68325
1018.72790,0.89183
1017.23811,0.95185
1015.74832,1.01192
1014.25853,1.17209
1012.76874,1.45358
1011.27896,1.56076
1009.78917,1.58459
1008.29938,1.46139
1006.80959,1.47923
1005.31980,1.49711
1003.83001,1.38009
1002.34022,1.24189
1000.85044,1.20075
999.36065,1.12326
997.87086,1.10115
996.38107,1.07907
994.89128,1.04415
993.40149,1.03352
991.91171,0.95470
990.42192,0.94112
988.93213,0.85480
987.44234,0.82916
985.95255,0.80355
984.46276,0.87351
982.97297,0.76914
981.48319,0.70272
979.99340,0.75610
978.50361,0.75191
977.01382,0.74776
975.52403,0.76033
974.03424,0.60464
972.54446,0.46870
971.05467,0.63602
969.56488,0.67905
968.07509,0.62964
966.58530,0.58027
965.09551,0.58097
963.60573,0.49983
962.11594,0.50515
960.62615,0.47109
959.13636,0.46664
957.64657,0.46221
956.15678,0.40249
954.66699,0.37768
953.17721,0.41052
951.68742,0.41155
950.19763,0.47099
948.70784,0.53048
947.21805,0.41185
945.72826,0.38726
944.23848,0.46126
942.74869,0.47162
941.25890,0.63665
939.76911,0.66528
938.27932,0.69394
936.78953,0.70445
935.29974,0.60432
933.80996,0.65281
932.32017,0.67707
930.83038,0.67257
929.34059,0.66810
927.85080,0.70006
926.36101,0.63502
924.87123,0.63370
923.38144,0.58087
921.89165,0.64861
920.40186,0.71638
918.91207,0.73795
917.42228,0.71256
915.93250,0.77969
914.44271,0.76802
912.95292,0.79126
911.46313,0.81453
909.97334,0.80297
908.48355,0.82481
906.99376,0.77693
905.50398,0.64723
904.01419,0.62445
902.52440,0.60171
901.03461,0.70105
899.54482,0.89898
898.05503,0.83011
896.56525,0.85528
895.07546,0.82969
893.58567,0.80414
892.09588,0.79758
890.60609,0.83200
889.11630,0.81945
887.62651,0.78268
886.13673,0.77778
884.64694,0.77293
883.15715,0.90607
881.66736,0.91797
880.17757,1.00268
878.68778,1.03891
877.19800,1.07517
875.70821,0.99322
874.21842,1.02198
872.72863,0.98407
871.23884,1.04778
869.74905,1.08651
868.25927,1.12527
866.76948,0.97532
865.27969,1.14985
863.78990,1.21223
862.30011,1.04875
860.81032,1.11347
859.32053,1.17824
857.83075,1.09219
856.34096,1.04105
854.85117,1.05362
853.36138,0.93887
851.87159,0.86738
850.38180,0.79591
848.89202,0.64035
847.40223,0.63491
845.91244,0.59313
844.42265,0.58474
842.93286,0.57639
841.44307,0.54684
839.95329,0.55827
838.46350,0.45452
836.97371,0.50544
835.48392,0.50183
833.99413,0.49825
832.50434,0.41738
831.01455,0.49726
829.52477,0.54383
828.03498,0.44640
826.54519,0.35659
825.05540,0.26681
823.56561,0.24530
822.07582,0.26931
820.58604,0.26304
819.09625,0.21208
817.60646,0.16115
816.11667,0.10647
814.62688,0.17919
813.13709,0.11397
811.64730,0.00483
810.15752,0.05723
808.66773,0.10968
807.17794,0.02267
805.68815,0.04790
804.19836,0.04588
802.70857,0.08179
801.21879,0.11775
799.72900,0.12948
798.23921,0.19583
796.74942,0.29558
795.25963,0.28696
793.76984,0.27837
792.28006,0.36003
790.79027,0.44780
789.30048,0.52196
787.81069,0.53702
786.32090,0.53014
784.83111,0.52330
783.34132,0.56728
781.85154,0.52489
780.36175,0.51285
778.87196,0.48190
777.38217,0.45099
775.89238,0.52548
774.40259,0.68644
772.91281,0.72765
771.42302,0.71736
769.93323,0.70710
768.44344,0.76662
766.95365,0.74128
765.46386,0.77661
763.97407,0.75134
762.48429,0.72232
760.99450,0.69334
759.50471,0.72125
758.01492,0.61123
756.52513,0.38905
755.03534,0.34809
753.54556,0.30716
752.05577,0.27764
750.56598,0.18601
749.07619,0.09137
747.58640,0.13626
746.09661,0.18118
744.60683,0.11395
743.11704,0.09527
741.62725,0.09634
740.13746,0.10047
738.64767,0.10465
737.15788,0.05428
735.66809,0.03579
734.17831,0.09466
732.68852,0.10126
731.19873,0.10790
729.70894,0.10623
728.21915,0.06216
726.72936,0.04692
725.23958,0.14240
723.74979,0.13786
722.26000,0.13335
720.77021,0.17588
719.28042,0.15325
717.79063,0.00483
716.30084,0.01594
714.81106,0.02709
713.32127,0.00795
711.83148,0.11772
710.34169,0.14263
708.85190,0.16378
707.36211,0.18497
705.87233,0.13570
704.38254,0.05766
702.89275,0.18586
701.40296,0.17005
699.91317,0.15429
698.42338,0.15827
696.93360,0.22142
695.44381,0.29370
693.95402,0.25382
692.46423,0.21399
690.97444,0.31974
689.48465,0.28452
687.99486,0.25996
686.50508,0.28016
685.01529,0.30040
683.52550,0.33205
682.03571,0.34706
680.54592,0.28175
679.05613,0.31199
677.56635,0.34227
676.07656,0.31649
674.58677,0.27711
673.09698,0.18924
671.60719,0.20754
670.11740,0.22588
668.62761,0.13510
667.13783,0.15048
665.64804,0.14543
664.15825,0.14042
662.66846,0.16956
661.17867,0.14568
659.68888,0.09757
658.19910,0.12986
656.70931,0.16218
655.21952,0.11722
653.72973,0.07987
652.23994,0.23208
650.75015,0.21755
649.26037,0.20306
647.77058,0.23106
646.28079,0.07565
644.79100,0.10221
643.30121,0.12122
641.81142,0.14028
640.32163,0.08356
638.83185,0.03143
637.34206,0.04302
635.85227,0.05236
634.36248,0.06175
632.87269,0.09467
631.38290,0.00483
629.89312,0.18223
628.40333,0.15120
626.91354,0.12020
625.42375,0.16885
623.93396,0.16901
622.44417,0.15557
620.95438,0.14216
619.46460,0.08179
617.97481,0.06998
616.48502,0.04455
614.99523,0.04949
613.50544,0.05446
612.01565,0.06099
610.52587,0.05998
609.03608,0.12268
607.54629,0.11037
606.05650,0.09809
604.56671,0.19881
603.07692,0.11763
601.58714,0.12139
600.09735,0.12518
598.60756,0.04715
597.11777,0.03737
595.62798,0.14438
594.13819,0.09071
592.64840,0.03708
591.15862,0.08962
589.66883,0.09216
588.17904,0.13265
586.68925,0.14815
585.19946,0.16369
583.70967,0.16032
582.21989,0.18276
580.73010,0.13853
579.24031,0.09434
577.75052,0.13205
576.26073,0.03942
574.77094,0.07569
573.28115,0.10442
571.79137,0.13319
570.30158,0.05586
568.81179,0.16961
567.32200,0.18788
565.83221,0.20618
564.34242,0.33672
562.85264,0.41119
561.36285,0.46296
559.87306,0.46019
558.38327,0.45746
556.89348,0.43202
555.40369,0.46575
553.91391,0.49118
552.42412,0.51664
550.93433,0.57929
549.44454,0.49036
547.95475,0.52276
546.46496,0.54762
544.97517,0.57252
543.48539,0.62929
541.99560,0.64364
540.50581,0.63833
539.01602,0.63305
537.52623,0.58688
536.03644,0.49071
534.54666,0.59015
533.05687,0.63885
531.56708,0.68758
530.07729,0.62643
528.58750,0.53955
527.09771,0.49894
525.60792,0.45837
524.11814,0.43679
522.62835,0.59112
521.13856,0.45136
519.64877,0.44202
518.15898,0.43272
516.66919,0.41739
515.17941,0.48246
513.68962,0.48085
512.19983,0.47928
510.71004,0.49594
509.22025,0.53690
507.73046,0.64763
506.24068,0.59391
504.75089,0.54022
503.26110,0.61013
501.77131,0.60883
500.28152,0.54843
498.79173,0.48807
497.30194,0.50203
495.81216,0.61004
494.32237,0.59148
492.83258,0.57297
491.34279,0.75386
489.85300,0.63308
488.36321,0.63969
486.87343,0.60616
485.38364,0.57267
483.89385,0.48539
482.40406,0.38906
480.91427,0.34279
479.42448,0.29657
477.93469,0.36105
476.44491,0.34370
474.95512,0.28546
473.46533,0.22726
471.97554,0.14180
470.48575,0.00483
468.99596,0.08881
467.50618,0.07882
466.01639,0.06888
464.52660,0.08929
463.03681,0.14462
461.54702,0.12796
460.05723,0.11135
458.56745,0.10311
457.07766,0.17374
455.58787,0.23835
454.09808,0.30299
452.60829,0.31310
451.11850,0.21256
449.62871,0.21061
448.13893,0.20870
446.64914,0.25382
445.15935,0.37327
443.66956,0.51399
442.17977,0.44779
440.68998,0.38163
439.20020,0.48303
437.71041,0.56780
436.22062,0.66777
434.73083,0.76777
433.24104,0.87540
431.75125,1.01793
430.26146,1.00661
428.77168,0.99533
427.28189,1.04397
425.79210,1.00472
424.30231,1.01175
422.81252,1.01881
421.32273,1.07518
419.83295,1.01940
418.34316,0.97351
416.85337,0.92766
415.36358,0.77345
413.87379,0.63898
412.38400,0.60537
410.89422,0.57180
409.40443,0.45412
407.91464,0.48051
406.42485,0.38110
404.93506,0.37042
403.44527,0.35978
401.95548,0.38177
400.46570,0.34618
398.97591,0.37052
397.48612,0.39490
395.99633,0.42766
394.50654,0.38919
393.01675,0.31514
391.52697,0.24112
390.03718,0.08147
388.54739,0.17051
387.05760,0.19364
385.56781,0.21680
384.07802,0.25744
382.58824,0.18440
381.09845,0.18493
379.60866,0.18551
378.11887,0.13532
376.62908,0.00483
375.13929,0.04933
373.64950,0.09388
372.15972,0.13695
370.66993,0.15124
369.18014,0.14587
367.69035,0.14053
366.20056,0.20801
364.71077,0.16787
363.22099,0.16947
361.73120,0.17111
360.24141,0.27057
358.75162,0.24575
357.26183,0.19368
355.77204,0.14164
354.28225,0.07600
352.79247,0.09529
351.30268,0.18210
349.81289,0.26893
348.32310,0.22163
346.83331,0.18802
345.34352,0.14686
343.85374,0.10573
342.36395,0.19655
340.87416,0.18734
339.38437,0.13496
337.89458,0.08261
336.40479,0.07503
334.91501,0.12965
333.42522,0.09107
331.93543,0.05252
330.44564,0.11786
328.95585,0.26056
327.46606,0.13268
325.97627,0.00483
324.48649,0.08319
322.99670,0.25710
321.50691,0.22865
320.01712,0.20023
318.52733,0.19384
317.03754,0.07226
315.54776,0.08034
314.05797,0.08847
312.56818,0.09739
311.07839,0.01841
309.58860,0.06151
308.09881,0.10466
306.60902,0.10766
305.11924,0.16831
303.62945,0.11454
302.13966,0.06080
300.64987,0.00483
299.16008,0.00483
