1778.52000,0.02540
1777.03021,0.05128
1775.54042,0.07540
1774.05063,0.02621
1772.56085,0.06292
1771.07106,0.05136
1769.58127,0.02911
1768.09148,0.01940
1766.60169,0.07234
1765.11190,0.03945
1763.62212,0.06205
1762.13233,0.13119
1760.64254,0.00000
1759.15275,0.08888
1757.66296,0.11877
1756.17317,0.10396
1754.68339,0.03194
1753.19360,0.01899
1751.70381,0.03111
1750.21402,0.04684
1748.72423,0.00000
1747.23444,0.04924
1745.74465,0.02875
1744.25487,0.08700
1742.76508,0.05942
1741.27529,0.03902
1739.78550,0.11168
1738.29571,0.09493
1736.80592,0.09789
1735.31614,0.04900
1733.82635,0.07171
1732.33656,0.03541
1730.84677,0.08143
1729.35698,0.05414
1727.86719,0.04657
1726.37740,0.04976
1724.88762,0.04045
1723.39783,0.07949
1721.90804,0.12392
1720.41825,0.12008
1718.92846,0.00000
1717.43867,0.05741
1715.94889,0.05404
1714.45910,0.08826
1712.96931,0.11536
1711.47952,0.14608
1709.98973,0.17503
1708.49994,0.05554
1707.01016,0.10066
1705.52037,0.14582
1704.03058,0.18743
1702.54079,0.13605
1701.05100,0.19382
1699.56121,0.13535
1698.07142,0.10732
1696.58164,0.08291
1695.09185,0.23205
1693.60206,0.20948
1692.11227,0.18517
1690.62248,0.19845
1689.13269,0.20461
1687.64291,0.20901
1686.15312,0.24386
1684.66333,0.17140
1683.17354,0.17769
1681.68375,0.20012
1680.19396,0.22257
1678.70417,0.21465
1677.21439,0.19603
1675.72460,0.16849
1674.23481,0.19287
1672.74502,0.15645
1671.25523,0.23635
1669.76544,0.24115
1668.27566,0.18694
1666.78587,0.25799
1665.29608,0.17523
1663.80629,0.22309
1662.31650,0.19764
1660.82671,0.20263
1659.33693,0.16115
1657.84714,0.10896
1656.35735,0.17666
1654.86756,0.11918
1653.37777,0.13149
1651.88798,0.15099
1650.39819,0.14369
1648.90841,0.18651
1647.41862,0.14708
1645.92883,0.12288
1644.43904,0.09872
1642.94925,0.11842
1641.45946,0.16498
1639.96968,0.18117
1638.47989,0.10436
1636.99010,0.14744
1635.50031,0.14226
1634.01052,0.11028
1632.52073,0.20892
1631.03094,0.21993
1629.54116,0.18983
1628.05137,0.20270
1626.56158,0.20308
1625.07179,0.23212
1623.58200,0.22183
1622.09221,0.15433
1620.60243,0.12085
1619.11264,0.12855
1617.62285,0.14165
1616.13306,0.17804
1614.64327,0.14291
1613.15348,0.14358
1611.66370,0.14071
1610.17391,0.15040
1608.68412,0.19053
1607.19433,0.15734
1605.70454,0.13493
1604.21475,0.15100
1602.72496,0.16712
1601.23518,0.10544
1599.74539,0.21732
1598.25560,0.21117
1596.76581,0.14423
1595.27602,0.12920
1593.78623,0.02475
1592.29645,0.09208
1590.80666,0.11650
1589.31687,0.12664
1587.82708,0.14219
1586.33729,0.12377
1584.84750,0.12328
1583.35771,0.15503
1581.86793,0.07231
1580.37814,0.05582
1578.88835,0.13059
1577.39856,0.09449
1575.90877,0.07094
1574.41898,0.11540
1572.92920,0.07582
1571.43941,0.07204
1569.94962,0.07814
1568.45983,0.08427
1566.97004,0.11280
1565.48025,0.06980
1563.99047,0.03399
1562.50068,0.00000
1561.01089,0.11463
1559.52110,0.09513
1558.03131,0.04168
1556.54152,0.16357
1555.05173,0.09229
1553.56195,0.06218
1552.07216,0.04464
1550.58237,0.09868
1549.09258,0.04005
1547.60279,0.06375
1546.11300,0.07853
1544.62322,0.14344
1543.13343,0.13503
1541.64364,0.10519
1540.15385,0.09327
1538.66406,0.08138
1537.17427,0.09100
1535.68448,0.07918
1534.19470,0.06202
1532.70491,0.11646
1531.21512,0.07969
1529.72533,0.07874
1528.23554,0.02057
1526.74575,0.00000
1525.25597,0.07123
1523.76618,0.06914
1522.27639,0.06530
1520.78660,0.00782
1519.29681,0.06129
1517.80702,0.11658
1516.31724,0.08246
1514.82745,0.08236
1513.33766,0.07156
1511.84787,0.06079
1510.35808,0.08405
1508.86829,0.00000
1507.37850,0.06928
1505.88872,0.02589
1504.39893,0.00400
1502.90914,0.06980
1501.41935,0.02830
1499.92956,0.06018
1498.43977,0.10640
1496.94999,0.05605
1495.46020,0.14706
1493.97041,0.20411
1492.48062,0.19679
1490.99083,0.27538
1489.50104,0.29854
1488.01125,0.28953
1486.52147,0.28056
1485.03168,0.42726
1483.54189,0.47917
1482.05210,0.57405
1480.56231,0.71548
1479.07252,0.68699
1477.58274,0.82669
1476.09295,0.90739
1474.60316,0.91836
1473.11337,1.03312
1471.62358,1.03521
1470.13379,0.95682
1468.64401,0.87311
1467.15422,0.80553
1465.66443,0.79702
1464.17464,0.78853
1462.68485,0.79618
1461.19506,0.78598
1459.70527,0.84378
1458.21549,0.70484
1456.72570,0.62318
1455.23591,0.54692
1453.74612,0.58697
1452.25633,0.48572
1450.76654,0.47575
1449.27676,0.43003
1447.78697,0.41833
1446.29718,0.50505
1444.80739,0.42276
1443.31760,0.34049
1441.82781,0.19476
1440.33802,0.17964
1438.84824,0.17709
1437.35845,0.21213
1435.86866,0.25257
1434.37887,0.23222
1432.88908,0.27631
1431.39929,0.24529
1429.90951,0.19821
1428.41972,0.12432
1426.92993,0.30271
1425.44014,0.27719
1423.95035,0.29285
1422.46056,0.30854
1420.97078,0.26702
1419.48099,0.24700
1417.99120,0.26816
1416.50141,0.27861
1415.01162,0.31236
1413.52183,0.32646
1412.03204,0.33522
1410.54226,0.36012
1409.05247,0.33139
1407.56268,0.39034
1406.07289,0.36883
1404.58310,0.34913
1403.09331,0.32947
1401.60353,0.37425
1400.11374,0.47988
1398.62395,0.44421
1397.13416,0.49624
1395.64437,0.48569
1394.15458,0.56462
1392.66479,0.62569
1391.17501,0.62418
1389.68522,0.59408
1388.19543,0.51750
1386.70564,0.55545
1385.21585,0.59343
1383.72606,0.60461
1382.23628,0.57288
1380.74649,0.54298
1379.25670,0.57751
1377.76691,0.54946
1376.27712,0.74506
1374.78733,0.67415
1373.29755,0.73028
1371.80776,0.92419
1370.31797,1.01079
1368.82818,1.09654
1367.33839,1.18232
1365.84860,1.35847
1364.35881,1.57580
1362.86903,1.86471
1361.37924,1.99624
1359.88945,1.99721
1358.39966,2.00000
1356.90987,1.97062
1355.42008,1.97348
1353.93030,1.98889
1352.44051,1.93188
1350.95072,1.87491
1349.46093,1.67038
1347.97114,1.39612
1346.48135,1.14694
1344.99156,1.01228
1343.50178,0.93847
1342.01199,0.89690
1340.52220,0.78023
1339.03241,0.76734
1337.54262,0.70261
1336.05283,0.68353
1334.56305,0.66449
1333.07326,0.60343
1331.58347,0.56030
1330.09368,0.52973
1328.60389,0.48666
1327.11410,0.29515
1325.62432,0.44714
1324.13453,0.37734
1322.64474,0.37018
1321.15495,0.38989
1319.66516,0.40248
1318.17537,0.41510
1316.68558,0.39019
1315.19580,0.27765
1313.70601,0.20450
1312.21622,0.14390
1310.72643,0.26045
1309.23664,0.25537
1307.74685,0.28253
1306.25707,0.29721
1304.76728,0.25824
1303.27749,0.21931
1301.78770,0.25197
1300.29791,0.23994
1298.80812,0.19932
1297.31834,0.26785
1295.82855,0.42229
1294.33876,0.28338
1292.84897,0.18206
1291.35918,0.25073
1289.86939,0.26397
1288.37960,0.27725
1286.88982,0.35138
1285.40003,0.33073
1283.91024,0.38704
1282.42045,0.34499
1280.93066,0.41925
1279.44087,0.37011
1277.95109,0.44265
1276.46130,0.37211
1274.97151,0.32128
1273.48172,0.27049
1271.99193,0.32169
1270.50214,0.45343
1269.01235,0.45997
1267.52257,0.24652
1266.03278,0.46780
1264.54299,0.49770
1263.05320,0.45429
1261.56341,0.47531
1260.07362,0.49636
1258.58384,0.48883
1257.09405,0.48132
1255.60426,0.57224
1254.11447,0.58806
1252.62468,0.62896
1251.13489,0.57865
1249.64511,0.48902
1248.15532,0.52465
1246.66553,0.43777
1245.17574,0.35093
1243.68595,0.36518
1242.19616,0.40452
1240.70637,0.29362
1239.21659,0.27936
1237.72680,0.29017
1236.23701,0.26166
1234.74722,0.27075
1233.25743,0.21726
1231.76764,0.16380
1230.27786,0.21056
1228.78807,0.18936
1227.29828,0.23440
1225.80849,0.21685
1224.31870,0.15461
1222.82891,0.13713
1221.33912,0.15009
1219.84934,0.19529
1218.35955,0.24051
1216.86976,0.26968
1215.37997,0.21121
1213.89018,0.31736
1212.40039,0.25360
1210.91061,0.12725
1209.42082,0.13332
1207.93103,0.12869
1206.44124,0.12409
1204.95145,0.17319
1203.46166,0.17045
1201.97188,0.12301
1200.48209,0.11854
1198.99230,0.11411
1197.50251,0.06319
1196.01272,0.15543
1194.52293,0.11889
1193.03314,0.08238
1191.54336,0.11031
1190.05357,0.04346
1188.56378,0.05536
1187.07399,0.02435
1185.58420,0.10429
1184.09441,0.09303
1182.60463,0.10237
1181.11484,0.11174
1179.62505,0.05228
1178.13526,0.00000
1176.64547,0.02597
1175.15568,0.14142
1173.66589,0.28552
1172.17611,0.17564
1170.68632,0.14091
1169.19653,0.10623
1167.70674,0.12524
1166.21695,0.12281
1164.72716,0.12400
1163.23738,0.00000
1161.74759,0.14253
1160.25780,0.12766
1158.76801,0.13072
1157.27822,0.13381
1155.78843,0.06896
1154.29865,0.16871
1152.80886,0.08425
1151.31907,0.14650
1149.82928,0.15691
1148.33949,0.12442
1146.84970,0.09912
1145.35991,0.07385
1143.87013,0.03430
1142.38034,0.13611
1140.89055,0.18071
1139.40076,0.20029
1137.91097,0.25032
1136.42118,0.24314
1134.93140,0.29949
1133.44161,0.35588
1131.95182,0.44003
1130.46203,0.44371
1128.97224,0.30968
1127.48245,0.39572
1125.99266,0.48715
1124.50288,0.55000
1123.01309,0.48139
1121.52330,0.41282
1120.03351,0.52049
1118.54372,0.70153
1117.05393,0.61427
1115.56415,0.56819
1114.07436,0.45953
1112.58457,0.54053
1111.09478,0.62156
1109.60499,0.61676
1108.11520,0.57084
1106.62542,0.62513
1105.13563,0.69019
1103.64584,0.78391
1102.15605,0.85440
1100.66626,0.78719
1099.17647,0.72000
1097.68668,0.77628
1096.19690,0.90952
1094.70711,0.79949
1093.21732,0.96142
1091.72753,1.01246
1090.23774,1.00808
1088.74795,1.00374
1087.25817,1.04057
1085.76838,1.11679
1084.27859,1.06782
1082.78880,1.40708
1081.29901,1.33492
1079.80922,1.17692
1078.31943,1.27835
1076.82965,1.37981
1075.33986,1.41512
1073.85007,1.36996
1072.36028,1.36239
1070.87049,1.47114
1069.38070,1.51552
1067.89092,1.53132
1066.40113,1.54714
1064.91134,1.54332
1063.42155,1.40178
1061.93176,1.28175
1060.44197,1.14565
1058.95219,1.20278
1057.46240,1.15977
1055.97261,1.11679
1054.48282,1.00765
1052.99303,0.92359
1051.50324,0.91112
1050.01345,0.87364
1048.52367,0.81293
1047.03388,0.81576
1045.54409,0.81863
1044.05430,0.72045
1042.56451,0.57401
1041.07472,0.50989
1039.58494,0.52452
1038.09515,0.44436
1036.60536,0.41433
1035.11557,0.38433
1033.62578,0.39372
1032.13599,0.24572
1030.64620,0.35178
1029.15642,0.42030
1027.66663,0.40567
1026.17684,0.39107
1024.68705,0.39350
1023.19726,0.53013
1021.70747,0.70258
1020.21769,0.76235
1018.72790,0.87225
1017.23811,0.94819
1015.74832,1.02416
1014.25853,1.35598
1012.76874,1.50715
1011.27896,1.54208
1009.78917,1.46434
1008.29938,1.62634
1006.80959,1.56119
1005.31980,1.49606
1003.83001,1.54547
1002.34022,1.32835
1000.85044,1.20430
999.36065,1.24485
997.87086,1.17095
996.38107,1.09708
994.89128,1.13415
993.40149,0.99953
991.91171,1.07960
990.42192,1.01660
988.93213,0.94826
987.44234,0.91036
985.95255,0.87250
984.46276,0.82394
982.97297,0.82908
981.48319,0.90044
979.99340,0.73390
978.50361,0.76687
977.01382,0.79987
975.52403,0.75687
974.03424,0.63340
972.54446,0.59404
971.05467,0.62628
969.56488,0.65854
968.07509,0.60140
966.58530,0.54428
965.09551,0.58559
963.60573,0.51423
962.11594,0.57707
960.62615,0.47537
959.13636,0.46851
957.64657,0.46168
956.15678,0.30641
954.66699,0.45528
953.17721,0.41098
951.68742,0.43112
950.19763,0.37616
948.70784,0.32123
947.21805,0.41123
945.72826,0.41361
944.23848,0.38203
942.74869,0.52759
941.25890,0.50502
939.76911,0.61487
938.27932,0.72474
936.78953,0.71301
935.29974,0.61365
933.80996,0.68964
932.32017,0.66190
930.83038,0.71738
929.34059,0.77289
927.85080,0.61287
926.36101,0.56917
924.87123,0.62388
923.38144,0.51405
921.89165,0.60282
920.40186,0.69163
918.91207,0.78583
917.42228,0.69402
915.93250,0.68632
914.44271,0.91480
912.95292,0.89554
911.46313,0.87631
909.97334,0.88842
908.48355,0.92739
906.99376,0.80540
905.50398,0.74069
904.01419,0.72252
902.52440,0.70438
901.03461,0.74710
899.54482,0.88645
898.05503,0.94355
896.56525,0.92375
895.07546,0.89236
893.58567,0.86101
892.09588,0.84489
890.60609,0.92719
889.11630,0.75908
887.62651,0.71981
886.13673,0.70829
884.64694,0.69681
883.15715,0.94744
881.66736,0.89577
880.17757,0.87991
878.68778,0.93564
877.19800,0.99141
875.70821,1.05615
874.21842,1.03327
872.72863,1.02652
871.23884,1.15040
869.74905,1.09810
868.25927,1.04583
866.76948,1.18591
865.27969,1.18469
863.78990,1.31589
862.30011,1.22529
860.81032,1.16961
859.32053,1.11396
857.83075,1.04672
856.34096,1.06359
854.85117,1.11805
853.36138,0.98114
851.87159,0.92745
850.38180,0.87378
848.89202,0.70119
847.40223,0.63060
845.91244,0.64412
844.42265,0.63352
842.93286,0.62296
841.44307,0.45411
839.95329,0.50533
838.46350,0.33118
836.97371,0.36815
835.48392,0.43020
833.99413,0.49228
832.50434,0.39161
831.01455,0.36431
829.52477,0.45512
828.03498,0.33128
826.54519,0.31661
825.05540,0.30196
823.56561,0.36428
822.07582,0.27099
820.58604,0.22245
819.09625,0.20526
817.60646,0.18809
816.11667,0.21300
814.62688,0.17533
813.13709,0.13412
811.64730,0.11083
810.15752,0.08220
808.66773,0.05361
807.17794,0.00000
805.68815,0.11552
804.19836,0.28653
802.70857,0.21159
801.21879,0.13669
799.72900,0.21119
798.23921,0.18376
796.74942,0.36388
795.25963,0.35440
793.76984,0.34496
792.28006,0.38385
790.79027,0.46750
789.30048,0.58695
787.81069,0.62058
786.32090,0.61487
784.83111,0.60921
783.34132,0.63219
781.85154,0.47990
780.36175,0.60671
778.87196,0.58418
777.38217,0.56168
775.89238,0.62418
774.40259,0.64379
772.91281,0.78865
771.42302,0.75823
769.93323,0.72785
768.44344,0.66172
766.95365,0.60635
765.46386,0.75317
763.97407,0.79805
762.48429,0.73205
760.99450,0.66608
759.50471,0.56079
758.01492,0.53603
756.52513,0.38788
755.03534,0.35066
753.54556,0.31348
752.05577,0.16006
750.56598,0.18019
749.07619,0.14489
747.58640,0.14720
746.09661,0.14954
744.60683,0.11077
743.11704,0.12569
741.62725,0.08341
740.13746,0.09303
738.64767,0.10269
737.15788,0.08555
735.66809,0.10064
734.17831,0.19985
732.68852,0.11482
731.19873,0.02983
729.70894,0.19712
728.21915,0.06747
726.72936,0.06845
725.23958,0.08198
723.74979,0.15458
722.26000,0.22721
720.77021,0.12098
719.28042,0.15253
717.79063,0.01059
716.30084,0.05652
714.81106,0.10248
713.32127,0.00000
711.83148,0.06062
710.34169,0.22682
708.85190,0.22220
707.36211,0.21763
705.87233,0.17820
704.38254,0.06188
702.89275,0.15489
701.40296,0.17728
699.91317,0.19970
698.42338,0.24988
696.93360,0.28578
695.44381,0.22690
693.95402,0.25571
692.46423,0.28456
690.97444,0.24546
689.48465,0.27615
687.99486,0.27826
686.50508,0.28398
685.01529,0.28974
683.52550,0.40286
682.03571,0.34785
680.54592,0.29109
679.05613,0.25851
677.56635,0.22597
676.07656,0.31778
674.58677,0.34523
673.09698,0.27790
671.60719,0.27590
670.11740,0.27393
668.62761,0.13872
667.13783,0.22179
665.64804,0.19398
664.15825,0.16620
662.66846,0.10446
661.17867,0.09285
659.68888,0.18682
658.19910,0.16364
656.70931,0.14050
655.21952,0.19521
653.72973,0.11757
652.23994,0.17950
650.75015,0.18869
649.26037,0.19791
647.77058,0.21522
646.28079,0.00000
644.79100,0.02677
643.30121,0.06968
641.81142,0.11261
640.32163,0.14664
638.83185,0.07157
637.34206,0.03589
635.85227,0.05302
634.36248,0.07018
632.87269,0.03997
631.38290,0.14754
629.89312,0.17464
628.40333,0.11680
626.91354,0.05899
625.42375,0.09692
623.93396,0.12594
622.44417,0.12279
620.95438,0.11967
619.46460,0.10049
617.97481,0.09029
616.48502,0.21070
614.99523,0.13348
613.50544,0.05629
612.01565,0.02832
610.52587,0.08268
609.03608,0.02974
607.54629,0.10921
606.05650,0.18871
604.56671,0.18059
603.07692,0.16177
601.58714,0.18770
600.09735,0.21366
598.60756,0.19315
597.11777,0.08323
595.62798,0.12181
594.13819,0.10498
592.64840,0.08817
591.15862,0.10002
589.66883,0.19062
588.17904,0.19538
586.68925,0.15992
585.19946,0.12450
583.70967,0.21165
582.21989,0.15035
580.73010,0.17227
579.24031,0.19422
577.75052,0.17238
576.26073,0.07901
574.77094,0.13416
573.28115,0.14819
571.79137,0.16226
570.30158,0.24970
568.81179,0.11357
567.32200,0.12326
565.83221,0.13298
564.34242,0.23487
562.85264,0.39046
561.36285,0.36361
559.87306,0.34126
558.38327,0.31895
556.89348,0.42279
555.40369,0.32631
553.91391,0.39801
552.42412,0.46975
550.93433,0.45923
549.44454,0.37003
547.95475,0.47407
546.46496,0.52179
544.97517,0.56954
543.48539,0.64684
541.99560,0.62399
540.50581,0.57971
539.01602,0.53547
537.52623,0.49841
536.03644,0.50968
534.54666,0.53709
533.05687,0.56185
531.56708,0.58664
530.07729,0.58195
528.58750,0.46637
527.09771,0.54403
525.60792,0.62173
524.11814,0.51878
522.62835,0.56791
521.13856,0.45966
519.64877,0.43373
518.15898,0.40783
516.66919,0.47856
515.17941,0.40622
513.68962,0.42604
512.19983,0.44589
510.71004,0.50602
509.22025,0.54293
507.73046,0.46180
506.24068,0.52561
504.75089,0.58946
503.26110,0.54957
501.77131,0.56876
500.28152,0.53520
498.79173,0.50168
497.30194,0.48876
495.81216,0.56175
494.32237,0.64460
492.83258,0.72749
491.34279,0.59127
489.85300,0.64292
488.36321,0.57653
486.87343,0.47976
485.38364,0.38303
483.89385,0.49563
482.40406,0.45621
480.91427,0.40519
479.42448,0.35420
477.93469,0.32740
476.44491,0.30421
474.95512,0.25601
473.46533,0.20784
471.97554,0.24378
470.48575,0.16168
468.99596,0.19232
467.50618,0.15859
466.01639,0.12490
464.52660,0.00000
463.03681,0.06067
461.54702,0.08560
460.05723,0.11056
458.56745,0.11945
457.07766,0.18741
455.58787,0.18384
454.09808,0.18031
452.60829,0.27162
451.11850,0.24311
449.62871,0.23610
448.13893,0.22912
446.64914,0.33308
445.15935,0.35300
443.66956,0.40873
442.17977,0.39026
440.68998,0.37181
439.20020,0.42049
437.71041,0.49961
436.22062,0.59396
434.73083,0.68835
433.24104,0.88206
431.75125,0.93268
430.26146,0.94667
428.77168,0.96069
427.28189,1.07939
425.79210,1.03713
424.30231,1.01457
422.81252,0.99205
421.32273,0.92305
419.83295,0.85229
418.34316,0.80035
416.85337,0.74844
415.36358,0.68136
413.87379,0.76100
412.38400,0.67431
410.89422,0.58765
409.40443,0.50818
407.91464,0.42516
406.42485,0.31713
404.93506,0.37371
403.44527,0.43033
401.95548,0.45299
400.46570,0.44348
398.97591,0.46084
397.48612,0.47823
395.99633,0.28456
394.50654,0.35211
393.01675,0.32219
391.52697,0.29231
390.03718,0.21505
388.54739,0.22191
387.05760,0.26904
385.56781,0.31621
384.07802,0.36610
382.58824,0.39276
381.09845,0.33538
379.60866,0.27803
378.11887,0.24218
376.62908,0.15985
375.13929,0.18400
373.64950,0.20817
372.15972,0.13846
370.66993,0.16718
369.18014,0.19414
367.69035,0.22113
366.20056,0.13724
364.71077,0.29310
363.22099,0.27725
361.73120,0.26144
360.24141,0.16874
358.75162,0.18341
357.26183,0.18648
355.77204,0.18958
354.28225,0.03261
352.79247,0.16708
351.30268,0.17905
349.81289,0.19105
348.32310,0.19503
346.83331,0.11675
345.34352,0.11633
343.85374,0.11594
342.36395,0.12184
340.87416,0.11704
339.38437,0.11585
337.89458,0.11470
336.40479,0.12789
334.91501,0.12322
333.42522,0.10248
331.93543,0.08178
330.44564,0.11836
328.95585,0.19611
327.46606,0.13078
325.97627,0.06549
324.48649,0.24724
322.99670,0.06051
321.50691,0.06969
320.01712,0.07891
318.52733,0.09800
317.03754,0.20300
315.54776,0.13002
314.05797,0.05708
312.56818,0.04589
311.07839,0.12418
309.58860,0.06208
308.09881,0.00000
306.60902,0.12693
305.11924,0.22348
303.62945,0.17159
302.13966,0.11973
300.64987,0.05716
299.16008,0.00000
