1778.52000,0.14961
1777.03021,0.09000
1775.54042,0.08327
1774.05063,0.02374
1772.56085,0.03776
1771.07106,0.00128
1769.58127,0.09807
1768.09148,0.10301
1766.60169,0.04368
1765.11190,0.05330
1763.62212,0.05837
1762.13233,0.11401
1760.64254,0.07091
1759.15275,0.11744
1757.66296,0.13874
1756.17317,0.07739
1754.68339,0.00000
1753.19360,0.08344
1751.70381,0.04517
1750.21402,0.07586
1748.72423,0.10429
1747.23444,0.06844
1745.74465,0.07168
1744.25487,0.07955
1742.76508,0.06679
1741.27529,0.06785
1739.78550,0.07354
1738.29571,0.12062
1736.80592,0.13329
1735.31614,0.00128
1733.82635,0.11410
1732.33656,0.12589
1730.84677,0.14921
1729.35698,0.06231
1727.86719,0.13394
1726.37740,0.09536
1724.88762,0.09127
1723.39783,0.04357
1721.90804,0.09239
1720.41825,0.15503
1718.92846,0.05693
1717.43867,0.05533
1715.94889,0.09971
1714.45910,0.13035
1712.96931,0.11739
1711.47952,0.13892
1709.98973,0.09847
1708.49994,0.14994
1707.01016,0.16699
1705.52037,0.18409
1704.03058,0.13691
1702.54079,0.20921
1701.05100,0.16210
1699.56121,0.13112
1698.07142,0.23799
1696.58164,0.13128
1695.09185,0.22905
1693.60206,0.27861
1692.11227,0.28228
1690.62248,0.27909
1689.13269,0.28284
1687.64291,0.32108
1686.15312,0.31801
1684.66333,0.29890
1683.17354,0.30051
1681.68375,0.29067
1680.19396,0.31302
1678.70417,0.29177
1677.21439,0.24760
1675.72460,0.27237
1674.23481,0.29488
1672.74502,0.24164
1671.25523,0.36759
1669.76544,0.38103
1668.27566,0.36466
1666.78587,0.35291
1665.29608,0.25162
1663.80629,0.24915
1662.31650,0.29265
1660.82671,0.25579
1659.33693,0.23276
1657.84714,0.24422
1656.35735,0.24653
1654.86756,0.26037
1653.37777,0.21682
1651.88798,0.17102
1650.39819,0.25618
1648.90841,0.31152
1647.41862,0.19233
1645.92883,0.20870
1644.43904,0.22510
1642.94925,0.20480
1641.45946,0.27182
1639.96968,0.26768
1638.47989,0.30262
1636.99010,0.22505
1635.50031,0.19116
1634.01052,0.19636
1632.52073,0.16255
1631.03094,0.25281
1629.54116,0.21908
1628.05137,0.22444
1626.56158,0.23213
1625.07179,0.24446
1623.58200,0.26601
1622.09221,0.19343
1620.60243,0.21506
1619.11264,0.24132
1617.62285,0.21939
1616.13306,0.17453
1614.64327,0.24685
1613.15348,0.33759
1611.66370,0.25150
1610.17391,0.20909
1608.68412,0.22644
1607.19433,0.19560
1605.70454,0.23370
1604.21475,0.25462
1602.72496,0.27557
1601.23518,0.22881
1599.74539,0.25329
1598.25560,0.16755
1596.76581,0.21278
1595.27602,0.17077
1593.78623,0.18851
1592.29645,0.16036
1590.80666,0.11616
1589.31687,0.16618
1587.82708,0.19787
1586.33729,0.16068
1584.84750,0.16948
1583.35771,0.22425
1581.86793,0.19637
1580.37814,0.09503
1578.88835,0.03966
1577.39856,0.09459
1575.90877,0.09903
1574.41898,0.09891
1572.92920,0.10801
1571.43941,0.05974
1569.94962,0.07696
1568.45983,0.09423
1566.97004,0.11957
1565.48025,0.11969
1563.99047,0.02797
1562.50068,0.11545
1561.01089,0.19607
1559.52110,0.10217
1558.03131,0.11168
1556.54152,0.19472
1555.05173,0.16066
1553.56195,0.08529
1552.07216,0.19601
1550.58237,0.00128
1549.09258,0.11978
1547.60279,0.11887
1546.11300,0.12489
1544.62322,0.15163
1543.13343,0.05666
1541.64364,0.12023
1540.15385,0.10803
1538.66406,0.09588
1537.17427,0.11362
1535.68448,0.08087
1534.19470,0.09180
1532.70491,0.09358
1531.21512,0.08622
1529.72533,0.12483
1528.23554,0.08309
1526.74575,0.07584
1525.25597,0.05026
1523.76618,0.11200
1522.27639,0.07731
1520.78660,0.10007
1519.29681,0.06776
1517.80702,0.04696
1516.31724,0.06526
1514.82745,0.09048
1513.33766,0.07900
1511.84787,0.06755
1510.35808,0.11356
1508.86829,0.08382
1507.37850,0.00128
1505.88872,0.01822
1504.39893,0.06735
1502.90914,0.07747
1501.41935,0.10372
1499.92956,0.02893
1498.43977,0.13565
1496.94999,0.16660
1495.46020,0.22516
1493.97041,0.22863
1492.48062,0.39063
1490.99083,0.40566
1489.50104,0.52410
1488.01125,0.57367
1486.52147,0.62327
1485.03168,0.74412
1483.54189,0.92933
1482.05210,0.90784
1480.56231,1.10002
1479.07252,1.31520
1477.58274,1.39490
1476.09295,1.42411
1474.60316,1.53835
1473.11337,1.66870
1471.62358,1.60385
1470.13379,1.57120
1468.64401,1.50183
1467.15422,1.44399
1465.66443,1.38619
1464.17464,1.32843
1462.68485,1.36718
1461.19506,1.33017
1459.70527,1.32995
1458.21549,1.11844
1456.72570,1.06777
1455.23591,0.99646
1453.74612,0.85628
1452.25633,0.83100
1450.76654,0.84249
1449.27676,0.73919
1447.78697,0.70023
1446.29718,0.60160
1444.80739,0.59832
1443.31760,0.59509
1441.82781,0.49887
1440.33802,0.37283
1438.84824,0.40532
1437.35845,0.22652
1435.86866,0.36705
1434.37887,0.45707
1432.88908,0.39784
1431.39929,0.37310
1429.90951,0.30246
1428.41972,0.39035
1426.92993,0.42545
1425.44014,0.41235
1423.95035,0.39470
1422.46056,0.37709
1420.97078,0.40545
1419.48099,0.41319
1417.99120,0.39339
1416.50141,0.41728
1415.01162,0.42513
1413.52183,0.50653
1412.03204,0.44555
1410.54226,0.49256
1409.05247,0.48449
1407.56268,0.43511
1406.07289,0.45239
1404.58310,0.50071
1403.09331,0.54907
1401.60353,0.46310
1400.11374,0.47823
1398.62395,0.58529
1397.13416,0.57983
1395.64437,0.57211
1394.15458,0.58051
1392.66479,0.69231
1391.17501,0.64107
1389.68522,0.60365
1388.19543,0.60532
1386.70564,0.62425
1385.21585,0.64322
1383.72606,0.47044
1382.23628,0.54117
1380.74649,0.57290
1379.25670,0.54953
1377.76691,0.63646
1376.27712,0.60169
1374.78733,0.66114
1373.29755,0.76886
1371.80776,0.88580
1370.31797,0.99131
1368.82818,0.97855
1367.33839,0.96584
1365.84860,1.14956
1364.35881,1.36777
1362.86903,1.58602
1361.37924,1.83647
1359.88945,1.81132
1358.39966,1.78391
1356.90987,1.82315
1355.42008,1.86244
1353.93030,1.82826
1352.44051,1.76885
1350.95072,1.70948
1349.46093,1.53071
1347.97114,1.31752
1346.48135,1.14802
1344.99156,0.99004
1343.50178,1.05260
1342.01199,1.01874
1340.52220,1.02855
1339.03241,0.86154
1337.54262,0.83468
1336.05283,0.79868
1334.56305,0.76271
1333.07326,0.69693
1331.58347,0.69090
1330.09368,0.68491
1328.60389,0.58249
1327.11410,0.66387
1325.62432,0.54544
1324.13453,0.59244
1322.64474,0.62111
1321.15495,0.65440
1319.66516,0.57863
1318.17537,0.50290
1316.68558,0.51565
1315.19580,0.37223
1313.70601,0.44018
1312.21622,0.44615
1310.72643,0.34879
1309.23664,0.28593
1307.74685,0.38619
1306.25707,0.44285
1304.76728,0.34566
1303.27749,0.24850
1301.78770,0.31216
1300.29791,0.35750
1298.80812,0.37301
1297.31834,0.39774
1295.82855,0.50751
1294.33876,0.44045
1292.84897,0.34356
1291.35918,0.40521
1289.86939,0.35664
1288.37960,0.30811
1286.88982,0.39974
1285.40003,0.39493
1283.91024,0.42461
1282.42045,0.58527
1280.93066,0.51167
1279.44087,0.52999
1277.95109,0.58969
1276.46130,0.45648
1274.97151,0.46803
1273.48172,0.47962
1271.99193,0.50962
1270.50214,0.59019
1269.01235,0.61797
1267.52257,0.65498
1266.03278,0.72189
1264.54299,0.60737
1263.05320,0.72949
1261.56341,0.70234
1260.07362,0.67523
1258.58384,0.71477
1257.09405,0.79570
1255.60426,0.80086
1254.11447,0.81526
1252.62468,0.83658
1251.13489,0.74080
1249.64511,0.58533
1248.15532,0.54935
1246.66553,0.51570
1245.17574,0.48209
1243.68595,0.58864
1242.19616,0.42878
1240.70637,0.41137
1239.21659,0.41237
1237.72680,0.34451
1236.23701,0.42139
1234.74722,0.38576
1233.25743,0.34213
1231.76764,0.29854
1230.27786,0.33194
1228.78807,0.30566
1227.29828,0.23807
1225.80849,0.24172
1224.31870,0.33959
1222.82891,0.31576
1221.33912,0.22995
1219.84934,0.24180
1218.35955,0.25369
1216.86976,0.23002
1215.37997,0.28219
1213.89018,0.28386
1212.40039,0.12938
1210.91061,0.17707
1209.42082,0.18575
1207.93103,0.15198
1206.44124,0.11824
1204.95145,0.12475
1203.46166,0.12210
1201.97188,0.09423
1200.48209,0.07099
1198.99230,0.07765
1197.50251,0.04070
1196.01272,0.15310
1194.52293,0.08293
1193.03314,0.01280
1191.54336,0.00128
1190.05357,0.07890
1188.56378,0.01414
1187.07399,0.00914
1185.58420,0.05702
1184.09441,0.10723
1182.60463,0.05871
1181.11484,0.01023
1179.62505,0.05826
1178.13526,0.00296
1176.64547,0.04354
1175.15568,0.12550
1173.66589,0.22588
1172.17611,0.08742
1170.68632,0.05235
1169.19653,0.01732
1167.70674,0.03517
1166.21695,0.09210
1164.72716,0.11462
1163.23738,0.00625
1161.74759,0.00128
1160.25780,0.03705
1158.76801,0.04185
1157.27822,0.04669
1155.78843,0.01826
1154.29865,0.12539
1152.80886,0.03043
1151.31907,0.09630
1149.82928,0.01979
1148.33949,0.04210
1146.84970,0.05295
1145.35991,0.06385
1143.87013,0.07479
1142.38034,0.10873
1140.89055,0.17258
1139.40076,0.16296
1137.91097,0.31646
1136.42118,0.26787
1134.93140,0.32958
1133.44161,0.39132
1131.95182,0.48756
1130.46203,0.41616
1128.97224,0.35169
1127.48245,0.45264
1125.99266,0.48702
1124.50288,0.50535
1123.01309,0.53751
1121.52330,0.56971
1120.03351,0.66626
1118.54372,0.72381
1117.05393,0.63668
1115.56415,0.60242
1114.07436,0.57510
1112.58457,0.61672
1111.09478,0.65838
1109.60499,0.68630
1108.11520,0.74871
1106.62542,0.68253
1105.13563,0.88054
1103.64584,0.99820
1102.15605,1.12738
1100.66626,1.14980
1099.17647,1.17225
1097.68668,1.07185
1096.19690,1.12309
1094.70711,1.27544
1093.21732,1.32676
1091.72753,1.40339
1090.23774,1.39392
1088.74795,1.38449
1087.25817,1.36935
1085.76838,1.50356
1084.27859,1.46094
1082.78880,1.67103
1081.29901,1.68132
1079.80922,1.71002
1078.31943,1.74911
1076.82965,1.78823
1075.33986,1.72517
1073.85007,1.82754
1072.36028,1.78293
1070.87049,1.89916
1069.38070,1.94422
1067.89092,1.97209
1066.40113,2.00000
1064.91134,1.88209
1063.42155,1.69302
1061.93176,1.75206
1060.44197,1.69628
1058.95219,1.61069
1057.46240,1.56533
1055.97261,1.52002
1054.48282,1.36793
1052.99303,1.28020
1051.50324,1.22466
1050.01345,1.15768
1048.52367,1.17572
1047.03388,1.08126
1045.54409,0.98683
1044.05430,1.00270
1042.56451,0.90146
1041.07472,0.74513
1039.58494,0.68761
1038.09515,0.60946
1036.60536,0.59452
1035.11557,0.57961
1033.62578,0.42578
1032.13599,0.42588
1030.64620,0.46507
1029.15642,0.46984
1027.66663,0.47581
1026.17684,0.48181
1024.68705,0.50048
1023.19726,0.60419
1021.70747,0.66658
1020.21769,0.86454
1018.72790,0.94768
1017.23811,1.06762
1015.74832,1.18760
1014.25853,1.38341
1012.76874,1.36565
1011.27896,1.55695
1009.78917,1.57143
1008.29938,1.49636
1006.80959,1.55111
1005.31980,1.60590
1003.83001,1.60215
1002.34022,1.55251
1000.85044,1.49601
999.36065,1.30403
997.87086,1.27863
996.38107,1.25326
994.89128,1.25434
993.40149,1.26695
991.91171,1.26122
990.42192,1.22568
988.93213,1.31191
987.44234,1.26380
985.95255,1.21574
984.46276,1.24696
982.97297,1.22309
981.48319,1.19467
979.99340,1.13184
978.50361,1.15747
977.01382,1.18315
975.52403,1.03544
974.03424,0.96817
972.54446,0.86878
971.05467,1.13464
969.56488,0.82171
968.07509,0.86025
966.58530,0.89884
965.09551,0.75600
963.60573,0.84749
962.11594,0.81729
960.62615,0.76185
959.13636,0.70186
957.64657,0.64191
956.15678,0.63713
954.66699,0.63698
953.17721,0.56566
951.68742,0.54721
950.19763,0.60690
948.70784,0.66663
947.21805,0.74018
945.72826,0.71730
944.23848,0.69905
942.74869,0.82784
941.25890,0.81656
939.76911,0.86159
938.27932,0.90667
936.78953,0.79214
935.29974,0.98544
933.80996,0.98584
932.32017,0.97480
930.83038,1.02007
929.34059,1.06538
927.85080,1.11187
926.36101,0.98614
924.87123,0.98218
923.38144,0.95529
921.89165,1.00080
920.40186,1.04634
918.91207,1.20792
917.42228,1.17430
915.93250,1.17977
914.44271,1.33687
912.95292,1.35046
911.46313,1.36408
909.97334,1.42713
908.48355,1.42360
906.99376,1.33742
905.50398,1.40059
904.01419,1.39833
902.52440,1.39611
901.03461,1.56965
899.54482,1.57554
898.05503,1.52406
896.56525,1.58516
895.07546,1.56821
893.58567,1.55130
892.09588,1.41498
890.60609,1.58420
889.11630,1.48241
887.62651,1.33703
886.13673,1.43630
884.64694,1.53562
883.15715,1.50980
881.66736,1.50928
880.17757,1.47434
878.68778,1.53017
877.19800,1.58605
875.70821,1.47772
874.21842,1.55779
872.72863,1.61493
871.23884,1.53889
869.74905,1.56510
868.25927,1.59135
866.76948,1.58433
865.27969,1.69219
863.78990,1.68296
862.30011,1.58188
860.81032,1.55090
859.32053,1.51996
857.83075,1.52237
856.34096,1.53400
854.85117,1.44920
853.36138,1.33687
851.87159,1.22688
850.38180,1.11693
848.89202,1.01392
847.40223,0.85121
845.91244,0.77584
844.42265,0.75907
842.93286,0.74234
841.44307,0.56372
839.95329,0.61254
838.46350,0.64532
836.97371,0.51045
835.48392,0.48933
833.99413,0.46825
832.50434,0.51496
831.01455,0.56861
829.52477,0.70498
828.03498,0.51293
826.54519,0.46908
825.05540,0.42526
823.56561,0.35966
822.07582,0.34922
820.58604,0.30897
819.09625,0.30206
817.60646,0.29519
816.11667,0.17236
814.62688,0.20347
813.13709,0.13585
811.64730,0.16244
810.15752,0.14543
808.66773,0.12846
807.17794,0.00128
805.68815,0.20562
804.19836,0.14815
802.70857,0.20211
801.21879,0.25612
799.72900,0.23092
798.23921,0.38263
796.74942,0.53438
795.25963,0.53112
793.76984,0.52790
792.28006,0.67976
790.79027,0.87531
789.30048,0.87565
787.81069,0.96792
786.32090,0.92584
784.83111,0.88381
783.34132,0.93025
781.85154,0.80446
780.36175,0.94975
778.87196,0.89409
777.38217,0.83847
775.89238,0.98847
774.40259,1.05352
772.91281,1.09335
771.42302,1.15733
769.93323,1.22135
768.44344,1.24292
766.95365,1.23237
765.46386,1.27009
763.97407,1.12639
762.48429,1.02753
760.99450,0.92870
759.50471,0.82417
758.01492,0.81615
756.52513,0.71170
755.03534,0.59006
753.54556,0.46846
752.05577,0.34575
750.56598,0.29428
749.07619,0.34163
747.58640,0.24775
746.09661,0.15391
744.60683,0.21285
743.11704,0.09038
741.62725,0.08739
740.13746,0.07754
738.64767,0.06774
737.15788,0.07405
735.66809,0.15391
734.17831,0.14422
732.68852,0.12768
731.19873,0.11118
729.70894,0.06946
728.21915,0.06223
726.72936,0.06192
725.23958,0.11449
723.74979,0.13379
722.26000,0.15313
720.77021,0.19663
719.28042,0.00128
717.79063,0.15261
716.30084,0.09151
714.81106,0.03045
713.32127,0.14975
711.83148,0.10829
710.34169,0.14956
708.85190,0.14953
707.36211,0.14954
705.87233,0.22998
704.38254,0.12440
702.89275,0.19114
701.40296,0.18901
699.91317,0.18692
698.42338,0.15271
696.93360,0.24487
695.44381,0.15790
693.95402,0.21684
692.46423,0.27581
690.97444,0.31759
689.48465,0.35023
687.99486,0.44033
686.50508,0.42022
685.01529,0.40014
683.52550,0.52481
682.03571,0.46577
680.54592,0.33785
679.05613,0.39488
677.56635,0.45195
676.07656,0.36091
674.58677,0.33651
673.09698,0.26162
671.60719,0.25798
670.11740,0.25438
668.62761,0.31972
667.13783,0.24958
665.64804,0.23117
664.15825,0.21279
662.66846,0.28518
661.17867,0.16237
659.68888,0.11081
658.19910,0.17528
656.70931,0.23979
655.21952,0.20672
653.72973,0.26786
652.23994,0.28540
650.75015,0.25589
649.26037,0.22643
647.77058,0.22341
646.28079,0.21125
644.79100,0.18994
643.30121,0.20082
641.81142,0.21175
640.32163,0.19974
638.83185,0.11427
637.34206,0.00128
635.85227,0.05089
634.36248,0.10054
632.87269,0.18469
631.38290,0.23901
629.89312,0.24055
628.40333,0.20996
626.91354,0.17942
625.42375,0.19255
623.93396,0.17127
622.44417,0.21894
620.95438,0.26665
619.46460,0.12605
617.97481,0.17613
616.48502,0.09533
614.99523,0.15698
613.50544,0.21866
612.01565,0.10812
610.52587,0.11475
609.03608,0.05252
607.54629,0.11781
606.05650,0.18314
604.56671,0.22209
603.07692,0.23582
601.58714,0.26222
600.09735,0.28866
598.60756,0.20603
597.11777,0.05683
595.62798,0.06386
594.13819,0.11342
592.64840,0.16303
591.15862,0.18855
589.66883,0.16358
588.17904,0.11568
586.68925,0.14133
585.19946,0.16701
583.70967,0.21800
582.21989,0.25065
580.73010,0.26152
579.24031,0.27243
577.75052,0.22480
576.26073,0.20938
574.77094,0.20777
573.28115,0.23032
571.79137,0.25291
570.30158,0.33411
568.81179,0.23160
567.32200,0.29451
565.83221,0.35745
564.34242,0.35153
562.85264,0.42603
561.36285,0.51896
559.87306,0.55564
558.38327,0.59237
556.89348,0.57056
555.40369,0.58555
553.91391,0.64421
552.42412,0.70292
550.93433,0.86043
549.44454,0.79748
547.95475,0.95737
546.46496,0.98062
544.97517,1.00392
543.48539,0.94342
541.99560,0.98173
540.50581,0.98562
539.01602,0.98955
537.52623,0.80058
536.03644,1.02510
534.54666,0.83620
533.05687,0.90805
531.56708,0.97994
530.07729,1.01397
528.58750,0.91481
527.09771,0.89723
525.60792,0.87970
524.11814,0.79904
522.62835,0.92284
521.13856,0.72511
519.64877,0.74793
518.15898,0.77079
516.66919,0.69951
515.17941,0.79365
513.68962,0.79251
512.19983,0.79140
510.71004,0.76163
509.22025,0.77094
507.73046,0.73435
506.24068,0.76326
504.75089,0.79222
503.26110,0.71211
501.77131,0.70554
500.28152,0.69900
498.79173,0.69251
497.30194,0.79172
495.81216,0.76463
494.32237,0.77549
492.83258,0.78638
491.34279,0.86967
489.85300,0.73937
488.36321,0.68492
486.87343,0.63280
485.38364,0.58073
483.89385,0.55625
482.40406,0.41008
480.91427,0.37305
479.42448,0.33606
477.93469,0.42429
476.44491,0.27138
474.95512,0.23911
473.46533,0.20687
471.97554,0.10231
470.48575,0.12413
468.99596,0.00128
467.50618,0.04656
466.01639,0.09188
464.52660,0.09360
463.03681,0.04711
461.54702,0.09944
460.05723,0.15181
458.56745,0.11004
457.07766,0.22221
455.58787,0.19200
454.09808,0.16184
452.60829,0.41194
451.11850,0.37266
449.62871,0.32768
448.13893,0.28274
446.64914,0.32628
445.15935,0.46173
443.66956,0.68450
442.17977,0.66499
440.68998,0.64551
439.20020,0.82936
437.71041,0.88921
436.22062,0.97895
434.73083,1.06874
433.24104,1.21599
431.75125,1.54934
430.26146,1.54162
428.77168,1.53394
427.28189,1.54583
425.79210,1.82650
424.30231,1.71787
422.81252,1.60929
421.32273,1.59377
419.83295,1.42439
418.34316,1.37450
416.85337,1.32464
415.36358,1.04053
413.87379,1.05048
412.38400,0.97317
410.89422,0.89591
409.40443,0.87611
407.91464,0.89770
406.42485,0.90554
404.93506,0.85370
403.44527,0.80190
401.95548,0.70880
400.46570,0.68923
398.97591,0.73058
397.48612,0.77197
395.99633,0.61930
394.50654,0.66421
393.01675,0.64025
391.52697,0.61632
390.03718,0.56258
388.54739,0.54104
387.05760,0.63553
385.56781,0.73006
384.07802,0.87401
382.58824,0.61833
381.09845,0.54186
379.60866,0.46542
378.11887,0.51306
376.62908,0.44359
375.13929,0.40862
373.64950,0.37368
372.15972,0.40540
370.66993,0.45323
369.18014,0.44828
367.69035,0.44336
366.20056,0.39254
364.71077,0.32109
363.22099,0.32089
361.73120,0.32073
360.24141,0.34357
358.75162,0.31132
357.26183,0.27453
355.77204,0.23777
354.28225,0.16200
352.79247,0.00128
351.30268,0.03982
349.81289,0.07839
348.32310,0.13768
346.83331,0.08905
345.34352,0.09789
343.85374,0.10676
342.36395,0.11567
340.87416,0.19353
339.38437,0.16003
337.89458,0.12657
336.40479,0.11726
334.91501,0.05057
333.42522,0.06317
331.93543,0.07580
330.44564,0.15164
328.95585,0.18617
327.46606,0.13461
325.97627,0.08308
324.48649,0.03964
322.99670,0.08811
321.50691,0.12054
320.01712,0.15301
318.52733,0.10743
317.03754,0.15376
315.54776,0.11400
314.05797,0.07427
312.56818,0.00128
311.07839,0.19490
309.58860,0.16346
308.09881,0.13206
306.60902,0.03409
305.11924,0.09694
303.62945,0.05187
302.13966,0.00685
300.64987,0.05458
299.16008,0.00128
