1778.52000,0.06016
1777.03021,0.07976
1775.54042,0.00209
1774.05063,0.02755
1772.56085,0.03417
1771.07106,0.05533
1769.58127,0.11138
1768.09148,0.07888
1766.60169,0.04205
1765.11190,0.08367
1763.62212,0.05126
1762.13233,0.08568
1760.64254,0.06640
1759.15275,0.04280
1757.66296,0.07586
1756.17317,0.10459
1754.68339,0.05785
1753.19360,0.01404
1751.70381,0.04286
1750.21402,0.02671
1748.72423,0.02800
1747.23444,0.04530
1745.74465,0.05247
1744.25487,0.08725
1742.76508,0.06980
1741.27529,0.06399
1739.78550,0.07853
1738.29571,0.05681
1736.80592,0.06561
1735.31614,0.01056
1733.82635,0.06734
1732.33656,0.05445
1730.84677,0.02417
1729.35698,0.01860
1727.86719,-0.00000
1726.37740,0.07726
1724.88762,0.00209
1723.39783,0.09863
1721.90804,0.15744
1720.41825,0.04204
1718.92846,0.03847
1717.43867,0.02042
1715.94889,0.08806
1714.45910,0.05700
1712.96931,0.10148
1711.47952,0.07629
1709.98973,0.06710
1708.49994,0.08988
1707.01016,0.08366
1705.52037,0.07747
1704.03058,0.09163
1702.54079,0.09712
1701.05100,0.11570
1699.56121,0.14303
1698.07142,0.13409
1696.58164,0.12227
1695.09185,0.11629
1693.60206,0.10453
1692.11227,0.16396
1690.62248,0.15372
1689.13269,0.24805
1687.64291,0.21319
1686.15312,0.19287
1684.66333,0.18130
1683.17354,0.19735
1681.68375,0.19309
1680.19396,0.20775
1678.70417,0.19340
1677.21439,0.21538
1675.72460,0.14590
1674.23481,0.19699
1672.74502,0.17259
1671.25523,0.19033
1669.76544,0.21247
1668.27566,0.17219
1666.78587,0.11161
1665.29608,0.15997
1663.80629,0.21272
1662.31650,0.13191
1660.82671,0.16875
1659.33693,0.12285
1657.84714,0.16410
1656.35735,0.10519
1654.86756,0.14650
1653.37777,0.10363
1651.88798,0.10290
1650.39819,0.13414
1648.90841,0.09716
1647.41862,0.12121
1645.92883,0.12713
1644.43904,0.13308
1642.94925,0.08316
1641.45946,0.10733
1639.96968,0.08651
1638.47989,0.11509
1636.99010,0.11467
1635.50031,0.08668
1634.01052,0.05582
1632.52073,0.09469
1631.03094,0.08858
1629.54116,0.15364
1628.05137,0.11855
1626.56158,0.17206
1625.07179,0.15446
1623.58200,0.16737
1622.09221,0.18903
1620.60243,0.13667
1619.11264,0.14241
1617.62285,0.08285
1616.13306,0.11625
1614.64327,0.14097
1613.15348,0.15119
1611.66370,0.20937
1610.17391,0.16157
1608.68412,0.08913
1607.19433,0.16482
1605.70454,0.07646
1604.21475,0.10429
1602.72496,0.13216
1601.23518,0.13247
1599.74539,0.22719
1598.25560,0.07654
1596.76581,0.09727
1595.27602,0.10060
1593.78623,0.08509
1592.29645,0.05654
1590.80666,0.10498
1589.31687,0.08375
1587.82708,0.06546
1586.33729,0.10673
1584.84750,0.11028
1583.35771,0.08917
1581.86793,0.05358
1580.37814,0.10368
1578.88835,0.10445
1577.39856,0.05733
1575.90877,0.07558
1574.41898,0.05321
1572.92920,0.03958
1571.43941,0.06809
1569.94962,0.06686
1568.45983,0.06566
1566.97004,0.05361
1565.48025,0.04448
1563.99047,0.02959
1562.50068,0.08877
1561.01089,0.05360
1559.52110,0.05186
1558.03131,0.10098
1556.54152,0.11092
1555.05173,0.11363
1553.56195,0.08152
1552.07216,0.09590
1550.58237,0.05659
1549.09258,0.05943
1547.60279,0.11020
1546.11300,0.10148
1544.62322,0.05068
1543.13343,0.10010
1541.64364,0.05226
1540.15385,0.03858
1538.66406,0.02493
1537.17427,0.07592
1535.68448,0.03837
1534.19470,0.02118
1532.70491,0.06646
1531.21512,0.02174
1529.72533,0.06853
1528.23554,0.00209
1526.74575,0.07502
1525.25597,0.14799
1523.76618,0.04093
1522.27639,0.05442
1520.78660,0.05632
1519.29681,0.02631
1517.80702,0.07329
1516.31724,0.08255
1514.82745,0.04392
1513.33766,0.03653
1511.84787,0.02918
1510.35808,0.08648
1508.86829,0.04797
1507.37850,0.08500
1505.88872,0.00009
1504.39893,0.00672
1502.90914,0.09178
1501.41935,0.10573
1499.92956,0.00209
1498.43977,0.12488
1496.94999,0.10395
1495.46020,0.14549
1493.97041,0.12897
1492.48062,0.15605
1490.99083,0.17445
1489.50104,0.31630
1488.01125,0.34129
1486.52147,0.36632
1485.03168,0.39209
1483.54189,0.50212
1482.05210,0.53087
1480.56231,0.65112
1479.07252,0.74817
1477.58274,0.80460
1476.09295,0.84654
1474.60316,0.88560
1473.11337,0.94647
1471.62358,0.98850
1470.13379,0.91149
1468.64401,0.83306
1467.15422,0.75901
1465.66443,0.79753
1464.17464,0.83609
1462.68485,0.82748
1461.19506,0.87698
1459.70527,0.79292
1458.21549,0.69147
1456.72570,0.61910
1455.23591,0.59031
1453.74612,0.54268
1452.25633,0.60543
1450.76654,0.51140
1449.27676,0.51178
1447.78697,0.40473
1446.29718,0.41388
1444.80739,0.37442
1443.31760,0.33499
1441.82781,0.29777
1440.33802,0.22718
1438.84824,0.24229
1437.35845,0.27922
1435.86866,0.27116
1434.37887,0.28636
1432.88908,0.27691
1431.39929,0.24717
1429.90951,0.17534
1428.41972,0.24294
1426.92993,0.26411
1425.44014,0.30418
1423.95035,0.26878
1422.46056,0.23341
1420.97078,0.26776
1419.48099,0.22229
1417.99120,0.24654
1416.50141,0.23888
1415.01162,0.32999
1413.52183,0.32094
1412.03204,0.25093
1410.54226,0.36536
1409.05247,0.35060
1407.56268,0.37216
1406.07289,0.46781
1404.58310,0.40231
1403.09331,0.33685
1401.60353,0.34546
1400.11374,0.33959
1398.62395,0.44992
1397.13416,0.47895
1395.64437,0.53126
1394.15458,0.54584
1392.66479,0.60110
1391.17501,0.56637
1389.68522,0.66091
1388.19543,0.64076
1386.70564,0.62282
1385.21585,0.60491
1383.72606,0.56598
1382.23628,0.58081
1380.74649,0.57098
1379.25670,0.62071
1377.76691,0.60949
1376.27712,0.60411
1374.78733,0.71202
1373.29755,0.89982
1371.80776,0.91341
1370.31797,1.08239
1368.82818,1.16646
1367.33839,1.25057
1365.84860,1.30929
1364.35881,1.65555
1362.86903,1.70562
1361.37924,1.87479
1359.88945,1.92492
1358.39966,1.99977
1356.90987,1.99188
1355.42008,2.00000
1353.93030,1.91521
1352.44051,1.80650
1350.95072,1.69782
1349.46093,1.61603
1347.97114,1.32663
1346.48135,1.14762
1344.99156,1.04559
1343.50178,1.02491
1342.01199,0.98248
1340.52220,0.86167
1339.03241,0.73073
1337.54262,0.66661
1336.05283,0.69545
1334.56305,0.72433
1333.07326,0.52381
1331.58347,0.58614
1330.09368,0.53524
1328.60389,0.49744
1327.11410,0.42918
1325.62432,0.42775
1324.13453,0.35229
1322.64474,0.49902
1321.15495,0.50639
1319.66516,0.45498
1318.17537,0.40360
1316.68558,0.33410
1315.19580,0.32707
1313.70601,0.25764
1312.21622,0.22453
1310.72643,0.24082
1309.23664,0.24263
1307.74685,0.39257
1306.25707,0.31458
1304.76728,0.28453
1303.27749,0.25451
1301.78770,0.29277
1300.29791,0.32525
1298.80812,0.31856
1297.31834,0.23784
1295.82855,0.23411
1294.33876,0.26091
1292.84897,0.19771
1291.35918,0.30443
1289.86939,0.31462
1288.37960,0.32484
1286.88982,0.29080
1285.40003,0.41652
1283.91024,0.35786
1282.42045,0.35151
1280.93066,0.32340
1279.44087,0.41439
1277.95109,0.37037
1276.46130,0.41932
1274.97151,0.38843
1273.48172,0.35757
1271.99193,0.43129
1270.50214,0.40631
1269.01235,0.47428
1267.52257,0.45662
1266.03278,0.45640
1264.54299,0.55641
1263.05320,0.52577
1261.56341,0.52420
1260.07362,0.52266
1258.58384,0.45290
1257.09405,0.53710
1255.60426,0.65036
1254.11447,0.60974
1252.62468,0.58076
1251.13489,0.56488
1249.64511,0.48660
1248.15532,0.40980
1246.66553,0.41507
1245.17574,0.42037
1243.68595,0.33494
1242.19616,0.41509
1240.70637,0.36312
1239.21659,0.38234
1237.72680,0.26510
1236.23701,0.24226
1234.74722,0.32401
1233.25743,0.30705
1231.76764,0.29012
1230.27786,0.28338
1228.78807,0.24618
1227.29828,0.20176
1225.80849,0.21254
1224.31870,0.20592
1222.82891,0.13255
1221.33912,0.18988
1219.84934,0.20296
1218.35955,0.21608
1216.86976,0.23285
1215.37997,0.29467
1213.89018,0.21421
1212.40039,0.27318
1210.91061,0.16375
1209.42082,0.17923
1207.93103,0.16061
1206.44124,0.14202
1204.95145,0.14452
1203.46166,0.13688
1201.97188,0.09588
1200.48209,0.11734
1198.99230,0.09673
1197.50251,0.00209
1196.01272,0.10399
1194.52293,0.08033
1193.03314,0.05669
1191.54336,0.03091
1190.05357,0.11551
1188.56378,0.02880
1187.07399,0.05393
1185.58420,0.04860
1184.09441,0.02877
1182.60463,0.04746
1181.11484,0.06618
1179.62505,0.03338
1178.13526,0.04562
1176.64547,0.04773
1175.15568,0.13119
1173.66589,0.10868
1172.17611,0.15008
1170.68632,0.10222
1169.19653,0.05439
1167.70674,0.08573
1166.21695,0.05756
1164.72716,0.03958
1163.23738,0.06956
1161.74759,0.07198
1160.25780,0.08169
1158.76801,0.07327
1157.27822,0.06489
1155.78843,0.00209
1154.29865,0.02607
1152.80886,0.00507
1151.31907,0.00297
1149.82928,0.04447
1148.33949,0.06567
1146.84970,0.06221
1145.35991,0.05878
1143.87013,0.02780
1142.38034,0.08687
1140.89055,0.07483
1139.40076,0.13106
1137.91097,0.20039
1136.42118,0.23490
1134.93140,0.26363
1133.44161,0.29240
1131.95182,0.35314
1130.46203,0.30936
1128.97224,0.28885
1127.48245,0.38453
1125.99266,0.39457
1124.50288,0.45111
1123.01309,0.43580
1121.52330,0.42052
1120.03351,0.43795
1118.54372,0.59480
1117.05393,0.59486
1115.56415,0.42506
1114.07436,0.44116
1112.58457,0.42025
1111.09478,0.39938
1109.60499,0.45477
1108.11520,0.45938
1106.62542,0.51918
1105.13563,0.62985
1103.64584,0.59679
1102.15605,0.70460
1100.66626,0.69774
1099.17647,0.69091
1097.68668,0.70734
1096.19690,0.71799
1094.70711,0.73594
1093.21732,0.82942
1091.72753,0.82710
1090.23774,0.82408
1088.74795,0.82109
1087.25817,0.95971
1085.76838,0.98074
1084.27859,0.97712
1082.78880,1.07227
1081.29901,1.12679
1079.80922,1.09712
1078.31943,1.10451
1076.82965,1.11194
1075.33986,1.22031
1073.85007,1.10945
1072.36028,1.14092
1070.87049,1.27116
1069.38070,1.18653
1067.89092,1.27182
1066.40113,1.35714
1064.91134,1.22469
1063.42155,1.05451
1061.93176,1.08329
1060.44197,1.05257
1058.95219,0.92895
1057.46240,0.89684
1055.97261,0.86476
1054.48282,0.82690
1052.99303,0.81521
1051.50324,0.70627
1050.01345,0.70480
1048.52367,0.55381
1047.03388,0.54950
1045.54409,0.54522
1044.05430,0.50467
1042.56451,0.43076
1041.07472,0.44835
1039.58494,0.37450
1038.09515,0.31956
1036.60536,0.30385
1035.11557,0.28817
1033.62578,0.30301
1032.13599,0.23657
1030.64620,0.22825
1029.15642,0.28239
1027.66663,0.26033
1026.17684,0.23830
1024.68705,0.21848
1023.19726,0.30759
1021.70747,0.48676
1020.21769,0.55996
1018.72790,0.62884
1017.23811,0.74421
1015.74832,0.85961
1014.25853,1.00844
1012.76874,1.18344
1011.27896,1.21907
1009.78917,1.23876
1008.29938,1.38191
1006.80959,1.32034
1005.31980,1.25881
1003.83001,1.16972
1002.34022,1.27233
1000.85044,1.07295
999.36065,0.98395
997.87086,0.95960
996.38107,0.93528
994.89128,0.85508
993.40149,0.93465
991.91171,0.83273
990.42192,0.81942
988.93213,0.78582
987.44234,0.79217
985.95255,0.79856
984.46276,0.78828
982.97297,0.70397
981.48319,0.70101
979.99340,0.63564
978.50361,0.63420
977.01382,0.63278
975.52403,0.61978
974.03424,0.60390
972.54446,0.48206
971.05467,0.53449
969.56488,0.43013
968.07509,0.44197
966.58530,0.45384
965.09551,0.32489
963.60573,0.31794
962.11594,0.36620
960.62615,0.36802
959.13636,0.32995
957.64657,0.29190
956.15678,0.27930
954.66699,0.26092
953.17721,0.25563
951.68742,0.21989
950.19763,0.24879
948.70784,0.27772
947.21805,0.23191
945.72826,0.26163
944.23848,0.33784
942.74869,0.36617
941.25890,0.46132
939.76911,0.49988
938.27932,0.53846
936.78953,0.53497
935.29974,0.49085
933.80996,0.59923
932.32017,0.50725
930.83038,0.50170
929.34059,0.49618
927.85080,0.52482
926.36101,0.46491
924.87123,0.40939
923.38144,0.42650
921.89165,0.47050
920.40186,0.51454
918.91207,0.54626
917.42228,0.62012
915.93250,0.53575
914.44271,0.59225
912.95292,0.58126
911.46313,0.57030
909.97334,0.62834
908.48355,0.64285
906.99376,0.57899
905.50398,0.54855
904.01419,0.54791
902.52440,0.54730
901.03461,0.67232
899.54482,0.76107
898.05503,0.75547
896.56525,0.68020
895.07546,0.71604
893.58567,0.75192
892.09588,0.74063
890.60609,0.69307
889.11630,0.70363
887.62651,0.57482
886.13673,0.59778
884.64694,0.62077
883.15715,0.64306
881.66736,0.78736
880.17757,0.75744
878.68778,0.79289
877.19800,0.82838
875.70821,0.90600
874.21842,0.96188
872.72863,1.09474
871.23884,1.00838
869.74905,0.97286
868.25927,0.93738
866.76948,0.96147
865.27969,0.97977
863.78990,1.05619
862.30011,1.01502
860.81032,0.98187
859.32053,0.94875
857.83075,0.97157
856.34096,0.97989
854.85117,0.98244
853.36138,0.76576
851.87159,0.71755
850.38180,0.66936
848.89202,0.55006
847.40223,0.50630
845.91244,0.43643
844.42265,0.48130
842.93286,0.52620
841.44307,0.31848
839.95329,0.42588
838.46350,0.32567
836.97371,0.36488
835.48392,0.34968
833.99413,0.33450
832.50434,0.37381
831.01455,0.28537
829.52477,0.32764
828.03498,0.31041
826.54519,0.29176
825.05540,0.27314
823.56561,0.15436
822.07582,0.19243
820.58604,0.16374
819.09625,0.12927
817.60646,0.09483
816.11667,0.07203
814.62688,0.13204
813.13709,0.02654
811.64730,0.01110
810.15752,0.00658
808.66773,0.00209
807.17794,0.01557
805.68815,0.03780
804.19836,0.05860
802.70857,0.05620
801.21879,0.05384
799.72900,0.09361
798.23921,0.19149
796.74942,0.20519
795.25963,0.22182
793.76984,0.23848
792.28006,0.31036
790.79027,0.42872
789.30048,0.43822
787.81069,0.44338
786.32090,0.48997
784.83111,0.53658
783.34132,0.58685
781.85154,0.51809
780.36175,0.51615
778.87196,0.51134
777.38217,0.50656
775.89238,0.51197
774.40259,0.64084
772.91281,0.63615
771.42302,0.62423
769.93323,0.61234
768.44344,0.59613
766.95365,0.59156
765.46386,0.73658
763.97407,0.65948
762.48429,0.63104
760.99450,0.60264
759.50471,0.54160
758.01492,0.49220
756.52513,0.34700
755.03534,0.36083
753.54556,0.37469
752.05577,0.26152
750.56598,0.11499
749.07619,0.09772
747.58640,0.09864
746.09661,0.09958
744.60683,0.06643
743.11704,0.06236
741.62725,0.11204
740.13746,0.09931
738.64767,0.08661
737.15788,0.07394
735.66809,0.03808
734.17831,0.12421
732.68852,0.08840
731.19873,0.05262
729.70894,0.02123
728.21915,0.07119
726.72936,0.03696
725.23958,0.10585
723.74979,0.11814
722.26000,0.13047
720.77021,0.07748
719.28042,0.07680
717.79063,0.00209
716.30084,0.00155
714.81106,0.00104
713.32127,0.07067
711.83148,0.08951
710.34169,0.13743
708.85190,0.15633
707.36211,0.17526
705.87233,0.13179
704.38254,0.11157
702.89275,0.10882
701.40296,0.15837
699.91317,0.20794
698.42338,0.13123
696.93360,0.23895
695.44381,0.26539
693.95402,0.27443
692.46423,0.28350
690.97444,0.25485
689.48465,0.40193
687.99486,0.28477
686.50508,0.29034
685.01529,0.29594
683.52550,0.27761
682.03571,0.29851
680.54592,0.35865
679.05613,0.35421
677.56635,0.34980
676.07656,0.38534
674.58677,0.31347
673.09698,0.22275
671.60719,0.22354
670.11740,0.22437
668.62761,0.14536
667.13783,0.12591
665.64804,0.14643
664.15825,0.16697
662.66846,0.16504
661.17867,0.10652
659.68888,0.20048
658.19910,0.19574
656.70931,0.19103
655.21952,0.16602
653.72973,0.14395
652.23994,0.14659
650.75015,0.17394
649.26037,0.20133
647.77058,0.16631
646.28079,0.00209
644.79100,0.04306
643.30121,0.06664
641.81142,0.09024
640.32163,0.16325
638.83185,0.02574
637.34206,0.06687
635.85227,0.05212
634.36248,0.03740
632.87269,0.04231
631.38290,0.15616
629.89312,0.15097
628.40333,0.10153
626.91354,0.05211
625.42375,0.14430
623.93396,0.08116
622.44417,0.09064
620.95438,0.10016
619.46460,0.10244
617.97481,0.11492
616.48502,0.10130
614.99523,0.09424
613.50544,0.08721
612.01565,0.14047
610.52587,0.00209
609.03608,0.07528
607.54629,0.10494
606.05650,0.13463
604.56671,0.15564
603.07692,0.12876
601.58714,0.09103
600.09735,0.05332
598.60756,0.09914
597.11777,0.14644
595.62798,0.12262
594.13819,0.10609
592.64840,0.08959
591.15862,0.11523
589.66883,0.08863
588.17904,0.19129
586.68925,0.19524
585.19946,0.19922
583.70967,0.17420
582.21989,0.14339
580.73010,0.13440
579.24031,0.12544
577.75052,0.12957
576.26073,0.03210
574.77094,0.12051
573.28115,0.15233
571.79137,0.18418
570.30158,0.11586
568.81179,0.18262
567.32200,0.13833
565.83221,0.09407
564.34242,0.29886
562.85264,0.34105
561.36285,0.40651
559.87306,0.38343
558.38327,0.36037
556.89348,0.43899
555.40369,0.37099
553.91391,0.44821
552.42412,0.52547
550.93433,0.52580
549.44454,0.42743
547.95475,0.47719
546.46496,0.51464
544.97517,0.55212
543.48539,0.56713
541.99560,0.61265
540.50581,0.56601
539.01602,0.51939
537.52623,0.48225
536.03644,0.51338
534.54666,0.53437
533.05687,0.58299
531.56708,0.63164
530.07729,0.56415
528.58750,0.48653
527.09771,0.48009
525.60792,0.47369
524.11814,0.44553
522.62835,0.61052
521.13856,0.34139
519.64877,0.35688
518.15898,0.37241
516.66919,0.49687
515.17941,0.52116
513.68962,0.49249
512.19983,0.46386
510.71004,0.44033
509.22025,0.49089
507.73046,0.38466
506.24068,0.43237
504.75089,0.48012
503.26110,0.42335
501.77131,0.47406
500.28152,0.46236
498.79173,0.45070
497.30194,0.50005
495.81216,0.52765
494.32237,0.54802
492.83258,0.56843
491.34279,0.56998
489.85300,0.60061
488.36321,0.56157
486.87343,0.51240
485.38364,0.46325
483.89385,0.38365
482.40406,0.36361
480.91427,0.31020
479.42448,0.25683
477.93469,0.17008
476.44491,0.22277
474.95512,0.22902
473.46533,0.23530
471.97554,0.04849
470.48575,0.09984
468.99596,0.04813
467.50618,0.03711
466.01639,0.02612
464.52660,0.00209
463.03681,0.09678
461.54702,0.09783
460.05723,0.09892
458.56745,0.11384
457.07766,0.12588
455.58787,0.16409
454.09808,0.20233
452.60829,0.25367
451.11850,0.21791
449.62871,0.19163
448.13893,0.16537
446.64914,0.20667
445.15935,0.35400
443.66956,0.34163
442.17977,0.36705
440.68998,0.39249
439.20020,0.44701
437.71041,0.63224
436.22062,0.66286
434.73083,0.69351
433.24104,0.75251
431.75125,0.88269
430.26146,0.91706
428.77168,0.95147
427.28189,0.96993
425.79210,1.04505
424.30231,1.02800
422.81252,1.01098
421.32273,1.01214
419.83295,0.90588
418.34316,0.88169
416.85337,0.85753
415.36358,0.55679
413.87379,0.54213
412.38400,0.53548
410.89422,0.52887
409.40443,0.41992
407.91464,0.45621
406.42485,0.54334
404.93506,0.49910
403.44527,0.45489
401.95548,0.40563
400.46570,0.38398
398.97591,0.41101
397.48612,0.43807
395.99633,0.43249
394.50654,0.37612
393.01675,0.33067
391.52697,0.28526
390.03718,0.29722
388.54739,0.31793
387.05760,0.38441
385.56781,0.45093
384.07802,0.42962
382.58824,0.40834
381.09845,0.31812
379.60866,0.22794
378.11887,0.13851
376.62908,0.14204
375.13929,0.10712
373.64950,0.07223
372.15972,0.13829
370.66993,0.21455
369.18014,0.16596
367.69035,0.11740
366.20056,0.11534
364.71077,0.11476
363.22099,0.08009
361.73120,0.04544
360.24141,0.13747
358.75162,0.20194
357.26183,0.17859
355.77204,0.15527
354.28225,0.01800
352.79247,0.09421
351.30268,0.04993
349.81289,0.00568
348.32310,0.06020
346.83331,0.07954
345.34352,0.07858
343.85374,0.07765
342.36395,0.07820
340.87416,0.11073
339.38437,0.16508
337.89458,0.21945
336.40479,0.10686
334.91501,0.03642
333.42522,0.05967
331.93543,0.08294
330.44564,0.22169
328.95585,0.14266
327.46606,0.14134
325.97627,0.14005
324.48649,0.09160
322.99670,0.20863
321.50691,0.17540
320.01712,0.14221
318.52733,0.08944
317.03754,0.17319
315.54776,0.14299
314.05797,0.11282
312.56818,0.00209
311.07839,0.16879
309.58860,0.11191
308.09881,0.05506
306.60902,0.19716
305.11924,0.20281
303.62945,0.12790
302.13966,0.05302
300.64987,0.13717
299.16008,0.00209
