1778.52000,0.03407
1777.03021,0.01690
1775.54042,0.02503
1774.05063,0.01728
1772.56085,0.03483
1771.07106,0.00000
1769.58127,0.06534
1768.09148,0.01465
1766.60169,0.01266
1765.11190,0.02006
1763.62212,0.04902
1762.13233,0.02840
1760.64254,0.03121
1759.15275,0.03404
1757.66296,0.06779
1756.17317,0.03513
1754.68339,0.03805
1753.19360,0.02884
1751.70381,0.00000
1750.21402,0.00141
1748.72423,0.04041
1747.23444,0.00364
1745.74465,0.02399
1744.25487,0.03969
1742.76508,0.03482
1741.27529,0.07772
1739.78550,0.04952
1738.29571,0.04193
1736.80592,0.08492
1735.31614,0.02498
1733.82635,0.01187
1732.33656,0.01751
1730.84677,0.02223
1729.35698,0.01951
1727.86719,0.01119
1726.37740,0.01226
1724.88762,0.00588
1723.39783,0.05006
1721.90804,0.02501
1720.41825,0.05241
1718.92846,0.01994
1717.43867,0.03522
1715.94889,0.00000
1714.45910,0.07450
1712.96931,0.06574
1711.47952,0.07386
1709.98973,0.03895
1708.49994,0.06678
1707.01016,0.06609
1705.52037,0.06543
1704.03058,0.07556
1702.54079,0.10351
1701.05100,0.09873
1699.56121,0.09772
1698.07142,0.06585
1696.58164,0.10233
1695.09185,0.11358
1693.60206,0.11643
1692.11227,0.15581
1690.62248,0.15778
1689.13269,0.19160
1687.64291,0.15620
1686.15312,0.19288
1684.66333,0.15473
1683.17354,0.14936
1681.68375,0.17023
1680.19396,0.19019
1678.70417,0.19613
1677.21439,0.17497
1675.72460,0.17069
1674.23481,0.15801
1672.74502,0.14161
1671.25523,0.16362
1669.76544,0.19501
1668.27566,0.13565
1666.78587,0.07820
1665.29608,0.13027
1663.80629,0.13651
1662.31650,0.15214
1660.82671,0.16499
1659.33693,0.10955
1657.84714,0.13088
1656.35735,0.09235
1654.86756,0.13245
1653.37777,0.08649
1651.88798,0.09765
1650.39819,0.09386
1648.90841,0.12004
1647.41862,0.12473
1645.92883,0.11307
1644.43904,0.10145
1642.94925,0.11745
1641.45946,0.14192
1639.96968,0.09528
1638.47989,0.11605
1636.99010,0.09287
1635.50031,0.12026
1634.01052,0.13176
1632.52073,0.12926
1631.03094,0.10900
1629.54116,0.14025
1628.05137,0.15468
1626.56158,0.13264
1625.07179,0.16116
1623.58200,0.14760
1622.09221,0.11442
1620.60243,0.12244
1619.11264,0.11552
1617.62285,0.11799
1616.13306,0.13639
1614.64327,0.09212
1613.15348,0.13586
1611.66370,0.10662
1610.17391,0.13263
1608.68412,0.13808
1607.19433,0.14169
1605.70454,0.12474
1604.21475,0.11202
1602.72496,0.09934
1601.23518,0.09838
1599.74539,0.12085
1598.25560,0.06661
1596.76581,0.10412
1595.27602,0.10515
1593.78623,0.04819
1592.29645,0.06144
1590.80666,0.06912
1589.31687,0.07869
1587.82708,0.06583
1586.33729,0.04551
1584.84750,0.05143
1583.35771,0.08919
1581.86793,0.05680
1580.37814,0.02818
1578.88835,0.06322
1577.39856,0.06741
1575.90877,0.02109
1574.41898,0.01224
1572.92920,0.06144
1571.43941,0.01615
1569.94962,0.02984
1568.45983,0.04357
1566.97004,0.03299
1565.48025,0.03648
1563.99047,0.02315
1562.50068,0.04167
1561.01089,0.01717
1559.52110,0.04885
1558.03131,0.04406
1556.54152,0.06364
1555.05173,0.10383
1553.56195,0.06450
1552.07216,0.04766
1550.58237,0.05893
1549.09258,0.02998
1547.60279,0.03663
1546.11300,0.05079
1544.62322,0.03691
1543.13343,0.04177
1541.64364,0.02327
1540.15385,0.01836
1538.66406,0.01348
1537.17427,0.05870
1535.68448,0.03002
1534.19470,0.00511
1532.70491,0.04293
1531.21512,0.03212
1529.72533,0.01853
1528.23554,0.02836
1526.74575,0.02325
1525.25597,0.08087
1523.76618,0.05055
1522.27639,0.01277
1520.78660,0.03866
1519.29681,0.00000
1517.80702,0.04092
1516.31724,0.04912
1514.82745,0.04892
1513.33766,0.04923
1511.84787,0.04956
1510.35808,0.02792
1508.86829,0.00257
1507.37850,0.00533
1505.88872,0.03245
1504.39893,0.02123
1502.90914,0.01378
1501.41935,0.01478
1499.92956,0.02049
1498.43977,0.06647
1496.94999,0.13495
1495.46020,0.14262
1493.97041,0.20553
1492.48062,0.24508
1490.99083,0.25939
1489.50104,0.29993
1488.01125,0.34939
1486.52147,0.39889
1485.03168,0.44513
1483.54189,0.46988
1482.05210,0.61819
1480.56231,0.69073
1479.07252,0.80448
1477.58274,0.93603
1476.09295,0.92630
1474.60316,1.02984
1473.11337,1.12030
1471.62358,1.08165
1470.13379,0.96909
1468.64401,0.91271
1467.15422,0.85636
1465.66443,0.87584
1464.17464,0.89535
1462.68485,0.86717
1461.19506,0.79128
1459.70527,0.84925
1458.21549,0.72476
1456.72570,0.69014
1455.23591,0.58535
1453.74612,0.54517
1452.25633,0.50783
1450.76654,0.56130
1449.27676,0.50437
1447.78697,0.46430
1446.29718,0.38497
1444.80739,0.34262
1443.31760,0.30031
1441.82781,0.25381
1440.33802,0.22981
1438.84824,0.25356
1437.35845,0.21183
1435.86866,0.23471
1434.37887,0.25481
1432.88908,0.20100
1431.39929,0.24549
1429.90951,0.14682
1428.41972,0.18481
1426.92993,0.27057
1425.44014,0.31236
1423.95035,0.28727
1422.46056,0.26222
1420.97078,0.27509
1419.48099,0.24026
1417.99120,0.22792
1416.50141,0.19877
1415.01162,0.27166
1413.52183,0.28748
1412.03204,0.30895
1410.54226,0.30144
1409.05247,0.30519
1407.56268,0.34453
1406.07289,0.33055
1404.58310,0.33111
1403.09331,0.33170
1401.60353,0.33747
1400.11374,0.38351
1398.62395,0.40618
1397.13416,0.41016
1395.64437,0.50308
1394.15458,0.58854
1392.66479,0.66560
1391.17501,0.57986
1389.68522,0.64201
1388.19543,0.51140
1386.70564,0.53103
1385.21585,0.55068
1383.72606,0.56242
1382.23628,0.52083
1380.74649,0.53449
1379.25670,0.53227
1377.76691,0.58343
1376.27712,0.61309
1374.78733,0.65026
1373.29755,0.78292
1371.80776,0.87912
1370.31797,1.06518
1368.82818,1.11651
1367.33839,1.16787
1365.84860,1.38210
1364.35881,1.54208
1362.86903,1.71987
1361.37924,1.81814
1359.88945,1.96136
1358.39966,1.93896
1356.90987,1.95870
1355.42008,2.00000
1353.93030,1.84573
1352.44051,1.81362
1350.95072,1.78154
1349.46093,1.56278
1347.97114,1.34779
1346.48135,1.15436
1344.99156,1.05455
1343.50178,0.91452
1342.01199,0.83629
1340.52220,0.78242
1339.03241,0.73513
1337.54262,0.70939
1336.05283,0.67199
1334.56305,0.63461
1333.07326,0.54533
1331.58347,0.54778
1330.09368,0.48382
1328.60389,0.46388
1327.11410,0.44303
1325.62432,0.38571
1324.13453,0.34807
1322.64474,0.41341
1321.15495,0.38799
1319.66516,0.36354
1318.17537,0.33912
1316.68558,0.30257
1315.19580,0.30909
1313.70601,0.23890
1312.21622,0.23893
1310.72643,0.18564
1309.23664,0.22317
1307.74685,0.24387
1306.25707,0.24963
1304.76728,0.22267
1303.27749,0.19573
1301.78770,0.21562
1300.29791,0.24302
1298.80812,0.22273
1297.31834,0.27546
1295.82855,0.25148
1294.33876,0.27806
1292.84897,0.16897
1291.35918,0.22276
1289.86939,0.28312
1288.37960,0.34351
1286.88982,0.29069
1285.40003,0.30810
1283.91024,0.33301
1282.42045,0.35141
1280.93066,0.34644
1279.44087,0.31435
1277.95109,0.39928
1276.46130,0.40656
1274.97151,0.39375
1273.48172,0.38097
1271.99193,0.31253
1270.50214,0.39012
1269.01235,0.36480
1267.52257,0.38255
1266.03278,0.40220
1264.54299,0.44808
1263.05320,0.50617
1261.56341,0.48145
1260.07362,0.45677
1258.58384,0.45691
1257.09405,0.47861
1255.60426,0.53216
1254.11447,0.54549
1252.62468,0.59161
1251.13489,0.50393
1249.64511,0.43219
1248.15532,0.36983
1246.66553,0.38238
1245.17574,0.39495
1243.68595,0.35982
1242.19616,0.35374
1240.70637,0.32897
1239.21659,0.28550
1237.72680,0.21212
1236.23701,0.16872
1234.74722,0.16465
1233.25743,0.19243
1231.76764,0.22024
1230.27786,0.22469
1228.78807,0.27502
1227.29828,0.20184
1225.80849,0.12495
1224.31870,0.12015
1222.82891,0.10976
1221.33912,0.08537
1219.84934,0.12418
1218.35955,0.16301
1216.86976,0.16210
1215.37997,0.22299
1213.89018,0.19593
1212.40039,0.14925
1210.91061,0.12694
1209.42082,0.14583
1207.93103,0.12544
1206.44124,0.10508
1204.95145,0.09504
1203.46166,0.04199
1201.97188,0.04511
1200.48209,0.09225
1198.99230,0.01589
1197.50251,0.05373
1196.01272,0.08224
1194.52293,0.05744
1193.03314,0.03266
1191.54336,0.05564
1190.05357,0.08053
1188.56378,0.00811
1187.07399,0.03867
1185.58420,0.00000
1184.09441,0.01224
1182.60463,0.04463
1181.11484,0.07705
1179.62505,0.05943
1178.13526,0.01563
1176.64547,0.02240
1175.15568,0.06102
1173.66589,0.07721
1172.17611,0.06348
1170.68632,0.04510
1169.19653,0.02675
1167.70674,0.06551
1166.21695,0.01072
1164.72716,0.01679
1163.23738,0.03412
1161.74759,0.00000
1160.25780,0.06237
1158.76801,0.05223
1157.27822,0.04213
1155.78843,0.01287
1154.29865,0.01639
1152.80886,0.02930
1151.31907,0.05161
1149.82928,0.00000
1148.33949,0.06134
1146.84970,0.06468
1145.35991,0.06805
1143.87013,0.02840
1142.38034,0.03744
1140.89055,0.11390
1139.40076,0.16137
1137.91097,0.11529
1136.42118,0.21335
1134.93140,0.22395
1133.44161,0.23457
1131.95182,0.35238
1130.46203,0.32422
1128.97224,0.28954
1127.48245,0.31853
1125.99266,0.39809
1124.50288,0.44305
1123.01309,0.45434
1121.52330,0.46567
1120.03351,0.49012
1118.54372,0.46407
1117.05393,0.48297
1115.56415,0.42422
1114.07436,0.49839
1112.58457,0.48743
1111.09478,0.47650
1109.60499,0.53579
1108.11520,0.55112
1106.62542,0.50377
1105.13563,0.65861
1103.64584,0.66560
1102.15605,0.74937
1100.66626,0.71150
1099.17647,0.67366
1097.68668,0.75096
1096.19690,0.80583
1094.70711,0.75498
1093.21732,0.91941
1091.72753,0.93693
1090.23774,0.93717
1088.74795,0.93744
1087.25817,0.93352
1085.76838,1.01761
1084.27859,1.00533
1082.78880,1.08854
1081.29901,1.17739
1079.80922,1.08191
1078.31943,1.13666
1076.82965,1.19145
1075.33986,1.25421
1073.85007,1.24775
1072.36028,1.31619
1070.87049,1.26581
1069.38070,1.30623
1067.89092,1.33030
1066.40113,1.35441
1064.91134,1.30226
1063.42155,1.27635
1061.93176,1.25328
1060.44197,1.06927
1058.95219,1.06030
1057.46240,1.03076
1055.97261,1.00126
1054.48282,0.86603
1052.99303,0.79821
1051.50324,0.75475
1050.01345,0.70103
1048.52367,0.57621
1047.03388,0.58619
1045.54409,0.59619
1044.05430,0.55569
1042.56451,0.39917
1041.07472,0.45699
1039.58494,0.40160
1038.09515,0.38180
1036.60536,0.36765
1035.11557,0.35353
1033.62578,0.28609
1032.13599,0.18405
1030.64620,0.22710
1029.15642,0.28048
1027.66663,0.24170
1026.17684,0.20295
1024.68705,0.27420
1023.19726,0.32489
1021.70747,0.47200
1020.21769,0.54146
1018.72790,0.70266
1017.23811,0.80213
1015.74832,0.90163
1014.25853,0.96840
1012.76874,1.09135
1011.27896,1.18907
1009.78917,1.29897
1008.29938,1.26292
1006.80959,1.24654
1005.31980,1.23019
1003.83001,1.18767
1002.34022,1.14518
1000.85044,1.15699
999.36065,1.10052
997.87086,1.07683
996.38107,1.05317
994.89128,0.89384
993.40149,0.91423
991.91171,0.88785
990.42192,0.89987
988.93213,0.89133
987.44234,0.88376
985.95255,0.87621
984.46276,0.85934
982.97297,0.74891
981.48319,0.74239
979.99340,0.72466
978.50361,0.71212
977.01382,0.69960
975.52403,0.66512
974.03424,0.54270
972.54446,0.58876
971.05467,0.58712
969.56488,0.49099
968.07509,0.45291
966.58530,0.41486
965.09551,0.37684
963.60573,0.41091
962.11594,0.35236
960.62615,0.47166
959.13636,0.37339
957.64657,0.27515
956.15678,0.27381
954.66699,0.26875
953.17721,0.27588
951.68742,0.33452
950.19763,0.35482
948.70784,0.37514
947.21805,0.35338
945.72826,0.29609
944.23848,0.35394
942.74869,0.38093
941.25890,0.39485
939.76911,0.45138
938.27932,0.50794
936.78953,0.55284
935.29974,0.49107
933.80996,0.61089
932.32017,0.62030
930.83038,0.63490
929.34059,0.64952
927.85080,0.53081
926.36101,0.54221
924.87123,0.52182
923.38144,0.53329
921.89165,0.57473
920.40186,0.61620
918.91207,0.63243
917.42228,0.64962
915.93250,0.63877
914.44271,0.63450
912.95292,0.64149
911.46313,0.64850
909.97334,0.68082
908.48355,0.65794
906.99376,0.69687
905.50398,0.63100
904.01419,0.65221
902.52440,0.67344
901.03461,0.70405
899.54482,0.73938
898.05503,0.80375
896.56525,0.75491
895.07546,0.73089
893.58567,0.70691
892.09588,0.73957
890.60609,0.74325
889.11630,0.70766
887.62651,0.66835
886.13673,0.67633
884.64694,0.68434
883.15715,0.77333
881.66736,0.83615
880.17757,0.83910
878.68778,0.87624
877.19800,0.91341
875.70821,0.83035
874.21842,0.94010
872.72863,0.95911
871.23884,0.97066
869.74905,0.99955
868.25927,1.02847
866.76948,1.04291
865.27969,1.08266
863.78990,1.10090
862.30011,1.11356
860.81032,1.02752
859.32053,0.94150
857.83075,0.99636
856.34096,1.06529
854.85117,1.02194
853.36138,0.90188
851.87159,0.80104
850.38180,0.70022
848.89202,0.65325
847.40223,0.50617
845.91244,0.49669
844.42265,0.50221
842.93286,0.50776
841.44307,0.40104
839.95329,0.36547
838.46350,0.36175
836.97371,0.34496
835.48392,0.31837
833.99413,0.29181
832.50434,0.31815
831.01455,0.31458
829.52477,0.37000
828.03498,0.32717
826.54519,0.30450
825.05540,0.28186
823.56561,0.29060
822.07582,0.24509
820.58604,0.16311
819.09625,0.16725
817.60646,0.17143
816.11667,0.11293
814.62688,0.09751
813.13709,0.05686
811.64730,0.06302
810.15752,0.04301
808.66773,0.02303
807.17794,0.00869
805.68815,0.00000
804.19836,0.05576
802.70857,0.03575
801.21879,0.01577
799.72900,0.09595
798.23921,0.21173
796.74942,0.30227
795.25963,0.32265
793.76984,0.34305
792.28006,0.40373
790.79027,0.42513
789.30048,0.44281
787.81069,0.49048
786.32090,0.50682
784.83111,0.52319
783.34132,0.52882
781.85154,0.55601
780.36175,0.51866
778.87196,0.53468
777.38217,0.55072
775.89238,0.62857
774.40259,0.61379
772.91281,0.61869
771.42302,0.63533
769.93323,0.65199
768.44344,0.61861
766.95365,0.62082
765.46386,0.64927
763.97407,0.63095
762.48429,0.63091
760.99450,0.63090
759.50471,0.59489
758.01492,0.44380
756.52513,0.36105
755.03534,0.29331
753.54556,0.22559
752.05577,0.14481
750.56598,0.15483
749.07619,0.11434
747.58640,0.09354
746.09661,0.07276
744.60683,0.05950
743.11704,0.06967
741.62725,0.07519
740.13746,0.06670
738.64767,0.05823
737.15788,0.04325
735.66809,0.04795
734.17831,0.05923
732.68852,0.08177
731.19873,0.10433
729.70894,0.06703
728.21915,0.05597
726.72936,0.07582
725.23958,0.09382
723.74979,0.08893
722.26000,0.08406
720.77021,0.07875
719.28042,0.08565
717.79063,0.00085
716.30084,0.00041
714.81106,0.00000
713.32127,0.04694
711.83148,0.05929
710.34169,0.06979
708.85190,0.09764
707.36211,0.12551
705.87233,0.11177
704.38254,0.07840
702.89275,0.08718
701.40296,0.09786
699.91317,0.10857
698.42338,0.13428
696.93360,0.16376
695.44381,0.17456
693.95402,0.20878
692.46423,0.24303
690.97444,0.19214
689.48465,0.27324
687.99486,0.27202
686.50508,0.27597
685.01529,0.27995
683.52550,0.29285
682.03571,0.24962
680.54592,0.29815
679.05613,0.29382
677.56635,0.28952
676.07656,0.23238
674.58677,0.27821
673.09698,0.19118
671.60719,0.16875
670.11740,0.14635
668.62761,0.09964
667.13783,0.13252
665.64804,0.10318
664.15825,0.07388
662.66846,0.16861
661.17867,0.05935
659.68888,0.09518
658.19910,0.10389
656.70931,0.11264
655.21952,0.07649
653.72973,0.09653
652.23994,0.12221
650.75015,0.13949
649.26037,0.15681
647.77058,0.03003
646.28079,0.09045
644.79100,0.07603
643.30121,0.04012
641.81142,0.00424
640.32163,0.04887
638.83185,0.05235
637.34206,0.00438
635.85227,0.00746
634.36248,0.01056
632.87269,0.02913
631.38290,0.00000
629.89312,0.09335
628.40333,0.06927
626.91354,0.04522
625.42375,0.03758
623.93396,0.09267
622.44417,0.06357
620.95438,0.03449
619.46460,0.01573
617.97481,0.08685
616.48502,0.07845
614.99523,0.07429
613.50544,0.07016
612.01565,0.09928
610.52587,0.05918
609.03608,0.07900
607.54629,0.12131
606.05650,0.16365
604.56671,0.16203
603.07692,0.13050
601.58714,0.12753
600.09735,0.12460
598.60756,0.05572
597.11777,0.02711
595.62798,0.09024
594.13819,0.06075
592.64840,0.03129
591.15862,0.02245
589.66883,0.11378
588.17904,0.13869
586.68925,0.15380
585.19946,0.16894
583.70967,0.12749
582.21989,0.13380
580.73010,0.14528
579.24031,0.15679
577.75052,0.09768
576.26073,0.04701
574.77094,0.06751
573.28115,0.09271
571.79137,0.11794
570.30158,0.08143
568.81179,0.16755
567.32200,0.18164
565.83221,0.19575
564.34242,0.29600
562.85264,0.38130
561.36285,0.34964
559.87306,0.35265
558.38327,0.35568
556.89348,0.37465
555.40369,0.44606
553.91391,0.48380
552.42412,0.52158
550.93433,0.50510
549.44454,0.49989
547.95475,0.56583
546.46496,0.53868
544.97517,0.51155
543.48539,0.57477
541.99560,0.65300
540.50581,0.66153
539.01602,0.67008
537.52623,0.56403
536.03644,0.52351
534.54666,0.58129
533.05687,0.60728
531.56708,0.63330
530.07729,0.64250
528.58750,0.57311
527.09771,0.54494
525.60792,0.51679
524.11814,0.50927
522.62835,0.56541
521.13856,0.48494
519.64877,0.44942
518.15898,0.41394
516.66919,0.48798
515.17941,0.47314
513.68962,0.49436
512.19983,0.51561
510.71004,0.52612
509.22025,0.47865
507.73046,0.52946
506.24068,0.56674
504.75089,0.60405
503.26110,0.58757
501.77131,0.60013
500.28152,0.59728
498.79173,0.59446
497.30194,0.56313
495.81216,0.61979
494.32237,0.62642
492.83258,0.63308
491.34279,0.66363
489.85300,0.65396
488.36321,0.64994
486.87343,0.57529
485.38364,0.50067
483.89385,0.51172
482.40406,0.42171
480.91427,0.40193
479.42448,0.38218
477.93469,0.31659
476.44491,0.25478
474.95512,0.22763
473.46533,0.20050
471.97554,0.11071
470.48575,0.13418
468.99596,0.12773
467.50618,0.12131
466.01639,0.11492
464.52660,0.00000
463.03681,0.07093
461.54702,0.11615
460.05723,0.16141
458.56745,0.06116
457.07766,0.14624
455.58787,0.18269
454.09808,0.21917
452.60829,0.24351
451.11850,0.32591
449.62871,0.28152
448.13893,0.23716
446.64914,0.33836
445.15935,0.36472
443.66956,0.43790
442.17977,0.47087
440.68998,0.50387
439.20020,0.58556
437.71041,0.62891
436.22062,0.72283
434.73083,0.81677
433.24104,0.98094
431.75125,1.05436
430.26146,1.05761
428.77168,1.06089
427.28189,1.17183
425.79210,1.28093
424.30231,1.22487
422.81252,1.16884
421.32273,1.08523
419.83295,0.91555
418.34316,0.88395
416.85337,0.85237
415.36358,0.69307
413.87379,0.74812
412.38400,0.67919
410.89422,0.61030
409.40443,0.61677
407.91464,0.58583
406.42485,0.51094
404.93506,0.50299
403.44527,0.49507
401.95548,0.56065
400.46570,0.57665
398.97591,0.53513
397.48612,0.49363
395.99633,0.46387
394.50654,0.45940
393.01675,0.43343
391.52697,0.40750
390.03718,0.33386
388.54739,0.37069
387.05760,0.39725
385.56781,0.42384
384.07802,0.43923
382.58824,0.37042
381.09845,0.34609
379.60866,0.32180
378.11887,0.34853
376.62908,0.16379
375.13929,0.17093
373.64950,0.17810
372.15972,0.16752
370.66993,0.11673
369.18014,0.14738
367.69035,0.17806
366.20056,0.11987
364.71077,0.08697
363.22099,0.11026
361.73120,0.13357
360.24141,0.17750
358.75162,0.18122
357.26183,0.15877
355.77204,0.13634
354.28225,0.14202
352.79247,0.02793
351.30268,0.06467
349.81289,0.10143
348.32310,0.07645
346.83331,0.07022
345.34352,0.09584
343.85374,0.12149
342.36395,0.18460
340.87416,0.16351
339.38437,0.13450
337.89458,0.10551
336.40479,0.16312
334.91501,0.12718
333.42522,0.09080
331.93543,0.05444
330.44564,0.17955
328.95585,0.15964
327.46606,0.10746
325.97627,0.05531
324.48649,0.09566
322.99670,0.13229
321.50691,0.12637
320.01712,0.12048
318.52733,0.11041
317.03754,0.10224
315.54776,0.09457
314.05797,0.08692
312.56818,0.03579
311.07839,0.12413
309.58860,0.11142
308.09881,0.09875
306.60902,0.00000
305.11924,0.14519
303.62945,0.11587
302.13966,0.08657
300.64987,0.04374
299.16008,0.00000
