1778.52000,0.03363
1777.03021,0.04062
1775.54042,0.02546
1774.05063,0.03374
1772.56085,0.03465
1771.07106,0.04299
1769.58127,0.03533
1768.09148,0.00057
1766.60169,0.03487
1765.11190,0.01495
1763.62212,0.02219
1762.13233,0.04178
1760.64254,0.01085
1759.15275,0.03911
1757.66296,0.03659
1756.17317,0.02670
1754.68339,0.02669
1753.19360,0.04150
1751.70381,0.01813
1750.21402,0.00217
1748.72423,0.01090
1747.23444,0.03815
1745.74465,0.03830
1744.25487,0.05450
1742.76508,0.07320
1741.27529,0.06603
1739.78550,0.04040
1738.29571,0.05177
1736.80592,0.11742
1735.31614,0.01173
1733.82635,0.05524
1732.33656,0.01988
1730.84677,0.00057
1729.35698,0.03185
1727.86719,0.06810
1726.37740,0.03903
1724.88762,0.06793
1723.39783,0.06974
1721.90804,0.03952
1720.41825,0.05000
1718.92846,0.05312
1717.43867,0.10311
1715.94889,0.04957
1714.45910,0.06632
1712.96931,0.07201
1711.47952,0.09375
1709.98973,0.10565
1708.49994,0.04608
1707.01016,0.07283
1705.52037,0.09960
1704.03058,0.12764
1702.54079,0.12611
1701.05100,0.12091
1699.56121,0.13670
1698.07142,0.19196
1696.58164,0.14246
1695.09185,0.11394
1693.60206,0.17791
1692.11227,0.21231
1690.62248,0.20483
1689.13269,0.19491
1687.64291,0.15543
1686.15312,0.19487
1684.66333,0.19613
1683.17354,0.21713
1681.68375,0.19255
1680.19396,0.21114
1678.70417,0.22112
1677.21439,0.19539
1675.72460,0.16968
1674.23481,0.20563
1672.74502,0.17011
1671.25523,0.19625
1669.76544,0.23475
1668.27566,0.23999
1666.78587,0.19348
1665.29608,0.16179
1663.80629,0.16464
1662.31650,0.18354
1660.82671,0.17782
1659.33693,0.15240
1657.84714,0.14672
1656.35735,0.11765
1654.86756,0.14902
1653.37777,0.11014
1651.88798,0.10087
1650.39819,0.13601
1648.90841,0.14899
1647.41862,0.10282
1645.92883,0.11585
1644.43904,0.12890
1642.94925,0.13212
1641.45946,0.16495
1639.96968,0.08562
1638.47989,0.09632
1636.99010,0.10827
1635.50031,0.15477
1634.01052,0.09897
1632.52073,0.09991
1631.03094,0.12552
1629.54116,0.10186
1628.05137,0.21629
1626.56158,0.17048
1625.07179,0.21223
1623.58200,0.20100
1622.09221,0.19595
1620.60243,0.14655
1619.11264,0.16868
1617.62285,0.14646
1616.13306,0.14645
1614.64327,0.12058
1613.15348,0.14281
1611.66370,0.16261
1610.17391,0.11956
1608.68412,0.17392
1607.19433,0.10257
1605.70454,0.12863
1604.21475,0.14671
1602.72496,0.16481
1601.23518,0.15397
1599.74539,0.15671
1598.25560,0.14346
1596.76581,0.08831
1595.27602,0.06648
1593.78623,0.08043
1592.29645,0.07097
1590.80666,0.02580
1589.31687,0.13104
1587.82708,0.08962
1586.33729,0.12095
1584.84750,0.08944
1583.35771,0.08878
1581.86793,0.04622
1580.37814,0.08383
1578.88835,0.05612
1577.39856,0.10117
1575.90877,0.04763
1574.41898,0.01137
1572.92920,0.07252
1571.43941,0.00057
1569.94962,0.00790
1568.45983,0.01526
1566.97004,0.06024
1565.48025,0.02266
1563.99047,0.04551
1562.50068,0.02770
1561.01089,0.04197
1559.52110,0.01066
1558.03131,0.06319
1556.54152,0.06645
1555.05173,0.08206
1553.56195,0.11865
1552.07216,0.04555
1550.58237,0.04644
1549.09258,0.00545
1547.60279,0.05201
1546.11300,0.03819
1544.62322,0.07493
1543.13343,0.02172
1541.64364,0.03756
1540.15385,0.03617
1538.66406,0.03481
1537.17427,0.02114
1535.68448,0.04202
1534.19470,0.05430
1532.70491,0.01852
1531.21512,0.01113
1529.72533,0.00006
1528.23554,0.05310
1526.74575,0.02110
1525.25597,0.03967
1523.76618,0.01142
1522.27639,0.04114
1520.78660,0.03761
1519.29681,0.00327
1517.80702,0.10190
1516.31724,0.04153
1514.82745,0.05761
1513.33766,0.05091
1511.84787,0.04424
1510.35808,0.00000
1508.86829,0.04208
1507.37850,0.05952
1505.88872,0.00057
1504.39893,0.06814
1502.90914,0.06425
1501.41935,0.03326
1499.92956,0.02202
1498.43977,0.06874
1496.94999,0.12412
1495.46020,0.17337
1493.97041,0.19921
1492.48062,0.20906
1490.99083,0.22756
1489.50104,0.33239
1488.01125,0.34971
1486.52147,0.36706
1485.03168,0.44114
1483.54189,0.54114
1482.05210,0.54624
1480.56231,0.67464
1479.07252,0.77595
1477.58274,0.86495
1476.09295,0.95892
1474.60316,0.96415
1473.11337,1.09021
1471.62358,1.14974
1470.13379,1.03670
1468.64401,0.90890
1467.15422,0.90440
1465.66443,0.88020
1464.17464,0.85602
1462.68485,0.82941
1461.19506,0.88296
1459.70527,0.78736
1458.21549,0.71768
1456.72570,0.71953
1455.23591,0.65853
1453.74612,0.58153
1452.25633,0.60195
1450.76654,0.54349
1449.27676,0.54670
1447.78697,0.48583
1446.29718,0.45211
1444.80739,0.40917
1443.31760,0.36626
1441.82781,0.30303
1440.33802,0.28421
1438.84824,0.25678
1437.35845,0.26636
1435.86866,0.23036
1434.37887,0.24739
1432.88908,0.23486
1431.39929,0.25811
1429.90951,0.24070
1428.41972,0.22825
1426.92993,0.31568
1425.44014,0.30329
1423.95035,0.34886
1422.46056,0.39445
1420.97078,0.31310
1419.48099,0.23300
1417.99120,0.28730
1416.50141,0.30219
1415.01162,0.32449
1413.52183,0.35421
1412.03204,0.30630
1410.54226,0.32868
1409.05247,0.36465
1407.56268,0.41667
1406.07289,0.46132
1404.58310,0.44066
1403.09331,0.42003
1401.60353,0.46476
1400.11374,0.50211
1398.62395,0.45690
1397.13416,0.53006
1395.64437,0.61435
1394.15458,0.58277
1392.66479,0.60424
1391.17501,0.64668
1389.68522,0.68546
1388.19543,0.62317
1386.70564,0.59913
1385.21585,0.57511
1383.72606,0.62508
1382.23628,0.55550
1380.74649,0.56115
1379.25670,0.59394
1377.76691,0.53430
1376.27712,0.64481
1374.78733,0.65303
1373.29755,0.75620
1371.80776,0.91240
1370.31797,1.00082
1368.82818,1.06524
1367.33839,1.12967
1365.84860,1.34885
1364.35881,1.53847
1362.86903,1.67387
1361.37924,1.83518
1359.88945,1.84613
1358.39966,1.88175
1356.90987,2.00000
1355.42008,1.91117
1353.93030,1.94687
1352.44051,1.88090
1350.95072,1.81495
1349.46093,1.60911
1347.97114,1.44645
1346.48135,1.14204
1344.99156,1.12119
1343.50178,1.08435
1342.01199,0.94521
1340.52220,0.80363
1339.03241,0.75453
1337.54262,0.83244
1336.05283,0.74395
1334.56305,0.65548
1333.07326,0.70265
1331.58347,0.57725
1330.09368,0.52585
1328.60389,0.45474
1327.11410,0.51681
1325.62432,0.44576
1324.13453,0.45980
1322.64474,0.42332
1321.15495,0.44357
1319.66516,0.40899
1318.17537,0.37444
1316.68558,0.37505
1315.19580,0.34240
1313.70601,0.30238
1312.21622,0.23526
1310.72643,0.27049
1309.23664,0.29589
1307.74685,0.30281
1306.25707,0.31717
1304.76728,0.28716
1303.27749,0.25719
1301.78770,0.30614
1300.29791,0.23430
1298.80812,0.30919
1297.31834,0.26452
1295.82855,0.34070
1294.33876,0.36759
1292.84897,0.28848
1291.35918,0.30679
1289.86939,0.30233
1288.37960,0.29788
1286.88982,0.26573
1285.40003,0.30141
1283.91024,0.38149
1282.42045,0.38516
1280.93066,0.33955
1279.44087,0.37410
1277.95109,0.41484
1276.46130,0.32370
1274.97151,0.35770
1273.48172,0.39174
1271.99193,0.34012
1270.50214,0.30333
1269.01235,0.35532
1267.52257,0.37651
1266.03278,0.41992
1264.54299,0.47569
1263.05320,0.47478
1261.56341,0.44060
1260.07362,0.40645
1258.58384,0.48451
1257.09405,0.52932
1255.60426,0.46319
1254.11447,0.46244
1252.62468,0.51595
1251.13489,0.52880
1249.64511,0.45415
1248.15532,0.37091
1246.66553,0.37090
1245.17574,0.37091
1243.68595,0.31239
1242.19616,0.33650
1240.70637,0.34214
1239.21659,0.30466
1237.72680,0.27091
1236.23701,0.18540
1234.74722,0.18499
1233.25743,0.20247
1231.76764,0.21998
1230.27786,0.20485
1228.78807,0.19714
1227.29828,0.16603
1225.80849,0.14974
1224.31870,0.12115
1222.82891,0.10492
1221.33912,0.13309
1219.84934,0.12985
1218.35955,0.12664
1216.86976,0.12900
1215.37997,0.24357
1213.89018,0.18558
1212.40039,0.16706
1210.91061,0.14241
1209.42082,0.15353
1207.93103,0.15667
1206.44124,0.15983
1204.95145,0.11925
1203.46166,0.06514
1201.97188,0.02585
1200.48209,0.10616
1198.99230,0.12363
1197.50251,0.01785
1196.01272,0.10934
1194.52293,0.09853
1193.03314,0.08775
1191.54336,0.00057
1190.05357,0.02959
1188.56378,0.04262
1187.07399,0.01746
1185.58420,0.03054
1184.09441,0.01405
1182.60463,0.04198
1181.11484,0.06993
1179.62505,0.04860
1178.13526,0.02112
1176.64547,0.07134
1175.15568,0.02913
1173.66589,0.09420
1172.17611,0.15436
1170.68632,0.10606
1169.19653,0.05779
1167.70674,0.08844
1166.21695,0.05501
1164.72716,0.08818
1163.23738,0.00057
1161.74759,0.04819
1160.25780,0.09091
1158.76801,0.07448
1157.27822,0.05808
1155.78843,0.06390
1154.29865,0.06481
1152.80886,0.07068
1151.31907,0.02233
1149.82928,0.07633
1148.33949,0.04406
1146.84970,0.04140
1145.35991,0.03877
1143.87013,0.11630
1142.38034,0.03729
1140.89055,0.09144
1139.40076,0.12960
1137.91097,0.17641
1136.42118,0.17763
1134.93140,0.21710
1133.44161,0.25659
1131.95182,0.24064
1130.46203,0.28881
1128.97224,0.23839
1127.48245,0.35319
1125.99266,0.33241
1124.50288,0.28206
1123.01309,0.32790
1121.52330,0.37377
1120.03351,0.42459
1118.54372,0.40271
1117.05393,0.38455
1115.56415,0.37381
1114.07436,0.43460
1112.58457,0.39310
1111.09478,0.35162
1109.60499,0.46920
1108.11520,0.40928
1106.62542,0.45911
1105.13563,0.52992
1103.64584,0.55761
1102.15605,0.60751
1100.66626,0.63094
1099.17647,0.65439
1097.68668,0.71177
1096.19690,0.71863
1094.70711,0.67374
1093.21732,0.76325
1091.72753,0.84046
1090.23774,0.87270
1088.74795,0.90497
1087.25817,0.86267
1085.76838,0.89684
1084.27859,1.01856
1082.78880,1.06634
1081.29901,1.06483
1079.80922,1.09417
1078.31943,1.08224
1076.82965,1.07034
1075.33986,1.20208
1073.85007,1.18837
1072.36028,1.17963
1070.87049,1.21159
1069.38070,1.22632
1067.89092,1.31443
1066.40113,1.40256
1064.91134,1.18314
1063.42155,1.11538
1061.93176,1.09696
1060.44197,0.99350
1058.95219,0.96034
1057.46240,0.90254
1055.97261,0.84477
1054.48282,0.84744
1052.99303,0.72439
1051.50324,0.67286
1050.01345,0.71259
1048.52367,0.56742
1047.03388,0.57762
1045.54409,0.58783
1044.05430,0.55986
1042.56451,0.49124
1041.07472,0.41154
1039.58494,0.37009
1038.09515,0.36318
1036.60536,0.35752
1035.11557,0.35190
1033.62578,0.24152
1032.13599,0.24704
1030.64620,0.27354
1029.15642,0.30994
1027.66663,0.29027
1026.17684,0.27062
1024.68705,0.31942
1023.19726,0.36948
1021.70747,0.46518
1020.21769,0.55720
1018.72790,0.70596
1017.23811,0.79311
1015.74832,0.88028
1014.25853,1.00570
1012.76874,1.08429
1011.27896,1.18017
1009.78917,1.24033
1008.29938,1.20559
1006.80959,1.21710
1005.31980,1.22865
1003.83001,1.05222
1002.34022,1.02991
1000.85044,1.01872
999.36065,0.93853
997.87086,0.85342
996.38107,0.76835
994.89128,0.77206
993.40149,0.78073
991.91171,0.74628
990.42192,0.70939
988.93213,0.67745
987.44234,0.64123
985.95255,0.60503
984.46276,0.65454
982.97297,0.59682
981.48319,0.59214
979.99340,0.52338
978.50361,0.51197
977.01382,0.50058
975.52403,0.43067
974.03424,0.43598
972.54446,0.34393
971.05467,0.38134
969.56488,0.35221
968.07509,0.32126
966.58530,0.29033
965.09551,0.30320
963.60573,0.30376
962.11594,0.27846
960.62615,0.28154
959.13636,0.28526
957.64657,0.28901
956.15678,0.26752
954.66699,0.23125
953.17721,0.22090
951.68742,0.24633
950.19763,0.30137
948.70784,0.35644
947.21805,0.29442
945.72826,0.31872
944.23848,0.30606
942.74869,0.35753
941.25890,0.42629
939.76911,0.47966
938.27932,0.53306
936.78953,0.52670
935.29974,0.49447
933.80996,0.47707
932.32017,0.52996
930.83038,0.56623
929.34059,0.60253
927.85080,0.51742
926.36101,0.54083
924.87123,0.53837
923.38144,0.50266
921.89165,0.55018
920.40186,0.59773
918.91207,0.60648
917.42228,0.68921
915.93250,0.60432
914.44271,0.64150
912.95292,0.66945
911.46313,0.69744
909.97334,0.75565
908.48355,0.73499
906.99376,0.74394
905.50398,0.71101
904.01419,0.70645
902.52440,0.70193
901.03461,0.79358
899.54482,0.88773
898.05503,0.87465
896.56525,0.91337
895.07546,0.93548
893.58567,0.95761
892.09588,0.94094
890.60609,0.93292
889.11630,0.88548
887.62651,0.88491
886.13673,0.85417
884.64694,0.82345
883.15715,0.90309
881.66736,0.91495
880.17757,0.97245
878.68778,0.97019
877.19800,0.96796
875.70821,0.93185
874.21842,0.99932
872.72863,1.00641
871.23884,0.98147
869.74905,0.95225
868.25927,0.92305
866.76948,1.01531
865.27969,1.06567
863.78990,1.05073
862.30011,0.97911
860.81032,0.99689
859.32053,1.01469
857.83075,0.95794
856.34096,1.01339
854.85117,0.91848
853.36138,0.75949
851.87159,0.71825
850.38180,0.67704
848.89202,0.52552
847.40223,0.47758
845.91244,0.41857
844.42265,0.43417
842.93286,0.44980
841.44307,0.41799
839.95329,0.34552
838.46350,0.32733
836.97371,0.34121
835.48392,0.34587
833.99413,0.35056
832.50434,0.35096
831.01455,0.40933
829.52477,0.40608
828.03498,0.27589
826.54519,0.27454
825.05540,0.27322
823.56561,0.22940
822.07582,0.25834
820.58604,0.16896
819.09625,0.16220
817.60646,0.15546
816.11667,0.11177
814.62688,0.14823
813.13709,0.04419
811.64730,0.02276
810.15752,0.01246
808.66773,0.00219
807.17794,0.00057
805.68815,0.04877
804.19836,0.07605
802.70857,0.08301
801.21879,0.08999
799.72900,0.07174
798.23921,0.18048
796.74942,0.31637
795.25963,0.32222
793.76984,0.32811
792.28006,0.43819
790.79027,0.47310
789.30048,0.47968
787.81069,0.59477
786.32090,0.56318
784.83111,0.53162
783.34132,0.61967
781.85154,0.55488
780.36175,0.60846
778.87196,0.62940
777.38217,0.65037
775.89238,0.66705
774.40259,0.71087
772.91281,0.78554
771.42302,0.75607
769.93323,0.72662
768.44344,0.79890
766.95365,0.77506
765.46386,0.80424
763.97407,0.83223
762.48429,0.77271
760.99450,0.71321
759.50471,0.62909
758.01492,0.51911
756.52513,0.45846
755.03534,0.37257
753.54556,0.28670
752.05577,0.21134
750.56598,0.16806
749.07619,0.11864
747.58640,0.11794
746.09661,0.11726
744.60683,0.10244
743.11704,0.07408
741.62725,0.05807
740.13746,0.05442
738.64767,0.05080
737.15788,0.06939
735.66809,0.04239
734.17831,0.08939
732.68852,0.07970
731.19873,0.07005
729.70894,0.06534
728.21915,0.02492
726.72936,0.07944
725.23958,0.06866
723.74979,0.09735
722.26000,0.12606
720.77021,0.05125
719.28042,0.04057
717.79063,0.04594
716.30084,0.05133
714.81106,0.05676
713.32127,0.00057
711.83148,0.10623
710.34169,0.12932
708.85190,0.10436
707.36211,0.07943
705.87233,0.07548
704.38254,0.05676
702.89275,0.16134
701.40296,0.13220
699.91317,0.10308
698.42338,0.13255
696.93360,0.17067
695.44381,0.19772
693.95402,0.20199
692.46423,0.20629
690.97444,0.23959
689.48465,0.23716
687.99486,0.29393
686.50508,0.29833
685.01529,0.30276
683.52550,0.33618
682.03571,0.31416
680.54592,0.28847
679.05613,0.28314
677.56635,0.27784
676.07656,0.34714
674.58677,0.25005
673.09698,0.21956
671.60719,0.20820
670.11740,0.19686
668.62761,0.05303
667.13783,0.14345
665.64804,0.14945
664.15825,0.15548
662.66846,0.05613
661.17867,0.11091
659.68888,0.12256
658.19910,0.14226
656.70931,0.16197
655.21952,0.12563
653.72973,0.05479
652.23994,0.14054
650.75015,0.15667
649.26037,0.17282
647.77058,0.11935
646.28079,0.00057
644.79100,0.03034
643.30121,0.03857
641.81142,0.04682
640.32163,0.09393
638.83185,0.06341
637.34206,0.00086
635.85227,0.03572
634.36248,0.07061
632.87269,0.03772
631.38290,0.02089
629.89312,0.00284
628.40333,0.04462
626.91354,0.08642
625.42375,0.07708
623.93396,0.09120
622.44417,0.08562
620.95438,0.08006
619.46460,0.14973
617.97481,0.02588
616.48502,0.09930
614.99523,0.11049
613.50544,0.12170
612.01565,0.02015
610.52587,0.11093
609.03608,0.06120
607.54629,0.11136
606.05650,0.16154
604.56671,0.10079
603.07692,0.04131
601.58714,0.05951
600.09735,0.07775
598.60756,0.06272
597.11777,0.09826
595.62798,0.08206
594.13819,0.06649
592.64840,0.05096
591.15862,0.05209
589.66883,0.05941
588.17904,0.07168
586.68925,0.07043
585.19946,0.06920
583.70967,0.11730
582.21989,0.14078
580.73010,0.08662
579.24031,0.03249
577.75052,0.00057
576.26073,0.07665
574.77094,0.06894
573.28115,0.10193
571.79137,0.13495
570.30158,0.11499
568.81179,0.15916
567.32200,0.14418
565.83221,0.12922
564.34242,0.23264
562.85264,0.24486
561.36285,0.24355
559.87306,0.26506
558.38327,0.28661
556.89348,0.29277
555.40369,0.31868
553.91391,0.34153
552.42412,0.36441
550.93433,0.40026
549.44454,0.39423
547.95475,0.45849
546.46496,0.49565
544.97517,0.53284
543.48539,0.55526
541.99560,0.68249
540.50581,0.66675
539.01602,0.65104
537.52623,0.57001
536.03644,0.48161
534.54666,0.59911
533.05687,0.59398
531.56708,0.58888
530.07729,0.61893
528.58750,0.58491
527.09771,0.55646
525.60792,0.52803
524.11814,0.47313
522.62835,0.53783
521.13856,0.55572
519.64877,0.50521
518.15898,0.45472
516.66919,0.51337
515.17941,0.46355
513.68962,0.46924
512.19983,0.47495
510.71004,0.35002
509.22025,0.44084
507.73046,0.45526
506.24068,0.49930
504.75089,0.54336
503.26110,0.46170
501.77131,0.43924
500.28152,0.46982
498.79173,0.50042
497.30194,0.41271
495.81216,0.47542
494.32237,0.52459
492.83258,0.57379
491.34279,0.55891
489.85300,0.49352
488.36321,0.45527
486.87343,0.41951
485.38364,0.38378
483.89385,0.40972
482.40406,0.33829
480.91427,0.26380
479.42448,0.18935
477.93469,0.20306
476.44491,0.13297
474.95512,0.13070
473.46533,0.12847
471.97554,0.06708
470.48575,0.04888
468.99596,0.12808
467.50618,0.06431
466.01639,0.00057
464.52660,0.00283
463.03681,0.09512
461.54702,0.04813
460.05723,0.00116
458.56745,0.02326
457.07766,0.09962
455.58787,0.10636
454.09808,0.11313
452.60829,0.14273
451.11850,0.14030
449.62871,0.13605
448.13893,0.13182
446.64914,0.17755
445.15935,0.23440
443.66956,0.35168
442.17977,0.36482
440.68998,0.37798
439.20020,0.33755
437.71041,0.48575
436.22062,0.54831
434.73083,0.61089
433.24104,0.72835
431.75125,0.96665
430.26146,0.96520
428.77168,0.96379
427.28189,0.98273
425.79210,0.98691
424.30231,0.99605
422.81252,1.00522
421.32273,0.91455
419.83295,0.82145
418.34316,0.76782
416.85337,0.71422
415.36358,0.62119
413.87379,0.60339
412.38400,0.53692
410.89422,0.47048
409.40443,0.42687
407.91464,0.48807
406.42485,0.41616
404.93506,0.34798
403.44527,0.27982
401.95548,0.32880
400.46570,0.44807
398.97591,0.40403
397.48612,0.36001
395.99633,0.35732
394.50654,0.38054
393.01675,0.37543
391.52697,0.37035
390.03718,0.20381
388.54739,0.27521
387.05760,0.33493
385.56781,0.39468
384.07802,0.42671
382.58824,0.35645
381.09845,0.33738
379.60866,0.31833
378.11887,0.38868
376.62908,0.20388
375.13929,0.20032
373.64950,0.19679
372.15972,0.21547
370.66993,0.22802
369.18014,0.20854
367.69035,0.18909
366.20056,0.09939
364.71077,0.10094
363.22099,0.16725
361.73120,0.23357
360.24141,0.16371
358.75162,0.19372
357.26183,0.16829
355.77204,0.14288
354.28225,0.13845
352.79247,0.04406
351.30268,0.09146
349.81289,0.13889
348.32310,0.13457
346.83331,0.12042
345.34352,0.10937
343.85374,0.09835
342.36395,0.14221
340.87416,0.19349
339.38437,0.14741
337.89458,0.10136
336.40479,0.14040
334.91501,0.09070
333.42522,0.04781
331.93543,0.00494
330.44564,0.17177
328.95585,0.16479
327.46606,0.14305
325.97627,0.12134
324.48649,0.02445
322.99670,0.04840
321.50691,0.05143
320.01712,0.05447
318.52733,0.19931
317.03754,0.13338
315.54776,0.10260
314.05797,0.07185
312.56818,0.02572
311.07839,0.00057
309.58860,0.06442
308.09881,0.12831
306.60902,0.01532
305.11924,0.11932
303.62945,0.06617
302.13966,0.01305
300.64987,0.07275
299.16008,0.00057
