1778.52000,0.02655
1777.03021,0.02338
1775.54042,0.02909
1774.05063,0.01966
1772.56085,0.00142
1771.07106,0.03378
1769.58127,0.03205
1768.09148,0.06701
1766.60169,0.07672
1765.11190,0.05612
1763.62212,0.02796
1762.13233,0.04789
1760.64254,0.03244
1759.15275,0.06382
1757.66296,0.11419
1756.17317,0.10770
1754.68339,0.08734
1753.19360,0.08471
1751.70381,0.05177
1750.21402,0.02139
1748.72423,0.05490
1747.23444,0.06062
1745.74465,0.05499
1744.25487,0.06331
1742.76508,0.09063
1741.27529,0.10787
1739.78550,0.13399
1738.29571,0.07923
1736.80592,0.05737
1735.31614,0.06968
1733.82635,0.07571
1732.33656,0.07292
1730.84677,0.03224
1729.35698,0.02572
1727.86719,0.03189
1726.37740,0.00142
1724.88762,0.04799
1723.39783,0.09080
1721.90804,0.08306
1720.41825,0.03996
1718.92846,0.03103
1717.43867,0.07524
1715.94889,0.04236
1714.45910,0.05756
1712.96931,0.07658
1711.47952,0.07541
1709.98973,0.09577
1708.49994,0.11363
1707.01016,0.10497
1705.52037,0.09635
1704.03058,0.16236
1702.54079,0.14116
1701.05100,0.12632
1699.56121,0.14186
1698.07142,0.16881
1696.58164,0.14648
1695.09185,0.18614
1693.60206,0.17526
1692.11227,0.17200
1690.62248,0.24212
1689.13269,0.20605
1687.64291,0.27623
1686.15312,0.22000
1684.66333,0.21691
1683.17354,0.24420
1681.68375,0.26647
1680.19396,0.25210
1678.70417,0.26685
1677.21439,0.26899
1675.72460,0.24335
1674.23481,0.18360
1672.74502,0.22756
1671.25523,0.21719
1669.76544,0.25743
1668.27566,0.22437
1666.78587,0.21537
1665.29608,0.23295
1663.80629,0.24804
1662.31650,0.25179
1660.82671,0.22142
1659.33693,0.21259
1657.84714,0.20253
1656.35735,0.09261
1654.86756,0.15974
1653.37777,0.18266
1651.88798,0.18285
1650.39819,0.16157
1648.90841,0.16183
1647.41862,0.12039
1645.92883,0.14664
1644.43904,0.17292
1642.94925,0.20365
1641.45946,0.19397
1639.96968,0.18431
1638.47989,0.18228
1636.99010,0.14993
1635.50031,0.11888
1634.01052,0.08028
1632.52073,0.12390
1631.03094,0.09928
1629.54116,0.15055
1628.05137,0.15508
1626.56158,0.17860
1625.07179,0.20090
1623.58200,0.14862
1622.09221,0.20260
1620.60243,0.20603
1619.11264,0.16777
1617.62285,0.13333
1616.13306,0.21653
1614.64327,0.18722
1613.15348,0.20473
1611.66370,0.18307
1610.17391,0.19939
1608.68412,0.16516
1607.19433,0.15625
1605.70454,0.10945
1604.21475,0.12147
1602.72496,0.13353
1601.23518,0.18545
1599.74539,0.12613
1598.25560,0.11743
1596.76581,0.14037
1595.27602,0.09254
1593.78623,0.11049
1592.29645,0.09560
1590.80666,0.06305
1589.31687,0.08995
1587.82708,0.13333
1586.33729,0.08570
1584.84750,0.12914
1583.35771,0.09043
1581.86793,0.09854
1580.37814,0.08139
1578.88835,0.05796
1577.39856,0.09146
1575.90877,0.01752
1574.41898,0.04982
1572.92920,0.03790
1571.43941,0.03360
1569.94962,0.03882
1568.45983,0.04408
1566.97004,0.07402
1565.48025,0.03825
1563.99047,0.03791
1562.50068,0.04646
1561.01089,0.06769
1559.52110,0.06240
1558.03131,0.10393
1556.54152,0.09618
1555.05173,0.09731
1553.56195,0.09216
1552.07216,0.03267
1550.58237,0.05413
1549.09258,0.02506
1547.60279,0.03395
1546.11300,0.08839
1544.62322,0.07585
1543.13343,0.03301
1541.64364,0.03824
1540.15385,0.04161
1538.66406,0.04501
1537.17427,0.07311
1535.68448,0.05066
1534.19470,0.04216
1532.70491,0.09564
1531.21512,0.12387
1529.72533,0.06868
1528.23554,0.01227
1526.74575,0.04186
1525.25597,0.05127
1523.76618,0.07461
1522.27639,0.10557
1520.78660,0.10369
1519.29681,0.07024
1517.80702,0.00142
1516.31724,0.05941
1514.82745,0.08835
1513.33766,0.06232
1511.84787,0.03633
1510.35808,0.07296
1508.86829,0.05525
1507.37850,0.08310
1505.88872,0.07052
1504.39893,0.04153
1502.90914,0.09224
1501.41935,0.05574
1499.92956,0.04582
1498.43977,0.12318
1496.94999,0.08931
1495.46020,0.16042
1493.97041,0.22271
1492.48062,0.34826
1490.99083,0.33222
1489.50104,0.36806
1488.01125,0.44503
1486.52147,0.52203
1485.03168,0.63131
1483.54189,0.62936
1482.05210,0.70836
1480.56231,0.93786
1479.07252,1.05107
1477.58274,1.15293
1476.09295,1.28896
1474.60316,1.27457
1473.11337,1.39044
1471.62358,1.45451
1470.13379,1.42125
1468.64401,1.27549
1467.15422,1.14241
1465.66443,1.14276
1464.17464,1.14314
1462.68485,1.21626
1461.19506,1.07826
1459.70527,1.11984
1458.21549,1.05398
1456.72570,0.89332
1455.23591,0.83385
1453.74612,0.81108
1452.25633,0.84903
1450.76654,0.76058
1449.27676,0.78975
1447.78697,0.74436
1446.29718,0.64463
1444.80739,0.58729
1443.31760,0.52999
1441.82781,0.44680
1440.33802,0.35732
1438.84824,0.35133
1437.35845,0.30365
1435.86866,0.36221
1434.37887,0.30953
1432.88908,0.34667
1431.39929,0.34337
1429.90951,0.28827
1428.41972,0.31918
1426.92993,0.37163
1425.44014,0.46583
1423.95035,0.44121
1422.46056,0.41662
1420.97078,0.39713
1419.48099,0.37894
1417.99120,0.36204
1416.50141,0.39449
1415.01162,0.39410
1413.52183,0.45190
1412.03204,0.43767
1410.54226,0.46773
1409.05247,0.42195
1407.56268,0.43564
1406.07289,0.46074
1404.58310,0.46818
1403.09331,0.47564
1401.60353,0.43889
1400.11374,0.44390
1398.62395,0.50836
1397.13416,0.52103
1395.64437,0.51981
1394.15458,0.61726
1392.66479,0.65152
1391.17501,0.62006
1389.68522,0.65691
1388.19543,0.62679
1386.70564,0.57710
1385.21585,0.52744
1383.72606,0.58087
1382.23628,0.50663
1380.74649,0.52851
1379.25670,0.53020
1377.76691,0.49526
1376.27712,0.55644
1374.78733,0.68468
1373.29755,0.71432
1371.80776,0.79331
1370.31797,0.89382
1368.82818,0.97225
1367.33839,1.05071
1365.84860,1.23984
1364.35881,1.39992
1362.86903,1.52589
1361.37924,1.74294
1359.88945,1.77036
1358.39966,1.81299
1356.90987,1.87967
1355.42008,1.92110
1353.93030,1.83992
1352.44051,1.80429
1350.95072,1.76869
1349.46093,1.80520
1347.97114,1.50667
1346.48135,1.25370
1344.99156,1.10697
1343.50178,1.08545
1342.01199,1.03362
1340.52220,0.99194
1339.03241,0.84788
1337.54262,0.81511
1336.05283,0.82474
1334.56305,0.83441
1333.07326,0.74359
1331.58347,0.71602
1330.09368,0.69733
1328.60389,0.61926
1327.11410,0.58167
1325.62432,0.56436
1324.13453,0.58374
1322.64474,0.53236
1321.15495,0.63020
1319.66516,0.61745
1318.17537,0.60472
1316.68558,0.51428
1315.19580,0.51363
1313.70601,0.42705
1312.21622,0.38222
1310.72643,0.39306
1309.23664,0.42416
1307.74685,0.47933
1306.25707,0.46877
1304.76728,0.45699
1303.27749,0.44524
1301.78770,0.38168
1300.29791,0.40541
1298.80812,0.40387
1297.31834,0.40111
1295.82855,0.50839
1294.33876,0.45132
1292.84897,0.47269
1291.35918,0.42328
1289.86939,0.41879
1288.37960,0.41433
1286.88982,0.51170
1285.40003,0.51047
1283.91024,0.48652
1282.42045,0.56502
1280.93066,0.53482
1279.44087,0.52108
1277.95109,0.56428
1276.46130,0.52280
1274.97151,0.54078
1273.48172,0.55879
1271.99193,0.49591
1270.50214,0.61514
1269.01235,0.63326
1267.52257,0.69440
1266.03278,0.76315
1264.54299,0.73585
1263.05320,0.78065
1261.56341,0.79451
1260.07362,0.80841
1258.58384,0.75722
1257.09405,0.73894
1255.60426,0.87368
1254.11447,0.77960
1252.62468,0.87269
1251.13489,0.78500
1249.64511,0.75298
1248.15532,0.62490
1246.66553,0.60180
1245.17574,0.57873
1243.68595,0.55570
1242.19616,0.53902
1240.70637,0.48571
1239.21659,0.44129
1237.72680,0.33620
1236.23701,0.36644
1234.74722,0.29051
1233.25743,0.33789
1231.76764,0.38530
1230.27786,0.35120
1228.78807,0.34873
1227.29828,0.28308
1225.80849,0.16689
1224.31870,0.15695
1222.82891,0.12554
1221.33912,0.19658
1219.84934,0.22277
1218.35955,0.24900
1216.86976,0.22278
1215.37997,0.35212
1213.89018,0.40311
1212.40039,0.30366
1210.91061,0.23459
1209.42082,0.20475
1207.93103,0.20972
1206.44124,0.21472
1204.95145,0.23051
1203.46166,0.09839
1201.97188,0.12435
1200.48209,0.12380
1198.99230,0.09547
1197.50251,0.00142
1196.01272,0.14395
1194.52293,0.12466
1193.03314,0.10542
1191.54336,0.05206
1190.05357,0.07967
1188.56378,0.02133
1187.07399,0.04268
1185.58420,0.01222
1184.09441,0.02479
1182.60463,0.02854
1181.11484,0.03232
1179.62505,0.12338
1178.13526,0.05137
1176.64547,0.01985
1175.15568,0.09332
1173.66589,0.04290
1172.17611,0.08608
1170.68632,0.04648
1169.19653,0.00692
1167.70674,0.11595
1166.21695,0.07582
1164.72716,0.03320
1163.23738,0.00705
1161.74759,0.04162
1160.25780,0.05852
1158.76801,0.06218
1157.27822,0.06588
1155.78843,0.05380
1154.29865,0.07211
1152.80886,0.02217
1151.31907,0.15940
1149.82928,0.07791
1148.33949,0.06475
1146.84970,0.07563
1145.35991,0.08656
1143.87013,0.00142
1142.38034,0.09695
1140.89055,0.23045
1139.40076,0.20215
1137.91097,0.24088
1136.42118,0.30242
1134.93140,0.35640
1133.44161,0.41041
1131.95182,0.55044
1130.46203,0.53877
1128.97224,0.48541
1127.48245,0.47508
1125.99266,0.51156
1124.50288,0.54555
1123.01309,0.54859
1121.52330,0.55167
1120.03351,0.60725
1118.54372,0.72356
1117.05393,0.70462
1115.56415,0.64524
1114.07436,0.67694
1112.58457,0.66884
1111.09478,0.66078
1109.60499,0.73936
1108.11520,0.84579
1106.62542,0.84352
1105.13563,0.89565
1103.64584,0.89091
1102.15605,1.03921
1100.66626,1.07437
1099.17647,1.10957
1097.68668,1.09233
1096.19690,1.14972
1094.70711,1.11485
1093.21732,1.32657
1091.72753,1.36004
1090.23774,1.34613
1088.74795,1.33225
1087.25817,1.43916
1085.76838,1.45254
1084.27859,1.55572
1082.78880,1.61089
1081.29901,1.67748
1079.80922,1.74283
1078.31943,1.69505
1076.82965,1.64731
1075.33986,1.92139
1073.85007,1.89584
1072.36028,1.77676
1070.87049,1.84485
1069.38070,1.81814
1067.89092,1.90905
1066.40113,2.00000
1064.91134,1.93293
1063.42155,1.71669
1061.93176,1.68004
1060.44197,1.59916
1058.95219,1.60304
1057.46240,1.51464
1055.97261,1.42628
1054.48282,1.19887
1052.99303,1.27242
1051.50324,1.13865
1050.01345,1.13008
1048.52367,1.06465
1047.03388,1.03845
1045.54409,1.01228
1044.05430,0.92546
1042.56451,0.89809
1041.07472,0.75950
1039.58494,0.70565
1038.09515,0.64552
1036.60536,0.62967
1035.11557,0.61385
1033.62578,0.59555
1032.13599,0.54440
1030.64620,0.53248
1029.15642,0.63187
1027.66663,0.59726
1026.17684,0.56268
1024.68705,0.52814
1023.19726,0.67065
1021.70747,0.79170
1020.21769,0.97853
1018.72790,1.11103
1017.23811,1.24735
1015.74832,1.38371
1014.25853,1.56309
1012.76874,1.74251
1011.27896,1.94345
1009.78917,1.97753
1008.29938,1.95727
1006.80959,1.90733
1005.31980,1.85743
1003.83001,1.78038
1002.34022,1.68818
1000.85044,1.62890
999.36065,1.50010
997.87086,1.49778
996.38107,1.49550
994.89128,1.49325
993.40149,1.49862
991.91171,1.47368
990.42192,1.35773
988.93213,1.32527
987.44234,1.30865
985.95255,1.29206
984.46276,1.38361
982.97297,1.27542
981.48319,1.26589
979.99340,1.23996
978.50361,1.19256
977.01382,1.14520
975.52403,1.24455
974.03424,1.05311
972.54446,0.99068
971.05467,1.03449
969.56488,0.93925
968.07509,0.88577
966.58530,0.83232
965.09551,0.92053
963.60573,0.85703
962.11594,0.85174
960.62615,0.83763
959.13636,0.76286
957.64657,0.68812
956.15678,0.62606
954.66699,0.67025
953.17721,0.64998
951.68742,0.65757
950.19763,0.69237
948.70784,0.72721
947.21805,0.65651
945.72826,0.66676
944.23848,0.75417
942.74869,0.72656
941.25890,0.75461
939.76911,0.84213
938.27932,0.92968
936.78953,1.05899
935.29974,0.88361
933.80996,0.85620
932.32017,0.97044
930.83038,0.97913
929.34059,0.98786
927.85080,0.94795
926.36101,0.93335
924.87123,0.80499
923.38144,0.93461
921.89165,0.94730
920.40186,0.96003
918.91207,1.08342
917.42228,1.11328
915.93250,1.04709
914.44271,1.05426
912.95292,1.10635
911.46313,1.15848
909.97334,1.12655
908.48355,1.25651
906.99376,1.24868
905.50398,1.11318
904.01419,1.14524
902.52440,1.17734
901.03461,1.21390
899.54482,1.33647
898.05503,1.28586
896.56525,1.35919
895.07546,1.39209
893.58567,1.42503
892.09588,1.34799
890.60609,1.35824
889.11630,1.33943
887.62651,1.21319
886.13673,1.16917
884.64694,1.12518
883.15715,1.33411
881.66736,1.26110
880.17757,1.29688
878.68778,1.31371
877.19800,1.33059
875.70821,1.30830
874.21842,1.34673
872.72863,1.33083
871.23884,1.33014
869.74905,1.32695
868.25927,1.32380
866.76948,1.37505
865.27969,1.41622
863.78990,1.47892
862.30011,1.41521
860.81032,1.33446
859.32053,1.25375
857.83075,1.32291
856.34096,1.34278
854.85117,1.18947
853.36138,1.15378
851.87159,1.04543
850.38180,0.93710
848.89202,0.75864
847.40223,0.64090
845.91244,0.56239
844.42265,0.58444
842.93286,0.60652
841.44307,0.57995
839.95329,0.47376
838.46350,0.41566
836.97371,0.38413
835.48392,0.38173
833.99413,0.37936
832.50434,0.44909
831.01455,0.43794
829.52477,0.51659
828.03498,0.38033
826.54519,0.36864
825.05540,0.35699
823.56561,0.26761
822.07582,0.30345
820.58604,0.23563
819.09625,0.18050
817.60646,0.12539
816.11667,0.09941
814.62688,0.13667
813.13709,0.09684
811.64730,0.00142
810.15752,0.05290
808.66773,0.10442
807.17794,0.05797
805.68815,0.01915
804.19836,0.06255
802.70857,0.08765
801.21879,0.11279
799.72900,0.12088
798.23921,0.23775
796.74942,0.33443
795.25963,0.35274
793.76984,0.37109
792.28006,0.49063
790.79027,0.67216
789.30048,0.66153
787.81069,0.75714
786.32090,0.74911
784.83111,0.74111
783.34132,0.80774
781.85154,0.79855
780.36175,0.76410
778.87196,0.74106
777.38217,0.71806
775.89238,0.90119
774.40259,0.83400
772.91281,0.84018
771.42302,0.88749
769.93323,0.93483
768.44344,0.86778
766.95365,0.99295
765.46386,0.98287
763.97407,0.97029
762.48429,0.90590
760.99450,0.84154
759.50471,0.76332
758.01492,0.67374
756.52513,0.56144
755.03534,0.47573
753.54556,0.39005
752.05577,0.28671
750.56598,0.28708
749.07619,0.10667
747.58640,0.11975
746.09661,0.13286
744.60683,0.06762
743.11704,0.09851
741.62725,0.16104
740.13746,0.15026
738.64767,0.13952
737.15788,0.07066
735.66809,0.06504
734.17831,0.08981
732.68852,0.07478
731.19873,0.05979
729.70894,0.08340
728.21915,0.08933
726.72936,0.06622
725.23958,0.12027
723.74979,0.08585
722.26000,0.05146
720.77021,0.09550
719.28042,0.09659
717.79063,0.08885
716.30084,0.04512
714.81106,0.00142
713.32127,0.02686
711.83148,0.09026
710.34169,0.11704
708.85190,0.11287
707.36211,0.10873
705.87233,0.12928
704.38254,0.07654
702.89275,0.09716
701.40296,0.11528
699.91317,0.13344
698.42338,0.18704
696.93360,0.20400
695.44381,0.17801
693.95402,0.21401
692.46423,0.25004
690.97444,0.33542
689.48465,0.27290
687.99486,0.35708
686.50508,0.36543
685.01529,0.37381
683.52550,0.37465
682.03571,0.37298
680.54592,0.27526
679.05613,0.31792
677.56635,0.36062
676.07656,0.34897
674.58677,0.29817
673.09698,0.29671
671.60719,0.24471
670.11740,0.19275
668.62761,0.11552
667.13783,0.11167
665.64804,0.13567
664.15825,0.15971
662.66846,0.08768
661.17867,0.14466
659.68888,0.17259
658.19910,0.14681
656.70931,0.12107
655.21952,0.15922
653.72973,0.18349
652.23994,0.12435
650.75015,0.15374
649.26037,0.18318
647.77058,0.12160
646.28079,0.04110
644.79100,0.05040
643.30121,0.07175
641.81142,0.09314
640.32163,0.07978
638.83185,0.04244
637.34206,0.01904
635.85227,0.01021
634.36248,0.00142
632.87269,0.09116
631.38290,0.06715
629.89312,0.01282
628.40333,0.04325
626.91354,0.07370
625.42375,0.14719
623.93396,0.07909
622.44417,0.05211
620.95438,0.02518
619.46460,0.06718
617.97481,0.13831
616.48502,0.07291
614.99523,0.07329
613.50544,0.07371
612.01565,0.12473
610.52587,0.01774
609.03608,0.08907
607.54629,0.11807
606.05650,0.14711
604.56671,0.20463
603.07692,0.06746
601.58714,0.09407
600.09735,0.12072
598.60756,0.11389
597.11777,0.13112
595.62798,0.16608
594.13819,0.12142
592.64840,0.07679
591.15862,0.12324
589.66883,0.15202
588.17904,0.04427
586.68925,0.10157
585.19946,0.15890
583.70967,0.10689
582.21989,0.10044
580.73010,0.10223
579.24031,0.10407
577.75052,0.10530
576.26073,0.06737
574.77094,0.08637
573.28115,0.11363
571.79137,0.14092
570.30158,0.05887
568.81179,0.22721
567.32200,0.19833
565.83221,0.16949
564.34242,0.25196
562.85264,0.33571
561.36285,0.42330
559.87306,0.45466
558.38327,0.48605
556.89348,0.44224
555.40369,0.46421
553.91391,0.46472
552.42412,0.46527
550.93433,0.50631
549.44454,0.55877
547.95475,0.61632
546.46496,0.66947
544.97517,0.72266
543.48539,0.74491
541.99560,0.77857
540.50581,0.76611
539.01602,0.75369
537.52623,0.63572
536.03644,0.60629
534.54666,0.63254
533.05687,0.66830
531.56708,0.70409
530.07729,0.70768
528.58750,0.62785
527.09771,0.60495
525.60792,0.58208
524.11814,0.60856
522.62835,0.63129
521.13856,0.56680
519.64877,0.54913
518.15898,0.53149
516.66919,0.49618
515.17941,0.52793
513.68962,0.52683
512.19983,0.52577
510.71004,0.52474
509.22025,0.48707
507.73046,0.62520
506.24068,0.59898
504.75089,0.57280
503.26110,0.53274
501.77131,0.44720
500.28152,0.47043
498.79173,0.49370
497.30194,0.47401
495.81216,0.55298
494.32237,0.60543
492.83258,0.65791
491.34279,0.57134
489.85300,0.53665
488.36321,0.55257
486.87343,0.48444
485.38364,0.41634
483.89385,0.37420
482.40406,0.32956
480.91427,0.29570
479.42448,0.26188
477.93469,0.22746
476.44491,0.26388
474.95512,0.26114
473.46533,0.25843
471.97554,0.14828
470.48575,0.02425
468.99596,0.00142
467.50618,0.01482
466.01639,0.02826
464.52660,-0.00000
463.03681,0.04132
461.54702,0.02135
460.05723,0.00142
458.56745,0.04307
457.07766,0.09362
455.58787,0.10184
454.09808,0.11009
452.60829,0.20878
451.11850,0.21015
449.62871,0.21850
448.13893,0.22689
446.64914,0.26502
445.15935,0.37400
443.66956,0.33761
442.17977,0.43021
440.68998,0.52285
439.20020,0.53208
437.71041,0.68422
436.22062,0.70489
434.73083,0.72559
433.24104,1.05359
431.75125,1.19322
430.26146,1.13942
428.77168,1.08567
427.28189,1.28735
425.79210,1.36137
424.30231,1.30708
422.81252,1.25283
421.32273,1.25108
419.83295,0.98511
418.34316,0.96825
416.85337,0.95144
415.36358,0.81959
413.87379,0.83319
412.38400,0.77538
410.89422,0.71760
409.40443,0.63520
407.91464,0.50353
406.42485,0.53753
404.93506,0.54437
403.44527,0.55125
401.95548,0.51328
400.46570,0.50822
398.97591,0.54238
397.48612,0.57658
395.99633,0.49828
394.50654,0.51485
393.01675,0.47835
391.52697,0.44188
390.03718,0.34854
388.54739,0.36019
387.05760,0.42560
385.56781,0.49105
384.07802,0.49016
382.58824,0.40584
381.09845,0.38605
379.60866,0.36629
378.11887,0.33771
376.62908,0.27629
375.13929,0.24272
373.64950,0.20919
372.15972,0.30845
370.66993,0.24464
369.18014,0.23587
367.69035,0.22713
366.20056,0.17859
364.71077,0.17055
363.22099,0.15496
361.73120,0.13940
360.24141,0.18456
358.75162,0.19815
357.26183,0.16373
355.77204,0.12934
354.28225,0.09878
352.79247,0.04043
351.30268,0.04850
349.81289,0.05660
348.32310,0.10204
346.83331,0.10452
345.34352,0.06658
343.85374,0.02867
342.36395,0.13643
340.87416,0.21009
339.38437,0.16303
337.89458,0.11600
336.40479,0.13918
334.91501,0.02332
333.42522,0.03266
331.93543,0.04203
330.44564,0.02616
328.95585,0.16204
327.46606,0.16267
325.97627,0.16333
324.48649,0.05023
322.99670,0.13702
321.50691,0.15430
320.01712,0.17162
318.52733,0.14219
317.03754,0.12291
315.54776,0.12578
314.05797,0.12870
312.56818,0.01974
311.07839,0.07327
309.58860,0.07373
308.09881,0.07423
306.60902,0.00142
305.11924,0.11073
303.62945,0.07088
302.13966,0.03107
300.64987,0.00616
299.16008,0.00142
