1778.52000,0.07308
1777.03021,0.07969
1775.54042,0.04591
1774.05063,0.06714
1772.56085,0.04312
1771.07106,0.01429
1769.58127,0.06310
1768.09148,0.04080
1766.60169,0.03955
1765.11190,0.02377
1763.62212,0.03067
1762.13233,0.06833
1760.64254,0.00413
1759.15275,0.07581
1757.66296,0.01976
1756.17317,0.01873
1754.68339,0.09535
1753.19360,0.04263
1751.70381,0.02552
1750.21402,0.02300
1748.72423,0.10460
1747.23444,0.01158
1745.74465,0.05766
1744.25487,0.09892
1742.76508,0.12566
1741.27529,0.08128
1739.78550,0.12426
1738.29571,0.08641
1736.80592,0.03565
1735.31614,0.01727
1733.82635,0.02964
1732.33656,0.00000
1730.84677,0.03656
1729.35698,0.02949
1727.86719,0.01437
1726.37740,0.00413
1724.88762,0.00888
1723.39783,0.04276
1721.90804,0.04433
1720.41825,0.05726
1718.92846,0.07506
1717.43867,0.02821
1715.94889,0.07519
1714.45910,0.07369
1712.96931,0.04796
1711.47952,0.05460
1709.98973,0.06612
1708.49994,0.02755
1707.01016,0.07391
1705.52037,0.12029
1704.03058,0.09313
1702.54079,0.10320
1701.05100,0.12138
1699.56121,0.13151
1698.07142,0.15460
1696.58164,0.07100
1695.09185,0.13620
1693.60206,0.12220
1692.11227,0.13087
1690.62248,0.17352
1689.13269,0.19681
1687.64291,0.22336
1686.15312,0.17231
1684.66333,0.16820
1683.17354,0.20940
1681.68375,0.14389
1680.19396,0.13664
1678.70417,0.15367
1677.21439,0.18206
1675.72460,0.16843
1674.23481,0.13704
1672.74502,0.17361
1671.25523,0.20212
1669.76544,0.20317
1668.27566,0.20263
1666.78587,0.17626
1665.29608,0.15799
1663.80629,0.20445
1662.31650,0.17978
1660.82671,0.11957
1659.33693,0.14995
1657.84714,0.11567
1656.35735,0.12832
1654.86756,0.10219
1653.37777,0.15372
1651.88798,0.15191
1650.39819,0.13396
1648.90841,0.09179
1647.41862,0.13697
1645.92883,0.15227
1644.43904,0.16759
1642.94925,0.14980
1641.45946,0.16600
1639.96968,0.05124
1638.47989,0.18070
1636.99010,0.15333
1635.50031,0.16157
1634.01052,0.13588
1632.52073,0.15227
1631.03094,0.12826
1629.54116,0.10590
1628.05137,0.14178
1626.56158,0.15344
1625.07179,0.15381
1623.58200,0.17362
1622.09221,0.20317
1620.60243,0.20848
1619.11264,0.08123
1617.62285,0.12703
1616.13306,0.11627
1614.64327,0.08614
1613.15348,0.23069
1611.66370,0.09873
1610.17391,0.05737
1608.68412,0.09366
1607.19433,0.13484
1605.70454,0.11945
1604.21475,0.11864
1602.72496,0.11786
1601.23518,0.16078
1599.74539,0.16816
1598.25560,0.12866
1596.76581,0.14580
1595.27602,0.05624
1593.78623,0.14782
1592.29645,0.10846
1590.80666,0.12087
1589.31687,0.14463
1587.82708,0.12314
1586.33729,0.16476
1584.84750,0.05924
1583.35771,0.07666
1581.86793,0.02134
1580.37814,0.10189
1578.88835,0.06280
1577.39856,0.04477
1575.90877,0.06235
1574.41898,0.02982
1572.92920,0.02159
1571.43941,0.05058
1569.94962,0.05291
1568.45983,0.05528
1566.97004,0.05364
1565.48025,0.08922
1563.99047,0.04398
1562.50068,0.03273
1561.01089,0.05385
1559.52110,0.04105
1558.03131,0.02342
1556.54152,0.04625
1555.05173,0.12410
1553.56195,0.01439
1552.07216,0.06966
1550.58237,0.08130
1549.09258,0.01697
1547.60279,0.03514
1546.11300,0.11317
1544.62322,0.08451
1543.13343,0.08013
1541.64364,0.07255
1540.15385,0.05692
1538.66406,0.04132
1537.17427,0.11954
1535.68448,0.08783
1534.19470,0.06262
1532.70491,0.02935
1531.21512,0.16592
1529.72533,0.05186
1528.23554,0.00413
1526.74575,0.08849
1525.25597,0.08393
1523.76618,0.05029
1522.27639,0.06520
1520.78660,0.02193
1519.29681,0.00779
1517.80702,0.08981
1516.31724,0.10232
1514.82745,0.03077
1513.33766,0.04011
1511.84787,0.04949
1510.35808,0.03787
1508.86829,0.03274
1507.37850,0.02765
1505.88872,0.00966
1504.39893,0.04183
1502.90914,0.02228
1501.41935,0.02055
1499.92956,0.00429
1498.43977,0.09641
1496.94999,0.09314
1495.46020,0.14812
1493.97041,0.19989
1492.48062,0.22421
1490.99083,0.20489
1489.50104,0.36026
1488.01125,0.36041
1486.52147,0.36060
1485.03168,0.44005
1483.54189,0.50822
1482.05210,0.63625
1480.56231,0.76593
1479.07252,0.81317
1477.58274,0.94292
1476.09295,0.92391
1474.60316,1.11356
1473.11337,1.13828
1471.62358,1.13878
1470.13379,1.06006
1468.64401,0.91669
1467.15422,0.94316
1465.66443,0.88233
1464.17464,0.82153
1462.68485,0.79795
1461.19506,0.84395
1459.70527,0.72988
1458.21549,0.70802
1456.72570,0.65869
1455.23591,0.58515
1453.74612,0.56014
1452.25633,0.57398
1450.76654,0.48759
1449.27676,0.49341
1447.78697,0.41840
1446.29718,0.44368
1444.80739,0.39865
1443.31760,0.35366
1441.82781,0.30950
1440.33802,0.25082
1438.84824,0.18246
1437.35845,0.19985
1435.86866,0.16229
1434.37887,0.21531
1432.88908,0.20530
1431.39929,0.21150
1429.90951,0.19023
1428.41972,0.29351
1426.92993,0.27069
1425.44014,0.25113
1423.95035,0.29468
1422.46056,0.33825
1420.97078,0.35275
1419.48099,0.31876
1417.99120,0.26864
1416.50141,0.28161
1415.01162,0.29138
1413.52183,0.32221
1412.03204,0.29808
1410.54226,0.29016
1409.05247,0.28388
1407.56268,0.44906
1406.07289,0.33450
1404.58310,0.37117
1403.09331,0.40787
1401.60353,0.38235
1400.11374,0.46844
1398.62395,0.42842
1397.13416,0.51296
1395.64437,0.50373
1394.15458,0.58995
1392.66479,0.57755
1391.17501,0.64280
1389.68522,0.68383
1388.19543,0.56317
1386.70564,0.55980
1385.21585,0.55645
1383.72606,0.59275
1382.23628,0.54661
1380.74649,0.57327
1379.25670,0.57085
1377.76691,0.60728
1376.27712,0.56773
1374.78733,0.65759
1373.29755,0.70543
1371.80776,0.83255
1370.31797,1.02600
1368.82818,1.11032
1367.33839,1.19467
1365.84860,1.32191
1364.35881,1.47829
1362.86903,1.66058
1361.37924,1.88494
1359.88945,1.85706
1358.39966,1.99577
1356.90987,1.96310
1355.42008,2.00000
1353.93030,1.83478
1352.44051,1.79654
1350.95072,1.75834
1349.46093,1.73391
1347.97114,1.50575
1346.48135,1.19352
1344.99156,1.06407
1343.50178,1.02360
1342.01199,0.84731
1340.52220,0.83439
1339.03241,0.75196
1337.54262,0.69867
1336.05283,0.63328
1334.56305,0.56793
1333.07326,0.57619
1331.58347,0.62167
1330.09368,0.56369
1328.60389,0.42487
1327.11410,0.43488
1325.62432,0.38507
1324.13453,0.39837
1322.64474,0.44566
1321.15495,0.40403
1319.66516,0.38023
1318.17537,0.35646
1316.68558,0.34080
1315.19580,0.33973
1313.70601,0.21255
1312.21622,0.24712
1310.72643,0.24615
1309.23664,0.23712
1307.74685,0.30574
1306.25707,0.27898
1304.76728,0.26600
1303.27749,0.25306
1301.78770,0.20537
1300.29791,0.19653
1298.80812,0.21682
1297.31834,0.25171
1295.82855,0.32543
1294.33876,0.26820
1292.84897,0.23526
1291.35918,0.23469
1289.86939,0.24143
1288.37960,0.24820
1286.88982,0.16686
1285.40003,0.26183
1283.91024,0.36330
1282.42045,0.37586
1280.93066,0.38359
1279.44087,0.35740
1277.95109,0.30213
1276.46130,0.25012
1274.97151,0.26768
1273.48172,0.28528
1271.99193,0.33040
1270.50214,0.35776
1269.01235,0.40455
1267.52257,0.40934
1266.03278,0.42386
1264.54299,0.42547
1263.05320,0.50797
1261.56341,0.50317
1260.07362,0.49841
1258.58384,0.52278
1257.09405,0.43561
1255.60426,0.53444
1254.11447,0.52980
1252.62468,0.45403
1251.13489,0.50121
1249.64511,0.44330
1248.15532,0.39188
1246.66553,0.36395
1245.17574,0.33605
1243.68595,0.31870
1242.19616,0.34827
1240.70637,0.33097
1239.21659,0.23771
1237.72680,0.19136
1236.23701,0.26149
1234.74722,0.19419
1233.25743,0.19646
1231.76764,0.19876
1230.27786,0.16389
1228.78807,0.18728
1227.29828,0.22040
1225.80849,0.22929
1224.31870,0.12178
1222.82891,0.10324
1221.33912,0.09282
1219.84934,0.15036
1218.35955,0.20792
1216.86976,0.25581
1215.37997,0.26331
1213.89018,0.18674
1212.40039,0.12476
1210.91061,0.13235
1209.42082,0.12865
1207.93103,0.10072
1206.44124,0.07283
1204.95145,0.03526
1203.46166,0.03977
1201.97188,0.14296
1200.48209,0.05859
1198.99230,0.06158
1197.50251,0.04681
1196.01272,0.07897
1194.52293,0.07639
1193.03314,0.07384
1191.54336,0.02200
1190.05357,0.02194
1188.56378,0.07205
1187.07399,0.00413
1185.58420,0.00881
1184.09441,0.04425
1182.60463,0.04980
1181.11484,0.05538
1179.62505,0.06018
1178.13526,0.05208
1176.64547,0.06180
1175.15568,0.07640
1173.66589,0.17513
1172.17611,0.06204
1170.68632,0.03307
1169.19653,0.00413
1167.70674,0.12726
1166.21695,0.04180
1164.72716,0.13265
1163.23738,0.07798
1161.74759,0.08157
1160.25780,0.02373
1158.76801,0.01929
1157.27822,0.01488
1155.78843,0.07842
1154.29865,0.07407
1152.80886,0.05197
1151.31907,0.03798
1149.82928,0.09357
1148.33949,0.11522
1146.84970,0.11507
1145.35991,0.11496
1143.87013,0.02350
1142.38034,0.15363
1140.89055,0.17059
1139.40076,0.16009
1137.91097,0.22400
1136.42118,0.28310
1134.93140,0.28563
1133.44161,0.28819
1131.95182,0.32313
1130.46203,0.35486
1128.97224,0.35589
1127.48245,0.37637
1125.99266,0.44862
1124.50288,0.35111
1123.01309,0.39270
1121.52330,0.43432
1120.03351,0.50832
1118.54372,0.45135
1117.05393,0.54482
1115.56415,0.55584
1114.07436,0.53455
1112.58457,0.52785
1111.09478,0.52117
1109.60499,0.57275
1108.11520,0.53703
1106.62542,0.64365
1105.13563,0.63710
1103.64584,0.80039
1102.15605,0.90387
1100.66626,0.82383
1099.17647,0.74383
1097.68668,0.85872
1096.19690,0.91058
1094.70711,1.00613
1093.21732,1.12759
1091.72753,1.04370
1090.23774,1.06415
1088.74795,1.08462
1087.25817,1.12535
1085.76838,1.16287
1084.27859,1.24247
1082.78880,1.24771
1081.29901,1.27886
1079.80922,1.20815
1078.31943,1.26281
1076.82965,1.31750
1075.33986,1.48947
1073.85007,1.46417
1072.36028,1.51168
1070.87049,1.49291
1069.38070,1.56474
1067.89092,1.64468
1066.40113,1.72466
1064.91134,1.50710
1063.42155,1.36235
1061.93176,1.39552
1060.44197,1.22658
1058.95219,1.24364
1057.46240,1.19928
1055.97261,1.15496
1054.48282,0.96188
1052.99303,1.01303
1051.50324,0.96394
1050.01345,0.84697
1048.52367,0.84484
1047.03388,0.82415
1045.54409,0.80349
1044.05430,0.76588
1042.56451,0.56173
1041.07472,0.54845
1039.58494,0.48344
1038.09515,0.45728
1036.60536,0.45540
1035.11557,0.45356
1033.62578,0.38544
1032.13599,0.43864
1030.64620,0.40617
1029.15642,0.43517
1027.66663,0.45128
1026.17684,0.46741
1024.68705,0.36552
1023.19726,0.51432
1021.70747,0.60817
1020.21769,0.70206
1018.72790,0.79920
1017.23811,0.94975
1015.74832,1.10033
1014.25853,1.25093
1012.76874,1.33689
1011.27896,1.44874
1009.78917,1.47169
1008.29938,1.50275
1006.80959,1.51201
1005.31980,1.52131
1003.83001,1.39560
1002.34022,1.32329
1000.85044,1.28497
999.36065,1.25962
997.87086,1.23026
996.38107,1.20093
994.89128,1.14818
993.40149,1.03401
991.91171,1.06703
990.42192,1.04187
988.93213,0.95529
987.44234,0.88895
985.95255,0.82264
984.46276,0.89787
982.97297,0.81950
981.48319,0.84304
979.99340,0.72915
978.50361,0.75761
977.01382,0.78609
975.52403,0.78226
974.03424,0.65395
972.54446,0.71002
971.05467,0.63998
969.56488,0.60232
968.07509,0.57844
966.58530,0.55458
965.09551,0.50084
963.60573,0.51505
962.11594,0.43389
960.62615,0.44978
959.13636,0.41880
957.64657,0.38786
956.15678,0.42164
954.66699,0.38914
953.17721,0.41166
951.68742,0.35335
950.19763,0.36380
948.70784,0.37428
947.21805,0.42603
945.72826,0.42445
944.23848,0.45686
942.74869,0.37771
941.25890,0.61233
939.76911,0.65049
938.27932,0.68868
936.78953,0.72125
935.29974,0.72797
933.80996,0.67489
932.32017,0.67682
930.83038,0.70385
929.34059,0.73091
927.85080,0.72970
926.36101,0.70588
924.87123,0.66431
923.38144,0.64055
921.89165,0.70578
920.40186,0.77103
918.91207,0.75060
917.42228,0.72697
915.93250,0.80687
914.44271,0.81403
912.95292,0.80020
911.46313,0.78640
909.97334,0.81467
908.48355,0.85268
906.99376,0.84221
905.50398,0.84309
904.01419,0.81085
902.52440,0.77863
901.03461,0.84106
899.54482,1.00701
898.05503,0.96115
896.56525,1.13364
895.07546,1.10805
893.58567,1.08249
892.09588,1.05455
890.60609,0.90211
889.11630,0.91788
887.62651,0.86415
886.13673,0.86706
884.64694,0.86999
883.15715,0.97483
881.66736,0.88565
880.17757,0.96630
878.68778,1.03809
877.19800,1.10991
875.70821,1.06775
874.21842,1.10163
872.72863,1.11452
871.23884,1.15008
869.74905,1.12179
868.25927,1.09353
866.76948,1.09684
865.27969,1.21500
863.78990,1.24263
862.30011,1.13121
860.81032,1.09341
859.32053,1.05563
857.83075,1.17880
856.34096,1.22276
854.85117,1.00962
853.36138,1.00512
851.87159,0.87371
850.38180,0.74233
848.89202,0.65384
847.40223,0.47481
845.91244,0.55295
844.42265,0.52438
842.93286,0.49585
841.44307,0.45118
839.95329,0.34993
838.46350,0.32473
836.97371,0.35292
835.48392,0.35769
833.99413,0.36250
832.50434,0.36168
831.01455,0.37382
829.52477,0.41187
828.03498,0.34969
826.54519,0.33525
825.05540,0.32083
823.56561,0.31535
822.07582,0.22580
820.58604,0.16054
819.09625,0.15677
817.60646,0.15302
816.11667,0.15578
814.62688,0.14563
813.13709,0.14521
811.64730,0.00413
810.15752,0.02897
808.66773,0.05385
807.17794,0.05854
805.68815,0.13927
804.19836,0.14564
802.70857,0.12293
801.21879,0.10026
799.72900,0.10187
798.23921,0.20701
796.74942,0.34777
795.25963,0.33896
793.76984,0.33019
792.28006,0.41929
790.79027,0.53752
789.30048,0.56361
787.81069,0.58973
786.32090,0.57303
784.83111,0.55636
783.34132,0.57772
781.85154,0.65734
780.36175,0.60276
778.87196,0.63149
777.38217,0.66026
775.89238,0.67207
774.40259,0.70171
772.91281,0.80415
771.42302,0.79423
769.93323,0.78434
768.44344,0.74780
766.95365,0.78729
765.46386,0.79610
763.97407,0.69820
762.48429,0.65935
760.99450,0.62054
759.50471,0.54861
758.01492,0.48641
756.52513,0.51643
755.03534,0.41144
753.54556,0.30648
752.05577,0.24279
750.56598,0.23573
749.07619,0.19151
747.58640,0.19422
746.09661,0.19696
744.60683,0.07683
743.11704,0.07801
741.62725,0.10995
740.13746,0.05703
738.64767,0.00413
737.15788,0.06795
735.66809,0.05418
734.17831,0.08249
732.68852,0.07525
731.19873,0.06804
729.70894,0.03175
728.21915,0.03916
726.72936,0.01264
725.23958,0.06817
723.74979,0.03802
722.26000,0.00791
720.77021,0.09911
719.28042,0.07876
717.79063,0.01477
716.30084,0.01874
714.81106,0.02274
713.32127,0.00413
711.83148,0.00574
710.34169,0.00900
708.85190,0.03170
707.36211,0.05443
705.87233,0.10630
704.38254,0.06278
702.89275,0.02415
701.40296,0.05267
699.91317,0.08121
698.42338,0.09443
696.93360,0.16104
695.44381,0.19210
693.95402,0.17711
692.46423,0.16215
690.97444,0.30489
689.48465,0.31021
687.99486,0.19912
686.50508,0.22552
685.01529,0.25195
683.52550,0.26871
682.03571,0.27257
680.54592,0.26351
679.05613,0.27067
677.56635,0.27785
676.07656,0.28830
674.58677,0.34406
673.09698,0.27371
671.60719,0.20258
670.11740,0.13149
668.62761,0.13886
667.13783,0.12201
665.64804,0.10599
664.15825,0.09001
662.66846,0.09265
661.17867,0.07754
659.68888,0.16434
658.19910,0.17597
656.70931,0.18763
655.21952,0.23733
653.72973,0.15122
652.23994,0.12982
650.75015,0.13110
649.26037,0.13241
647.77058,0.14830
646.28079,0.00413
644.79100,0.01446
643.30121,0.05474
641.81142,0.09505
640.32163,0.16046
638.83185,0.10622
637.34206,0.02453
635.85227,0.04637
634.36248,0.06824
632.87269,0.01898
631.38290,0.07649
629.89312,0.04832
628.40333,0.02665
626.91354,0.00501
625.42375,0.09337
623.93396,0.13648
622.44417,0.11575
620.95438,0.09504
619.46460,0.08812
617.97481,0.07313
616.48502,0.04201
614.99523,0.06833
613.50544,0.09468
612.01565,0.12672
610.52587,0.04883
609.03608,0.07931
607.54629,0.12115
606.05650,0.16302
604.56671,0.11759
603.07692,0.06735
601.58714,0.11982
600.09735,0.17233
598.60756,0.08013
597.11777,0.00413
595.62798,0.05968
594.13819,0.07484
592.64840,0.09002
591.15862,0.09553
589.66883,0.07197
588.17904,0.13414
586.68925,0.09043
585.19946,0.04674
583.70967,0.13327
582.21989,0.18425
580.73010,0.13581
579.24031,0.08740
577.75052,0.19669
576.26073,0.10387
574.77094,0.07576
573.28115,0.10834
571.79137,0.14094
570.30158,0.09676
568.81179,0.10921
567.32200,0.14271
565.83221,0.17625
564.34242,0.15322
562.85264,0.27091
561.36285,0.29484
559.87306,0.29535
558.38327,0.29589
556.89348,0.35549
555.40369,0.27442
553.91391,0.34702
552.42412,0.41965
550.93433,0.51334
549.44454,0.50032
547.95475,0.44367
546.46496,0.47034
544.97517,0.49704
543.48539,0.63939
541.99560,0.61521
540.50581,0.60562
539.01602,0.59605
537.52623,0.55418
536.03644,0.62392
534.54666,0.65973
533.05687,0.62684
531.56708,0.59398
530.07729,0.59916
528.58750,0.59629
527.09771,0.61527
525.60792,0.63429
524.11814,0.52640
522.62835,0.55275
521.13856,0.53063
519.64877,0.55139
518.15898,0.57218
516.66919,0.47252
515.17941,0.54432
513.68962,0.48839
512.19983,0.43249
510.71004,0.45263
509.22025,0.32079
507.73046,0.52211
506.24068,0.50596
504.75089,0.48984
503.26110,0.55380
501.77131,0.48033
500.28152,0.48128
498.79173,0.48227
497.30194,0.39111
495.81216,0.47624
494.32237,0.56707
492.83258,0.65794
491.34279,0.66878
489.85300,0.50824
488.36321,0.51591
486.87343,0.42496
485.38364,0.33405
483.89385,0.34990
482.40406,0.25743
480.91427,0.24747
479.42448,0.23754
477.93469,0.06755
476.44491,0.14501
474.95512,0.13517
473.46533,0.12537
471.97554,0.12206
470.48575,0.09453
468.99596,0.05410
467.50618,0.05493
466.01639,0.05579
464.52660,0.00413
463.03681,0.01412
461.54702,0.04921
460.05723,0.08433
458.56745,0.07177
457.07766,0.00426
455.58787,0.04991
454.09808,0.09559
452.60829,0.18819
451.11850,0.18703
449.62871,0.16165
448.13893,0.13629
446.64914,0.10127
445.15935,0.36707
443.66956,0.43722
442.17977,0.38126
440.68998,0.32534
439.20020,0.46836
437.71041,0.56936
436.22062,0.67121
434.73083,0.77308
433.24104,0.93402
431.75125,1.00280
430.26146,0.98753
428.77168,0.97228
427.28189,1.24978
425.79210,1.19093
424.30231,1.16527
422.81252,1.13964
421.32273,0.99680
419.83295,0.93323
418.34316,0.86645
416.85337,0.79971
415.36358,0.74755
413.87379,0.74232
412.38400,0.67244
410.89422,0.60259
409.40443,0.54570
407.91464,0.49532
406.42485,0.48863
404.93506,0.48440
403.44527,0.48020
401.95548,0.38143
400.46570,0.54790
398.97591,0.47911
397.48612,0.41034
395.99633,0.44915
394.50654,0.33922
393.01675,0.37890
391.52697,0.41861
390.03718,0.29583
388.54739,0.26526
387.05760,0.32367
385.56781,0.38210
384.07802,0.45350
382.58824,0.43438
381.09845,0.38699
379.60866,0.33962
378.11887,0.38042
376.62908,0.26763
375.13929,0.23491
373.64950,0.20223
372.15972,0.21405
370.66993,0.16283
369.18014,0.20625
367.69035,0.24969
366.20056,0.20827
364.71077,0.15071
363.22099,0.17727
361.73120,0.20387
360.24141,0.13346
358.75162,0.18922
357.26183,0.18276
355.77204,0.17633
354.28225,0.07370
352.79247,0.09483
351.30268,0.12164
349.81289,0.14849
348.32310,0.09370
346.83331,0.11981
345.34352,0.09823
343.85374,0.07669
342.36395,0.25814
340.87416,0.25202
339.38437,0.16427
337.89458,0.07655
336.40479,0.11904
334.91501,0.06939
333.42522,0.03674
331.93543,0.00413
330.44564,0.22673
328.95585,0.19871
327.46606,0.14807
325.97627,0.09747
324.48649,0.14572
322.99670,0.15518
321.50691,0.16064
320.01712,0.16612
318.52733,0.11908
317.03754,0.16425
315.54776,0.13667
314.05797,0.10913
312.56818,0.17542
311.07839,0.22556
309.58860,0.11483
308.09881,0.00413
306.60902,0.04233
305.11924,0.07732
303.62945,0.09293
302.13966,0.10858
300.64987,0.05472
299.16008,0.00413
