1778.52000,0.09422
1777.03021,0.05688
1775.54042,0.00464
1774.05063,0.07184
1772.56085,0.07638
1771.07106,0.04811
1769.58127,0.04674
1768.09148,0.07077
1766.60169,0.03961
1765.11190,0.06669
1763.62212,0.06095
1762.13233,0.10152
1760.64254,0.03764
1759.15275,0.07827
1757.66296,0.03086
1756.17317,0.04767
1754.68339,0.03913
1753.19360,0.09032
1751.70381,0.03557
1750.21402,0.04205
1748.72423,0.06497
1747.23444,0.06703
1745.74465,0.04524
1744.25487,0.04138
1742.76508,0.05397
1741.27529,0.03973
1739.78550,0.08970
1738.29571,0.05163
1736.80592,0.00464
1735.31614,0.04411
1733.82635,0.06571
1732.33656,0.06643
1730.84677,0.02838
1729.35698,0.01275
1727.86719,0.02550
1726.37740,0.03530
1724.88762,0.01826
1723.39783,0.03558
1721.90804,0.03353
1720.41825,0.00464
1718.92846,0.02099
1717.43867,0.02990
1715.94889,0.05377
1714.45910,0.05080
1712.96931,0.02099
1711.47952,0.05987
1709.98973,0.08834
1708.49994,0.03474
1707.01016,0.03415
1705.52037,0.03360
1704.03058,0.11144
1702.54079,0.08482
1701.05100,0.09854
1699.56121,0.09139
1698.07142,0.09471
1696.58164,0.12643
1695.09185,0.13578
1693.60206,0.12576
1692.11227,0.10234
1690.62248,0.14612
1689.13269,0.14066
1687.64291,0.10986
1686.15312,0.14328
1684.66333,0.13195
1683.17354,0.13557
1681.68375,0.11384
1680.19396,0.15633
1678.70417,0.12422
1677.21439,0.14885
1675.72460,0.13023
1674.23481,0.10567
1672.74502,0.15726
1671.25523,0.15366
1669.76544,0.17247
1668.27566,0.17937
1666.78587,0.13406
1665.29608,0.07983
1663.80629,0.12115
1662.31650,0.12817
1660.82671,0.12626
1659.33693,0.14677
1657.84714,0.06283
1656.35735,0.08341
1654.86756,0.09505
1653.37777,0.13509
1651.88798,0.07515
1650.39819,0.07494
1648.90841,0.07924
1647.41862,0.14178
1645.92883,0.12077
1644.43904,0.09978
1642.94925,0.09524
1641.45946,0.13999
1639.96968,0.12805
1638.47989,0.12062
1636.99010,0.10426
1635.50031,0.11330
1634.01052,0.12984
1632.52073,0.11506
1631.03094,0.10479
1629.54116,0.20649
1628.05137,0.12613
1626.56158,0.10699
1625.07179,0.12371
1623.58200,0.17329
1622.09221,0.17364
1620.60243,0.13074
1619.11264,0.12518
1617.62285,0.09727
1616.13306,0.15744
1614.64327,0.12362
1613.15348,0.12564
1611.66370,0.11725
1610.17391,0.15067
1608.68412,0.07965
1607.19433,0.12209
1605.70454,0.08993
1604.21475,0.11079
1602.72496,0.13168
1601.23518,0.14439
1599.74539,0.13175
1598.25560,0.10571
1596.76581,0.00955
1595.27602,0.05074
1593.78623,0.09046
1592.29645,0.03021
1590.80666,0.05805
1589.31687,0.09040
1587.82708,0.08099
1586.33729,0.14026
1584.84750,0.11001
1583.35771,0.09620
1581.86793,0.05407
1580.37814,0.07018
1578.88835,0.08184
1577.39856,0.01293
1575.90877,0.01420
1574.41898,0.03789
1572.92920,0.04817
1571.43941,0.05102
1569.94962,0.03301
1568.45983,0.01502
1566.97004,0.07319
1565.48025,0.08213
1563.99047,0.08960
1562.50068,0.07472
1561.01089,0.00464
1559.52110,0.06096
1558.03131,0.03074
1556.54152,0.03637
1555.05173,0.11218
1553.56195,0.06862
1552.07216,0.05344
1550.58237,0.06665
1549.09258,0.05900
1547.60279,0.10510
1546.11300,0.12288
1544.62322,0.10487
1543.13343,0.11375
1541.64364,0.06893
1540.15385,0.06593
1538.66406,0.06296
1537.17427,0.12569
1535.68448,0.07651
1534.19470,0.06766
1532.70491,0.03197
1531.21512,0.01870
1529.72533,0.03083
1528.23554,0.01463
1526.74575,0.05668
1525.25597,0.06740
1523.76618,0.11100
1522.27639,0.06208
1520.78660,0.03409
1519.29681,0.00464
1517.80702,0.04502
1516.31724,0.06753
1514.82745,0.06020
1513.33766,0.06635
1511.84787,0.07252
1510.35808,0.08917
1508.86829,0.06107
1507.37850,0.00464
1505.88872,0.03572
1504.39893,0.07578
1502.90914,0.13081
1501.41935,0.10675
1499.92956,0.01257
1498.43977,0.11395
1496.94999,0.14968
1495.46020,0.24515
1493.97041,0.26602
1492.48062,0.30930
1490.99083,0.26008
1489.50104,0.32581
1488.01125,0.35874
1486.52147,0.39170
1485.03168,0.44259
1483.54189,0.55173
1482.05210,0.67732
1480.56231,0.71785
1479.07252,0.80768
1477.58274,1.00052
1476.09295,1.04413
1474.60316,1.09673
1473.11337,1.19413
1471.62358,1.17663
1470.13379,1.03827
1468.64401,1.10591
1467.15422,0.94521
1465.66443,0.88977
1464.17464,0.83436
1462.68485,0.94839
1461.19506,0.95647
1459.70527,0.88548
1458.21549,0.84138
1456.72570,0.70477
1455.23591,0.62790
1453.74612,0.48687
1452.25633,0.51901
1450.76654,0.55268
1449.27676,0.52368
1447.78697,0.47233
1446.29718,0.43593
1444.80739,0.35852
1443.31760,0.28113
1441.82781,0.25676
1440.33802,0.27421
1438.84824,0.26185
1437.35845,0.30473
1435.86866,0.24615
1434.37887,0.25775
1432.88908,0.28431
1431.39929,0.23477
1429.90951,0.18228
1428.41972,0.22684
1426.92993,0.33262
1425.44014,0.33693
1423.95035,0.36218
1422.46056,0.38745
1420.97078,0.26797
1419.48099,0.32166
1417.99120,0.24403
1416.50141,0.34554
1415.01162,0.33513
1413.52183,0.32774
1412.03204,0.32486
1410.54226,0.34141
1409.05247,0.32665
1407.56268,0.41043
1406.07289,0.38229
1404.58310,0.38627
1403.09331,0.39028
1401.60353,0.47119
1400.11374,0.35810
1398.62395,0.46892
1397.13416,0.51559
1395.64437,0.56378
1394.15458,0.62991
1392.66479,0.67667
1391.17501,0.65330
1389.68522,0.72251
1388.19543,0.67383
1386.70564,0.62443
1385.21585,0.57507
1383.72606,0.63544
1382.23628,0.55553
1380.74649,0.61446
1379.25670,0.69731
1377.76691,0.68317
1376.27712,0.64219
1374.78733,0.75647
1373.29755,0.83794
1371.80776,0.94780
1370.31797,1.06067
1368.82818,1.15567
1367.33839,1.25069
1365.84860,1.41142
1364.35881,1.54979
1362.86903,1.81207
1361.37924,1.83706
1359.88945,1.86058
1358.39966,1.97967
1356.90987,1.99280
1355.42008,2.00000
1353.93030,1.87588
1352.44051,1.86149
1350.95072,1.84713
1349.46093,1.67832
1347.97114,1.43491
1346.48135,1.20197
1344.99156,1.08549
1343.50178,1.02128
1342.01199,0.93172
1340.52220,0.80040
1339.03241,0.78105
1337.54262,0.65875
1336.05283,0.67827
1334.56305,0.69782
1333.07326,0.60098
1331.58347,0.61760
1330.09368,0.52380
1328.60389,0.45989
1327.11410,0.47660
1325.62432,0.39781
1324.13453,0.38623
1322.64474,0.44333
1321.15495,0.44822
1319.66516,0.44344
1318.17537,0.43868
1316.68558,0.38396
1315.19580,0.33971
1313.70601,0.26863
1312.21622,0.30205
1310.72643,0.28775
1309.23664,0.28541
1307.74685,0.26818
1306.25707,0.31367
1304.76728,0.29351
1303.27749,0.27338
1301.78770,0.31149
1300.29791,0.22276
1298.80812,0.34899
1297.31834,0.30510
1295.82855,0.31348
1294.33876,0.34278
1292.84897,0.22285
1291.35918,0.29252
1289.86939,0.28086
1288.37960,0.26924
1286.88982,0.31660
1285.40003,0.35504
1283.91024,0.37261
1282.42045,0.30811
1280.93066,0.34216
1279.44087,0.37773
1277.95109,0.36258
1276.46130,0.34746
1274.97151,0.37043
1273.48172,0.39343
1271.99193,0.40079
1270.50214,0.37832
1269.01235,0.46186
1267.52257,0.44095
1266.03278,0.41260
1264.54299,0.51116
1263.05320,0.54854
1261.56341,0.57551
1260.07362,0.60251
1258.58384,0.52058
1257.09405,0.47599
1255.60426,0.57173
1254.11447,0.53915
1252.62468,0.61405
1251.13489,0.60541
1249.64511,0.53559
1248.15532,0.39118
1246.66553,0.37366
1245.17574,0.35618
1243.68595,0.33723
1242.19616,0.40041
1240.70637,0.42331
1239.21659,0.33430
1237.72680,0.28263
1236.23701,0.21756
1234.74722,0.27640
1233.25743,0.26811
1231.76764,0.25985
1230.27786,0.26952
1228.78807,0.22102
1227.29828,0.23822
1225.80849,0.18679
1224.31870,0.16076
1222.82891,0.14074
1221.33912,0.16552
1219.84934,0.20301
1218.35955,0.24054
1216.86976,0.23108
1215.37997,0.21418
1213.89018,0.26598
1212.40039,0.16556
1210.91061,0.19353
1209.42082,0.18870
1207.93103,0.17120
1206.44124,0.15374
1204.95145,0.07884
1203.46166,0.11592
1201.97188,0.12168
1200.48209,0.06926
1198.99230,0.01537
1197.50251,0.03764
1196.01272,0.10322
1194.52293,0.05391
1193.03314,0.00462
1191.54336,0.06880
1190.05357,0.00464
1188.56378,0.11546
1187.07399,0.04271
1185.58420,0.02223
1184.09441,0.07045
1182.60463,0.07764
1181.11484,0.08487
1179.62505,0.01824
1178.13526,0.03075
1176.64547,0.05523
1175.15568,0.05885
1173.66589,0.07443
1172.17611,0.15273
1170.68632,0.08031
1169.19653,0.00792
1167.70674,0.06691
1166.21695,0.04532
1164.72716,0.11332
1163.23738,0.03806
1161.74759,0.08374
1160.25780,0.06824
1158.76801,0.06098
1157.27822,0.05376
1155.78843,0.04880
1154.29865,0.01402
1152.80886,0.00464
1151.31907,0.10529
1149.82928,0.10448
1148.33949,0.12459
1146.84970,0.09100
1145.35991,0.05743
1143.87013,0.07912
1142.38034,0.08741
1140.89055,0.11066
1139.40076,0.10856
1137.91097,0.15873
1136.42118,0.21490
1134.93140,0.20617
1133.44161,0.19747
1131.95182,0.33433
1130.46203,0.34285
1128.97224,0.34394
1127.48245,0.40327
1125.99266,0.40144
1124.50288,0.43546
1123.01309,0.42622
1121.52330,0.41701
1120.03351,0.47350
1118.54372,0.48973
1117.05393,0.58061
1115.56415,0.45510
1114.07436,0.51320
1112.58457,0.51760
1111.09478,0.52203
1109.60499,0.56978
1108.11520,0.58173
1106.62542,0.61163
1105.13563,0.55647
1103.64584,0.69240
1102.15605,0.79701
1100.66626,0.80463
1099.17647,0.81229
1097.68668,0.81698
1096.19690,0.83216
1094.70711,0.82945
1093.21732,0.88349
1091.72753,0.95547
1090.23774,0.93196
1088.74795,0.90847
1087.25817,1.05368
1085.76838,1.14369
1084.27859,1.16358
1082.78880,1.09096
1081.29901,1.16165
1079.80922,1.20402
1078.31943,1.22552
1076.82965,1.24705
1075.33986,1.40742
1073.85007,1.34990
1072.36028,1.27897
1070.87049,1.37824
1069.38070,1.47305
1067.89092,1.41117
1066.40113,1.34932
1064.91134,1.36810
1063.42155,1.26452
1061.93176,1.10275
1060.44197,1.15147
1058.95219,1.08380
1057.46240,1.08034
1055.97261,1.07690
1054.48282,0.86902
1052.99303,0.86714
1051.50324,0.74438
1050.01345,0.78585
1048.52367,0.67360
1047.03388,0.68528
1045.54409,0.69698
1044.05430,0.63258
1042.56451,0.49508
1041.07472,0.50986
1039.58494,0.45899
1038.09515,0.41710
1036.60536,0.41480
1035.11557,0.41253
1033.62578,0.32446
1032.13599,0.28419
1030.64620,0.33649
1029.15642,0.33209
1027.66663,0.32549
1026.17684,0.31892
1024.68705,0.29372
1023.19726,0.44169
1021.70747,0.53148
1020.21769,0.58697
1018.72790,0.72458
1017.23811,0.84580
1015.74832,0.96705
1014.25853,1.14953
1012.76874,1.32159
1011.27896,1.30411
1009.78917,1.33443
1008.29938,1.41852
1006.80959,1.40039
1005.31980,1.38229
1003.83001,1.32466
1002.34022,1.29543
1000.85044,1.13338
999.36065,1.13555
997.87086,1.10715
996.38107,1.07878
994.89128,1.04671
993.40149,1.03257
991.91171,1.11997
990.42192,0.98499
988.93213,1.01722
987.44234,0.95470
985.95255,0.89220
984.46276,0.95736
982.97297,0.91358
981.48319,0.93700
979.99340,0.93358
978.50361,0.88392
977.01382,0.83429
975.52403,0.75782
974.03424,0.72019
972.54446,0.73782
971.05467,0.75249
969.56488,0.57763
968.07509,0.56624
966.58530,0.55488
965.09551,0.61445
963.60573,0.57404
962.11594,0.51873
960.62615,0.50973
959.13636,0.47836
957.64657,0.44703
956.15678,0.42916
954.66699,0.37400
953.17721,0.36813
951.68742,0.32796
950.19763,0.39304
948.70784,0.45816
947.21805,0.47181
945.72826,0.41235
944.23848,0.33650
942.74869,0.44726
941.25890,0.52073
939.76911,0.56065
938.27932,0.60060
936.78953,0.64282
935.29974,0.58357
933.80996,0.63629
932.32017,0.60546
930.83038,0.63734
929.34059,0.66926
927.85080,0.65941
926.36101,0.60482
924.87123,0.50249
923.38144,0.62259
921.89165,0.63151
920.40186,0.64047
918.91207,0.76663
917.42228,0.67340
915.93250,0.73693
914.44271,0.76466
912.95292,0.73645
911.46313,0.70827
909.97334,0.75699
908.48355,0.72514
906.99376,0.71869
905.50398,0.77198
904.01419,0.74245
902.52440,0.71295
901.03461,0.72304
899.54482,0.87794
898.05503,0.83436
896.56525,0.89827
895.07546,0.88832
893.58567,0.87841
892.09588,0.79016
890.60609,0.75419
889.11630,0.76153
887.62651,0.72859
886.13673,0.75092
884.64694,0.77327
883.15715,0.88969
881.66736,0.85091
880.17757,0.93902
878.68778,0.97120
877.19800,1.00340
875.70821,0.96623
874.21842,1.03357
872.72863,1.07556
871.23884,1.09967
869.74905,1.09545
868.25927,1.09127
866.76948,1.12890
865.27969,1.15462
863.78990,1.23262
862.30011,1.10317
860.81032,1.10435
859.32053,1.10557
857.83075,1.08517
856.34096,1.08718
854.85117,1.02356
853.36138,0.94205
851.87159,0.89266
850.38180,0.84331
848.89202,0.72756
847.40223,0.66259
845.91244,0.53346
844.42265,0.55587
842.93286,0.57830
841.44307,0.48210
839.95329,0.45609
838.46350,0.38234
836.97371,0.37877
835.48392,0.34837
833.99413,0.31799
832.50434,0.45034
831.01455,0.40211
829.52477,0.46586
828.03498,0.37888
826.54519,0.38373
825.05540,0.38861
823.56561,0.35545
822.07582,0.33427
820.58604,0.35192
819.09625,0.26587
817.60646,0.17985
816.11667,0.19908
814.62688,0.16909
813.13709,0.12420
811.64730,0.06591
810.15752,0.03526
808.66773,0.00464
807.17794,0.07539
805.68815,0.08647
804.19836,0.16325
802.70857,0.17439
801.21879,0.18556
799.72900,0.18183
798.23921,0.26918
796.74942,0.33865
795.25963,0.38128
793.76984,0.42393
792.28006,0.44423
790.79027,0.59591
789.30048,0.53567
787.81069,0.57994
786.32090,0.61305
784.83111,0.64618
783.34132,0.61591
781.85154,0.62298
780.36175,0.66441
778.87196,0.65140
777.38217,0.63841
775.89238,0.76650
774.40259,0.68715
772.91281,0.85262
771.42302,0.82109
769.93323,0.78959
768.44344,0.77902
766.95365,0.72818
765.46386,0.76095
763.97407,0.69225
762.48429,0.69374
760.99450,0.69526
759.50471,0.55500
758.01492,0.54165
756.52513,0.48803
755.03534,0.44116
753.54556,0.39431
752.05577,0.29749
750.56598,0.25145
749.07619,0.28007
747.58640,0.21469
746.09661,0.14933
744.60683,0.19297
743.11704,0.10528
741.62725,0.13554
740.13746,0.15389
738.64767,0.17227
737.15788,0.09963
735.66809,0.07478
734.17831,0.08727
732.68852,0.11846
731.19873,0.14967
729.70894,0.11001
728.21915,0.17487
726.72936,0.10393
725.23958,0.13302
723.74979,0.14722
722.26000,0.16144
720.77021,0.16823
719.28042,0.07356
717.79063,0.07891
716.30084,0.04176
714.81106,0.00464
713.32127,0.12585
711.83148,0.14708
710.34169,0.16685
708.85190,0.14784
707.36211,0.12887
705.87233,0.21440
704.38254,0.17906
702.89275,0.18554
701.40296,0.18012
699.91317,0.17472
698.42338,0.23204
696.93360,0.20879
695.44381,0.24528
693.95402,0.26761
692.46423,0.28997
690.97444,0.34446
689.48465,0.32733
687.99486,0.37142
686.50508,0.35584
685.01529,0.34029
683.52550,0.38895
682.03571,0.31973
680.54592,0.34904
679.05613,0.34481
677.56635,0.34060
676.07656,0.34015
674.58677,0.25316
673.09698,0.22889
671.60719,0.22331
670.11740,0.21776
668.62761,0.18761
667.13783,0.17092
665.64804,0.14829
664.15825,0.12569
662.66846,0.13894
661.17867,0.11192
659.68888,0.12374
658.19910,0.12440
656.70931,0.12508
655.21952,0.14893
653.72973,0.13400
652.23994,0.06984
650.75015,0.12214
649.26037,0.17446
647.77058,0.17607
646.28079,0.15830
644.79100,0.12564
643.30121,0.08927
641.81142,0.05294
640.32163,0.14872
638.83185,0.04006
637.34206,0.08217
635.85227,0.05565
634.36248,0.02917
632.87269,0.03704
631.38290,0.00464
629.89312,0.08960
628.40333,0.05965
626.91354,0.02973
625.42375,0.04462
623.93396,0.11178
622.44417,0.10136
620.95438,0.09097
619.46460,0.00000
617.97481,0.06005
616.48502,0.11714
614.99523,0.07500
613.50544,0.03289
612.01565,0.12888
610.52587,0.08459
609.03608,0.11646
607.54629,0.15208
606.05650,0.18774
604.56671,0.19431
603.07692,0.07704
601.58714,0.08964
600.09735,0.10228
598.60756,0.08062
597.11777,0.04854
595.62798,0.05828
594.13819,0.06133
592.64840,0.06442
591.15862,0.16082
589.66883,0.16471
588.17904,0.08504
586.68925,0.13003
585.19946,0.17506
583.70967,0.14623
582.21989,0.22639
580.73010,0.16105
579.24031,0.09574
577.75052,0.10733
576.26073,0.17118
574.77094,0.04999
573.28115,0.09674
571.79137,0.14352
570.30158,0.22541
568.81179,0.22972
567.32200,0.23927
565.83221,0.24886
564.34242,0.36669
562.85264,0.41588
561.36285,0.39795
559.87306,0.40392
558.38327,0.40992
556.89348,0.38461
555.40369,0.51903
553.91391,0.48855
552.42412,0.45810
550.93433,0.50306
549.44454,0.48685
547.95475,0.43783
546.46496,0.48736
544.97517,0.53691
543.48539,0.57754
541.99560,0.71223
540.50581,0.68052
539.01602,0.64885
537.52623,0.56570
536.03644,0.60051
534.54666,0.58161
533.05687,0.57095
531.56708,0.56032
530.07729,0.56389
528.58750,0.52123
527.09771,0.45546
525.60792,0.38972
524.11814,0.42327
522.62835,0.55237
521.13856,0.43821
519.64877,0.44051
518.15898,0.44283
516.66919,0.43473
515.17941,0.43114
513.68962,0.44176
512.19983,0.45241
510.71004,0.47130
509.22025,0.50514
507.73046,0.55842
506.24068,0.54978
504.75089,0.54117
503.26110,0.52737
501.77131,0.46434
500.28152,0.52001
498.79173,0.57570
497.30194,0.51873
495.81216,0.49015
494.32237,0.51832
492.83258,0.54651
491.34279,0.61952
489.85300,0.50598
488.36321,0.50441
486.87343,0.44467
485.38364,0.38495
483.89385,0.36108
482.40406,0.29993
480.91427,0.21866
479.42448,0.13742
477.93469,0.17934
476.44491,0.18100
474.95512,0.17895
473.46533,0.17694
471.97554,0.07569
470.48575,0.03567
468.99596,0.00464
467.50618,0.02426
466.01639,0.04392
464.52660,0.02256
463.03681,0.02361
461.54702,0.04187
460.05723,0.06015
458.56745,0.02248
457.07766,0.04157
455.58787,0.08904
454.09808,0.13655
452.60829,0.14975
451.11850,0.15552
449.62871,0.15983
448.13893,0.16417
446.64914,0.32526
445.15935,0.36697
443.66956,0.34154
442.17977,0.40794
440.68998,0.47437
439.20020,0.38186
437.71041,0.54910
436.22062,0.63129
434.73083,0.71350
433.24104,0.84352
431.75125,1.02878
430.26146,1.01705
428.77168,1.00536
427.28189,1.19370
425.79210,1.28654
424.30231,1.26224
422.81252,1.23798
421.32273,1.16075
419.83295,1.05669
418.34316,0.98027
416.85337,0.90388
415.36358,0.74319
413.87379,0.65417
412.38400,0.65623
410.89422,0.65832
409.40443,0.57089
407.91464,0.46557
406.42485,0.49312
404.93506,0.51250
403.44527,0.53190
401.95548,0.39983
400.46570,0.39765
398.97591,0.46640
397.48612,0.53518
395.99633,0.53607
394.50654,0.49818
393.01675,0.46182
391.52697,0.42549
390.03718,0.35784
388.54739,0.38724
387.05760,0.37189
385.56781,0.35657
384.07802,0.41741
382.58824,0.34393
381.09845,0.36303
379.60866,0.38216
378.11887,0.18340
376.62908,0.16229
375.13929,0.16733
373.64950,0.17239
372.15972,0.19913
370.66993,0.17068
369.18014,0.17061
367.69035,0.17057
366.20056,0.20638
364.71077,0.07207
363.22099,0.10347
361.73120,0.13489
360.24141,0.02007
358.75162,0.13962
357.26183,0.15098
355.77204,0.16237
354.28225,0.03871
352.79247,0.00464
351.30268,0.01336
349.81289,0.02211
348.32310,0.02567
346.83331,0.12033
345.34352,0.09412
343.85374,0.06794
342.36395,0.22837
340.87416,0.20523
339.38437,0.22093
337.89458,0.23666
336.40479,0.09123
334.91501,0.02791
333.42522,0.05418
331.93543,0.08047
330.44564,0.15904
328.95585,0.22272
327.46606,0.12596
325.97627,0.02924
324.48649,0.05526
322.99670,0.03057
321.50691,0.03799
320.01712,0.04544
318.52733,0.07457
317.03754,0.08731
315.54776,0.05977
314.05797,0.03227
312.56818,0.02569
311.07839,0.10123
309.58860,0.05292
308.09881,0.00464
306.60902,0.06974
305.11924,0.09458
303.62945,0.06496
302.13966,0.03537
300.64987,0.01253
299.16008,0.00464
