1778.52000,0.02134
1777.03021,0.07173
1775.54042,0.03302
1774.05063,0.00549
1772.56085,0.06435
1771.07106,0.02715
1769.58127,0.05545
1768.09148,0.04060
1766.60169,0.06758
1765.11190,0.07092
1763.62212,0.08405
1762.13233,0.08607
1760.64254,0.07142
1759.15275,0.04149
1757.66296,0.07566
1756.17317,0.07087
1754.68339,0.05915
1753.19360,0.09065
1751.70381,0.04002
1750.21402,0.08273
1748.72423,0.02660
1747.23444,0.09383
1745.74465,0.10399
1744.25487,0.08634
1742.76508,0.05897
1741.27529,0.10128
1739.78550,0.10881
1738.29571,0.05370
1736.80592,0.06966
1735.31614,0.06338
1733.82635,0.04599
1732.33656,0.08435
1730.84677,0.06843
1729.35698,0.02051
1727.86719,0.02416
1726.37740,0.00000
1724.88762,0.03935
1723.39783,0.05785
1721.90804,0.04714
1720.41825,0.03647
1718.92846,0.01469
1717.43867,0.00549
1715.94889,0.01833
1714.45910,0.05489
1712.96931,0.05666
1711.47952,0.06962
1709.98973,0.05197
1708.49994,0.08728
1707.01016,0.11637
1705.52037,0.14549
1704.03058,0.14332
1702.54079,0.11472
1701.05100,0.14744
1699.56121,0.19412
1698.07142,0.14196
1696.58164,0.12047
1695.09185,0.17702
1693.60206,0.23778
1692.11227,0.25263
1690.62248,0.22851
1689.13269,0.27406
1687.64291,0.25420
1686.15312,0.24412
1684.66333,0.28561
1683.17354,0.24219
1681.68375,0.25729
1680.19396,0.26129
1678.70417,0.28762
1677.21439,0.24295
1675.72460,0.28885
1674.23481,0.23451
1672.74502,0.25680
1671.25523,0.25685
1669.76544,0.27087
1668.27566,0.28911
1666.78587,0.29763
1665.29608,0.26022
1663.80629,0.22286
1662.31650,0.22453
1660.82671,0.23321
1659.33693,0.20153
1657.84714,0.23256
1656.35735,0.15221
1654.86756,0.16104
1653.37777,0.17965
1651.88798,0.17184
1650.39819,0.19331
1648.90841,0.21900
1647.41862,0.15559
1645.92883,0.14723
1644.43904,0.13892
1642.94925,0.19958
1641.45946,0.22546
1639.96968,0.27923
1638.47989,0.17705
1636.99010,0.14594
1635.50031,0.23186
1634.01052,0.18412
1632.52073,0.15033
1631.03094,0.13330
1629.54116,0.22216
1628.05137,0.23724
1626.56158,0.18829
1625.07179,0.24802
1623.58200,0.23675
1622.09221,0.20741
1620.60243,0.20318
1619.11264,0.18645
1617.62285,0.20737
1616.13306,0.15868
1614.64327,0.20196
1613.15348,0.25642
1611.66370,0.20645
1610.17391,0.21084
1608.68412,0.21110
1607.19433,0.15985
1605.70454,0.21868
1604.21475,0.19606
1602.72496,0.17349
1601.23518,0.21571
1599.74539,0.17441
1598.25560,0.16657
1596.76581,0.21866
1595.27602,0.14822
1593.78623,0.14328
1592.29645,0.10216
1590.80666,0.11680
1589.31687,0.06601
1587.82708,0.11833
1586.33729,0.11776
1584.84750,0.12419
1583.35771,0.16548
1581.86793,0.11488
1580.37814,0.11724
1578.88835,0.10990
1577.39856,0.05106
1575.90877,0.10368
1574.41898,0.04212
1572.92920,0.07532
1571.43941,0.00549
1569.94962,0.01907
1568.45983,0.03270
1566.97004,0.04914
1565.48025,0.04752
1563.99047,0.06822
1562.50068,0.04439
1561.01089,0.06795
1559.52110,0.08319
1558.03131,0.12772
1556.54152,0.10404
1555.05173,0.04976
1553.56195,0.10276
1552.07216,0.08755
1550.58237,0.04452
1549.09258,0.03635
1547.60279,0.06025
1546.11300,0.11205
1544.62322,0.11931
1543.13343,0.09598
1541.64364,0.08939
1540.15385,0.08493
1538.66406,0.08051
1537.17427,0.07264
1535.68448,0.02582
1534.19470,0.00549
1532.70491,0.01024
1531.21512,0.06238
1529.72533,0.07695
1528.23554,0.00382
1526.74575,0.01986
1525.25597,0.07216
1523.76618,0.06599
1522.27639,0.05290
1520.78660,0.01895
1519.29681,0.03658
1517.80702,0.00549
1516.31724,0.07186
1514.82745,0.04774
1513.33766,0.05082
1511.84787,0.05393
1510.35808,0.10514
1508.86829,0.07699
1507.37850,0.05445
1505.88872,0.00549
1504.39893,0.05243
1502.90914,0.07295
1501.41935,0.06007
1499.92956,0.08624
1498.43977,0.10269
1496.94999,0.15261
1495.46020,0.20256
1493.97041,0.27066
1492.48062,0.33740
1490.99083,0.30947
1489.50104,0.40276
1488.01125,0.48563
1486.52147,0.56854
1485.03168,0.64384
1483.54189,0.74980
1482.05210,0.85720
1480.56231,1.01061
1479.07252,1.17240
1477.58274,1.35791
1476.09295,1.40697
1474.60316,1.42263
1473.11337,1.52469
1471.62358,1.55993
1470.13379,1.49075
1468.64401,1.48010
1467.15422,1.38593
1465.66443,1.36422
1464.17464,1.34254
1462.68485,1.30419
1461.19506,1.24220
1459.70527,1.18443
1458.21549,1.15734
1456.72570,0.95758
1455.23591,0.81635
1453.74612,0.83533
1452.25633,0.85575
1450.76654,0.80099
1449.27676,0.68916
1447.78697,0.65119
1446.29718,0.60908
1444.80739,0.52244
1443.31760,0.43584
1441.82781,0.42866
1440.33802,0.37695
1438.84824,0.35453
1437.35845,0.27504
1435.86866,0.31816
1434.37887,0.36827
1432.88908,0.32372
1431.39929,0.31263
1429.90951,0.34336
1428.41972,0.34627
1426.92993,0.36594
1425.44014,0.39539
1423.95035,0.39494
1422.46056,0.39452
1420.97078,0.37256
1419.48099,0.33949
1417.99120,0.39281
1416.50141,0.37792
1415.01162,0.47588
1413.52183,0.50146
1412.03204,0.43655
1410.54226,0.41763
1409.05247,0.37508
1407.56268,0.43145
1406.07289,0.44747
1404.58310,0.43984
1403.09331,0.43226
1401.60353,0.49714
1400.11374,0.49242
1398.62395,0.54345
1397.13416,0.50537
1395.64437,0.56344
1394.15458,0.59648
1392.66479,0.63373
1391.17501,0.60834
1389.68522,0.65960
1388.19543,0.61479
1386.70564,0.55679
1385.21585,0.49882
1383.72606,0.59480
1382.23628,0.59053
1380.74649,0.66012
1379.25670,0.59743
1377.76691,0.62253
1376.27712,0.63234
1374.78733,0.66169
1373.29755,0.74540
1371.80776,0.88068
1370.31797,0.93939
1368.82818,1.01834
1367.33839,1.09732
1365.84860,1.23554
1364.35881,1.50193
1362.86903,1.60401
1361.37924,1.78133
1359.88945,1.93224
1358.39966,1.83805
1356.90987,1.85253
1355.42008,1.95341
1353.93030,2.00000
1352.44051,1.90805
1350.95072,1.81614
1349.46093,1.73192
1347.97114,1.63661
1346.48135,1.20984
1344.99156,1.06167
1343.50178,1.04447
1342.01199,0.92702
1340.52220,0.86114
1339.03241,0.92761
1337.54262,0.81027
1336.05283,0.74590
1334.56305,0.68157
1333.07326,0.72451
1331.58347,0.74521
1330.09368,0.62528
1328.60389,0.59592
1327.11410,0.52620
1325.62432,0.48856
1324.13453,0.53591
1322.64474,0.53595
1321.15495,0.49145
1319.66516,0.47415
1318.17537,0.45690
1316.68558,0.41251
1315.19580,0.40439
1313.70601,0.43947
1312.21622,0.35203
1310.72643,0.33844
1309.23664,0.36528
1307.74685,0.38937
1306.25707,0.39679
1304.76728,0.40146
1303.27749,0.40617
1301.78770,0.30785
1300.29791,0.33910
1298.80812,0.37595
1297.31834,0.36689
1295.82855,0.38850
1294.33876,0.39483
1292.84897,0.39144
1291.35918,0.38671
1289.86939,0.37365
1288.37960,0.36063
1286.88982,0.44793
1285.40003,0.57705
1283.91024,0.46108
1282.42045,0.44822
1280.93066,0.50224
1279.44087,0.52706
1277.95109,0.53519
1276.46130,0.56566
1274.97151,0.53835
1273.48172,0.51109
1271.99193,0.58902
1270.50214,0.53328
1269.01235,0.60850
1267.52257,0.58487
1266.03278,0.64485
1264.54299,0.64219
1263.05320,0.67577
1261.56341,0.68224
1260.07362,0.68875
1258.58384,0.63749
1257.09405,0.79101
1255.60426,0.73565
1254.11447,0.77086
1252.62468,0.76571
1251.13489,0.72579
1249.64511,0.63994
1248.15532,0.62098
1246.66553,0.57769
1245.17574,0.53443
1243.68595,0.47102
1242.19616,0.44803
1240.70637,0.42369
1239.21659,0.35622
1237.72680,0.31524
1236.23701,0.30355
1234.74722,0.33646
1233.25743,0.35688
1231.76764,0.37734
1230.27786,0.31566
1228.78807,0.32923
1227.29828,0.28713
1225.80849,0.27152
1224.31870,0.22253
1222.82891,0.22511
1221.33912,0.23748
1219.84934,0.23247
1218.35955,0.22750
1216.86976,0.18288
1215.37997,0.18426
1213.89018,0.20378
1212.40039,0.22751
1210.91061,0.21090
1209.42082,0.21242
1207.93103,0.16594
1206.44124,0.11949
1204.95145,0.10860
1203.46166,0.10331
1201.97188,0.10642
1200.48209,0.13742
1198.99230,0.10300
1197.50251,0.05887
1196.01272,0.06492
1194.52293,0.04524
1193.03314,0.02560
1191.54336,0.13761
1190.05357,0.04771
1188.56378,0.00937
1187.07399,0.08807
1185.58420,0.00386
1184.09441,0.01779
1182.60463,0.03802
1181.11484,0.05830
1179.62505,0.00549
1178.13526,0.05574
1176.64547,0.04056
1175.15568,0.08949
1173.66589,0.16910
1172.17611,0.04958
1170.68632,0.05544
1169.19653,0.06135
1167.70674,0.12996
1166.21695,0.06073
1164.72716,0.10575
1163.23738,0.11320
1161.74759,0.01762
1160.25780,0.13657
1158.76801,0.08146
1157.27822,0.02638
1155.78843,0.05213
1154.29865,0.03752
1152.80886,0.03548
1151.31907,0.05438
1149.82928,0.12067
1148.33949,0.02821
1146.84970,0.02981
1145.35991,0.03145
1143.87013,0.01293
1142.38034,0.04319
1140.89055,0.10832
1139.40076,0.11916
1137.91097,0.22475
1136.42118,0.28581
1134.93140,0.31556
1133.44161,0.34536
1131.95182,0.39818
1130.46203,0.44685
1128.97224,0.45796
1127.48245,0.47885
1125.99266,0.47054
1124.50288,0.58204
1123.01309,0.58703
1121.52330,0.59206
1120.03351,0.57275
1118.54372,0.67187
1117.05393,0.64428
1115.56415,0.59724
1114.07436,0.68254
1112.58457,0.67805
1111.09478,0.67359
1109.60499,0.73394
1108.11520,0.79572
1106.62542,0.74890
1105.13563,0.90964
1103.64584,0.96457
1102.15605,0.98611
1100.66626,0.98680
1099.17647,0.98752
1097.68668,1.11224
1096.19690,1.06569
1094.70711,1.12920
1093.21732,1.24428
1091.72753,1.27027
1090.23774,1.31718
1088.74795,1.36413
1087.25817,1.36377
1085.76838,1.38155
1084.27859,1.51775
1082.78880,1.56067
1081.29901,1.52286
1079.80922,1.60346
1078.31943,1.62909
1076.82965,1.65476
1075.33986,1.77308
1073.85007,1.73685
1072.36028,1.72293
1070.87049,1.71463
1069.38070,1.86235
1067.89092,1.89034
1066.40113,1.91836
1064.91134,1.88653
1063.42155,1.68760
1061.93176,1.54442
1060.44197,1.42357
1058.95219,1.46988
1057.46240,1.37139
1055.97261,1.27293
1054.48282,1.24833
1052.99303,1.16806
1051.50324,1.14075
1050.01345,1.03687
1048.52367,0.78957
1047.03388,0.83202
1045.54409,0.87450
1044.05430,0.87384
1042.56451,0.65316
1041.07472,0.63447
1039.58494,0.60468
1038.09515,0.55264
1036.60536,0.54033
1035.11557,0.52806
1033.62578,0.46917
1032.13599,0.31143
1030.64620,0.40026
1029.15642,0.39441
1027.66663,0.38651
1026.17684,0.37864
1024.68705,0.46762
1023.19726,0.56916
1021.70747,0.68189
1020.21769,0.80580
1018.72790,0.92139
1017.23811,1.08019
1015.74832,1.23903
1014.25853,1.30599
1012.76874,1.53733
1011.27896,1.66703
1009.78917,1.72853
1008.29938,1.76917
1006.80959,1.73743
1005.31980,1.70573
1003.83001,1.61974
1002.34022,1.51290
1000.85044,1.39913
999.36065,1.39822
997.87086,1.34929
996.38107,1.30041
994.89128,1.32746
993.40149,1.35456
991.91171,1.44297
990.42192,1.29187
988.93213,1.38454
987.44234,1.36861
985.95255,1.35272
984.46276,1.36750
982.97297,1.18734
981.48319,1.11446
979.99340,1.12936
978.50361,1.17981
977.01382,1.23031
975.52403,1.18265
974.03424,0.99992
972.54446,0.92866
971.05467,0.99254
969.56488,0.93389
968.07509,0.90174
966.58530,0.86963
965.09551,0.78323
963.60573,0.79159
962.11594,0.78187
960.62615,0.70813
959.13636,0.66089
957.64657,0.61368
956.15678,0.63755
954.66699,0.62524
953.17721,0.69653
951.68742,0.68569
950.19763,0.63102
948.70784,0.57638
947.21805,0.54058
945.72826,0.60093
944.23848,0.72538
942.74869,0.66602
941.25890,0.71533
939.76911,0.78488
938.27932,0.85447
936.78953,0.91643
935.29974,0.84751
933.80996,0.87055
932.32017,0.97163
930.83038,0.99823
929.34059,1.02486
927.85080,0.95335
926.36101,0.87351
924.87123,0.83689
923.38144,0.89362
921.89165,0.92115
920.40186,0.94871
918.91207,0.98327
917.42228,1.00673
915.93250,1.02466
914.44271,1.12062
912.95292,1.11285
911.46313,1.10513
909.97334,1.10649
908.48355,1.19842
906.99376,1.20683
905.50398,1.15538
904.01419,1.12556
902.52440,1.09577
901.03461,1.11965
899.54482,1.29816
898.05503,1.29287
896.56525,1.27089
895.07546,1.23712
893.58567,1.20339
892.09588,1.27206
890.60609,1.19035
889.11630,1.24099
887.62651,1.08833
886.13673,1.11328
884.64694,1.13827
883.15715,1.16538
881.66736,1.33460
880.17757,1.23645
878.68778,1.23582
877.19800,1.23523
875.70821,1.36979
874.21842,1.40549
872.72863,1.37994
871.23884,1.46308
869.74905,1.44039
868.25927,1.41775
866.76948,1.50517
865.27969,1.61492
863.78990,1.56732
862.30011,1.51976
860.81032,1.47084
859.32053,1.42196
857.83075,1.34248
856.34096,1.37307
854.85117,1.40090
853.36138,1.19061
851.87159,1.07019
850.38180,0.94981
848.89202,0.87056
847.40223,0.77463
845.91244,0.72052
844.42265,0.72355
842.93286,0.72662
841.44307,0.64895
839.95329,0.49750
838.46350,0.48536
836.97371,0.46491
835.48392,0.49881
833.99413,0.53275
832.50434,0.50684
831.01455,0.55478
829.52477,0.55123
828.03498,0.45023
826.54519,0.43143
825.05540,0.41267
823.56561,0.50120
822.07582,0.30702
820.58604,0.31066
819.09625,0.26768
817.60646,0.22474
816.11667,0.17557
814.62688,0.20722
813.13709,0.06620
811.64730,0.10906
810.15752,0.05726
808.66773,0.00549
807.17794,0.11390
805.68815,0.13738
804.19836,0.13026
802.70857,0.15730
801.21879,0.18438
799.72900,0.20245
798.23921,0.37236
796.74942,0.44204
795.25963,0.46927
793.76984,0.49654
792.28006,0.60393
790.79027,0.68768
789.30048,0.84250
787.81069,0.80238
786.32090,0.81451
784.83111,0.82669
783.34132,0.84796
781.85154,0.80519
780.36175,0.79590
778.87196,0.78176
777.38217,0.76766
775.89238,0.84065
774.40259,0.98611
772.91281,1.01739
771.42302,0.99230
769.93323,0.96725
768.44344,1.04183
766.95365,0.97576
765.46386,0.99609
763.97407,1.03039
762.48429,0.91430
760.99450,0.79825
759.50471,0.76302
758.01492,0.62894
756.52513,0.55897
755.03534,0.44516
753.54556,0.33139
752.05577,0.23089
750.56598,0.24324
749.07619,0.13167
747.58640,0.15315
746.09661,0.17467
744.60683,0.06182
743.11704,0.13565
741.62725,0.09670
740.13746,0.08146
738.64767,0.06626
737.15788,0.01767
735.66809,0.01229
734.17831,0.11838
732.68852,0.11935
731.19873,0.12036
729.70894,0.06360
728.21915,0.00549
726.72936,0.05702
725.23958,0.10998
723.74979,0.14558
722.26000,0.18120
720.77021,0.12425
719.28042,0.00187
717.79063,0.00697
716.30084,0.00653
714.81106,0.00612
713.32127,0.03501
711.83148,0.05558
710.34169,0.06086
708.85190,0.07802
707.36211,0.09522
705.87233,0.10758
704.38254,0.05034
702.89275,0.06138
701.40296,0.08221
699.91317,0.10308
698.42338,0.16438
696.93360,0.11290
695.44381,0.16453
693.95402,0.21201
692.46423,0.25953
690.97444,0.30849
689.48465,0.25998
687.99486,0.39815
686.50508,0.37619
685.01529,0.35426
683.52550,0.44658
682.03571,0.30912
680.54592,0.35974
679.05613,0.31289
677.56635,0.26608
676.07656,0.34884
674.58677,0.30489
673.09698,0.30138
671.60719,0.26726
670.11740,0.23317
668.62761,0.14759
667.13783,0.12891
665.64804,0.09703
664.15825,0.06519
662.66846,0.11625
661.17867,0.12557
659.68888,0.06808
658.19910,0.11996
656.70931,0.17187
655.21952,0.06713
653.72973,0.23960
652.23994,0.14608
650.75015,0.15915
649.26037,0.17226
647.77058,0.16103
646.28079,0.16516
644.79100,0.06765
643.30121,0.08300
641.81142,0.09839
640.32163,0.07481
638.83185,0.03456
637.34206,0.00549
635.85227,0.01874
634.36248,0.03203
632.87269,0.11639
631.38290,0.11583
629.89312,0.06935
628.40333,0.10438
626.91354,0.13944
625.42375,0.11953
623.93396,0.11081
622.44417,0.12231
620.95438,0.13385
619.46460,0.06674
617.97481,0.04145
616.48502,0.07191
614.99523,0.10380
613.50544,0.13573
612.01565,0.08552
610.52587,0.06599
609.03608,0.12728
607.54629,0.12802
606.05650,0.12880
604.56671,0.18742
603.07692,0.16251
601.58714,0.17454
600.09735,0.18662
598.60756,0.11864
597.11777,0.04513
595.62798,0.05384
594.13819,0.04587
592.64840,0.03794
591.15862,0.09550
589.66883,0.17122
588.17904,0.07008
586.68925,0.10060
585.19946,0.13116
583.70967,0.11928
582.21989,0.22443
580.73010,0.20427
579.24031,0.18414
577.75052,0.05820
576.26073,0.02004
574.77094,0.11145
573.28115,0.17574
571.79137,0.24007
570.30158,0.22714
568.81179,0.26299
567.32200,0.28217
565.83221,0.30138
564.34242,0.36799
562.85264,0.48059
561.36285,0.47207
559.87306,0.50188
558.38327,0.53173
556.89348,0.53724
555.40369,0.63611
553.91391,0.62638
552.42412,0.61668
550.93433,0.67806
549.44454,0.71162
547.95475,0.72293
546.46496,0.73916
544.97517,0.75542
543.48539,0.82674
541.99560,0.78945
540.50581,0.78633
539.01602,0.78325
537.52623,0.74051
536.03644,0.72844
534.54666,0.78188
533.05687,0.79288
531.56708,0.80391
530.07729,0.90342
528.58750,0.77038
527.09771,0.75646
525.60792,0.74257
524.11814,0.64028
522.62835,0.69820
521.13856,0.70323
519.64877,0.68114
518.15898,0.65909
516.66919,0.59181
515.17941,0.53014
513.68962,0.57506
512.19983,0.62001
510.71004,0.64202
509.22025,0.60000
507.73046,0.73212
506.24068,0.72847
504.75089,0.72487
503.26110,0.66629
501.77131,0.68435
500.28152,0.68086
498.79173,0.67740
497.30194,0.69697
495.81216,0.75279
494.32237,0.77173
492.83258,0.79072
491.34279,0.73940
489.85300,0.68952
488.36321,0.69260
486.87343,0.63931
485.38364,0.58606
483.89385,0.53076
482.40406,0.39610
480.91427,0.38405
479.42448,0.37204
477.93469,0.23889
476.44491,0.20049
474.95512,0.20043
473.46533,0.20041
471.97554,0.13566
470.48575,0.00549
468.99596,0.09092
467.50618,0.07959
466.01639,0.06829
464.52660,0.01873
463.03681,0.06810
461.54702,0.06110
460.05723,0.05413
458.56745,0.09247
457.07766,0.11413
455.58787,0.15394
454.09808,0.19379
452.60829,0.25177
451.11850,0.23320
449.62871,0.28151
448.13893,0.32987
446.64914,0.34065
445.15935,0.53393
443.66956,0.61304
442.17977,0.57659
440.68998,0.54017
439.20020,0.63471
437.71041,0.78779
436.22062,0.91863
434.73083,1.04950
433.24104,1.20547
431.75125,1.42417
430.26146,1.46740
428.77168,1.51068
427.28189,1.59021
425.79210,1.73662
424.30231,1.66163
422.81252,1.58667
421.32273,1.47692
419.83295,1.46333
418.34316,1.34461
416.85337,1.22593
415.36358,1.12191
413.87379,0.99564
412.38400,0.97596
410.89422,0.95632
409.40443,0.94159
407.91464,0.84334
406.42485,0.80501
404.93506,0.80293
403.44527,0.80089
401.95548,0.75153
400.46570,0.67296
398.97591,0.68357
397.48612,0.69421
395.99633,0.66590
394.50654,0.63623
393.01675,0.68668
391.52697,0.73717
390.03718,0.53909
388.54739,0.52907
387.05760,0.51979
385.56781,0.51054
384.07802,0.66081
382.58824,0.72337
381.09845,0.60699
379.60866,0.49065
378.11887,0.40151
376.62908,0.28734
375.13929,0.32501
373.64950,0.36273
372.15972,0.31134
370.66993,0.23075
369.18014,0.23515
367.69035,0.23959
366.20056,0.20229
364.71077,0.25694
363.22099,0.22807
361.73120,0.19924
360.24141,0.20804
358.75162,0.20436
357.26183,0.11923
355.77204,0.03414
354.28225,0.00549
352.79247,0.15590
351.30268,0.11832
349.81289,0.08078
348.32310,0.09202
346.83331,0.10052
345.34352,0.12368
343.85374,0.14687
342.36395,0.06217
340.87416,0.13767
339.38437,0.08995
337.89458,0.04226
336.40479,0.06077
334.91501,0.01108
333.42522,0.04081
331.93543,0.07057
330.44564,0.17420
328.95585,0.15529
327.46606,0.12877
325.97627,0.10228
324.48649,0.00549
322.99670,0.12658
321.50691,0.10286
320.01712,0.07918
318.52733,0.19621
317.03754,0.05004
315.54776,0.03274
314.05797,0.01548
312.56818,0.09366
311.07839,0.09806
309.58860,0.10320
308.09881,0.10837
306.60902,0.07528
305.11924,0.09794
303.62945,0.05170
302.13966,0.00549
300.64987,0.13222
299.16008,0.00549
