1778.52000,0.01689
1777.03021,0.11926
1775.54042,0.10682
1774.05063,0.10298
1772.56085,0.08203
1771.07106,0.03883
1769.58127,0.02309
1768.09148,0.06909
1766.60169,0.08598
1765.11190,0.08233
1763.62212,0.00328
1762.13233,0.07855
1760.64254,0.09042
1759.15275,0.05090
1757.66296,0.06798
1756.17317,0.03367
1754.68339,0.04909
1753.19360,0.01998
1751.70381,0.07490
1750.21402,0.03043
1748.72423,0.03227
1747.23444,0.00328
1745.74465,0.05127
1744.25487,0.09928
1742.76508,0.03762
1741.27529,0.05827
1739.78550,0.04296
1738.29571,0.02767
1736.80592,0.06899
1735.31614,0.02634
1733.82635,0.02487
1732.33656,0.03371
1730.84677,0.01173
1729.35698,0.03092
1727.86719,0.05185
1726.37740,0.08482
1724.88762,0.02011
1723.39783,-0.00000
1721.90804,0.01763
1720.41825,0.04216
1718.92846,0.00328
1717.43867,0.04185
1715.94889,0.02389
1714.45910,0.08137
1712.96931,0.05833
1711.47952,0.01646
1709.98973,0.10489
1708.49994,0.07337
1707.01016,0.09502
1705.52037,0.11670
1704.03058,0.06127
1702.54079,0.10016
1701.05100,0.15450
1699.56121,0.15745
1698.07142,0.14158
1696.58164,0.15488
1695.09185,0.12364
1693.60206,0.14386
1692.11227,0.17782
1690.62248,0.19296
1689.13269,0.19270
1687.64291,0.21819
1686.15312,0.23343
1684.66333,0.21270
1683.17354,0.17314
1681.68375,0.22961
1680.19396,0.22611
1678.70417,0.28265
1677.21439,0.21408
1675.72460,0.22096
1674.23481,0.22959
1672.74502,0.16797
1671.25523,0.16124
1669.76544,0.28310
1668.27566,0.23015
1666.78587,0.23379
1665.29608,0.21862
1663.80629,0.21033
1662.31650,0.20207
1660.82671,0.17670
1659.33693,0.11537
1657.84714,0.14492
1656.35735,0.14707
1654.86756,0.18697
1653.37777,0.12576
1651.88798,0.19486
1650.39819,0.19543
1648.90841,0.15831
1647.41862,0.12980
1645.92883,0.14246
1644.43904,0.15515
1642.94925,0.20388
1641.45946,0.18235
1639.96968,0.09400
1638.47989,0.14967
1636.99010,0.12995
1635.50031,0.15997
1634.01052,0.15403
1632.52073,0.14812
1631.03094,0.18681
1629.54116,0.19125
1628.05137,0.21628
1626.56158,0.18822
1625.07179,0.22189
1623.58200,0.16646
1622.09221,0.13334
1620.60243,0.20654
1619.11264,0.21462
1617.62285,0.22960
1616.13306,0.21032
1614.64327,0.16022
1613.15348,0.20100
1611.66370,0.22639
1610.17391,0.16439
1608.68412,0.18984
1607.19433,0.23074
1605.70454,0.10884
1604.21475,0.15153
1602.72496,0.19425
1601.23518,0.15300
1599.74539,0.17693
1598.25560,0.17517
1596.76581,0.15459
1595.27602,0.15804
1593.78623,0.15981
1592.29645,0.14104
1590.80666,0.13259
1589.31687,0.13102
1587.82708,0.15691
1586.33729,0.11599
1584.84750,0.11280
1583.35771,0.06165
1581.86793,0.12196
1580.37814,0.14458
1578.88835,0.05924
1577.39856,0.13506
1575.90877,0.12693
1574.41898,0.09825
1572.92920,0.17760
1571.43941,0.00328
1569.94962,0.02152
1568.45983,0.03979
1566.97004,0.04266
1565.48025,0.07984
1563.99047,0.10334
1562.50068,0.07203
1561.01089,0.15559
1559.52110,0.09348
1558.03131,0.14282
1556.54152,0.09106
1555.05173,0.10104
1553.56195,0.10591
1552.07216,0.14338
1550.58237,0.10718
1549.09258,0.02472
1547.60279,0.06228
1546.11300,0.13416
1544.62322,0.07923
1543.13343,0.06718
1541.64364,0.07915
1540.15385,0.06288
1538.66406,0.04664
1537.17427,0.05871
1535.68448,0.00911
1534.19470,0.03839
1532.70491,0.06599
1531.21512,0.05076
1529.72533,0.03899
1528.23554,0.01526
1526.74575,0.08412
1525.25597,0.01588
1523.76618,0.05738
1522.27639,0.02863
1520.78660,0.00163
1519.29681,0.05111
1517.80702,0.04234
1516.31724,0.05417
1514.82745,0.00432
1513.33766,0.03464
1511.84787,0.06499
1510.35808,0.04566
1508.86829,0.01436
1507.37850,0.05680
1505.88872,0.00328
1504.39893,0.06337
1502.90914,0.03606
1501.41935,0.03278
1499.92956,0.02954
1498.43977,0.05889
1496.94999,0.16713
1495.46020,0.19141
1493.97041,0.25171
1492.48062,0.26405
1490.99083,0.27814
1489.50104,0.40367
1488.01125,0.40754
1486.52147,0.41143
1485.03168,0.62620
1483.54189,0.64901
1482.05210,0.71643
1480.56231,0.88501
1479.07252,0.93706
1477.58274,1.16398
1476.09295,1.11325
1474.60316,1.22539
1473.11337,1.25014
1471.62358,1.29892
1470.13379,1.34430
1468.64401,1.20116
1467.15422,1.24660
1465.66443,1.18923
1464.17464,1.13189
1462.68485,1.16372
1461.19506,1.11502
1459.70527,0.99435
1458.21549,0.87200
1456.72570,0.77196
1455.23591,0.76452
1453.74612,0.72112
1452.25633,0.65375
1450.76654,0.65840
1449.27676,0.56538
1447.78697,0.55810
1446.29718,0.51829
1444.80739,0.47679
1443.31760,0.43532
1441.82781,0.38359
1440.33802,0.30962
1438.84824,0.31453
1437.35845,0.31604
1435.86866,0.29015
1434.37887,0.24716
1432.88908,0.26762
1431.39929,0.25212
1429.90951,0.30693
1428.41972,0.19721
1426.92993,0.29665
1425.44014,0.33784
1423.95035,0.31478
1422.46056,0.29175
1420.97078,0.32961
1419.48099,0.29207
1417.99120,0.36256
1416.50141,0.33709
1415.01162,0.40078
1413.52183,0.38051
1412.03204,0.39113
1410.54226,0.37093
1409.05247,0.33362
1407.56268,0.35633
1406.07289,0.37736
1404.58310,0.38214
1403.09331,0.38695
1401.60353,0.38922
1400.11374,0.41895
1398.62395,0.47613
1397.13416,0.47164
1395.64437,0.50147
1394.15458,0.47304
1392.66479,0.45322
1391.17501,0.50542
1389.68522,0.41709
1388.19543,0.42650
1386.70564,0.46423
1385.21585,0.50199
1383.72606,0.52864
1382.23628,0.42675
1380.74649,0.48432
1379.25670,0.52820
1377.76691,0.47613
1376.27712,0.49093
1374.78733,0.54177
1373.29755,0.58921
1371.80776,0.67268
1370.31797,0.82474
1368.82818,0.83971
1367.33839,0.85470
1365.84860,0.94001
1364.35881,1.23962
1362.86903,1.49812
1361.37924,1.48239
1359.88945,1.56097
1358.39966,1.49387
1356.90987,1.48167
1355.42008,1.60319
1353.93030,1.56191
1352.44051,1.51208
1350.95072,1.46229
1349.46093,1.28740
1347.97114,1.29595
1346.48135,1.06455
1344.99156,0.87432
1343.50178,0.87269
1342.01199,0.86765
1340.52220,0.74437
1339.03241,0.75311
1337.54262,0.67618
1336.05283,0.62927
1334.56305,0.58240
1333.07326,0.66840
1331.58347,0.57788
1330.09368,0.56281
1328.60389,0.55292
1327.11410,0.54135
1325.62432,0.48866
1324.13453,0.46687
1322.64474,0.50509
1321.15495,0.44051
1319.66516,0.44880
1318.17537,0.45713
1316.68558,0.41149
1315.19580,0.40531
1313.70601,0.31860
1312.21622,0.37076
1310.72643,0.32868
1309.23664,0.40662
1307.74685,0.35089
1306.25707,0.43917
1304.76728,0.36722
1303.27749,0.29530
1301.78770,0.28598
1300.29791,0.34354
1298.80812,0.34456
1297.31834,0.31819
1295.82855,0.42213
1294.33876,0.40096
1292.84897,0.38154
1291.35918,0.46158
1289.86939,0.42765
1288.37960,0.39376
1286.88982,0.52188
1285.40003,0.49405
1283.91024,0.46796
1282.42045,0.42477
1280.93066,0.39189
1279.44087,0.50474
1277.95109,0.46507
1276.46130,0.49571
1274.97151,0.47581
1273.48172,0.45595
1271.99193,0.52097
1270.50214,0.49859
1269.01235,0.50711
1267.52257,0.56708
1266.03278,0.59794
1264.54299,0.59969
1263.05320,0.63404
1261.56341,0.64528
1260.07362,0.65656
1258.58384,0.65501
1257.09405,0.68263
1255.60426,0.75142
1254.11447,0.70369
1252.62468,0.69198
1251.13489,0.69059
1249.64511,0.59324
1248.15532,0.50963
1246.66553,0.49205
1245.17574,0.47450
1243.68595,0.47155
1242.19616,0.48235
1240.70637,0.37833
1239.21659,0.32748
1237.72680,0.37608
1236.23701,0.29444
1234.74722,0.27797
1233.25743,0.28810
1231.76764,0.29826
1230.27786,0.37959
1228.78807,0.28954
1227.29828,0.23209
1225.80849,0.28094
1224.31870,0.26641
1222.82891,0.30504
1221.33912,0.25971
1219.84934,0.27441
1218.35955,0.28914
1216.86976,0.21820
1215.37997,0.27071
1213.89018,0.24268
1212.40039,0.22325
1210.91061,0.19872
1209.42082,0.12622
1207.93103,0.12917
1206.44124,0.13216
1204.95145,0.07175
1203.46166,0.14165
1201.97188,0.10531
1200.48209,0.23355
1198.99230,0.18870
1197.50251,0.07874
1196.01272,0.11280
1194.52293,0.11004
1193.03314,0.10731
1191.54336,0.12604
1190.05357,0.10537
1188.56378,0.05560
1187.07399,0.00243
1185.58420,0.06596
1184.09441,0.06439
1182.60463,0.07313
1181.11484,0.08190
1179.62505,0.00328
1178.13526,0.11633
1176.64547,0.10084
1175.15568,0.11452
1173.66589,0.22594
1172.17611,0.08542
1170.68632,0.08634
1169.19653,0.08730
1167.70674,0.06857
1166.21695,0.06530
1164.72716,0.15977
1163.23738,0.14286
1161.74759,0.06940
1160.25780,0.03369
1158.76801,0.04687
1157.27822,0.06007
1155.78843,0.07760
1154.29865,0.12772
1152.80886,0.06817
1151.31907,0.09093
1149.82928,0.13430
1148.33949,0.13655
1146.84970,0.10798
1145.35991,0.07945
1143.87013,0.17264
1142.38034,0.08246
1140.89055,0.14830
1139.40076,0.26045
1137.91097,0.31263
1136.42118,0.28429
1134.93140,0.33825
1133.44161,0.39224
1131.95182,0.47198
1130.46203,0.46090
1128.97224,0.44986
1127.48245,0.45598
1125.99266,0.56156
1124.50288,0.60717
1123.01309,0.61254
1121.52330,0.61793
1120.03351,0.64479
1118.54372,0.60482
1117.05393,0.64888
1115.56415,0.68268
1114.07436,0.66338
1112.58457,0.68782
1111.09478,0.71229
1109.60499,0.75137
1108.11520,0.85732
1106.62542,0.79018
1105.13563,0.95277
1103.64584,1.03311
1102.15605,1.06377
1100.66626,1.07132
1099.17647,1.07891
1097.68668,1.18337
1096.19690,1.26216
1094.70711,1.16613
1093.21732,1.44382
1091.72753,1.35471
1090.23774,1.35734
1088.74795,1.36000
1087.25817,1.43212
1085.76838,1.44256
1084.27859,1.55417
1082.78880,1.75837
1081.29901,1.64205
1079.80922,1.60291
1078.31943,1.65979
1076.82965,1.71670
1075.33986,1.76164
1073.85007,1.78948
1072.36028,1.89962
1070.87049,1.83153
1069.38070,1.92459
1067.89092,1.89427
1066.40113,1.86398
1064.91134,2.00000
1063.42155,1.77265
1061.93176,1.62761
1060.44197,1.50145
1058.95219,1.48332
1057.46240,1.42237
1055.97261,1.36144
1054.48282,1.29884
1052.99303,1.37854
1051.50324,1.35542
1050.01345,1.18664
1048.52367,1.00074
1047.03388,0.98029
1045.54409,0.95987
1044.05430,0.83750
1042.56451,0.89171
1041.07472,0.77111
1039.58494,0.76538
1038.09515,0.72884
1036.60536,0.68976
1035.11557,0.65070
1033.62578,0.55769
1032.13599,0.43899
1030.64620,0.50031
1029.15642,0.50510
1027.66663,0.48077
1026.17684,0.45648
1024.68705,0.54878
1023.19726,0.63083
1021.70747,0.73691
1020.21769,0.88758
1018.72790,1.05715
1017.23811,1.10761
1015.74832,1.15810
1014.25853,1.31919
1012.76874,1.38603
1011.27896,1.59175
1009.78917,1.51124
1008.29938,1.59703
1006.80959,1.59629
1005.31980,1.59558
1003.83001,1.53063
1002.34022,1.41942
1000.85044,1.43852
999.36065,1.37880
997.87086,1.35082
996.38107,1.32288
994.89128,1.33867
993.40149,1.30651
991.91171,1.30865
990.42192,1.13770
988.93213,1.22219
987.44234,1.26815
985.95255,1.31413
984.46276,1.24616
982.97297,1.27421
981.48319,1.20972
979.99340,1.10927
978.50361,1.14428
977.01382,1.17931
975.52403,1.13552
974.03424,0.96663
972.54446,1.00862
971.05467,0.96493
969.56488,0.91269
968.07509,0.89478
966.58530,0.87689
965.09551,0.85390
963.60573,0.77608
962.11594,0.77543
960.62615,0.73539
959.13636,0.71166
957.64657,0.68797
956.15678,0.72173
954.66699,0.63211
953.17721,0.66250
951.68742,0.59522
950.19763,0.61283
948.70784,0.63046
947.21805,0.64898
945.72826,0.60240
944.23848,0.66556
942.74869,0.70989
941.25890,0.75253
939.76911,0.76607
938.27932,0.77964
936.78953,1.00751
935.29974,0.87888
933.80996,0.96968
932.32017,0.90452
930.83038,0.99882
929.34059,1.09314
927.85080,0.96809
926.36101,0.99391
924.87123,1.00091
923.38144,1.05937
921.89165,1.10414
920.40186,1.14894
918.91207,1.08408
917.42228,1.13066
915.93250,1.18413
914.44271,1.28905
912.95292,1.25345
911.46313,1.21788
909.97334,1.43775
908.48355,1.40053
906.99376,1.36677
905.50398,1.54217
904.01419,1.41076
902.52440,1.27939
901.03461,1.28690
899.54482,1.54812
898.05503,1.56084
896.56525,1.54787
895.07546,1.52893
893.58567,1.51002
892.09588,1.51772
890.60609,1.43288
889.11630,1.45435
887.62651,1.33015
886.13673,1.32426
884.64694,1.31840
883.15715,1.51998
881.66736,1.38219
880.17757,1.42100
878.68778,1.44183
877.19800,1.46270
875.70821,1.38675
874.21842,1.37940
872.72863,1.49378
871.23884,1.44364
869.74905,1.44666
868.25927,1.44972
866.76948,1.42367
865.27969,1.48507
863.78990,1.48480
862.30011,1.35428
860.81032,1.30264
859.32053,1.25104
857.83075,1.21147
856.34096,1.32105
854.85117,1.29011
853.36138,1.12379
851.87159,1.04834
850.38180,0.97293
848.89202,0.90783
847.40223,0.76563
845.91244,0.56861
844.42265,0.58160
842.93286,0.59463
841.44307,0.54855
839.95329,0.48193
838.46350,0.33477
836.97371,0.39849
835.48392,0.42710
833.99413,0.45574
832.50434,0.43899
831.01455,0.44455
829.52477,0.43300
828.03498,0.37692
826.54519,0.36287
825.05540,0.34884
823.56561,0.35285
822.07582,0.26775
820.58604,0.30268
819.09625,0.25364
817.60646,0.20464
816.11667,0.13852
814.62688,0.09815
813.13709,0.01667
811.64730,0.03636
810.15752,0.02437
808.66773,0.01241
807.17794,0.01505
805.68815,0.06058
804.19836,0.00328
802.70857,0.04062
801.21879,0.07799
799.72900,0.18481
798.23921,0.20767
796.74942,0.38312
795.25963,0.38376
793.76984,0.38443
792.28006,0.45027
790.79027,0.51785
789.30048,0.74831
787.81069,0.77139
786.32090,0.72594
784.83111,0.68052
783.34132,0.77569
781.85154,0.74062
780.36175,0.69872
778.87196,0.71942
777.38217,0.74015
775.89238,0.82176
774.40259,0.91541
772.91281,0.99880
771.42302,0.96995
769.93323,0.94113
768.44344,1.08632
766.95365,1.03271
765.46386,1.03741
763.97407,0.90501
762.48429,0.79664
760.99450,0.68830
759.50471,0.67941
758.01492,0.57799
756.52513,0.55203
755.03534,0.49181
753.54556,0.43163
752.05577,0.25491
750.56598,0.31135
749.07619,0.21527
747.58640,0.19206
746.09661,0.16889
744.60683,0.14661
743.11704,0.07979
741.62725,0.11756
740.13746,0.09966
738.64767,0.08179
737.15788,0.05281
735.66809,0.00328
734.17831,0.02125
732.68852,0.01954
731.19873,0.01786
729.70894,0.06334
728.21915,0.01630
726.72936,0.07728
725.23958,0.05430
723.74979,0.05363
722.26000,0.05300
720.77021,0.04725
719.28042,0.03811
717.79063,0.05128
716.30084,0.05934
714.81106,0.06744
713.32127,0.00357
711.83148,0.12057
710.34169,0.10733
708.85190,0.09841
707.36211,0.08952
705.87233,0.12266
704.38254,0.07184
702.89275,0.00562
701.40296,0.05171
699.91317,0.09783
698.42338,0.07113
696.93360,0.15074
695.44381,0.16182
693.95402,0.20464
692.46423,0.24749
690.97444,0.34266
689.48465,0.28872
687.99486,0.27253
686.50508,0.28208
685.01529,0.29167
683.52550,0.34585
682.03571,0.37778
680.54592,0.30861
679.05613,0.31917
677.56635,0.32977
676.07656,0.31555
674.58677,0.24650
673.09698,0.19463
671.60719,0.18907
670.11740,0.18354
668.62761,0.19348
667.13783,0.15373
665.64804,0.13544
664.15825,0.11718
662.66846,0.03296
661.17867,0.01734
659.68888,0.11660
658.19910,0.10189
656.70931,0.08722
655.21952,0.10944
653.72973,0.15225
652.23994,0.22939
650.75015,0.16342
649.26037,0.09748
647.77058,0.11300
646.28079,0.07026
644.79100,0.08242
643.30121,0.05946
641.81142,0.03653
640.32163,0.12420
638.83185,0.05763
637.34206,0.08365
635.85227,0.04629
634.36248,0.00895
632.87269,0.06843
631.38290,0.16736
629.89312,0.13948
628.40333,0.16906
626.91354,0.19866
625.42375,0.08688
623.93396,0.01799
622.44417,0.08969
620.95438,0.16142
619.46460,0.07034
617.97481,0.00328
616.48502,0.11280
614.99523,0.09893
613.50544,0.08509
612.01565,0.10728
610.52587,0.09180
609.03608,0.06777
607.54629,0.10291
606.05650,0.13808
604.56671,0.14329
603.07692,0.10396
601.58714,0.14437
600.09735,0.18481
598.60756,0.15758
597.11777,0.08923
595.62798,0.18205
594.13819,0.17805
592.64840,0.17409
591.15862,0.18301
589.66883,0.19710
588.17904,0.15123
586.68925,0.12339
585.19946,0.09558
583.70967,0.17323
582.21989,0.14291
580.73010,0.12891
579.24031,0.11495
577.75052,0.19957
576.26073,0.08196
574.77094,0.16323
573.28115,0.19909
571.79137,0.23499
570.30158,0.23750
568.81179,0.21604
567.32200,0.23404
565.83221,0.25207
564.34242,0.30098
562.85264,0.40135
561.36285,0.45376
559.87306,0.47191
558.38327,0.49010
556.89348,0.51689
555.40369,0.59171
553.91391,0.59113
552.42412,0.59059
550.93433,0.66036
549.44454,0.63588
547.95475,0.76399
546.46496,0.73444
544.97517,0.70491
543.48539,0.67713
541.99560,0.74538
540.50581,0.79223
539.01602,0.83911
537.52623,0.83546
536.03644,0.82841
534.54666,0.86595
533.05687,0.87525
531.56708,0.88458
530.07729,0.78166
528.58750,0.74734
527.09771,0.70877
525.60792,0.67023
524.11814,0.71828
522.62835,0.76980
521.13856,0.67907
519.64877,0.64751
518.15898,0.61599
516.66919,0.68305
515.17941,0.68502
513.68962,0.64073
512.19983,0.59647
510.71004,0.61738
509.22025,0.66404
507.73046,0.61131
506.24068,0.62889
504.75089,0.64650
503.26110,0.57672
501.77131,0.62011
500.28152,0.66181
498.79173,0.70355
497.30194,0.57904
495.81216,0.64141
494.32237,0.67896
492.83258,0.71654
491.34279,0.67615
489.85300,0.61351
488.36321,0.61090
486.87343,0.53033
485.38364,0.44979
483.89385,0.47299
482.40406,0.39679
480.91427,0.34549
479.42448,0.29421
477.93469,0.25926
476.44491,0.11977
474.95512,0.16544
473.46533,0.21114
471.97554,0.20202
470.48575,0.09180
468.99596,0.01246
467.50618,0.09411
466.01639,0.17580
464.52660,0.05524
463.03681,0.00328
461.54702,0.09006
460.05723,0.17686
458.56745,0.09829
457.07766,0.12259
455.58787,0.16235
454.09808,0.20214
452.60829,0.25054
451.11850,0.27154
449.62871,0.28057
448.13893,0.28964
446.64914,0.36558
445.15935,0.40214
443.66956,0.51757
442.17977,0.56448
440.68998,0.61141
439.20020,0.70637
437.71041,0.73280
436.22062,0.84154
434.73083,0.95031
433.24104,1.20310
431.75125,1.22794
430.26146,1.25967
428.77168,1.29143
427.28189,1.35407
425.79210,1.49560
424.30231,1.42546
422.81252,1.35536
421.32273,1.28957
419.83295,1.18610
418.34316,1.16237
416.85337,1.13868
415.36358,1.01131
413.87379,0.99539
412.38400,0.93579
410.89422,0.87622
409.40443,0.71984
407.91464,0.67490
406.42485,0.65914
404.93506,0.66569
403.44527,0.67228
401.95548,0.64976
400.46570,0.63412
398.97591,0.64680
397.48612,0.65951
395.99633,0.63197
394.50654,0.64389
393.01675,0.60013
391.52697,0.55640
390.03718,0.55299
388.54739,0.50503
387.05760,0.55653
385.56781,0.60807
384.07802,0.62021
382.58824,0.53810
381.09845,0.53230
379.60866,0.52654
378.11887,0.49424
376.62908,0.45511
375.13929,0.38259
373.64950,0.31010
372.15972,0.40991
370.66993,0.39491
369.18014,0.39279
367.69035,0.39071
366.20056,0.30038
364.71077,0.19980
363.22099,0.20295
361.73120,0.20614
360.24141,0.21878
358.75162,0.14232
357.26183,0.12675
355.77204,0.11120
354.28225,0.15654
352.79247,0.15735
351.30268,0.12219
349.81289,0.08706
348.32310,0.04853
346.83331,0.13517
345.34352,0.12328
343.85374,0.11141
342.36395,0.04387
340.87416,0.17006
339.38437,0.13173
337.89458,0.09342
336.40479,0.00715
334.91501,0.05894
333.42522,0.09790
331.93543,0.13690
330.44564,0.24535
328.95585,0.09842
327.46606,0.13322
325.97627,0.16806
324.48649,0.01608
322.99670,0.06810
321.50691,0.08587
320.01712,0.10366
318.52733,0.06493
317.03754,0.10850
315.54776,0.09382
314.05797,0.07918
312.56818,0.10228
311.07839,0.03284
309.58860,0.02429
308.09881,0.01577
306.60902,0.04585
305.11924,0.05368
303.62945,0.03583
302.13966,0.01230
300.64987,0.00328
299.16008,0.00328
