1778.52000,0.05737
1777.03021,0.09843
1775.54042,0.05784
1774.05063,0.03065
1772.56085,0.08071
1771.07106,0.01497
1769.58127,0.05321
1768.09148,0.06326
1766.60169,0.00354
1765.11190,0.08494
1763.62212,0.07726
1762.13233,0.08150
1760.64254,0.02487
1759.15275,0.07520
1757.66296,0.09437
1756.17317,0.05713
1754.68339,0.12537
1753.19360,0.00354
1751.70381,0.04380
1750.21402,0.06329
1748.72423,0.06351
1747.23444,0.07118
1745.74465,0.06254
1744.25487,0.08512
1742.76508,0.05575
1741.27529,0.09324
1739.78550,0.08175
1738.29571,0.03019
1736.80592,0.04252
1735.31614,0.04300
1733.82635,0.05688
1732.33656,0.06633
1730.84677,0.05947
1729.35698,0.07492
1727.86719,0.06812
1726.37740,0.06581
1724.88762,0.02937
1723.39783,0.00781
1721.90804,0.09024
1720.41825,0.04794
1718.92846,0.04578
1717.43867,0.00354
1715.94889,0.07758
1714.45910,0.06106
1712.96931,0.06684
1711.47952,0.10978
1709.98973,0.06215
1708.49994,0.03980
1707.01016,0.03308
1705.52037,0.02638
1704.03058,0.08283
1702.54079,0.07991
1701.05100,0.16761
1699.56121,0.09940
1698.07142,0.06389
1696.58164,0.12346
1695.09185,0.10732
1693.60206,0.14318
1692.11227,0.16868
1690.62248,0.16154
1689.13269,0.17819
1687.64291,0.18299
1686.15312,0.15663
1684.66333,0.14366
1683.17354,0.16934
1681.68375,0.19653
1680.19396,0.20148
1678.70417,0.20794
1677.21439,0.21888
1675.72460,0.28926
1674.23481,0.15917
1672.74502,0.15090
1671.25523,0.17384
1669.76544,0.19088
1668.27566,0.17229
1666.78587,0.12255
1665.29608,0.17532
1663.80629,0.11673
1662.31650,0.24678
1660.82671,0.13032
1659.33693,0.14905
1657.84714,0.13513
1656.35735,0.16728
1654.86756,0.09253
1653.37777,0.15147
1651.88798,0.07529
1650.39819,0.12389
1648.90841,0.11164
1647.41862,0.11575
1645.92883,0.13696
1644.43904,0.15821
1642.94925,0.09409
1641.45946,0.10723
1639.96968,0.11000
1638.47989,0.14250
1636.99010,0.13345
1635.50031,0.09919
1634.01052,0.12584
1632.52073,0.12876
1631.03094,0.13319
1629.54116,0.20151
1628.05137,0.15997
1626.56158,0.16597
1625.07179,0.16161
1623.58200,0.16917
1622.09221,0.16487
1620.60243,0.13238
1619.11264,0.14150
1617.62285,0.12838
1616.13306,0.14053
1614.64327,0.15866
1613.15348,0.12632
1611.66370,0.15193
1610.17391,0.12113
1608.68412,0.15274
1607.19433,0.06854
1605.70454,0.08684
1604.21475,0.09700
1602.72496,0.10719
1601.23518,0.15083
1599.74539,0.12024
1598.25560,0.10008
1596.76581,0.11113
1595.27602,0.10884
1593.78623,0.10065
1592.29645,0.07912
1590.80666,0.09771
1589.31687,0.10446
1587.82708,0.12757
1586.33729,0.11210
1584.84750,0.03428
1583.35771,0.08421
1581.86793,0.05992
1580.37814,0.05199
1578.88835,0.02032
1577.39856,0.07186
1575.90877,0.05214
1574.41898,0.02650
1572.92920,0.06476
1571.43941,0.00354
1569.94962,0.03023
1568.45983,0.05694
1566.97004,0.03690
1565.48025,0.03471
1563.99047,0.03403
1562.50068,0.02893
1561.01089,0.06841
1559.52110,0.03515
1558.03131,0.07321
1556.54152,0.06080
1555.05173,0.11674
1553.56195,0.04646
1552.07216,0.09800
1550.58237,0.06789
1549.09258,0.07791
1547.60279,0.04488
1546.11300,0.08169
1544.62322,0.17645
1543.13343,0.11530
1541.64364,0.09575
1540.15385,0.08738
1538.66406,0.07904
1537.17427,0.09672
1535.68448,0.05354
1534.19470,0.03414
1532.70491,0.03260
1531.21512,0.07267
1529.72533,0.04891
1528.23554,0.03261
1526.74575,0.00000
1525.25597,0.09916
1523.76618,0.08696
1522.27639,0.04657
1520.78660,0.05077
1519.29681,0.03718
1517.80702,0.00282
1516.31724,0.05589
1514.82745,0.00354
1513.33766,0.02495
1511.84787,0.04638
1510.35808,0.02923
1508.86829,0.04627
1507.37850,0.04106
1505.88872,0.03291
1504.39893,0.05449
1502.90914,0.07610
1501.41935,0.11259
1499.92956,0.06743
1498.43977,0.12180
1496.94999,0.10640
1495.46020,0.23806
1493.97041,0.23609
1492.48062,0.25048
1490.99083,0.22777
1489.50104,0.35806
1488.01125,0.40744
1486.52147,0.45686
1485.03168,0.60654
1483.54189,0.68794
1482.05210,0.83918
1480.56231,0.93252
1479.07252,1.04222
1477.58274,1.10592
1476.09295,1.18004
1474.60316,1.21409
1473.11337,1.30907
1471.62358,1.30308
1470.13379,1.32831
1468.64401,1.26892
1467.15422,1.17836
1465.66443,1.17918
1464.17464,1.18002
1462.68485,1.16679
1461.19506,1.06596
1459.70527,1.05872
1458.21549,0.92973
1456.72570,0.79929
1455.23591,0.70897
1453.74612,0.72116
1452.25633,0.78239
1450.76654,0.68473
1449.27676,0.68364
1447.78697,0.58605
1446.29718,0.53601
1444.80739,0.45110
1443.31760,0.36622
1441.82781,0.34448
1440.33802,0.36882
1438.84824,0.33378
1437.35845,0.25124
1435.86866,0.36180
1434.37887,0.29418
1432.88908,0.31124
1431.39929,0.29416
1429.90951,0.26227
1428.41972,0.34031
1426.92993,0.34412
1425.44014,0.37320
1423.95035,0.38747
1422.46056,0.40176
1420.97078,0.38490
1419.48099,0.38440
1417.99120,0.31710
1416.50141,0.37755
1415.01162,0.38753
1413.52183,0.43022
1412.03204,0.43581
1410.54226,0.44737
1409.05247,0.42183
1407.56268,0.50622
1406.07289,0.36638
1404.58310,0.43153
1403.09331,0.49670
1401.60353,0.43418
1400.11374,0.41921
1398.62395,0.51863
1397.13416,0.57650
1395.64437,0.59132
1394.15458,0.61954
1392.66479,0.59136
1391.17501,0.65825
1389.68522,0.73409
1388.19543,0.67183
1386.70564,0.61554
1385.21585,0.55929
1383.72606,0.67237
1382.23628,0.54637
1380.74649,0.63575
1379.25670,0.61228
1377.76691,0.63340
1376.27712,0.70208
1374.78733,0.69355
1373.29755,0.74150
1371.80776,0.81323
1370.31797,0.97410
1368.82818,1.08896
1367.33839,1.20385
1365.84860,1.43164
1364.35881,1.53174
1362.86903,1.83236
1361.37924,1.89985
1359.88945,1.90944
1358.39966,1.92797
1356.90987,2.00000
1355.42008,1.99929
1353.93030,1.92286
1352.44051,1.87319
1350.95072,1.82356
1349.46093,1.62395
1347.97114,1.46893
1346.48135,1.22631
1344.99156,1.05946
1343.50178,1.02186
1342.01199,1.02735
1340.52220,0.91257
1339.03241,0.84535
1337.54262,0.82420
1336.05283,0.76966
1334.56305,0.71515
1333.07326,0.71042
1331.58347,0.61513
1330.09368,0.62531
1328.60389,0.55236
1327.11410,0.51953
1325.62432,0.53871
1324.13453,0.49109
1322.64474,0.53410
1321.15495,0.49396
1319.66516,0.47465
1318.17537,0.45536
1316.68558,0.38264
1315.19580,0.42431
1313.70601,0.42442
1312.21622,0.36516
1310.72643,0.32374
1309.23664,0.32097
1307.74685,0.38209
1306.25707,0.32889
1304.76728,0.32249
1303.27749,0.31613
1301.78770,0.36994
1300.29791,0.37329
1298.80812,0.31577
1297.31834,0.33997
1295.82855,0.35083
1294.33876,0.41519
1292.84897,0.42314
1291.35918,0.34201
1289.86939,0.36636
1288.37960,0.39073
1286.88982,0.43890
1285.40003,0.48710
1283.91024,0.48335
1282.42045,0.48408
1280.93066,0.48038
1279.44087,0.48414
1277.95109,0.51615
1276.46130,0.49472
1274.97151,0.45328
1273.48172,0.41186
1271.99193,0.49893
1270.50214,0.58901
1269.01235,0.45040
1267.52257,0.57173
1266.03278,0.54308
1264.54299,0.67189
1263.05320,0.66261
1261.56341,0.66078
1260.07362,0.65899
1258.58384,0.61712
1257.09405,0.69707
1255.60426,0.73546
1254.11447,0.81249
1252.62468,0.65490
1251.13489,0.63992
1249.64511,0.53585
1248.15532,0.55954
1246.66553,0.51494
1245.17574,0.47037
1243.68595,0.37385
1242.19616,0.37983
1240.70637,0.44377
1239.21659,0.40971
1237.72680,0.31628
1236.23701,0.33575
1234.74722,0.29138
1233.25743,0.29680
1231.76764,0.30225
1230.27786,0.36193
1228.78807,0.38006
1227.29828,0.35515
1225.80849,0.15948
1224.31870,0.13760
1222.82891,0.20635
1221.33912,0.20235
1219.84934,0.19838
1218.35955,0.19444
1216.86976,0.20686
1215.37997,0.24308
1213.89018,0.21547
1212.40039,0.23541
1210.91061,0.11280
1209.42082,0.12538
1207.93103,0.10902
1206.44124,0.09269
1204.95145,0.14248
1203.46166,0.03191
1201.97188,0.08770
1200.48209,0.07966
1198.99230,0.10877
1197.50251,0.06218
1196.01272,0.04977
1194.52293,0.05001
1193.03314,0.05029
1191.54336,0.01421
1190.05357,0.04944
1188.56378,0.00748
1187.07399,0.03386
1185.58420,0.01869
1184.09441,0.00354
1182.60463,0.04106
1181.11484,0.07861
1179.62505,0.05083
1178.13526,0.03646
1176.64547,0.04736
1175.15568,0.04641
1173.66589,0.10787
1172.17611,0.05351
1170.68632,0.07418
1169.19653,0.09489
1167.70674,0.04804
1166.21695,0.08440
1164.72716,0.09554
1163.23738,0.06066
1161.74759,0.00354
1160.25780,0.00855
1158.76801,0.02547
1157.27822,0.04242
1155.78843,0.05197
1154.29865,0.06749
1152.80886,0.10680
1151.31907,0.11793
1149.82928,0.09047
1148.33949,0.09126
1146.84970,0.10098
1145.35991,0.11074
1143.87013,0.01063
1142.38034,0.13480
1140.89055,0.20999
1139.40076,0.24660
1137.91097,0.29958
1136.42118,0.27684
1134.93140,0.32764
1133.44161,0.37848
1131.95182,0.41969
1130.46203,0.44311
1128.97224,0.55121
1127.48245,0.51380
1125.99266,0.50315
1124.50288,0.50144
1123.01309,0.51758
1121.52330,0.53375
1120.03351,0.63163
1118.54372,0.65975
1117.05393,0.66115
1115.56415,0.62546
1114.07436,0.70861
1112.58457,0.70491
1111.09478,0.70124
1109.60499,0.74586
1108.11520,0.74745
1106.62542,0.72530
1105.13563,0.84278
1103.64584,0.98406
1102.15605,1.01844
1100.66626,1.04913
1099.17647,1.07985
1097.68668,1.06976
1096.19690,1.10574
1094.70711,1.08531
1093.21732,1.16591
1091.72753,1.23168
1090.23774,1.25218
1088.74795,1.27271
1087.25817,1.27026
1085.76838,1.34357
1084.27859,1.42731
1082.78880,1.45019
1081.29901,1.51023
1079.80922,1.47821
1078.31943,1.49450
1076.82965,1.51081
1075.33986,1.56206
1073.85007,1.67571
1072.36028,1.66909
1070.87049,1.67587
1069.38070,1.70050
1067.89092,1.69025
1066.40113,1.68004
1064.91134,1.79684
1063.42155,1.61069
1061.93176,1.44834
1060.44197,1.42711
1058.95219,1.35541
1057.46240,1.33275
1055.97261,1.31012
1054.48282,1.07811
1052.99303,1.16693
1051.50324,1.10875
1050.01345,0.92138
1048.52367,0.89147
1047.03388,0.85863
1045.54409,0.82581
1044.05430,0.83906
1042.56451,0.72313
1041.07472,0.69188
1039.58494,0.55968
1038.09515,0.50324
1036.60536,0.54931
1035.11557,0.59541
1033.62578,0.41432
1032.13599,0.40404
1030.64620,0.34478
1029.15642,0.40734
1027.66663,0.36299
1026.17684,0.31867
1024.68705,0.44369
1023.19726,0.55835
1021.70747,0.59877
1020.21769,0.71497
1018.72790,0.88763
1017.23811,1.01132
1015.74832,1.13503
1014.25853,1.19194
1012.76874,1.28749
1011.27896,1.44248
1009.78917,1.50096
1008.29938,1.48373
1006.80959,1.48064
1005.31980,1.47758
1003.83001,1.48568
1002.34022,1.41659
1000.85044,1.38763
999.36065,1.26216
997.87086,1.16791
996.38107,1.07369
994.89128,1.23791
993.40149,1.17048
991.91171,1.14764
990.42192,1.13819
988.93213,1.11094
987.44234,1.16616
985.95255,1.22140
984.46276,1.32345
982.97297,1.19831
981.48319,1.16527
979.99340,1.03870
978.50361,1.02281
977.01382,1.00694
975.52403,0.97105
974.03424,0.86391
972.54446,0.87412
971.05467,0.93931
969.56488,0.85453
968.07509,0.83290
966.58530,0.81130
965.09551,0.74146
963.60573,0.72660
962.11594,0.72365
960.62615,0.58410
959.13636,0.58046
957.64657,0.57686
956.15678,0.55770
954.66699,0.48064
953.17721,0.57292
951.68742,0.52265
950.19763,0.50880
948.70784,0.49498
947.21805,0.53985
945.72826,0.55950
944.23848,0.55839
942.74869,0.57810
941.25890,0.61567
939.76911,0.69113
938.27932,0.76663
936.78953,0.89784
935.29974,0.74394
933.80996,0.73561
932.32017,0.85801
930.83038,0.86979
929.34059,0.88160
927.85080,0.89418
926.36101,0.74639
924.87123,0.79171
923.38144,0.82814
921.89165,0.86683
920.40186,0.90555
918.91207,0.89157
917.42228,0.99347
915.93250,0.89787
914.44271,0.88102
912.95292,0.89464
911.46313,0.90829
909.97334,0.90043
908.48355,0.93567
906.99376,0.84619
905.50398,0.88149
904.01419,0.89975
902.52440,0.91803
901.03461,0.99946
899.54482,1.08983
898.05503,0.99161
896.56525,1.01818
895.07546,1.02250
893.58567,1.02685
892.09588,1.01341
890.60609,0.89752
889.11630,0.97028
887.62651,0.96880
886.13673,0.95399
884.64694,0.93921
883.15715,0.97644
881.66736,1.10133
880.17757,1.04208
878.68778,1.10167
877.19800,1.16130
875.70821,1.14670
874.21842,1.16480
872.72863,1.24085
871.23884,1.20554
869.74905,1.23041
868.25927,1.25531
866.76948,1.30623
865.27969,1.32748
863.78990,1.37697
862.30011,1.35224
860.81032,1.30526
859.32053,1.25831
857.83075,1.21287
856.34096,1.24469
854.85117,1.18446
853.36138,1.02030
851.87159,0.95716
850.38180,0.89405
848.89202,0.76562
847.40223,0.64168
845.91244,0.69301
844.42265,0.65007
842.93286,0.60715
841.44307,0.51006
839.95329,0.39369
838.46350,0.37388
836.97371,0.43579
835.48392,0.38337
833.99413,0.33098
832.50434,0.40931
831.01455,0.46540
829.52477,0.49626
828.03498,0.38904
826.54519,0.35759
825.05540,0.32617
823.56561,0.31260
822.07582,0.29757
820.58604,0.27515
819.09625,0.23419
817.60646,0.19327
816.11667,0.07885
814.62688,0.13526
813.13709,0.08329
811.64730,0.05807
810.15752,0.05590
808.66773,0.05377
807.17794,0.08211
805.68815,0.00354
804.19836,0.14269
802.70857,0.12518
801.21879,0.10771
799.72900,0.13110
798.23921,0.24957
796.74942,0.31609
795.25963,0.31581
793.76984,0.31556
792.28006,0.46831
790.79027,0.54683
789.30048,0.61647
787.81069,0.57624
786.32090,0.62366
784.83111,0.67111
783.34132,0.57453
781.85154,0.55521
780.36175,0.51661
778.87196,0.53373
777.38217,0.55089
775.89238,0.68168
774.40259,0.66845
772.91281,0.72356
771.42302,0.70593
769.93323,0.68833
768.44344,0.73759
766.95365,0.75272
765.46386,0.77828
763.97407,0.67020
762.48429,0.63270
760.99450,0.59523
759.50471,0.66100
758.01492,0.54413
756.52513,0.38719
755.03534,0.33424
753.54556,0.28133
752.05577,0.19576
750.56598,0.10429
749.07619,0.10789
747.58640,0.10856
746.09661,0.10925
744.60683,0.12928
743.11704,0.06469
741.62725,0.05804
740.13746,0.05737
738.64767,0.05672
737.15788,0.01898
735.66809,0.00354
734.17831,0.10826
732.68852,0.07118
731.19873,0.03413
729.70894,0.05725
728.21915,0.02397
726.72936,0.06497
725.23958,0.07779
723.74979,0.08544
722.26000,0.09311
720.77021,0.00354
719.28042,0.05856
717.79063,0.08538
716.30084,0.04986
714.81106,0.01437
713.32127,0.00861
711.83148,0.01031
710.34169,0.00610
708.85190,0.05909
707.36211,0.11211
705.87233,0.03373
704.38254,0.05191
702.89275,0.02705
701.40296,0.04901
699.91317,0.07099
698.42338,0.12939
696.93360,0.13138
695.44381,0.12003
693.95402,0.18892
692.46423,0.25783
690.97444,0.26291
689.48465,0.31554
687.99486,0.23603
686.50508,0.28427
685.01529,0.33254
683.52550,0.27242
682.03571,0.30886
680.54592,0.35425
679.05613,0.31724
677.56635,0.28026
676.07656,0.28563
674.58677,0.18559
673.09698,0.25934
671.60719,0.24179
670.11740,0.22426
668.62761,0.17483
667.13783,0.06157
665.64804,0.10428
664.15825,0.14703
662.66846,0.09920
661.17867,0.04547
659.68888,0.11503
658.19910,0.10665
656.70931,0.09830
655.21952,0.12339
653.72973,0.11882
652.23994,0.13060
650.75015,0.15950
649.26037,0.18843
647.77058,0.10377
646.28079,0.11865
644.79100,0.08009
643.30121,0.08166
641.81142,0.08325
640.32163,0.14874
638.83185,0.03159
637.34206,0.04516
635.85227,0.04019
634.36248,0.03526
632.87269,0.01773
631.38290,0.10715
629.89312,0.00354
628.40333,0.07345
626.91354,0.14339
625.42375,0.09454
623.93396,0.14523
622.44417,0.11650
620.95438,0.08779
619.46460,0.07916
617.97481,0.07948
616.48502,0.11546
614.99523,0.14628
613.50544,0.17713
612.01565,0.15231
610.52587,0.05327
609.03608,0.10574
607.54629,0.12036
606.05650,0.13502
604.56671,0.23362
603.07692,0.13472
601.58714,0.13759
600.09735,0.14048
598.60756,0.08177
597.11777,0.07507
595.62798,0.12929
594.13819,0.11671
592.64840,0.10416
591.15862,0.10649
589.66883,0.15340
588.17904,0.13500
586.68925,0.12034
585.19946,0.10571
583.70967,0.18393
582.21989,0.10772
580.73010,0.12956
579.24031,0.15143
577.75052,0.14809
576.26073,0.12249
574.77094,0.14297
573.28115,0.16496
571.79137,0.18698
570.30158,0.22091
568.81179,0.26675
567.32200,0.24728
565.83221,0.22783
564.34242,0.35396
562.85264,0.39992
561.36285,0.37610
559.87306,0.37757
558.38327,0.37906
556.89348,0.50979
555.40369,0.52322
553.91391,0.47728
552.42412,0.43137
550.93433,0.53251
549.44454,0.48814
547.95475,0.59529
546.46496,0.59182
544.97517,0.58838
543.48539,0.64066
541.99560,0.64248
540.50581,0.64136
539.01602,0.64027
537.52623,0.56346
536.03644,0.55055
534.54666,0.57627
533.05687,0.61985
531.56708,0.66346
530.07729,0.61948
528.58750,0.50423
527.09771,0.52640
525.60792,0.54859
524.11814,0.50324
522.62835,0.57524
521.13856,0.51361
519.64877,0.44681
518.15898,0.38004
516.66919,0.49672
515.17941,0.44857
513.68962,0.48808
512.19983,0.52761
510.71004,0.47659
509.22025,0.54292
507.73046,0.50680
506.24068,0.50487
504.75089,0.50297
503.26110,0.49070
501.77131,0.57649
500.28152,0.54423
498.79173,0.51200
497.30194,0.54887
495.81216,0.53526
494.32237,0.57515
492.83258,0.61507
491.34279,0.55700
489.85300,0.61629
488.36321,0.51076
486.87343,0.47505
485.38364,0.43938
483.89385,0.39334
482.40406,0.31020
480.91427,0.27313
479.42448,0.23608
477.93469,0.21095
476.44491,0.20219
474.95512,0.18380
473.46533,0.16544
471.97554,0.09587
470.48575,0.09762
468.99596,0.04445
467.50618,0.02398
466.01639,0.00354
464.52660,0.05801
463.03681,0.09170
461.54702,0.09870
460.05723,0.10572
458.56745,0.13803
457.07766,0.06046
455.58787,0.08242
454.09808,0.10442
452.60829,0.27347
451.11850,0.23315
449.62871,0.23741
448.13893,0.24170
446.64914,0.29800
445.15935,0.31275
443.66956,0.37208
442.17977,0.42476
440.68998,0.47746
439.20020,0.54579
437.71041,0.61861
436.22062,0.66843
434.73083,0.71829
433.24104,0.89663
431.75125,1.12996
430.26146,1.12495
428.77168,1.11998
427.28189,1.23607
425.79210,1.32248
424.30231,1.26339
422.81252,1.20432
421.32273,1.25518
419.83295,1.16795
418.34316,1.08001
416.85337,0.99210
415.36358,0.86486
413.87379,0.68865
412.38400,0.65949
410.89422,0.63036
409.40443,0.58344
407.91464,0.60486
406.42485,0.62483
404.93506,0.56389
403.44527,0.50298
401.95548,0.51115
400.46570,0.57431
398.97591,0.55061
397.48612,0.52695
395.99633,0.53079
394.50654,0.52574
393.01675,0.49400
391.52697,0.46228
390.03718,0.35634
388.54739,0.36329
387.05760,0.40370
385.56781,0.44413
384.07802,0.49276
382.58824,0.40181
381.09845,0.34283
379.60866,0.28387
378.11887,0.25836
376.62908,0.27298
375.13929,0.26461
373.64950,0.25627
372.15972,0.25613
370.66993,0.23522
369.18014,0.18390
367.69035,0.13260
366.20056,0.09099
364.71077,0.14298
363.22099,0.14078
361.73120,0.13862
360.24141,0.17584
358.75162,0.11358
357.26183,0.14046
355.77204,0.16738
354.28225,0.18096
352.79247,0.07575
351.30268,0.03963
349.81289,0.00354
348.32310,0.06088
346.83331,0.07072
345.34352,0.09098
343.85374,0.11128
342.36395,0.18061
340.87416,0.21730
339.38437,0.13967
337.89458,0.06206
336.40479,0.09587
334.91501,0.09110
333.42522,0.07967
331.93543,0.06827
330.44564,0.16903
328.95585,0.29655
327.46606,0.21246
325.97627,0.12841
324.48649,0.00354
322.99670,0.14670
321.50691,0.13544
320.01712,0.12420
318.52733,0.17537
317.03754,0.06172
315.54776,0.05651
314.05797,0.05133
312.56818,0.00014
311.07839,0.01433
309.58860,0.03894
308.09881,0.06359
306.60902,0.08232
305.11924,0.07286
303.62945,0.03819
302.13966,0.00354
300.64987,0.06962
299.16008,0.00354
