1778.52000,0.03713
1777.03021,0.04462
1775.54042,0.04431
1774.05063,0.06362
1772.56085,0.01082
1771.07106,0.03489
1769.58127,0.03233
1768.09148,0.03528
1766.60169,0.02650
1765.11190,0.03185
1763.62212,0.03253
1762.13233,0.02383
1760.64254,0.00025
1759.15275,0.02610
1757.66296,0.04727
1756.17317,0.02456
1754.68339,0.04970
1753.19360,0.03018
1751.70381,0.02166
1750.21402,0.01943
1748.72423,0.01881
1747.23444,0.01821
1745.74465,0.02077
1744.25487,0.04453
1742.76508,0.03774
1741.27529,0.02861
1739.78550,0.04775
1738.29571,0.04652
1736.80592,0.03121
1735.31614,0.05434
1733.82635,0.02810
1732.33656,0.03796
1730.84677,0.03686
1729.35698,0.03501
1727.86719,0.00025
1726.37740,0.01293
1724.88762,0.00289
1723.39783,0.05718
1721.90804,0.03700
1720.41825,0.02156
1718.92846,0.01320
1717.43867,0.02682
1715.94889,0.03419
1714.45910,0.04159
1712.96931,0.04980
1711.47952,0.04627
1709.98973,0.06551
1708.49994,0.06674
1707.01016,0.06604
1705.52037,0.06536
1704.03058,0.05413
1702.54079,0.07036
1701.05100,0.06075
1699.56121,0.08488
1698.07142,0.05022
1696.58164,0.06656
1695.09185,0.10802
1693.60206,0.11422
1692.11227,0.10476
1690.62248,0.10788
1689.13269,0.13768
1687.64291,0.16045
1686.15312,0.12914
1684.66333,0.10335
1683.17354,0.10973
1681.68375,0.13104
1680.19396,0.12964
1678.70417,0.14629
1677.21439,0.15357
1675.72460,0.09892
1674.23481,0.13290
1672.74502,0.12222
1671.25523,0.14528
1669.76544,0.16837
1668.27566,0.15149
1666.78587,0.12915
1665.29608,0.11546
1663.80629,0.12611
1662.31650,0.09914
1660.82671,0.10436
1659.33693,0.11743
1657.84714,0.08427
1656.35735,0.10760
1654.86756,0.09801
1653.37777,0.06415
1651.88798,0.09853
1650.39819,0.09765
1648.90841,0.09915
1647.41862,0.08264
1645.92883,0.07988
1644.43904,0.07715
1642.94925,0.12580
1641.45946,0.10234
1639.96968,0.07734
1638.47989,0.07667
1636.99010,0.07995
1635.50031,0.13500
1634.01052,0.08658
1632.52073,0.12993
1631.03094,0.13331
1629.54116,0.12182
1628.05137,0.13232
1626.56158,0.12794
1625.07179,0.11418
1623.58200,0.15298
1622.09221,0.13300
1620.60243,0.16401
1619.11264,0.12056
1617.62285,0.10144
1616.13306,0.13723
1614.64327,0.12601
1613.15348,0.10618
1611.66370,0.12245
1610.17391,0.12621
1608.68412,0.10489
1607.19433,0.07577
1605.70454,0.12037
1604.21475,0.11521
1602.72496,0.11008
1601.23518,0.11320
1599.74539,0.10695
1598.25560,0.10071
1596.76581,0.07804
1595.27602,0.09539
1593.78623,0.08375
1592.29645,0.07605
1590.80666,0.06447
1589.31687,0.02860
1587.82708,0.05548
1586.33729,0.06750
1584.84750,0.04504
1583.35771,0.04691
1581.86793,0.04724
1580.37814,0.06250
1578.88835,0.04171
1577.39856,0.03271
1575.90877,0.01276
1574.41898,0.02342
1572.92920,0.02626
1571.43941,0.00247
1569.94962,0.00458
1568.45983,0.00671
1566.97004,0.00025
1565.48025,0.05223
1563.99047,0.01799
1562.50068,0.00964
1561.01089,0.01466
1559.52110,0.03303
1558.03131,0.03652
1556.54152,0.02358
1555.05173,0.04752
1553.56195,0.03384
1552.07216,0.02490
1550.58237,0.02069
1549.09258,0.03846
1547.60279,0.03665
1546.11300,0.05604
1544.62322,0.04958
1543.13343,0.03766
1541.64364,0.01636
1540.15385,0.01233
1538.66406,0.00833
1537.17427,0.03336
1535.68448,0.01922
1534.19470,0.04666
1532.70491,0.01062
1531.21512,0.03184
1529.72533,0.02329
1528.23554,0.01320
1526.74575,0.00941
1525.25597,0.00800
1523.76618,0.02230
1522.27639,0.03270
1520.78660,0.00000
1519.29681,0.00062
1517.80702,0.00565
1516.31724,0.01696
1514.82745,0.01341
1513.33766,0.01577
1511.84787,0.01815
1510.35808,0.02330
1508.86829,0.00025
1507.37850,0.01262
1505.88872,0.00384
1504.39893,0.01469
1502.90914,0.02635
1501.41935,0.02470
1499.92956,0.02073
1498.43977,0.05913
1496.94999,0.08736
1495.46020,0.17286
1493.97041,0.15410
1492.48062,0.20044
1490.99083,0.21545
1489.50104,0.30184
1488.01125,0.33023
1486.52147,0.35864
1485.03168,0.43805
1483.54189,0.49475
1482.05210,0.62753
1480.56231,0.74622
1479.07252,0.81868
1477.58274,0.88411
1476.09295,1.01778
1474.60316,1.04013
1473.11337,1.10799
1471.62358,1.10060
1470.13379,1.05481
1468.64401,1.01768
1467.15422,0.91392
1465.66443,0.92977
1464.17464,0.94564
1462.68485,0.91488
1461.19506,0.90219
1459.70527,0.82365
1458.21549,0.69810
1456.72570,0.67372
1455.23591,0.61879
1453.74612,0.56075
1452.25633,0.55370
1450.76654,0.49336
1449.27676,0.44951
1447.78697,0.39942
1446.29718,0.40580
1444.80739,0.38046
1443.31760,0.35514
1441.82781,0.23929
1440.33802,0.24186
1438.84824,0.19741
1437.35845,0.18984
1435.86866,0.17210
1434.37887,0.24535
1432.88908,0.19630
1431.39929,0.17786
1429.90951,0.19944
1428.41972,0.17869
1426.92993,0.25050
1425.44014,0.28235
1423.95035,0.28600
1422.46056,0.28967
1420.97078,0.28788
1419.48099,0.23279
1417.99120,0.23889
1416.50141,0.27011
1415.01162,0.28882
1413.52183,0.29970
1412.03204,0.28160
1410.54226,0.30195
1409.05247,0.32938
1407.56268,0.32469
1406.07289,0.35610
1404.58310,0.38400
1403.09331,0.41193
1401.60353,0.35167
1400.11374,0.39337
1398.62395,0.39982
1397.13416,0.44471
1395.64437,0.50531
1394.15458,0.57692
1392.66479,0.56622
1391.17501,0.57593
1389.68522,0.62801
1388.19543,0.58132
1386.70564,0.56720
1385.21585,0.55310
1383.72606,0.55745
1382.23628,0.57438
1380.74649,0.58742
1379.25670,0.58950
1377.76691,0.60258
1376.27712,0.63451
1374.78733,0.71744
1373.29755,0.77295
1371.80776,0.88415
1370.31797,1.02439
1368.82818,1.09801
1367.33839,1.17166
1365.84860,1.39039
1364.35881,1.51741
1362.86903,1.84754
1361.37924,1.86484
1359.88945,1.90020
1358.39966,1.94264
1356.90987,2.00000
1355.42008,1.96879
1353.93030,1.83723
1352.44051,1.81587
1350.95072,1.79454
1349.46093,1.61131
1347.97114,1.46575
1346.48135,1.21515
1344.99156,1.06807
1343.50178,1.01511
1342.01199,0.88533
1340.52220,0.79166
1339.03241,0.72623
1337.54262,0.67730
1336.05283,0.66093
1334.56305,0.64459
1333.07326,0.59574
1331.58347,0.57044
1330.09368,0.48243
1328.60389,0.47521
1327.11410,0.43587
1325.62432,0.39970
1324.13453,0.36904
1322.64474,0.39172
1321.15495,0.43168
1319.66516,0.41718
1318.17537,0.40269
1316.68558,0.32512
1315.19580,0.34009
1313.70601,0.26884
1312.21622,0.24231
1310.72643,0.27775
1309.23664,0.24343
1307.74685,0.29775
1306.25707,0.25564
1304.76728,0.24571
1303.27749,0.23580
1301.78770,0.23141
1300.29791,0.28821
1298.80812,0.29406
1297.31834,0.26858
1295.82855,0.29252
1294.33876,0.35256
1292.84897,0.28246
1291.35918,0.28766
1289.86939,0.26898
1288.37960,0.25032
1286.88982,0.28853
1285.40003,0.36049
1283.91024,0.35563
1282.42045,0.36648
1280.93066,0.36795
1279.44087,0.39767
1277.95109,0.38899
1276.46130,0.36153
1274.97151,0.34271
1273.48172,0.32392
1271.99193,0.31692
1270.50214,0.36327
1269.01235,0.41356
1267.52257,0.44506
1266.03278,0.49462
1264.54299,0.55048
1263.05320,0.55226
1261.56341,0.54936
1260.07362,0.54649
1258.58384,0.52640
1257.09405,0.57847
1255.60426,0.51530
1254.11447,0.53057
1252.62468,0.53175
1251.13489,0.55100
1249.64511,0.47696
1248.15532,0.39589
1246.66553,0.37914
1245.17574,0.36242
1243.68595,0.33475
1242.19616,0.33454
1240.70637,0.34848
1239.21659,0.30678
1237.72680,0.26117
1236.23701,0.21952
1234.74722,0.24141
1233.25743,0.23470
1231.76764,0.22801
1230.27786,0.25311
1228.78807,0.21394
1227.29828,0.20146
1225.80849,0.12862
1224.31870,0.14442
1222.82891,0.12261
1221.33912,0.14081
1219.84934,0.13433
1218.35955,0.12789
1216.86976,0.18302
1215.37997,0.21231
1213.89018,0.14674
1212.40039,0.17686
1210.91061,0.10664
1209.42082,0.14544
1207.93103,0.11918
1206.44124,0.09295
1204.95145,0.12399
1203.46166,0.08762
1201.97188,0.09361
1200.48209,0.10121
1198.99230,0.08217
1197.50251,0.08981
1196.01272,0.00025
1194.52293,0.01767
1193.03314,0.03511
1191.54336,0.06199
1190.05357,0.06773
1188.56378,0.04448
1187.07399,0.05027
1185.58420,0.00041
1184.09441,0.03640
1182.60463,0.03635
1181.11484,0.03632
1179.62505,0.02848
1178.13526,0.05831
1176.64547,0.03876
1175.15568,0.06785
1173.66589,0.06561
1172.17611,0.06260
1170.68632,0.04865
1169.19653,0.03472
1167.70674,0.02160
1166.21695,0.03204
1164.72716,0.07464
1163.23738,0.04122
1161.74759,0.02585
1160.25780,0.05286
1158.76801,0.04029
1157.27822,0.02775
1155.78843,0.01249
1154.29865,0.05685
1152.80886,0.04713
1151.31907,0.03508
1149.82928,0.08972
1148.33949,0.09105
1146.84970,0.06733
1145.35991,0.04363
1143.87013,0.05994
1142.38034,0.06844
1140.89055,0.12323
1139.40076,0.15296
1137.91097,0.16154
1136.42118,0.20856
1134.93140,0.22229
1133.44161,0.23605
1131.95182,0.29962
1130.46203,0.34989
1128.97224,0.36255
1127.48245,0.38934
1125.99266,0.42401
1124.50288,0.43988
1123.01309,0.45343
1121.52330,0.46700
1120.03351,0.53706
1118.54372,0.54049
1117.05393,0.54003
1115.56415,0.49098
1114.07436,0.53370
1112.58457,0.52156
1111.09478,0.50944
1109.60499,0.59222
1108.11520,0.54644
1106.62542,0.59243
1105.13563,0.67059
1103.64584,0.74721
1102.15605,0.77759
1100.66626,0.78800
1099.17647,0.79844
1097.68668,0.84929
1096.19690,0.84449
1094.70711,0.87500
1093.21732,0.91809
1091.72753,0.97767
1090.23774,0.98905
1088.74795,1.00046
1087.25817,1.05698
1085.76838,1.04688
1084.27859,1.11129
1082.78880,1.15613
1081.29901,1.22609
1079.80922,1.19257
1078.31943,1.24885
1076.82965,1.30516
1075.33986,1.38542
1073.85007,1.38729
1072.36028,1.31077
1070.87049,1.38797
1069.38070,1.49499
1067.89092,1.50794
1066.40113,1.52092
1064.91134,1.40769
1063.42155,1.32898
1061.93176,1.25343
1060.44197,1.18261
1058.95219,1.09614
1057.46240,1.06380
1055.97261,1.03149
1054.48282,0.94588
1052.99303,0.90107
1051.50324,0.81395
1050.01345,0.79036
1048.52367,0.71505
1047.03388,0.67819
1045.54409,0.64135
1044.05430,0.60690
1042.56451,0.54110
1041.07472,0.46749
1039.58494,0.40175
1038.09515,0.41131
1036.60536,0.37306
1035.11557,0.33484
1033.62578,0.32096
1032.13599,0.26632
1030.64620,0.27366
1029.15642,0.31317
1027.66663,0.33742
1026.17684,0.36169
1024.68705,0.37227
1023.19726,0.37818
1021.70747,0.52916
1020.21769,0.62999
1018.72790,0.74653
1017.23811,0.86153
1015.74832,0.97655
1014.25853,1.13395
1012.76874,1.25451
1011.27896,1.33590
1009.78917,1.41731
1008.29938,1.47130
1006.80959,1.45946
1005.31980,1.44764
1003.83001,1.38410
1002.34022,1.38566
1000.85044,1.28454
999.36065,1.14423
997.87086,1.12784
996.38107,1.11147
994.89128,1.05123
993.40149,1.12273
991.91171,1.01157
990.42192,1.00394
988.93213,1.04024
987.44234,1.00757
985.95255,0.97492
984.46276,1.05521
982.97297,0.98420
981.48319,0.94143
979.99340,0.90497
978.50361,0.89559
977.01382,0.88623
975.52403,0.84671
974.03424,0.76331
972.54446,0.71129
971.05467,0.66480
969.56488,0.65439
968.07509,0.63696
966.58530,0.61955
965.09551,0.57395
963.60573,0.52131
962.11594,0.50241
960.62615,0.46708
959.13636,0.45725
957.64657,0.44745
956.15678,0.44513
954.66699,0.40519
953.17721,0.40841
951.68742,0.40616
950.19763,0.39571
948.70784,0.38528
947.21805,0.38547
945.72826,0.36294
944.23848,0.41415
942.74869,0.49361
941.25890,0.52918
939.76911,0.58204
938.27932,0.63492
936.78953,0.70586
935.29974,0.62314
933.80996,0.64395
932.32017,0.64753
930.83038,0.67349
929.34059,0.69948
927.85080,0.63727
926.36101,0.59157
924.87123,0.62194
923.38144,0.59511
921.89165,0.62906
920.40186,0.66305
918.91207,0.69353
917.42228,0.71384
915.93250,0.71615
914.44271,0.67536
912.95292,0.69850
911.46313,0.72166
909.97334,0.74446
908.48355,0.80335
906.99376,0.72819
905.50398,0.75421
904.01419,0.74575
902.52440,0.73731
901.03461,0.79242
899.54482,0.84676
898.05503,0.82194
896.56525,0.89673
895.07546,0.86020
893.58567,0.82369
892.09588,0.69234
890.60609,0.74136
889.11630,0.73551
887.62651,0.77125
886.13673,0.75370
884.64694,0.73617
883.15715,0.84412
881.66736,0.86664
880.17757,0.86958
878.68778,0.89018
877.19800,0.91082
875.70821,0.98519
874.21842,1.01097
872.72863,1.04070
871.23884,1.06653
869.74905,1.06495
868.25927,1.06340
866.76948,1.02658
865.27969,1.11447
863.78990,1.20551
862.30011,1.14761
860.81032,1.13638
859.32053,1.12518
857.83075,1.01874
856.34096,1.05974
854.85117,1.03176
853.36138,0.92539
851.87159,0.86885
850.38180,0.81233
848.89202,0.67311
847.40223,0.52921
845.91244,0.51159
844.42265,0.50771
842.93286,0.50385
841.44307,0.46435
839.95329,0.40449
838.46350,0.35014
836.97371,0.38207
835.48392,0.34188
833.99413,0.30173
832.50434,0.36588
831.01455,0.35950
829.52477,0.35157
828.03498,0.32171
826.54519,0.30599
825.05540,0.29030
823.56561,0.30522
822.07582,0.23312
820.58604,0.20261
819.09625,0.18036
817.60646,0.15814
816.11667,0.13868
814.62688,0.15062
813.13709,0.01909
811.64730,0.01932
810.15752,0.00977
808.66773,0.00025
807.17794,0.03154
805.68815,0.05971
804.19836,0.08321
802.70857,0.10595
801.21879,0.12871
799.72900,0.14445
798.23921,0.24254
796.74942,0.33046
795.25963,0.32001
793.76984,0.30958
792.28006,0.38426
790.79027,0.43935
789.30048,0.52898
787.81069,0.56766
786.32090,0.55658
784.83111,0.54553
783.34132,0.57018
781.85154,0.53056
780.36175,0.56310
778.87196,0.58430
777.38217,0.60552
775.89238,0.62717
774.40259,0.70137
772.91281,0.68857
771.42302,0.69579
769.93323,0.70303
768.44344,0.71461
766.95365,0.65408
765.46386,0.71277
763.97407,0.62955
762.48429,0.58557
760.99450,0.54161
759.50471,0.51571
758.01492,0.45220
756.52513,0.36677
755.03534,0.29469
753.54556,0.22263
752.05577,0.15609
750.56598,0.13976
749.07619,0.13836
747.58640,0.11934
746.09661,0.10034
744.60683,0.07706
743.11704,0.08517
741.62725,0.04939
740.13746,0.03874
738.64767,0.02811
737.15788,0.00025
735.66809,0.03702
734.17831,0.03383
732.68852,0.04361
731.19873,0.05341
729.70894,0.04089
728.21915,0.05584
726.72936,0.05827
725.23958,0.06622
723.74979,0.08948
722.26000,0.11277
720.77021,0.06198
719.28042,0.05670
717.79063,0.02950
716.30084,0.01486
714.81106,0.00025
713.32127,0.05924
711.83148,0.10884
710.34169,0.04634
708.85190,0.05483
707.36211,0.06334
705.87233,0.07071
704.38254,0.07496
702.89275,0.09885
701.40296,0.08277
699.91317,0.06672
698.42338,0.11734
696.93360,0.10056
695.44381,0.19593
693.95402,0.21213
692.46423,0.22835
690.97444,0.24696
689.48465,0.25462
687.99486,0.22623
686.50508,0.26334
685.01529,0.30048
683.52550,0.32314
682.03571,0.29485
680.54592,0.26189
679.05613,0.26581
677.56635,0.26976
676.07656,0.25334
674.58677,0.24479
673.09698,0.19471
671.60719,0.16857
670.11740,0.14246
668.62761,0.09952
667.13783,0.13972
665.64804,0.12976
664.15825,0.11982
662.66846,0.09110
661.17867,0.07730
659.68888,0.11214
658.19910,0.11447
656.70931,0.11682
655.21952,0.10234
653.72973,0.08710
652.23994,0.09463
650.75015,0.07710
649.26037,0.05959
647.77058,0.05778
646.28079,0.02229
644.79100,0.00329
643.30121,0.02759
641.81142,0.05192
640.32163,0.03433
638.83185,0.00500
637.34206,0.04861
635.85227,0.03815
634.36248,0.02772
632.87269,0.04083
631.38290,0.01634
629.89312,0.04205
628.40333,0.02114
626.91354,0.00025
625.42375,0.03479
623.93396,0.05133
622.44417,0.04397
620.95438,0.03664
619.46460,0.03052
617.97481,0.03069
616.48502,0.04657
614.99523,0.05072
613.50544,0.05489
612.01565,0.06301
610.52587,0.10487
609.03608,0.08090
607.54629,0.09929
606.05650,0.11771
604.56671,0.13850
603.07692,0.13502
601.58714,0.11980
600.09735,0.10461
598.60756,0.05102
597.11777,0.07979
595.62798,0.03096
594.13819,0.04606
592.64840,0.06118
591.15862,0.04850
589.66883,0.07191
588.17904,0.07104
586.68925,0.07098
585.19946,0.07095
583.70967,0.09761
582.21989,0.13605
580.73010,0.10904
579.24031,0.08206
577.75052,0.05002
576.26073,0.09327
574.77094,0.13655
573.28115,0.13594
571.79137,0.13536
570.30158,0.13716
568.81179,0.17192
567.32200,0.18239
565.83221,0.19290
564.34242,0.29674
562.85264,0.31278
561.36285,0.39158
559.87306,0.36024
558.38327,0.32893
556.89348,0.36938
555.40369,0.36752
553.91391,0.40098
552.42412,0.43446
550.93433,0.50482
549.44454,0.51326
547.95475,0.49585
546.46496,0.52630
544.97517,0.55677
543.48539,0.52611
541.99560,0.61545
540.50581,0.61934
539.01602,0.62326
537.52623,0.54095
536.03644,0.55669
534.54666,0.54736
533.05687,0.55138
531.56708,0.55543
530.07729,0.51952
528.58750,0.50873
527.09771,0.50541
525.60792,0.50212
524.11814,0.48356
522.62835,0.46895
521.13856,0.42771
519.64877,0.40531
518.15898,0.38294
516.66919,0.43430
515.17941,0.37199
513.68962,0.39126
512.19983,0.41055
510.71004,0.42046
509.22025,0.43902
507.73046,0.46545
506.24068,0.48131
504.75089,0.49721
503.26110,0.46491
501.77131,0.48438
500.28152,0.46076
498.79173,0.43716
497.30194,0.42927
495.81216,0.52570
494.32237,0.57392
492.83258,0.62218
491.34279,0.57519
489.85300,0.52744
488.36321,0.50560
486.87343,0.48652
485.38364,0.46747
483.89385,0.33201
482.40406,0.26479
480.91427,0.22857
479.42448,0.19238
477.93469,0.15190
476.44491,0.11380
474.95512,0.08788
473.46533,0.06198
471.97554,0.09532
470.48575,0.02596
468.99596,0.05934
467.50618,0.03943
466.01639,0.01955
464.52660,0.01146
463.03681,0.00025
461.54702,0.01173
460.05723,0.02323
458.56745,0.00025
457.07766,0.05821
455.58787,0.05659
454.09808,0.05501
452.60829,0.12088
451.11850,0.17894
449.62871,0.16881
448.13893,0.15870
446.64914,0.22155
445.15935,0.26089
443.66956,0.35515
442.17977,0.41847
440.68998,0.48181
439.20020,0.49538
437.71041,0.52937
436.22062,0.60142
434.73083,0.67349
433.24104,0.95455
431.75125,1.02158
430.26146,1.04550
428.77168,1.06946
427.28189,1.13578
425.79210,1.23584
424.30231,1.18264
422.81252,1.12946
421.32273,1.12767
419.83295,1.01927
418.34316,0.94970
416.85337,0.88017
415.36358,0.79536
413.87379,0.68001
412.38400,0.61839
410.89422,0.55680
409.40443,0.59913
407.91464,0.55916
406.42485,0.51842
404.93506,0.52123
403.44527,0.52407
401.95548,0.48106
400.46570,0.47415
398.97591,0.46727
397.48612,0.46041
395.99633,0.51395
394.50654,0.44834
393.01675,0.44195
391.52697,0.43559
390.03718,0.36221
388.54739,0.35316
387.05760,0.40725
385.56781,0.46137
384.07802,0.47592
382.58824,0.36896
381.09845,0.34553
379.60866,0.32213
378.11887,0.28896
376.62908,0.22601
375.13929,0.18975
373.64950,0.15352
372.15972,0.22160
370.66993,0.16738
369.18014,0.13828
367.69035,0.10921
366.20056,0.06291
364.71077,0.10603
363.22099,0.12958
361.73120,0.15315
360.24141,0.09049
358.75162,0.12744
357.26183,0.11188
355.77204,0.09635
354.28225,0.09026
352.79247,0.07086
351.30268,0.08912
349.81289,0.10741
348.32310,0.03007
346.83331,0.04946
345.34352,0.04888
343.85374,0.04832
342.36395,0.15012
340.87416,0.08807
339.38437,0.10053
337.89458,0.11302
336.40479,0.09574
334.91501,0.02831
333.42522,0.04636
331.93543,0.06445
330.44564,0.11079
328.95585,0.14617
327.46606,0.11102
325.97627,0.07589
324.48649,0.05254
322.99670,0.10065
321.50691,0.10290
320.01712,0.10518
318.52733,0.12670
317.03754,0.09964
315.54776,0.10631
314.05797,0.11301
312.56818,0.07426
311.07839,0.00025
309.58860,0.01515
308.09881,0.03009
306.60902,0.07445
305.11924,0.10629
303.62945,0.08680
302.13966,0.06733
300.64987,0.09768
299.16008,0.00025
