1778.52000,0.03808
1777.03021,0.02645
1775.54042,0.05180
1774.05063,0.00774
1772.56085,0.06861
1771.07106,0.04530
1769.58127,0.06191
1768.09148,0.01945
1766.60169,0.02874
1765.11190,0.07795
1763.62212,0.07401
1762.13233,0.08635
1760.64254,0.07951
1759.15275,0.05793
1757.66296,0.10287
1756.17317,0.09761
1754.68339,0.07760
1753.19360,-0.00000
1751.70381,0.04960
1750.21402,0.08889
1748.72423,0.04250
1747.23444,0.04048
1745.74465,0.03258
1744.25487,0.05722
1742.76508,0.04052
1741.27529,0.09330
1739.78550,0.05007
1738.29571,0.09257
1736.80592,0.09964
1735.31614,0.00774
1733.82635,0.05147
1732.33656,0.01988
1730.84677,0.04742
1729.35698,0.05135
1727.86719,0.00951
1726.37740,0.07853
1724.88762,0.05448
1723.39783,0.04820
1721.90804,0.02422
1720.41825,0.04755
1718.92846,0.03841
1717.43867,0.03078
1715.94889,0.06456
1714.45910,0.04369
1712.96931,0.07606
1711.47952,0.08629
1709.98973,0.04926
1708.49994,0.04774
1707.01016,0.06397
1705.52037,0.08024
1704.03058,0.08472
1702.54079,0.09514
1701.05100,0.14549
1699.56121,0.09835
1698.07142,0.09114
1696.58164,0.09282
1695.09185,0.13000
1693.60206,0.13028
1692.11227,0.15127
1690.62248,0.11466
1689.13269,0.12833
1687.64291,0.13316
1686.15312,0.15280
1684.66333,0.12076
1683.17354,0.18627
1681.68375,0.18384
1680.19396,0.15485
1678.70417,0.19386
1677.21439,0.14868
1675.72460,0.12274
1674.23481,0.11604
1672.74502,0.12563
1671.25523,0.16037
1669.76544,0.18627
1668.27566,0.15015
1666.78587,0.17760
1665.29608,0.12381
1663.80629,0.13950
1662.31650,0.14487
1660.82671,0.18132
1659.33693,0.12765
1657.84714,0.11244
1656.35735,0.10170
1654.86756,0.14861
1653.37777,0.07882
1651.88798,0.10363
1650.39819,0.09449
1648.90841,0.16665
1647.41862,0.13098
1645.92883,0.12563
1644.43904,0.12031
1642.94925,0.16896
1641.45946,0.17331
1639.96968,0.09643
1638.47989,0.14665
1636.99010,0.12893
1635.50031,0.15410
1634.01052,0.11428
1632.52073,0.13212
1631.03094,0.15591
1629.54116,0.14130
1628.05137,0.14594
1626.56158,0.16983
1625.07179,0.12429
1623.58200,0.10095
1622.09221,0.22541
1620.60243,0.19918
1619.11264,0.17889
1617.62285,0.11283
1616.13306,0.16206
1614.64327,0.16107
1613.15348,0.17490
1611.66370,0.11340
1610.17391,0.11990
1608.68412,0.09098
1607.19433,0.13005
1605.70454,0.12188
1604.21475,0.14845
1602.72496,0.17507
1601.23518,0.11084
1599.74539,0.12495
1598.25560,0.16422
1596.76581,0.11486
1595.27602,0.13055
1593.78623,0.14036
1592.29645,0.06155
1590.80666,0.07290
1589.31687,0.09906
1587.82708,0.07797
1586.33729,0.04953
1584.84750,0.04623
1583.35771,0.11833
1581.86793,0.05600
1580.37814,0.06610
1578.88835,0.03190
1577.39856,0.08196
1575.90877,0.05965
1574.41898,0.04180
1572.92920,0.00774
1571.43941,0.02523
1569.94962,0.02577
1568.45983,0.02634
1566.97004,0.03507
1565.48025,0.08373
1563.99047,0.04819
1562.50068,0.05701
1561.01089,0.07326
1559.52110,0.06589
1558.03131,0.05117
1556.54152,0.10593
1555.05173,0.06172
1553.56195,0.08995
1552.07216,0.11378
1550.58237,0.06966
1549.09258,0.04036
1547.60279,0.06872
1546.11300,0.09858
1544.62322,0.01322
1543.13343,0.03872
1541.64364,0.03765
1540.15385,0.04843
1538.66406,0.05925
1537.17427,0.04646
1535.68448,0.05290
1534.19470,0.05938
1532.70491,0.00679
1531.21512,0.04584
1529.72533,0.03173
1528.23554,0.05164
1526.74575,0.06123
1525.25597,0.05313
1523.76618,0.07461
1522.27639,0.07396
1520.78660,0.06004
1519.29681,0.00774
1517.80702,0.05949
1516.31724,0.09207
1514.82745,0.08627
1513.33766,0.09084
1511.84787,0.09544
1510.35808,0.04983
1508.86829,0.08996
1507.37850,0.06363
1505.88872,0.08018
1504.39893,0.06869
1502.90914,0.06758
1501.41935,0.09161
1499.92956,0.10977
1498.43977,0.12057
1496.94999,0.20972
1495.46020,0.24127
1493.97041,0.20931
1492.48062,0.30595
1490.99083,0.33464
1489.50104,0.42986
1488.01125,0.48743
1486.52147,0.54503
1485.03168,0.61079
1483.54189,0.75786
1482.05210,0.83846
1480.56231,0.97672
1479.07252,1.10911
1477.58274,1.20606
1476.09295,1.21882
1474.60316,1.28333
1473.11337,1.46460
1471.62358,1.46564
1470.13379,1.38691
1468.64401,1.29197
1467.15422,1.20888
1465.66443,1.24477
1464.17464,1.28069
1462.68485,1.24202
1461.19506,1.19600
1459.70527,1.03771
1458.21549,0.97845
1456.72570,0.92513
1455.23591,0.81275
1453.74612,0.80087
1452.25633,0.77720
1450.76654,0.71367
1449.27676,0.70485
1447.78697,0.66503
1446.29718,0.59568
1444.80739,0.52637
1443.31760,0.45709
1441.82781,0.36125
1440.33802,0.33784
1438.84824,0.38243
1437.35845,0.26747
1435.86866,0.34021
1434.37887,0.37751
1432.88908,0.32175
1431.39929,0.29115
1429.90951,0.35514
1428.41972,0.35120
1426.92993,0.36207
1425.44014,0.34489
1423.95035,0.37355
1422.46056,0.40224
1420.97078,0.38368
1419.48099,0.38584
1417.99120,0.42645
1416.50141,0.39913
1415.01162,0.40582
1413.52183,0.42140
1412.03204,0.38678
1410.54226,0.43199
1409.05247,0.47574
1407.56268,0.43827
1406.07289,0.45401
1404.58310,0.46093
1403.09331,0.46787
1401.60353,0.44973
1400.11374,0.44640
1398.62395,0.52141
1397.13416,0.53144
1395.64437,0.53707
1394.15458,0.56194
1392.66479,0.64595
1391.17501,0.54972
1389.68522,0.58946
1388.19543,0.58786
1386.70564,0.51463
1385.21585,0.44144
1383.72606,0.54485
1382.23628,0.50200
1380.74649,0.47988
1379.25670,0.55974
1377.76691,0.53177
1376.27712,0.55850
1374.78733,0.63994
1373.29755,0.66231
1371.80776,0.74381
1370.31797,0.78840
1368.82818,0.87218
1367.33839,0.95600
1365.84860,1.10117
1364.35881,1.26705
1362.86903,1.43888
1361.37924,1.47185
1359.88945,1.53292
1358.39966,1.46843
1356.90987,1.64925
1355.42008,1.64392
1353.93030,1.51451
1352.44051,1.50703
1350.95072,1.49959
1349.46093,1.41165
1347.97114,1.22030
1346.48135,1.09548
1344.99156,0.99434
1343.50178,0.97893
1342.01199,0.80988
1340.52220,0.83443
1339.03241,0.70977
1337.54262,0.69744
1336.05283,0.66224
1334.56305,0.62708
1333.07326,0.67543
1331.58347,0.68096
1330.09368,0.58309
1328.60389,0.56061
1327.11410,0.58693
1325.62432,0.56452
1324.13453,0.46087
1322.64474,0.54491
1321.15495,0.50190
1319.66516,0.48479
1318.17537,0.46771
1316.68558,0.43810
1315.19580,0.50309
1313.70601,0.42035
1312.21622,0.35094
1310.72643,0.34806
1309.23664,0.38658
1307.74685,0.42809
1306.25707,0.31448
1304.76728,0.32576
1303.27749,0.33708
1301.78770,0.31075
1300.29791,0.33912
1298.80812,0.41333
1297.31834,0.45802
1295.82855,0.46432
1294.33876,0.42633
1292.84897,0.42678
1291.35918,0.41693
1289.86939,0.41671
1288.37960,0.41653
1286.88982,0.42450
1285.40003,0.51969
1283.91024,0.48192
1282.42045,0.57865
1280.93066,0.50252
1279.44087,0.58306
1277.95109,0.56906
1276.46130,0.48417
1274.97151,0.51900
1273.48172,0.55386
1271.99193,0.54442
1270.50214,0.52763
1269.01235,0.57441
1267.52257,0.66407
1266.03278,0.65624
1264.54299,0.69868
1263.05320,0.68944
1261.56341,0.69943
1260.07362,0.70946
1258.58384,0.78306
1257.09405,0.63948
1255.60426,0.70428
1254.11447,0.77059
1252.62468,0.73350
1251.13489,0.70530
1249.64511,0.71703
1248.15532,0.60024
1246.66553,0.55515
1245.17574,0.51009
1243.68595,0.50570
1242.19616,0.55749
1240.70637,0.47189
1239.21659,0.33165
1237.72680,0.36728
1236.23701,0.33202
1234.74722,0.35442
1233.25743,0.31996
1231.76764,0.28553
1230.27786,0.31984
1228.78807,0.33350
1227.29828,0.29400
1225.80849,0.30624
1224.31870,0.21657
1222.82891,0.28355
1221.33912,0.20871
1219.84934,0.22330
1218.35955,0.23792
1216.86976,0.26957
1215.37997,0.33080
1213.89018,0.30932
1212.40039,0.29378
1210.91061,0.19701
1209.42082,0.12095
1207.93103,0.14023
1206.44124,0.15954
1204.95145,0.18701
1203.46166,0.14359
1201.97188,0.08395
1200.48209,0.10117
1198.99230,0.11252
1197.50251,0.11060
1196.01272,0.11314
1194.52293,0.10833
1193.03314,0.10355
1191.54336,0.02640
1190.05357,0.05715
1188.56378,0.05395
1187.07399,0.06555
1185.58420,0.00774
1184.09441,0.07844
1182.60463,0.07233
1181.11484,0.06626
1179.62505,0.06614
1178.13526,0.03501
1176.64547,0.13247
1175.15568,0.04526
1173.66589,0.15312
1172.17611,0.09257
1170.68632,0.05274
1169.19653,0.01294
1167.70674,0.14605
1166.21695,0.07825
1164.72716,0.08730
1163.23738,0.00774
1161.74759,0.14511
1160.25780,0.14510
1158.76801,0.13182
1157.27822,0.11858
1155.78843,0.05217
1154.29865,0.05081
1152.80886,0.07164
1151.31907,0.07330
1149.82928,0.12228
1148.33949,0.13730
1146.84970,0.16713
1145.35991,0.19699
1143.87013,0.08060
1142.38034,0.10462
1140.89055,0.21141
1139.40076,0.25175
1137.91097,0.28620
1136.42118,0.26454
1134.93140,0.33009
1133.44161,0.39567
1131.95182,0.43173
1130.46203,0.55648
1128.97224,0.45962
1127.48245,0.53715
1125.99266,0.56005
1124.50288,0.58888
1123.01309,0.61701
1121.52330,0.64517
1120.03351,0.66523
1118.54372,0.68237
1117.05393,0.71285
1115.56415,0.75074
1114.07436,0.75024
1112.58457,0.71801
1111.09478,0.68582
1109.60499,0.80658
1108.11520,0.84316
1106.62542,0.83396
1105.13563,0.90754
1103.64584,1.00775
1102.15605,1.07401
1100.66626,1.09449
1099.17647,1.11500
1097.68668,1.26854
1096.19690,1.13544
1094.70711,1.22698
1093.21732,1.29638
1091.72753,1.30524
1090.23774,1.32594
1088.74795,1.34668
1087.25817,1.40735
1085.76838,1.47987
1084.27859,1.60266
1082.78880,1.59693
1081.29901,1.79515
1079.80922,1.63876
1078.31943,1.65751
1076.82965,1.67629
1075.33986,1.75790
1073.85007,1.71395
1072.36028,1.72913
1070.87049,1.77390
1069.38070,1.86450
1067.89092,1.93223
1066.40113,2.00000
1064.91134,1.92077
1063.42155,1.82237
1061.93176,1.60136
1060.44197,1.61975
1058.95219,1.50667
1057.46240,1.45347
1055.97261,1.40029
1054.48282,1.30947
1052.99303,1.23789
1051.50324,1.13088
1050.01345,1.13620
1048.52367,0.97754
1047.03388,0.96371
1045.54409,0.94992
1044.05430,0.88740
1042.56451,0.81900
1041.07472,0.78019
1039.58494,0.70594
1038.09515,0.67014
1036.60536,0.60926
1035.11557,0.54841
1033.62578,0.55556
1032.13599,0.45340
1030.64620,0.46800
1029.15642,0.51219
1027.66663,0.47367
1026.17684,0.43517
1024.68705,0.45581
1023.19726,0.55333
1021.70747,0.70258
1020.21769,0.81937
1018.72790,0.82832
1017.23811,0.96881
1015.74832,1.10933
1014.25853,1.21590
1012.76874,1.48652
1011.27896,1.47642
1009.78917,1.55501
1008.29938,1.55384
1006.80959,1.54458
1005.31980,1.53535
1003.83001,1.42789
1002.34022,1.37661
1000.85044,1.41106
999.36065,1.33325
997.87086,1.32714
996.38107,1.32105
994.89128,1.25959
993.40149,1.41390
991.91171,1.31556
990.42192,1.24976
988.93213,1.26822
987.44234,1.30592
985.95255,1.34365
984.46276,1.30753
982.97297,1.31282
981.48319,1.35804
979.99340,1.24813
978.50361,1.19811
977.01382,1.14811
975.52403,1.21858
974.03424,1.07039
972.54446,1.03896
971.05467,1.01200
969.56488,0.94665
968.07509,0.94191
966.58530,0.93721
965.09551,0.92515
963.60573,0.95155
962.11594,0.85681
960.62615,0.79165
959.13636,0.72283
957.64657,0.65405
956.15678,0.69094
954.66699,0.70127
953.17721,0.61707
951.68742,0.68066
950.19763,0.68444
948.70784,0.68825
947.21805,0.67805
945.72826,0.67528
944.23848,0.71095
942.74869,0.72302
941.25890,0.69227
939.76911,0.75390
938.27932,0.81556
936.78953,0.95040
935.29974,0.91238
933.80996,0.99705
932.32017,0.92363
930.83038,0.93226
929.34059,0.94092
927.85080,1.04640
926.36101,0.91549
924.87123,0.87623
923.38144,0.91974
921.89165,0.98471
920.40186,1.04971
918.91207,1.04899
917.42228,1.16652
915.93250,1.16586
914.44271,1.14899
912.95292,1.14175
911.46313,1.13454
909.97334,1.11480
908.48355,1.21922
906.99376,1.20989
905.50398,1.11489
904.01419,1.14257
902.52440,1.17028
901.03461,1.23053
899.54482,1.33218
898.05503,1.18415
896.56525,1.34054
895.07546,1.27754
893.58567,1.21457
892.09588,1.12282
890.60609,1.15078
889.11630,1.13002
887.62651,1.07678
886.13673,1.10927
884.64694,1.14180
883.15715,1.27041
881.66736,1.17888
880.17757,1.24844
878.68778,1.31065
877.19800,1.37289
875.70821,1.26819
874.21842,1.26400
872.72863,1.33225
871.23884,1.34734
869.74905,1.36689
868.25927,1.38647
866.76948,1.41643
865.27969,1.46119
863.78990,1.46166
862.30011,1.44443
860.81032,1.38217
859.32053,1.31993
857.83075,1.30280
856.34096,1.27388
854.85117,1.27897
853.36138,1.02256
851.87159,1.03289
850.38180,1.04325
848.89202,0.74704
847.40223,0.72127
845.91244,0.66893
844.42265,0.67499
842.93286,0.68108
841.44307,0.52393
839.95329,0.48649
838.46350,0.42101
836.97371,0.42206
835.48392,0.40393
833.99413,0.38583
832.50434,0.48007
831.01455,0.45760
829.52477,0.46324
828.03498,0.36696
826.54519,0.39409
825.05540,0.42125
823.56561,0.34132
822.07582,0.37963
820.58604,0.29976
819.09625,0.25317
817.60646,0.20662
816.11667,0.11650
814.62688,0.19339
813.13709,0.07083
811.64730,0.04878
810.15752,0.02824
808.66773,0.00774
807.17794,0.03875
805.68815,0.04467
804.19836,0.06393
802.70857,0.10612
801.21879,0.14834
799.72900,0.13666
798.23921,0.22253
796.74942,0.38085
795.25963,0.38478
793.76984,0.38874
792.28006,0.46145
790.79027,0.56226
789.30048,0.67345
787.81069,0.63838
786.32090,0.60114
784.83111,0.56392
783.34132,0.62056
781.85154,0.62257
780.36175,0.65564
778.87196,0.69538
777.38217,0.73516
775.89238,0.82152
774.40259,0.79266
772.91281,0.74018
771.42302,0.76236
769.93323,0.78457
768.44344,0.83710
766.95365,0.70792
765.46386,0.86395
763.97407,0.73779
762.48429,0.71140
760.99450,0.68504
759.50471,0.59000
758.01492,0.50239
756.52513,0.43697
755.03534,0.41960
753.54556,0.40227
752.05577,0.24385
750.56598,0.18152
749.07619,0.17389
747.58640,0.15151
746.09661,0.12917
744.60683,0.10833
743.11704,0.06093
741.62725,0.02095
740.13746,0.03937
738.64767,0.05783
737.15788,0.05488
735.66809,0.04015
734.17831,0.08160
732.68852,0.11422
731.19873,0.14687
729.70894,0.10715
728.21915,0.08371
726.72936,0.13714
725.23958,0.04728
723.74979,0.08452
722.26000,0.12180
720.77021,0.10443
719.28042,0.00878
717.79063,0.00774
716.30084,0.01951
714.81106,0.03131
713.32127,0.01138
711.83148,0.14515
710.34169,0.12381
708.85190,0.12835
707.36211,0.13293
705.87233,0.12054
704.38254,0.05204
702.89275,0.11065
701.40296,0.10131
699.91317,0.09201
698.42338,0.18913
696.93360,0.22423
695.44381,0.21355
693.95402,0.25313
692.46423,0.29276
690.97444,0.24819
689.48465,0.25389
687.99486,0.39704
686.50508,0.37103
685.01529,0.34506
683.52550,0.37010
682.03571,0.41438
680.54592,0.37890
679.05613,0.37744
677.56635,0.37601
676.07656,0.38938
674.58677,0.34369
673.09698,0.28473
671.60719,0.25018
670.11740,0.21566
668.62761,0.14498
667.13783,0.17923
665.64804,0.19136
664.15825,0.20352
662.66846,0.13148
661.17867,0.18064
659.68888,0.09981
658.19910,0.13352
656.70931,0.16726
655.21952,0.15006
653.72973,0.15948
652.23994,0.14235
650.75015,0.16440
649.26037,0.18648
647.77058,0.15614
646.28079,0.14652
644.79100,0.09851
643.30121,0.12368
641.81142,0.14887
640.32163,0.14234
638.83185,0.08116
637.34206,0.06139
635.85227,0.06898
634.36248,0.07661
632.87269,0.14707
631.38290,0.00774
629.89312,0.15454
628.40333,0.16395
626.91354,0.17340
625.42375,0.14298
623.93396,0.12885
622.44417,0.11031
620.95438,0.09181
619.46460,0.10290
617.97481,0.05639
616.48502,0.12369
614.99523,0.11418
613.50544,0.10471
612.01565,0.13664
610.52587,0.07699
609.03608,0.05579
607.54629,0.11811
606.05650,0.18046
604.56671,0.25097
603.07692,0.08805
601.58714,0.13424
600.09735,0.18047
598.60756,0.21564
597.11777,0.10752
595.62798,0.19595
594.13819,0.13518
592.64840,0.07444
591.15862,0.19843
589.66883,0.12446
588.17904,0.14065
586.68925,0.15244
585.19946,0.16426
583.70967,0.22488
582.21989,0.18948
580.73010,0.19549
579.24031,0.20153
577.75052,0.14850
576.26073,0.11914
574.77094,0.15188
573.28115,0.15287
571.79137,0.15390
570.30158,0.26209
568.81179,0.27279
567.32200,0.28869
565.83221,0.30463
564.34242,0.34497
562.85264,0.43559
561.36285,0.44793
559.87306,0.45217
558.38327,0.45645
556.89348,0.42603
555.40369,0.54340
553.91391,0.56181
552.42412,0.58025
550.93433,0.63419
549.44454,0.58029
547.95475,0.61951
546.46496,0.69349
544.97517,0.76750
543.48539,0.73442
541.99560,0.80036
540.50581,0.77843
539.01602,0.75652
537.52623,0.72209
536.03644,0.64484
534.54666,0.71981
533.05687,0.69212
531.56708,0.66447
530.07729,0.69817
528.58750,0.57970
527.09771,0.58760
525.60792,0.59554
524.11814,0.65005
522.62835,0.56718
521.13856,0.59664
519.64877,0.56481
518.15898,0.53301
516.66919,0.51232
515.17941,0.52713
513.68962,0.50355
512.19983,0.48001
510.71004,0.54811
509.22025,0.53350
507.73046,0.60609
506.24068,0.56421
504.75089,0.52236
503.26110,0.56993
501.77131,0.57469
500.28152,0.57356
498.79173,0.57247
497.30194,0.52117
495.81216,0.58516
494.32237,0.62776
492.83258,0.67039
491.34279,0.70640
489.85300,0.55774
488.36321,0.48299
486.87343,0.44300
485.38364,0.40304
483.89385,0.31362
482.40406,0.38971
480.91427,0.30552
479.42448,0.22137
477.93469,0.26062
476.44491,0.19352
474.95512,0.12645
473.46533,0.05941
471.97554,0.02196
470.48575,0.01261
468.99596,0.01955
467.50618,0.01987
466.01639,0.02023
464.52660,0.01692
463.03681,0.00774
461.54702,0.06620
460.05723,0.12470
458.56745,0.14925
457.07766,0.09847
455.58787,0.18514
454.09808,0.27184
452.60829,0.20343
451.11850,0.25030
449.62871,0.24697
448.13893,0.24366
446.64914,0.34530
445.15935,0.36570
443.66956,0.40387
442.17977,0.44946
440.68998,0.49508
439.20020,0.69588
437.71041,0.74747
436.22062,0.85377
434.73083,0.96010
433.24104,1.11670
431.75125,1.17137
430.26146,1.22239
428.77168,1.27344
427.28189,1.29127
425.79210,1.41848
424.30231,1.41199
422.81252,1.40554
421.32273,1.28017
419.83295,1.31738
418.34316,1.18690
416.85337,1.05646
415.36358,0.97112
413.87379,0.93309
412.38400,0.81530
410.89422,0.69755
409.40443,0.73202
407.91464,0.72811
406.42485,0.69319
404.93506,0.69304
403.44527,0.69291
401.95548,0.65810
400.46570,0.61445
398.97591,0.61886
397.48612,0.62329
395.99633,0.59452
394.50654,0.59533
393.01675,0.58139
391.52697,0.56749
390.03718,0.45461
388.54739,0.39497
387.05760,0.43288
385.56781,0.47082
384.07802,0.59893
382.58824,0.47439
381.09845,0.48140
379.60866,0.48844
378.11887,0.42459
376.62908,0.38589
375.13929,0.32136
373.64950,0.25686
372.15972,0.21678
370.66993,0.32301
369.18014,0.22167
367.69035,0.12036
366.20056,0.25624
364.71077,0.14687
363.22099,0.20672
361.73120,0.26660
360.24141,0.22234
358.75162,0.14117
357.26183,0.16717
355.77204,0.19319
354.28225,0.20373
352.79247,0.11974
351.30268,0.11261
349.81289,0.10551
348.32310,0.12062
346.83331,0.16383
345.34352,0.13984
343.85374,0.11588
342.36395,0.16362
340.87416,0.20695
339.38437,0.18679
337.89458,0.16665
336.40479,0.15837
334.91501,0.13682
333.42522,0.08427
331.93543,0.03176
330.44564,0.15190
328.95585,0.25140
327.46606,0.18691
325.97627,0.12245
324.48649,0.10383
322.99670,0.08376
321.50691,0.10067
320.01712,0.11761
318.52733,0.20403
317.03754,0.13385
315.54776,0.11099
314.05797,0.08816
312.56818,0.00774
311.07839,0.06011
309.58860,0.08222
308.09881,0.10436
306.60902,0.15830
305.11924,0.15169
303.62945,0.09635
302.13966,0.04105
300.64987,0.00774
299.16008,0.00774
