1778.52000,0.05295
1777.03021,0.00000
1775.54042,0.06553
1774.05063,0.06160
1772.56085,0.01033
1771.07106,0.00332
1769.58127,0.06898
1768.09148,0.05256
1766.60169,0.01407
1765.11190,0.01983
1763.62212,0.01457
1762.13233,0.04724
1760.64254,0.04679
1759.15275,0.01952
1757.66296,0.05546
1756.17317,0.04248
1754.68339,0.09428
1753.19360,0.04978
1751.70381,0.02585
1750.21402,0.05090
1748.72423,0.07284
1747.23444,0.05690
1745.74465,0.07101
1744.25487,0.06778
1742.76508,0.03300
1741.27529,0.04564
1739.78550,0.10568
1738.29571,0.00941
1736.80592,0.07628
1735.31614,0.06106
1733.82635,0.09799
1732.33656,0.03546
1730.84677,0.03140
1729.35698,0.02579
1727.86719,0.04391
1726.37740,0.02100
1724.88762,0.03919
1723.39783,0.07320
1721.90804,0.03777
1720.41825,0.02447
1718.92846,0.00332
1717.43867,0.03911
1715.94889,0.02914
1714.45910,0.10922
1712.96931,0.05351
1711.47952,0.09260
1709.98973,0.03539
1708.49994,0.05086
1707.01016,0.06873
1705.52037,0.08664
1704.03058,0.13854
1702.54079,0.07518
1701.05100,0.11451
1699.56121,0.15072
1698.07142,0.06062
1696.58164,0.17744
1695.09185,0.16006
1693.60206,0.13798
1692.11227,0.11751
1690.62248,0.17603
1689.13269,0.16037
1687.64291,0.13526
1686.15312,0.19390
1684.66333,0.20676
1683.17354,0.17071
1681.68375,0.22944
1680.19396,0.22346
1678.70417,0.21594
1677.21439,0.20529
1675.72460,0.19152
1674.23481,0.21727
1672.74502,0.15777
1671.25523,0.12515
1669.76544,0.18101
1668.27566,0.19899
1666.78587,0.20438
1665.29608,0.14032
1663.80629,0.18684
1662.31650,0.25234
1660.82671,0.17733
1659.33693,0.10867
1657.84714,0.16006
1656.35735,0.12937
1654.86756,0.12556
1653.37777,0.15022
1651.88798,0.10858
1650.39819,0.14593
1648.90841,0.13595
1647.41862,0.17022
1645.92883,0.13582
1644.43904,0.10146
1642.94925,0.13110
1641.45946,0.17814
1639.96968,0.11624
1638.47989,0.10966
1636.99010,0.13154
1635.50031,0.18188
1634.01052,0.10907
1632.52073,0.18632
1631.03094,0.15149
1629.54116,0.18617
1628.05137,0.17352
1626.56158,0.18932
1625.07179,0.14357
1623.58200,0.15944
1622.09221,0.14850
1620.60243,0.16129
1619.11264,0.18358
1617.62285,0.17275
1616.13306,0.13826
1614.64327,0.18435
1613.15348,0.21310
1611.66370,0.21504
1610.17391,0.17753
1608.68412,0.10532
1607.19433,0.13737
1605.70454,0.15366
1604.21475,0.16051
1602.72496,0.16739
1601.23518,0.14431
1599.74539,0.16864
1598.25560,0.12035
1596.76581,0.11632
1595.27602,0.15181
1593.78623,0.09257
1592.29645,0.05864
1590.80666,0.12108
1589.31687,0.12196
1587.82708,0.12130
1586.33729,0.08593
1584.84750,0.05849
1583.35771,0.09267
1581.86793,0.08899
1580.37814,0.08219
1578.88835,0.05647
1577.39856,0.10185
1575.90877,0.06514
1574.41898,0.03320
1572.92920,0.07237
1571.43941,0.00734
1569.94962,0.03868
1568.45983,0.07006
1566.97004,0.04303
1565.48025,0.04447
1563.99047,0.02700
1562.50068,0.06009
1561.01089,0.07585
1559.52110,0.06321
1558.03131,0.07746
1556.54152,0.08542
1555.05173,0.05710
1553.56195,0.07145
1552.07216,0.09373
1550.58237,0.06235
1549.09258,0.05154
1547.60279,0.04708
1546.11300,0.04582
1544.62322,0.06511
1543.13343,0.10340
1541.64364,0.10065
1540.15385,0.08926
1538.66406,0.07790
1537.17427,0.08790
1535.68448,0.06793
1534.19470,0.05746
1532.70491,0.01071
1531.21512,0.09349
1529.72533,0.07366
1528.23554,0.00332
1526.74575,0.07147
1525.25597,0.10333
1523.76618,0.02468
1522.27639,0.00923
1520.78660,0.07278
1519.29681,0.06687
1517.80702,0.05469
1516.31724,0.05833
1514.82745,0.03832
1513.33766,0.03256
1511.84787,0.02683
1510.35808,0.07167
1508.86829,0.04864
1507.37850,0.02722
1505.88872,0.03743
1504.39893,0.02714
1502.90914,0.05952
1501.41935,0.05403
1499.92956,0.06595
1498.43977,0.09844
1496.94999,0.13886
1495.46020,0.25038
1493.97041,0.29560
1492.48062,0.31086
1490.99083,0.36405
1489.50104,0.42359
1488.01125,0.51712
1486.52147,0.61069
1485.03168,0.62454
1483.54189,0.73634
1482.05210,0.93819
1480.56231,1.04847
1479.07252,1.22039
1477.58274,1.40655
1476.09295,1.51378
1474.60316,1.46470
1473.11337,1.59570
1471.62358,1.60670
1470.13379,1.53720
1468.64401,1.34455
1467.15422,1.30196
1465.66443,1.32337
1464.17464,1.34481
1462.68485,1.29917
1461.19506,1.20461
1459.70527,1.26327
1458.21549,1.00769
1456.72570,1.01273
1455.23591,0.91199
1453.74612,0.86340
1452.25633,0.76273
1450.76654,0.74421
1449.27676,0.66572
1447.78697,0.65360
1446.29718,0.59097
1444.80739,0.52758
1443.31760,0.46423
1441.82781,0.39539
1440.33802,0.33290
1438.84824,0.35099
1437.35845,0.21118
1435.86866,0.31778
1434.37887,0.40388
1432.88908,0.32893
1431.39929,0.31560
1429.90951,0.34022
1428.41972,0.33802
1426.92993,0.33901
1425.44014,0.33846
1423.95035,0.34663
1422.46056,0.35483
1420.97078,0.44124
1419.48099,0.35082
1417.99120,0.30148
1416.50141,0.35168
1415.01162,0.43033
1413.52183,0.44743
1412.03204,0.43298
1410.54226,0.41856
1409.05247,0.46735
1407.56268,0.43563
1406.07289,0.43869
1404.58310,0.40783
1403.09331,0.37701
1401.60353,0.42913
1400.11374,0.51445
1398.62395,0.48294
1397.13416,0.49095
1395.64437,0.55584
1394.15458,0.62235
1392.66479,0.67152
1391.17501,0.68914
1389.68522,0.61678
1388.19543,0.56657
1386.70564,0.57482
1385.21585,0.58310
1383.72606,0.51088
1382.23628,0.53818
1380.74649,0.55131
1379.25670,0.50288
1377.76691,0.59188
1376.27712,0.57353
1374.78733,0.64207
1373.29755,0.65695
1371.80776,0.94192
1370.31797,0.92055
1368.82818,0.96080
1367.33839,1.00109
1365.84860,1.29725
1364.35881,1.46079
1362.86903,1.66384
1361.37924,1.79271
1359.88945,1.80316
1358.39966,1.78207
1356.90987,1.79891
1355.42008,1.86474
1353.93030,1.79322
1352.44051,1.73673
1350.95072,1.68028
1349.46093,1.52989
1347.97114,1.36217
1346.48135,1.15816
1344.99156,1.11843
1343.50178,0.98556
1342.01199,0.91905
1340.52220,0.94101
1339.03241,0.75771
1337.54262,0.76553
1336.05283,0.77023
1334.56305,0.77496
1333.07326,0.71813
1331.58347,0.67398
1330.09368,0.64722
1328.60389,0.60156
1327.11410,0.58435
1325.62432,0.46769
1324.13453,0.48846
1322.64474,0.56296
1321.15495,0.48114
1319.66516,0.45621
1318.17537,0.43132
1316.68558,0.44752
1315.19580,0.50324
1313.70601,0.33790
1312.21622,0.40475
1310.72643,0.38003
1309.23664,0.33324
1307.74685,0.42703
1306.25707,0.40873
1304.76728,0.36915
1303.27749,0.32961
1301.78770,0.30826
1300.29791,0.39591
1298.80812,0.40937
1297.31834,0.46709
1295.82855,0.40797
1294.33876,0.45944
1292.84897,0.36723
1291.35918,0.39982
1289.86939,0.36454
1288.37960,0.32929
1286.88982,0.51358
1285.40003,0.48156
1283.91024,0.50169
1282.42045,0.51869
1280.93066,0.52784
1279.44087,0.61440
1277.95109,0.59518
1276.46130,0.49388
1274.97151,0.51185
1273.48172,0.52985
1271.99193,0.46972
1270.50214,0.52174
1269.01235,0.69225
1267.52257,0.61326
1266.03278,0.65908
1264.54299,0.76336
1263.05320,0.64816
1261.56341,0.72487
1260.07362,0.80162
1258.58384,0.73232
1257.09405,0.74518
1255.60426,0.79281
1254.11447,0.83101
1252.62468,0.73974
1251.13489,0.76695
1249.64511,0.61416
1248.15532,0.59722
1246.66553,0.53294
1245.17574,0.46869
1243.68595,0.44554
1242.19616,0.51402
1240.70637,0.45778
1239.21659,0.38577
1237.72680,0.38645
1236.23701,0.30504
1234.74722,0.34369
1233.25743,0.31446
1231.76764,0.28527
1230.27786,0.30507
1228.78807,0.26648
1227.29828,0.31162
1225.80849,0.22571
1224.31870,0.21565
1222.82891,0.22141
1221.33912,0.23668
1219.84934,0.25910
1218.35955,0.28154
1216.86976,0.24639
1215.37997,0.24916
1213.89018,0.27566
1212.40039,0.19481
1210.91061,0.20401
1209.42082,0.13428
1207.93103,0.11039
1206.44124,0.08653
1204.95145,0.14640
1203.46166,0.04049
1201.97188,0.13833
1200.48209,0.12725
1198.99230,0.14620
1197.50251,0.06727
1196.01272,0.06577
1194.52293,0.06035
1193.03314,0.05496
1191.54336,0.09304
1190.05357,0.03166
1188.56378,0.00190
1187.07399,0.00942
1185.58420,0.08962
1184.09441,0.02140
1182.60463,0.06772
1181.11484,0.11407
1179.62505,0.00332
1178.13526,0.05799
1176.64547,0.07005
1175.15568,0.05846
1173.66589,0.14482
1172.17611,0.07645
1170.68632,0.06259
1169.19653,0.04877
1167.70674,0.01683
1166.21695,0.05914
1164.72716,0.07938
1163.23738,0.00332
1161.74759,0.06939
1160.25780,0.05812
1158.76801,0.04530
1157.27822,0.03251
1155.78843,0.08451
1154.29865,0.02442
1152.80886,0.05753
1151.31907,0.08595
1149.82928,0.06702
1148.33949,0.13183
1146.84970,0.12244
1145.35991,0.11310
1143.87013,0.10220
1142.38034,0.19084
1140.89055,0.11684
1139.40076,0.21502
1137.91097,0.23586
1136.42118,0.33726
1134.93140,0.36448
1133.44161,0.39174
1131.95182,0.49483
1130.46203,0.48267
1128.97224,0.54161
1127.48245,0.56111
1125.99266,0.60117
1124.50288,0.70601
1123.01309,0.67508
1121.52330,0.64418
1120.03351,0.77913
1118.54372,0.75620
1117.05393,0.79015
1115.56415,0.75307
1114.07436,0.74287
1112.58457,0.80141
1111.09478,0.85998
1109.60499,0.86884
1108.11520,0.93301
1106.62542,0.90403
1105.13563,0.89089
1103.64584,1.09413
1102.15605,1.04315
1100.66626,1.11539
1099.17647,1.18766
1097.68668,1.16995
1096.19690,1.23914
1094.70711,1.30993
1093.21732,1.35866
1091.72753,1.38846
1090.23774,1.36698
1088.74795,1.34553
1087.25817,1.40703
1085.76838,1.52067
1084.27859,1.49222
1082.78880,1.72122
1081.29901,1.63441
1079.80922,1.69134
1078.31943,1.74673
1076.82965,1.80215
1075.33986,1.88604
1073.85007,1.85941
1072.36028,1.79018
1070.87049,1.83942
1069.38070,1.99451
1067.89092,1.99724
1066.40113,2.00000
1064.91134,1.96884
1063.42155,1.73716
1061.93176,1.73449
1060.44197,1.55973
1058.95219,1.43869
1057.46240,1.49299
1055.97261,1.54732
1054.48282,1.40744
1052.99303,1.30865
1051.50324,1.19569
1050.01345,1.07960
1048.52367,1.01882
1047.03388,0.97466
1045.54409,0.93053
1044.05430,0.83669
1042.56451,0.74604
1041.07472,0.66806
1039.58494,0.63750
1038.09515,0.54538
1036.60536,0.54962
1035.11557,0.55391
1033.62578,0.47768
1032.13599,0.49309
1030.64620,0.35376
1029.15642,0.49716
1027.66663,0.45661
1026.17684,0.41609
1024.68705,0.50432
1023.19726,0.60047
1021.70747,0.67613
1020.21769,0.78815
1018.72790,0.87336
1017.23811,0.93965
1015.74832,1.00598
1014.25853,1.21605
1012.76874,1.35983
1011.27896,1.55260
1009.78917,1.55747
1008.29938,1.51500
1006.80959,1.46388
1005.31980,1.41280
1003.83001,1.47151
1002.34022,1.42918
1000.85044,1.41057
999.36065,1.33041
997.87086,1.27871
996.38107,1.22704
994.89128,1.33018
993.40149,1.36860
991.91171,1.33915
990.42192,1.41080
988.93213,1.29614
987.44234,1.27706
985.95255,1.25801
984.46276,1.35192
982.97297,1.31320
981.48319,1.28557
979.99340,1.26271
978.50361,1.24147
977.01382,1.22026
975.52403,1.16751
974.03424,1.19532
972.54446,1.02261
971.05467,0.98733
969.56488,0.95366
968.07509,0.95557
966.58530,0.95750
965.09551,0.80076
963.60573,0.87936
962.11594,0.75742
960.62615,0.68606
959.13636,0.65738
957.64657,0.62873
956.15678,0.66644
954.66699,0.67260
953.17721,0.59510
951.68742,0.59659
950.19763,0.62497
948.70784,0.65338
947.21805,0.65340
945.72826,0.59976
944.23848,0.59353
942.74869,0.72947
941.25890,0.70278
939.76911,0.78825
938.27932,0.87376
936.78953,0.99246
935.29974,0.96749
933.80996,0.95045
932.32017,1.03610
930.83038,1.02861
929.34059,1.02115
927.85080,1.02004
926.36101,0.91947
924.87123,0.95634
923.38144,0.97429
921.89165,1.00648
920.40186,1.03871
918.91207,1.09151
917.42228,1.01800
915.93250,1.03296
914.44271,1.07323
912.95292,1.11590
911.46313,1.15860
909.97334,1.27636
908.48355,1.20147
906.99376,1.24665
905.50398,1.07235
904.01419,1.08759
902.52440,1.10287
901.03461,1.31559
899.54482,1.23934
898.05503,1.30525
896.56525,1.28593
895.07546,1.26900
893.58567,1.25211
892.09588,1.20446
890.60609,1.11895
889.11630,1.24824
887.62651,1.12647
886.13673,1.16503
884.64694,1.20362
883.15715,1.19724
881.66736,1.21301
880.17757,1.24302
878.68778,1.27859
877.19800,1.31420
875.70821,1.29852
874.21842,1.29551
872.72863,1.45045
871.23884,1.34486
869.74905,1.37037
868.25927,1.39593
866.76948,1.41046
865.27969,1.46293
863.78990,1.46964
862.30011,1.48269
860.81032,1.49579
859.32053,1.50891
857.83075,1.32467
856.34096,1.37419
854.85117,1.20739
853.36138,1.21592
851.87159,1.12420
850.38180,1.03251
848.89202,0.88165
847.40223,0.73239
845.91244,0.73319
844.42265,0.68429
842.93286,0.63542
841.44307,0.52263
839.95329,0.46356
838.46350,0.45191
836.97371,0.43555
835.48392,0.45476
833.99413,0.47401
832.50434,0.47671
831.01455,0.52524
829.52477,0.55959
828.03498,0.46764
826.54519,0.42232
825.05540,0.37702
823.56561,0.30886
822.07582,0.31812
820.58604,0.19160
819.09625,0.18514
817.60646,0.17871
816.11667,0.20864
814.62688,0.20860
813.13709,0.09805
811.64730,0.00332
810.15752,0.04076
808.66773,0.07823
807.17794,0.03836
805.68815,0.02063
804.19836,0.09611
802.70857,0.13135
801.21879,0.16663
799.72900,0.07956
798.23921,0.28468
796.74942,0.28768
795.25963,0.35548
793.76984,0.42331
792.28006,0.51170
790.79027,0.60644
789.30048,0.66806
787.81069,0.68075
786.32090,0.66979
784.83111,0.65887
783.34132,0.77116
781.85154,0.70977
780.36175,0.71000
778.87196,0.74422
777.38217,0.77848
775.89238,0.79461
774.40259,0.85815
772.91281,0.89173
771.42302,0.89612
769.93323,0.90054
768.44344,0.83946
766.95365,0.82896
765.46386,0.82164
763.97407,0.84595
762.48429,0.78027
760.99450,0.71463
759.50471,0.68850
758.01492,0.52344
756.52513,0.44053
755.03534,0.39634
753.54556,0.35219
752.05577,0.20938
750.56598,0.16925
749.07619,0.15600
747.58640,0.12541
746.09661,0.09486
744.60683,0.08014
743.11704,0.09546
741.62725,0.01763
740.13746,0.03539
738.64767,0.05318
737.15788,0.07179
735.66809,0.01306
734.17831,0.00332
732.68852,0.04520
731.19873,0.08712
729.70894,0.07459
728.21915,0.06052
726.72936,0.07175
725.23958,0.08933
723.74979,0.05483
722.26000,0.02036
720.77021,0.09490
719.28042,0.02734
717.79063,0.05299
716.30084,0.02813
714.81106,0.00332
713.32127,0.03822
711.83148,0.06053
710.34169,0.07497
708.85190,0.09181
707.36211,0.10870
705.87233,0.15325
704.38254,0.10940
702.89275,0.09085
701.40296,0.13472
699.91317,0.17862
698.42338,0.18544
696.93360,0.14335
695.44381,0.24184
693.95402,0.26535
692.46423,0.28890
690.97444,0.37802
689.48465,0.38663
687.99486,0.36843
686.50508,0.37079
685.01529,0.37319
683.52550,0.40090
682.03571,0.38126
680.54592,0.37587
679.05613,0.35393
677.56635,0.33202
676.07656,0.29357
674.58677,0.35307
673.09698,0.29416
671.60719,0.27160
670.11740,0.24908
668.62761,0.15395
667.13783,0.21836
665.64804,0.17621
664.15825,0.13408
662.66846,0.14806
661.17867,0.14154
659.68888,0.13822
658.19910,0.11835
656.70931,0.09851
655.21952,0.14109
653.72973,0.17738
652.23994,0.23740
650.75015,0.21375
649.26037,0.19014
647.77058,0.15867
646.28079,0.12565
644.79100,0.16689
643.30121,0.15290
641.81142,0.13894
640.32163,0.13133
638.83185,0.06848
637.34206,0.05620
635.85227,0.02974
634.36248,0.00332
632.87269,0.17029
631.38290,0.14620
629.89312,0.11741
628.40333,0.13919
626.91354,0.16101
625.42375,0.08021
623.93396,0.08156
622.44417,0.10506
620.95438,0.12860
619.46460,0.09847
617.97481,0.04311
616.48502,0.12361
614.99523,0.12754
613.50544,0.13151
612.01565,0.12682
610.52587,0.09375
609.03608,0.11756
607.54629,0.12246
606.05650,0.12739
604.56671,0.25554
603.07692,0.23843
601.58714,0.20793
600.09735,0.17747
598.60756,0.18889
597.11777,0.10402
595.62798,0.04918
594.13819,0.06545
592.64840,0.08174
591.15862,0.15967
589.66883,0.15709
588.17904,0.21613
586.68925,0.20335
585.19946,0.19061
583.70967,0.24976
582.21989,0.24577
580.73010,0.17944
579.24031,0.11314
577.75052,0.14874
576.26073,0.08172
574.77094,0.14740
573.28115,0.18231
571.79137,0.21726
570.30158,0.26567
568.81179,0.38833
567.32200,0.37127
565.83221,0.35424
564.34242,0.52439
562.85264,0.58245
561.36285,0.63106
559.87306,0.61891
558.38327,0.60680
556.89348,0.68236
555.40369,0.64584
553.91391,0.65278
552.42412,0.65975
550.93433,0.71967
549.44454,0.69750
547.95475,0.68168
546.46496,0.73301
544.97517,0.78437
543.48539,0.83973
541.99560,0.98039
540.50581,0.87552
539.01602,0.77068
537.52623,0.62402
536.03644,0.84537
534.54666,0.73668
533.05687,0.79149
531.56708,0.84633
530.07729,0.74249
528.58750,0.77292
527.09771,0.75364
525.60792,0.73439
524.11814,0.70334
522.62835,0.73390
521.13856,0.71239
519.64877,0.64749
518.15898,0.58262
516.66919,0.64175
515.17941,0.53984
513.68962,0.56667
512.19983,0.59354
510.71004,0.56753
509.22025,0.55577
507.73046,0.52510
506.24068,0.63818
504.75089,0.75128
503.26110,0.63070
501.77131,0.62069
500.28152,0.62336
498.79173,0.62606
497.30194,0.58142
495.81216,0.68368
494.32237,0.69912
492.83258,0.71459
491.34279,0.68588
489.85300,0.69826
488.36321,0.71226
486.87343,0.66313
485.38364,0.61402
483.89385,0.49705
482.40406,0.41801
480.91427,0.33506
479.42448,0.25215
477.93469,0.29797
476.44491,0.19223
474.95512,0.18759
473.46533,0.18298
471.97554,0.10419
470.48575,0.00332
468.99596,0.06769
467.50618,0.04918
466.01639,0.03070
464.52660,0.03358
463.03681,0.07756
461.54702,0.04655
460.05723,0.01558
458.56745,0.08651
457.07766,0.14799
455.58787,0.13766
454.09808,0.12736
452.60829,0.26159
451.11850,0.29006
449.62871,0.29486
448.13893,0.29970
446.64914,0.32511
445.15935,0.40109
443.66956,0.54343
442.17977,0.58552
440.68998,0.62765
439.20020,0.68798
437.71041,0.71833
436.22062,0.86400
434.73083,1.00971
433.24104,1.16335
431.75125,1.27439
430.26146,1.31834
428.77168,1.36232
427.28189,1.45609
425.79210,1.51989
424.30231,1.54976
422.81252,1.57968
421.32273,1.49987
419.83295,1.47852
418.34316,1.31350
416.85337,1.14851
415.36358,1.03726
413.87379,0.88655
412.38400,0.85433
410.89422,0.82214
409.40443,0.76156
407.91464,0.77050
406.42485,0.76684
404.93506,0.77427
403.44527,0.78174
401.95548,0.66132
400.46570,0.60094
398.97591,0.61720
397.48612,0.63349
395.99633,0.57164
394.50654,0.58563
393.01675,0.59966
391.52697,0.61372
390.03718,0.47147
388.54739,0.47139
387.05760,0.47608
385.56781,0.48080
384.07802,0.58190
382.58824,0.43824
381.09845,0.39490
379.60866,0.35160
378.11887,0.44336
376.62908,0.27457
375.13929,0.30086
373.64950,0.32719
372.15972,0.32117
370.66993,0.31045
369.18014,0.23817
367.69035,0.16593
366.20056,0.11899
364.71077,0.24107
363.22099,0.16893
361.73120,0.09683
360.24141,0.09267
358.75162,0.18962
357.26183,0.16263
355.77204,0.13568
354.28225,0.11271
352.79247,0.07714
351.30268,0.08740
349.81289,0.09770
348.32310,0.10645
346.83331,0.06313
345.34352,0.05343
343.85374,0.04377
342.36395,0.14548
340.87416,0.16352
339.38437,0.12870
337.89458,0.09391
336.40479,0.13733
334.91501,0.10656
333.42522,0.08056
331.93543,0.05459
330.44564,0.11236
328.95585,0.17806
327.46606,0.13562
325.97627,0.09321
324.48649,0.08198
322.99670,0.06920
321.50691,0.09119
320.01712,0.11323
318.52733,0.08002
317.03754,0.09896
315.54776,0.08399
314.05797,0.06905
312.56818,0.10073
311.07839,0.08349
309.58860,0.04339
308.09881,0.00332
306.60902,0.10547
305.11924,0.12396
303.62945,0.09827
302.13966,0.07261
300.64987,0.02329
299.16008,0.00332
