1778.52000,0.03822
1777.03021,0.02950
1775.54042,0.00000
1774.05063,0.04856
1772.56085,0.01652
1771.07106,0.02092
1769.58127,0.05656
1768.09148,0.04151
1766.60169,0.02389
1765.11190,0.05311
1763.62212,0.05376
1762.13233,0.04012
1760.64254,0.07464
1759.15275,0.08707
1757.66296,0.01369
1756.17317,0.04179
1754.68339,0.04261
1753.19360,0.07987
1751.70381,0.01051
1750.21402,0.08138
1748.72423,0.03913
1747.23444,0.01902
1745.74465,0.02364
1744.25487,0.05431
1742.76508,0.01737
1741.27529,0.03119
1739.78550,0.02813
1738.29571,0.04851
1736.80592,0.08452
1735.31614,0.02432
1733.82635,0.00186
1732.33656,0.02366
1730.84677,0.01427
1729.35698,0.06343
1727.86719,0.05540
1726.37740,0.02398
1724.88762,0.00300
1723.39783,0.02887
1721.90804,0.01185
1720.41825,0.01306
1718.92846,0.00000
1717.43867,0.04768
1715.94889,0.04857
1714.45910,0.05599
1712.96931,0.03482
1711.47952,0.05790
1709.98973,0.08232
1708.49994,0.05213
1707.01016,0.05579
1705.52037,0.05948
1704.03058,0.08531
1702.54079,0.09947
1701.05100,0.13316
1699.56121,0.11355
1698.07142,0.09658
1696.58164,0.08873
1695.09185,0.13555
1693.60206,0.13687
1692.11227,0.12261
1690.62248,0.13829
1689.13269,0.13580
1687.64291,0.13983
1686.15312,0.14910
1684.66333,0.15710
1683.17354,0.12090
1681.68375,0.18488
1680.19396,0.12923
1678.70417,0.17506
1677.21439,0.18320
1675.72460,0.17056
1674.23481,0.08512
1672.74502,0.09334
1671.25523,0.16013
1669.76544,0.16841
1668.27566,0.11820
1666.78587,0.14995
1665.29608,0.13101
1663.80629,0.09779
1662.31650,0.07891
1660.82671,0.10037
1659.33693,0.14007
1657.84714,0.09657
1656.35735,0.09471
1654.86756,0.11498
1653.37777,0.06766
1651.88798,0.08800
1650.39819,0.14348
1648.90841,0.11705
1647.41862,0.11146
1645.92883,0.06949
1644.43904,0.02754
1642.94925,0.09357
1641.45946,0.12191
1639.96968,0.07355
1638.47989,0.11105
1636.99010,0.11867
1635.50031,0.10031
1634.01052,0.13790
1632.52073,0.08188
1631.03094,0.10782
1629.54116,0.09867
1628.05137,0.12338
1626.56158,0.10128
1625.07179,0.15856
1623.58200,0.15733
1622.09221,0.16134
1620.60243,0.13806
1619.11264,0.13432
1617.62285,0.08119
1616.13306,0.11262
1614.64327,0.09986
1613.15348,0.14306
1611.66370,0.10305
1610.17391,0.13070
1608.68412,0.09595
1607.19433,0.10934
1605.70454,0.17610
1604.21475,0.15574
1602.72496,0.13541
1601.23518,0.10470
1599.74539,0.14166
1598.25560,0.14613
1596.76581,0.12201
1595.27602,0.08362
1593.78623,0.05696
1592.29645,0.09666
1590.80666,0.09997
1589.31687,0.07339
1587.82708,0.08977
1586.33729,0.09837
1584.84750,0.07969
1583.35771,0.05063
1581.86793,0.07362
1580.37814,0.02902
1578.88835,0.01435
1577.39856,0.07125
1575.90877,0.09826
1574.41898,0.01735
1572.92920,0.05092
1571.43941,0.03640
1569.94962,0.04792
1568.45983,0.05947
1566.97004,0.02292
1565.48025,0.01112
1563.99047,0.00065
1562.50068,0.05523
1561.01089,0.08643
1559.52110,0.04223
1558.03131,0.06048
1556.54152,0.04495
1555.05173,0.08667
1553.56195,0.08160
1552.07216,0.07916
1550.58237,0.06114
1549.09258,0.06006
1547.60279,0.07722
1546.11300,0.11911
1544.62322,0.11291
1543.13343,0.03781
1541.64364,0.10190
1540.15385,0.06718
1538.66406,0.03248
1537.17427,0.05634
1535.68448,0.12315
1534.19470,0.05603
1532.70491,0.06957
1531.21512,0.05193
1529.72533,0.07333
1528.23554,0.02193
1526.74575,0.05380
1525.25597,0.09350
1523.76618,0.11241
1522.27639,0.00000
1520.78660,0.03030
1519.29681,0.02682
1517.80702,0.03637
1516.31724,0.07586
1514.82745,0.00874
1513.33766,0.04049
1511.84787,0.07226
1510.35808,0.04424
1508.86829,0.04486
1507.37850,0.07802
1505.88872,0.04749
1504.39893,0.06900
1502.90914,0.01381
1501.41935,0.01588
1499.92956,0.07130
1498.43977,0.11504
1496.94999,0.10159
1495.46020,0.15189
1493.97041,0.19442
1492.48062,0.23567
1490.99083,0.23534
1489.50104,0.36510
1488.01125,0.40319
1486.52147,0.44131
1485.03168,0.56335
1483.54189,0.67891
1482.05210,0.73598
1480.56231,0.84510
1479.07252,0.95685
1477.58274,1.05952
1476.09295,1.09199
1474.60316,1.08027
1473.11337,1.24416
1471.62358,1.13105
1470.13379,1.19615
1468.64401,1.06748
1467.15422,0.98698
1465.66443,1.01119
1464.17464,1.03544
1462.68485,0.92120
1461.19506,0.96957
1459.70527,0.91261
1458.21549,0.79976
1456.72570,0.78058
1455.23591,0.65088
1453.74612,0.61875
1452.25633,0.57495
1450.76654,0.57670
1449.27676,0.49003
1447.78697,0.50484
1446.29718,0.48066
1444.80739,0.40969
1443.31760,0.33874
1441.82781,0.28214
1440.33802,0.23596
1438.84824,0.31728
1437.35845,0.27506
1435.86866,0.23548
1434.37887,0.29997
1432.88908,0.28906
1431.39929,0.24045
1429.90951,0.21009
1428.41972,0.26039
1426.92993,0.30682
1425.44014,0.36889
1423.95035,0.36140
1422.46056,0.35394
1420.97078,0.24311
1419.48099,0.26107
1417.99120,0.25955
1416.50141,0.29967
1415.01162,0.36975
1413.52183,0.38652
1412.03204,0.42023
1410.54226,0.36423
1409.05247,0.33037
1407.56268,0.38758
1406.07289,0.35247
1404.58310,0.38503
1403.09331,0.41761
1401.60353,0.38519
1400.11374,0.49977
1398.62395,0.49083
1397.13416,0.50011
1395.64437,0.53674
1394.15458,0.61762
1392.66479,0.64261
1391.17501,0.67802
1389.68522,0.62893
1388.19543,0.59157
1386.70564,0.60366
1385.21585,0.61578
1383.72606,0.56420
1382.23628,0.59069
1380.74649,0.59379
1379.25670,0.58652
1377.76691,0.67422
1376.27712,0.65660
1374.78733,0.71314
1373.29755,0.74890
1371.80776,0.87184
1370.31797,1.16258
1368.82818,1.15941
1367.33839,1.15627
1365.84860,1.33264
1364.35881,1.67162
1362.86903,1.81163
1361.37924,1.93216
1359.88945,1.93957
1358.39966,1.96002
1356.90987,2.00000
1355.42008,1.97108
1353.93030,1.98381
1352.44051,1.95754
1350.95072,1.93131
1349.46093,1.64238
1347.97114,1.43542
1346.48135,1.18817
1344.99156,1.03720
1343.50178,0.92137
1342.01199,0.89661
1340.52220,0.81855
1339.03241,0.75093
1337.54262,0.71195
1336.05283,0.69706
1334.56305,0.68220
1333.07326,0.67062
1331.58347,0.58103
1330.09368,0.51488
1328.60389,0.50599
1327.11410,0.55045
1325.62432,0.42716
1324.13453,0.39625
1322.64474,0.40828
1321.15495,0.42555
1319.66516,0.41097
1318.17537,0.39643
1316.68558,0.35395
1315.19580,0.35312
1313.70601,0.36013
1312.21622,0.32294
1310.72643,0.27928
1309.23664,0.28117
1307.74685,0.37673
1306.25707,0.39558
1304.76728,0.36179
1303.27749,0.32802
1301.78770,0.33526
1300.29791,0.24238
1298.80812,0.26528
1297.31834,0.33112
1295.82855,0.34888
1294.33876,0.36016
1292.84897,0.29863
1291.35918,0.27096
1289.86939,0.29143
1288.37960,0.31193
1286.88982,0.36757
1285.40003,0.42585
1283.91024,0.42042
1282.42045,0.47486
1280.93066,0.38885
1279.44087,0.47846
1277.95109,0.49656
1276.46130,0.46527
1274.97151,0.46001
1273.48172,0.45479
1271.99193,0.35335
1270.50214,0.48995
1269.01235,0.49262
1267.52257,0.54994
1266.03278,0.47073
1264.54299,0.61655
1263.05320,0.55690
1261.56341,0.55321
1260.07362,0.54955
1258.58384,0.56283
1257.09405,0.60864
1255.60426,0.62978
1254.11447,0.62753
1252.62468,0.71246
1251.13489,0.59191
1249.64511,0.46359
1248.15532,0.43935
1246.66553,0.44766
1245.17574,0.45599
1243.68595,0.42143
1242.19616,0.38300
1240.70637,0.32248
1239.21659,0.31142
1237.72680,0.24316
1236.23701,0.24126
1234.74722,0.24589
1233.25743,0.25381
1231.76764,0.26175
1230.27786,0.23005
1228.78807,0.22569
1227.29828,0.28640
1225.80849,0.27689
1224.31870,0.21540
1222.82891,0.23847
1221.33912,0.12500
1219.84934,0.19821
1218.35955,0.27144
1216.86976,0.25691
1215.37997,0.26062
1213.89018,0.24874
1212.40039,0.17317
1210.91061,0.18347
1209.42082,0.21590
1207.93103,0.21000
1206.44124,0.20413
1204.95145,0.11699
1203.46166,0.10402
1201.97188,0.13270
1200.48209,0.12889
1198.99230,0.13552
1197.50251,0.06023
1196.01272,0.09943
1194.52293,0.11655
1193.03314,0.13370
1191.54336,0.00000
1190.05357,0.12615
1188.56378,0.04943
1187.07399,0.03777
1185.58420,0.10288
1184.09441,0.01844
1182.60463,0.05369
1181.11484,0.08897
1179.62505,0.06705
1178.13526,0.00094
1176.64547,0.06407
1175.15568,0.10642
1173.66589,0.12019
1172.17611,0.08587
1170.68632,0.08864
1169.19653,0.09144
1167.70674,0.05980
1166.21695,0.06591
1164.72716,0.08245
1163.23738,0.01058
1161.74759,0.08831
1160.25780,0.08023
1158.76801,0.07283
1157.27822,0.06545
1155.78843,0.06266
1154.29865,0.06380
1152.80886,0.07667
1151.31907,0.03625
1149.82928,0.08820
1148.33949,0.14798
1146.84970,0.11739
1145.35991,0.08684
1143.87013,0.11809
1142.38034,0.15718
1140.89055,0.15988
1139.40076,0.22113
1137.91097,0.26161
1136.42118,0.25399
1134.93140,0.31143
1133.44161,0.36889
1131.95182,0.38217
1130.46203,0.46961
1128.97224,0.34638
1127.48245,0.44818
1125.99266,0.49539
1124.50288,0.50491
1123.01309,0.53462
1121.52330,0.56435
1120.03351,0.59347
1118.54372,0.57319
1117.05393,0.57375
1115.56415,0.64067
1114.07436,0.64909
1112.58457,0.63608
1111.09478,0.62309
1109.60499,0.76946
1108.11520,0.65574
1106.62542,0.63179
1105.13563,0.78605
1103.64584,0.86881
1102.15605,0.94509
1100.66626,0.95117
1099.17647,0.95728
1097.68668,0.96212
1096.19690,0.94617
1094.70711,0.95887
1093.21732,1.11466
1091.72753,1.22887
1090.23774,1.18117
1088.74795,1.13351
1087.25817,1.26080
1085.76838,1.31009
1084.27859,1.24625
1082.78880,1.35153
1081.29901,1.40480
1079.80922,1.42299
1078.31943,1.44706
1076.82965,1.47116
1075.33986,1.51155
1073.85007,1.52074
1072.36028,1.48185
1070.87049,1.55614
1069.38070,1.71109
1067.89092,1.72756
1066.40113,1.74406
1064.91134,1.58435
1063.42155,1.43898
1061.93176,1.38338
1060.44197,1.31091
1058.95219,1.21504
1057.46240,1.20896
1055.97261,1.20289
1054.48282,1.17085
1052.99303,1.11412
1051.50324,1.01581
1050.01345,0.82647
1048.52367,0.86348
1047.03388,0.80752
1045.54409,0.75158
1044.05430,0.73405
1042.56451,0.54746
1041.07472,0.53649
1039.58494,0.52554
1038.09515,0.46000
1036.60536,0.46992
1035.11557,0.47987
1033.62578,0.43783
1032.13599,0.29567
1030.64620,0.39935
1029.15642,0.39901
1027.66663,0.41040
1026.17684,0.42183
1024.68705,0.37996
1023.19726,0.54361
1021.70747,0.61885
1020.21769,0.70843
1018.72790,0.94110
1017.23811,0.99106
1015.74832,1.04106
1014.25853,1.27382
1012.76874,1.32712
1011.27896,1.57294
1009.78917,1.56127
1008.29938,1.47940
1006.80959,1.43463
1005.31980,1.38988
1003.83001,1.39653
1002.34022,1.28096
1000.85044,1.33710
999.36065,1.30352
997.87086,1.27127
996.38107,1.23905
994.89128,1.12883
993.40149,1.19031
991.91171,1.16078
990.42192,1.18590
988.93213,1.13302
987.44234,1.12698
985.95255,1.12098
984.46276,1.12671
982.97297,1.05833
981.48319,1.01340
979.99340,0.96719
978.50361,0.93792
977.01382,0.90867
975.52403,0.83784
974.03424,0.83077
972.54446,0.83933
971.05467,0.84012
969.56488,0.73949
968.07509,0.72862
966.58530,0.71779
965.09551,0.63546
963.60573,0.59477
962.11594,0.58793
960.62615,0.51088
959.13636,0.47028
957.64657,0.42971
956.15678,0.52833
954.66699,0.45270
953.17721,0.51366
951.68742,0.48230
950.19763,0.50821
948.70784,0.53414
947.21805,0.54579
945.72826,0.46643
944.23848,0.45343
942.74869,0.60824
941.25890,0.60310
939.76911,0.65587
938.27932,0.70867
936.78953,0.65159
935.29974,0.73891
933.80996,0.78854
932.32017,0.76147
930.83038,0.84562
929.34059,0.92981
927.85080,0.77146
926.36101,0.77181
924.87123,0.65123
923.38144,0.76480
921.89165,0.79840
920.40186,0.83204
918.91207,0.86635
917.42228,0.84216
915.93250,0.86223
914.44271,0.88232
912.95292,0.86277
911.46313,0.84326
909.97334,1.01951
908.48355,0.95388
906.99376,0.90648
905.50398,0.94496
904.01419,0.89372
902.52440,0.84251
901.03461,0.89278
899.54482,1.02241
898.05503,1.04672
896.56525,1.11918
895.07546,1.06942
893.58567,1.01968
892.09588,0.94657
890.60609,0.96842
889.11630,1.00071
887.62651,0.82753
886.13673,0.85078
884.64694,0.87405
883.15715,1.00530
881.66736,1.00652
880.17757,1.00646
878.68778,1.07602
877.19800,1.14561
875.70821,1.08061
874.21842,1.13530
872.72863,1.22123
871.23884,1.18104
869.74905,1.15777
868.25927,1.13454
866.76948,1.30773
865.27969,1.20912
863.78990,1.25751
862.30011,1.19667
860.81032,1.19504
859.32053,1.19344
857.83075,1.08327
856.34096,1.16562
854.85117,1.05551
853.36138,1.06768
851.87159,0.93681
850.38180,0.80598
848.89202,0.75190
847.40223,0.71867
845.91244,0.54630
844.42265,0.53198
842.93286,0.51770
841.44307,0.46637
839.95329,0.43068
838.46350,0.45745
836.97371,0.35028
835.48392,0.38166
833.99413,0.41307
832.50434,0.36712
831.01455,0.38362
829.52477,0.42357
828.03498,0.37510
826.54519,0.33252
825.05540,0.28997
823.56561,0.22598
822.07582,0.31289
820.58604,0.21905
819.09625,0.20653
817.60646,0.19403
816.11667,0.15490
814.62688,0.15221
813.13709,0.06112
811.64730,0.04679
810.15752,0.02338
808.66773,0.00000
807.17794,0.02263
805.68815,0.01278
804.19836,0.10960
802.70857,0.10240
801.21879,0.09524
799.72900,0.20515
798.23921,0.19804
796.74942,0.26900
795.25963,0.28731
793.76984,0.30565
792.28006,0.39750
790.79027,0.54401
789.30048,0.58649
787.81069,0.58089
786.32090,0.59742
784.83111,0.61398
783.34132,0.63187
781.85154,0.60557
780.36175,0.52987
778.87196,0.57451
777.38217,0.61918
775.89238,0.69445
774.40259,0.76453
772.91281,0.73971
771.42302,0.73182
769.93323,0.72395
768.44344,0.81887
766.95365,0.76294
765.46386,0.74737
763.97407,0.75393
762.48429,0.70459
760.99450,0.65528
759.50471,0.54748
758.01492,0.52294
756.52513,0.40218
755.03534,0.32243
753.54556,0.24270
752.05577,0.20137
750.56598,0.17957
749.07619,0.12399
747.58640,0.11396
746.09661,0.10396
744.60683,0.02636
743.11704,0.03853
741.62725,0.04552
740.13746,0.03694
738.64767,0.02838
737.15788,0.00034
735.66809,0.06748
734.17831,0.04360
732.68852,0.05811
731.19873,0.07266
729.70894,0.00855
728.21915,0.02250
726.72936,0.04688
725.23958,0.01667
723.74979,0.02681
722.26000,0.03698
720.77021,0.01856
719.28042,0.00277
717.79063,0.00132
716.30084,0.00735
714.81106,0.01342
713.32127,0.00000
711.83148,0.07920
710.34169,0.06088
708.85190,0.04323
707.36211,0.02562
705.87233,0.06851
704.38254,0.02560
702.89275,0.05945
701.40296,0.08097
699.91317,0.10252
698.42338,0.14816
696.93360,0.21724
695.44381,0.22131
693.95402,0.23127
692.46423,0.24126
690.97444,0.24803
689.48465,0.22881
687.99486,0.27465
686.50508,0.28866
685.01529,0.30269
683.52550,0.37463
682.03571,0.26972
680.54592,0.27019
679.05613,0.29344
677.56635,0.31673
676.07656,0.27826
674.58677,0.20470
673.09698,0.18190
671.60719,0.20140
670.11740,0.22093
668.62761,0.14749
667.13783,0.11960
665.64804,0.09109
664.15825,0.06261
662.66846,0.08423
661.17867,0.02914
659.68888,0.08204
658.19910,0.11090
656.70931,0.13979
655.21952,0.09132
653.72973,0.09621
652.23994,0.13104
650.75015,0.12818
649.26037,0.12535
647.77058,0.07052
646.28079,0.04044
644.79100,0.03379
643.30121,0.05709
641.81142,0.08041
640.32163,0.10117
638.83185,0.04131
637.34206,0.00620
635.85227,0.00779
634.36248,0.00941
632.87269,0.00000
631.38290,0.01321
629.89312,0.00174
628.40333,0.03386
626.91354,0.06601
625.42375,0.05203
623.93396,0.11090
622.44417,0.09892
620.95438,0.08697
619.46460,0.01197
617.97481,0.04755
616.48502,0.04934
614.99523,0.07392
613.50544,0.09853
612.01565,0.08740
610.52587,0.08151
609.03608,0.03272
607.54629,0.09321
606.05650,0.15373
604.56671,0.11674
603.07692,0.13700
601.58714,0.10071
600.09735,0.06445
598.60756,0.12252
597.11777,0.06486
595.62798,0.01243
594.13819,0.00620
592.64840,0.00000
591.15862,0.10099
589.66883,0.14609
588.17904,0.15999
586.68925,0.12776
585.19946,0.09556
583.70967,0.10305
582.21989,0.14048
580.73010,0.14608
579.24031,0.15171
577.75052,0.10079
576.26073,0.09152
574.77094,0.09398
573.28115,0.10298
571.79137,0.11200
570.30158,0.15227
568.81179,0.16265
567.32200,0.18932
565.83221,0.21602
564.34242,0.27721
562.85264,0.36445
561.36285,0.43220
559.87306,0.44731
558.38327,0.46244
556.89348,0.39892
555.40369,0.42257
553.91391,0.46706
552.42412,0.51157
550.93433,0.53271
549.44454,0.50445
547.95475,0.63489
546.46496,0.61449
544.97517,0.59412
543.48539,0.68303
541.99560,0.72254
540.50581,0.68275
539.01602,0.64299
537.52623,0.59025
536.03644,0.61167
534.54666,0.69035
533.05687,0.65980
531.56708,0.62929
530.07729,0.64562
528.58750,0.50071
527.09771,0.54572
525.60792,0.59075
524.11814,0.55518
522.62835,0.56256
521.13856,0.46201
519.64877,0.45709
518.15898,0.45220
516.66919,0.44408
515.17941,0.48021
513.68962,0.50792
512.19983,0.53566
510.71004,0.51075
509.22025,0.45595
507.73046,0.46232
506.24068,0.54805
504.75089,0.63381
503.26110,0.56352
501.77131,0.54399
500.28152,0.53229
498.79173,0.52062
497.30194,0.54539
495.81216,0.61311
494.32237,0.60283
492.83258,0.59257
491.34279,0.56674
489.85300,0.55394
488.36321,0.55938
486.87343,0.52063
485.38364,0.48190
483.89385,0.36127
482.40406,0.37723
480.91427,0.29957
479.42448,0.22194
477.93469,0.16906
476.44491,0.15782
474.95512,0.18173
473.46533,0.20566
471.97554,0.09696
470.48575,0.00000
468.99596,0.08352
467.50618,0.06368
466.01639,0.04386
464.52660,0.02082
463.03681,0.03163
461.54702,0.01580
460.05723,0.00000
458.56745,0.05615
457.07766,0.13184
455.58787,0.16659
454.09808,0.20137
452.60829,0.23163
451.11850,0.20469
449.62871,0.21549
448.13893,0.22632
446.64914,0.26710
445.15935,0.35213
443.66956,0.46059
442.17977,0.47219
440.68998,0.48382
439.20020,0.58457
437.71041,0.69965
436.22062,0.76469
434.73083,0.82976
433.24104,0.91241
431.75125,1.12776
430.26146,1.17406
428.77168,1.22038
427.28189,1.14968
425.79210,1.21427
424.30231,1.21646
422.81252,1.21868
421.32273,1.31457
419.83295,1.17248
418.34316,1.12732
416.85337,1.08218
415.36358,0.86995
413.87379,0.72017
412.38400,0.72779
410.89422,0.73545
409.40443,0.66899
407.91464,0.64419
406.42485,0.61031
404.93506,0.60377
403.44527,0.59726
401.95548,0.51144
400.46570,0.50369
398.97591,0.53564
397.48612,0.56761
395.99633,0.54694
394.50654,0.39494
393.01675,0.39123
391.52697,0.38755
390.03718,0.38000
388.54739,0.31526
387.05760,0.38515
385.56781,0.45507
384.07802,0.51397
382.58824,0.44934
381.09845,0.40750
379.60866,0.36568
378.11887,0.26212
376.62908,0.18720
375.13929,0.13181
373.64950,0.07646
372.15972,0.18241
370.66993,0.17393
369.18014,0.16809
367.69035,0.16227
366.20056,0.09405
364.71077,0.15333
363.22099,0.16190
361.73120,0.17051
360.24141,0.14663
358.75162,0.17610
357.26183,0.18219
355.77204,0.18831
354.28225,0.10732
352.79247,0.06018
351.30268,0.08199
349.81289,0.10383
348.32310,0.12440
346.83331,0.13850
345.34352,0.10776
343.85374,0.07704
342.36395,0.10553
340.87416,0.16266
339.38437,0.11383
337.89458,0.06502
336.40479,0.09882
334.91501,0.00000
333.42522,0.03953
331.93543,0.07910
330.44564,0.06081
328.95585,0.13229
327.46606,0.11081
325.97627,0.08936
324.48649,0.07379
322.99670,0.12589
321.50691,0.14939
320.01712,0.17293
318.52733,0.18869
317.03754,0.16156
315.54776,0.13901
314.05797,0.11649
312.56818,0.10505
311.07839,0.00000
309.58860,0.00972
308.09881,0.01948
306.60902,0.02210
305.11924,0.04427
303.62945,0.05346
302.13966,0.06268
300.64987,0.00169
299.16008,0.00000
