1778.52000,0.01754
1777.03021,0.02539
1775.54042,0.03745
1774.05063,0.02552
1772.56085,0.01676
1771.07106,0.04666
1769.58127,0.02857
1768.09148,0.02200
1766.60169,0.00919
1765.11190,0.03505
1763.62212,0.04528
1762.13233,0.06389
1760.64254,0.02616
1759.15275,0.04484
1757.66296,0.08548
1756.17317,0.05724
1754.68339,0.08437
1753.19360,0.04367
1751.70381,0.04372
1750.21402,0.01665
1748.72423,0.07756
1747.23444,0.06958
1745.74465,0.06895
1744.25487,0.06000
1742.76508,0.10642
1741.27529,0.07247
1739.78550,0.08136
1738.29571,0.02764
1736.80592,0.06166
1735.31614,0.05290
1733.82635,0.02747
1732.33656,0.05324
1730.84677,0.03518
1729.35698,0.03908
1727.86719,0.02109
1726.37740,0.00000
1724.88762,0.03570
1723.39783,0.02548
1721.90804,0.05393
1720.41825,0.03021
1718.92846,0.04098
1717.43867,0.01732
1715.94889,0.04486
1714.45910,0.04946
1712.96931,0.00919
1711.47952,0.06020
1709.98973,0.08618
1708.49994,0.05476
1707.01016,0.07454
1705.52037,0.09435
1704.03058,0.07243
1702.54079,0.07873
1701.05100,0.03808
1699.56121,0.13738
1698.07142,0.12916
1696.58164,0.07190
1695.09185,0.12536
1693.60206,0.13603
1692.11227,0.15510
1690.62248,0.15748
1689.13269,0.15364
1687.64291,0.16445
1686.15312,0.16798
1684.66333,0.16319
1683.17354,0.14276
1681.68375,0.15788
1680.19396,0.18034
1678.70417,0.18403
1677.21439,0.15330
1675.72460,0.16541
1674.23481,0.16816
1672.74502,0.19809
1671.25523,0.22178
1669.76544,0.17555
1668.27566,0.17738
1666.78587,0.19282
1665.29608,0.17697
1663.80629,0.14131
1662.31650,0.17460
1660.82671,0.17034
1659.33693,0.17654
1657.84714,0.14101
1656.35735,0.08985
1654.86756,0.10033
1653.37777,0.10145
1651.88798,0.12975
1650.39819,0.14764
1648.90841,0.16452
1647.41862,0.15219
1645.92883,0.15086
1644.43904,0.14956
1642.94925,0.14464
1641.45946,0.16899
1639.96968,0.12341
1638.47989,0.12381
1636.99010,0.14617
1635.50031,0.20093
1634.01052,0.14400
1632.52073,0.14348
1631.03094,0.14613
1629.54116,0.14777
1628.05137,0.17346
1626.56158,0.16159
1625.07179,0.18525
1623.58200,0.18180
1622.09221,0.18987
1620.60243,0.19066
1619.11264,0.12152
1617.62285,0.17459
1616.13306,0.17443
1614.64327,0.14089
1613.15348,0.17317
1611.66370,0.17103
1610.17391,0.16996
1608.68412,0.15953
1607.19433,0.13346
1605.70454,0.11683
1604.21475,0.13573
1602.72496,0.15466
1601.23518,0.13186
1599.74539,0.11327
1598.25560,0.13961
1596.76581,0.12630
1595.27602,0.13496
1593.78623,0.12799
1592.29645,0.10747
1590.80666,0.10369
1589.31687,0.07280
1587.82708,0.12652
1586.33729,0.07272
1584.84750,0.06698
1583.35771,0.07485
1581.86793,0.06710
1580.37814,0.07608
1578.88835,0.09971
1577.39856,0.08370
1575.90877,0.07712
1574.41898,0.04237
1572.92920,0.05256
1571.43941,0.03146
1569.94962,0.02031
1568.45983,0.00919
1566.97004,0.08646
1565.48025,0.02698
1563.99047,0.02809
1562.50068,0.03028
1561.01089,0.02415
1559.52110,0.03059
1558.03131,0.09135
1556.54152,0.07592
1555.05173,0.07305
1553.56195,0.03785
1552.07216,0.06010
1550.58237,0.01035
1549.09258,0.02432
1547.60279,0.07487
1546.11300,0.11396
1544.62322,0.09879
1543.13343,0.07113
1541.64364,0.04558
1540.15385,0.03364
1538.66406,0.02174
1537.17427,0.05790
1535.68448,0.01369
1534.19470,0.00919
1532.70491,0.02191
1531.21512,0.05450
1529.72533,0.07041
1528.23554,0.05086
1526.74575,0.04074
1525.25597,0.04109
1523.76618,0.03938
1522.27639,0.00534
1520.78660,0.05178
1519.29681,0.05648
1517.80702,0.04138
1516.31724,0.05868
1514.82745,0.00919
1513.33766,0.03316
1511.84787,0.05716
1510.35808,0.03212
1508.86829,0.08543
1507.37850,0.06568
1505.88872,0.00941
1504.39893,0.04611
1502.90914,0.05569
1501.41935,0.02876
1499.92956,0.10628
1498.43977,0.11804
1496.94999,0.17057
1495.46020,0.20433
1493.97041,0.29973
1492.48062,0.30745
1490.99083,0.36533
1489.50104,0.43577
1488.01125,0.47753
1486.52147,0.51932
1485.03168,0.64102
1483.54189,0.68862
1482.05210,0.82918
1480.56231,1.01155
1479.07252,1.13547
1477.58274,1.23749
1476.09295,1.32076
1474.60316,1.44269
1473.11337,1.54377
1471.62358,1.54255
1470.13379,1.49855
1468.64401,1.36583
1467.15422,1.26969
1465.66443,1.24197
1464.17464,1.21429
1462.68485,1.27383
1461.19506,1.20288
1459.70527,1.16955
1458.21549,1.00782
1456.72570,0.87014
1455.23591,0.78783
1453.74612,0.73062
1452.25633,0.77473
1450.76654,0.62360
1449.27676,0.62496
1447.78697,0.59502
1446.29718,0.49203
1444.80739,0.47626
1443.31760,0.46052
1441.82781,0.37328
1440.33802,0.35709
1438.84824,0.30751
1437.35845,0.29869
1435.86866,0.25231
1434.37887,0.27071
1432.88908,0.31315
1431.39929,0.24076
1429.90951,0.26761
1428.41972,0.29971
1426.92993,0.30678
1425.44014,0.35460
1423.95035,0.33511
1422.46056,0.31565
1420.97078,0.35627
1419.48099,0.35306
1417.99120,0.38643
1416.50141,0.30080
1415.01162,0.37183
1413.52183,0.40947
1412.03204,0.43567
1410.54226,0.38880
1409.05247,0.37329
1407.56268,0.40898
1406.07289,0.34655
1404.58310,0.34836
1403.09331,0.35021
1401.60353,0.40587
1400.11374,0.43233
1398.62395,0.43375
1397.13416,0.50413
1395.64437,0.55574
1394.15458,0.61574
1392.66479,0.66116
1391.17501,0.63977
1389.68522,0.63826
1388.19543,0.61590
1386.70564,0.62176
1385.21585,0.62766
1383.72606,0.57094
1382.23628,0.50172
1380.74649,0.52338
1379.25670,0.58788
1377.76691,0.64406
1376.27712,0.64180
1374.78733,0.69178
1373.29755,0.75015
1371.80776,0.85972
1370.31797,0.94635
1368.82818,1.04919
1367.33839,1.15207
1365.84860,1.32651
1364.35881,1.50307
1362.86903,1.62849
1361.37924,1.67773
1359.88945,1.83663
1358.39966,1.95276
1356.90987,2.00000
1355.42008,1.93972
1353.93030,1.88992
1352.44051,1.87199
1350.95072,1.85410
1349.46093,1.64150
1347.97114,1.52291
1346.48135,1.26547
1344.99156,1.12293
1343.50178,1.10051
1342.01199,0.98831
1340.52220,0.81350
1339.03241,0.81727
1337.54262,0.84092
1336.05283,0.79673
1334.56305,0.75258
1333.07326,0.63744
1331.58347,0.66645
1330.09368,0.52945
1328.60389,0.53868
1327.11410,0.53123
1325.62432,0.48518
1324.13453,0.47780
1322.64474,0.50386
1321.15495,0.47148
1319.66516,0.42347
1318.17537,0.37550
1316.68558,0.42675
1315.19580,0.43523
1313.70601,0.38735
1312.21622,0.38754
1310.72643,0.31780
1309.23664,0.35669
1307.74685,0.37368
1306.25707,0.34894
1304.76728,0.36704
1303.27749,0.38518
1301.78770,0.36993
1300.29791,0.35890
1298.80812,0.38757
1297.31834,0.41524
1295.82855,0.40639
1294.33876,0.36102
1292.84897,0.40967
1291.35918,0.31947
1289.86939,0.32850
1288.37960,0.33756
1286.88982,0.42602
1285.40003,0.50302
1283.91024,0.49652
1282.42045,0.54018
1280.93066,0.46900
1279.44087,0.51899
1277.95109,0.48233
1276.46130,0.43736
1274.97151,0.46082
1273.48172,0.48431
1271.99193,0.51879
1270.50214,0.52720
1269.01235,0.54505
1267.52257,0.58903
1266.03278,0.59127
1264.54299,0.66038
1263.05320,0.71907
1261.56341,0.70941
1260.07362,0.69978
1258.58384,0.73456
1257.09405,0.67643
1255.60426,0.76140
1254.11447,0.70543
1252.62468,0.73512
1251.13489,0.73351
1249.64511,0.66198
1248.15532,0.51530
1246.66553,0.50648
1245.17574,0.49769
1243.68595,0.46493
1242.19616,0.40504
1240.70637,0.40680
1239.21659,0.36055
1237.72680,0.32270
1236.23701,0.34543
1234.74722,0.24395
1233.25743,0.22759
1231.76764,0.21127
1230.27786,0.30201
1228.78807,0.29150
1227.29828,0.32383
1225.80849,0.22985
1224.31870,0.17140
1222.82891,0.21531
1221.33912,0.15380
1219.84934,0.18682
1218.35955,0.21987
1216.86976,0.19500
1215.37997,0.25056
1213.89018,0.29259
1212.40039,0.20203
1210.91061,0.15014
1209.42082,0.17660
1207.93103,0.14723
1206.44124,0.11789
1204.95145,0.17577
1203.46166,0.08541
1201.97188,0.11829
1200.48209,0.14704
1198.99230,0.08810
1197.50251,0.11691
1196.01272,0.10294
1194.52293,0.08796
1193.03314,0.07301
1191.54336,0.10403
1190.05357,0.05156
1188.56378,0.09831
1187.07399,0.07827
1185.58420,0.00919
1184.09441,0.07256
1182.60463,0.06965
1181.11484,0.06678
1179.62505,0.04775
1178.13526,0.00996
1176.64547,0.10632
1175.15568,0.06487
1173.66589,0.09760
1172.17611,0.05831
1170.68632,0.06813
1169.19653,0.07798
1167.70674,0.01895
1166.21695,0.04557
1164.72716,0.08789
1163.23738,0.11145
1161.74759,0.05464
1160.25780,0.06886
1158.76801,0.05754
1157.27822,0.04624
1155.78843,0.04804
1154.29865,0.07179
1152.80886,0.08722
1151.31907,0.06092
1149.82928,0.09939
1148.33949,0.15564
1146.84970,0.15345
1145.35991,0.15130
1143.87013,0.13873
1142.38034,0.14500
1140.89055,0.14816
1139.40076,0.23489
1137.91097,0.24647
1136.42118,0.29150
1134.93140,0.31098
1133.44161,0.33049
1131.95182,0.45498
1130.46203,0.43122
1128.97224,0.50983
1127.48245,0.54566
1125.99266,0.54706
1124.50288,0.60070
1123.01309,0.60635
1121.52330,0.61202
1120.03351,0.59998
1118.54372,0.65062
1117.05393,0.71383
1115.56415,0.67996
1114.07436,0.73279
1112.58457,0.74701
1111.09478,0.76127
1109.60499,0.81315
1108.11520,0.82121
1106.62542,0.81260
1105.13563,0.88755
1103.64584,1.02205
1102.15605,1.08872
1100.66626,1.10634
1099.17647,1.12399
1097.68668,1.16987
1096.19690,1.21787
1094.70711,1.29410
1093.21732,1.32754
1091.72753,1.43620
1090.23774,1.41281
1088.74795,1.38944
1087.25817,1.43033
1085.76838,1.54747
1084.27859,1.59678
1082.78880,1.66282
1081.29901,1.68609
1079.80922,1.66344
1078.31943,1.70557
1076.82965,1.74773
1075.33986,1.84213
1073.85007,1.84050
1072.36028,1.76998
1070.87049,1.75902
1069.38070,1.89636
1067.89092,1.94133
1066.40113,1.98633
1064.91134,1.99011
1063.42155,1.82372
1061.93176,1.67930
1060.44197,1.62784
1058.95219,1.52525
1057.46240,1.48064
1055.97261,1.43606
1054.48282,1.28658
1052.99303,1.27810
1051.50324,1.16105
1050.01345,1.02001
1048.52367,1.01581
1047.03388,0.98761
1045.54409,0.95945
1044.05430,0.92297
1042.56451,0.80925
1041.07472,0.69243
1039.58494,0.59444
1038.09515,0.58733
1036.60536,0.58860
1035.11557,0.58990
1033.62578,0.50144
1032.13599,0.44329
1030.64620,0.40502
1029.15642,0.53280
1027.66663,0.48624
1026.17684,0.43971
1024.68705,0.60414
1023.19726,0.62450
1021.70747,0.72112
1020.21769,0.79585
1018.72790,0.99069
1017.23811,1.09890
1015.74832,1.20714
1014.25853,1.43654
1012.76874,1.62629
1011.27896,1.73567
1009.78917,1.84613
1008.29938,1.85533
1006.80959,1.85517
1005.31980,1.85504
1003.83001,1.70458
1002.34022,1.68989
1000.85044,1.70239
999.36065,1.53532
997.87086,1.48576
996.38107,1.43622
994.89128,1.43632
993.40149,1.50119
991.91171,1.46899
990.42192,1.49111
988.93213,1.59263
987.44234,1.58350
985.95255,1.57439
984.46276,1.54653
982.97297,1.45709
981.48319,1.40423
979.99340,1.43180
978.50361,1.39415
977.01382,1.35653
975.52403,1.25158
974.03424,1.09342
972.54446,1.16189
971.05467,1.10090
969.56488,1.12139
968.07509,1.06883
966.58530,1.01629
965.09551,0.95439
963.60573,0.95205
962.11594,0.85262
960.62615,0.89733
959.13636,0.83712
957.64657,0.77695
956.15678,0.68079
954.66699,0.71414
953.17721,0.73082
951.68742,0.71307
950.19763,0.68596
948.70784,0.65888
947.21805,0.71014
945.72826,0.72594
944.23848,0.71879
942.74869,0.73570
941.25890,0.80798
939.76911,0.86411
938.27932,0.92027
936.78953,1.05948
935.29974,0.97631
933.80996,0.97461
932.32017,1.02307
930.83038,1.03972
929.34059,1.05639
927.85080,0.99740
926.36101,0.99900
924.87123,1.00481
923.38144,1.05660
921.89165,1.05256
920.40186,1.04855
918.91207,1.03987
917.42228,1.11685
915.93250,1.10302
914.44271,1.09235
912.95292,1.11774
911.46313,1.14317
909.97334,1.10023
908.48355,1.17636
906.99376,1.25148
905.50398,1.21386
904.01419,1.21334
902.52440,1.21285
901.03461,1.17324
899.54482,1.34146
898.05503,1.23613
896.56525,1.36891
895.07546,1.36963
893.58567,1.37039
892.09588,1.22133
890.60609,1.17255
889.11630,1.22718
887.62651,1.19413
886.13673,1.21802
884.64694,1.24194
883.15715,1.19437
881.66736,1.29719
880.17757,1.33636
878.68778,1.32282
877.19800,1.30931
875.70821,1.31203
874.21842,1.34505
872.72863,1.40213
871.23884,1.41016
869.74905,1.43023
868.25927,1.45034
866.76948,1.45325
865.27969,1.51049
863.78990,1.53017
862.30011,1.47366
860.81032,1.46573
859.32053,1.45784
857.83075,1.40769
856.34096,1.32416
854.85117,1.31271
853.36138,1.16972
851.87159,1.11500
850.38180,1.06032
848.89202,0.90908
847.40223,0.74534
845.91244,0.72260
844.42265,0.71869
842.93286,0.71481
841.44307,0.62638
839.95329,0.48891
838.46350,0.36714
836.97371,0.39994
835.48392,0.40562
833.99413,0.41134
832.50434,0.47243
831.01455,0.51475
829.52477,0.46209
828.03498,0.41677
826.54519,0.37410
825.05540,0.33145
823.56561,0.32382
822.07582,0.34964
820.58604,0.27733
819.09625,0.25414
817.60646,0.23098
816.11667,0.16503
814.62688,0.17013
813.13709,0.13349
811.64730,0.09688
810.15752,0.09059
808.66773,0.08433
807.17794,0.00919
805.68815,0.11730
804.19836,0.06046
802.70857,0.10964
801.21879,0.15885
799.72900,0.18983
798.23921,0.33674
796.74942,0.40223
795.25963,0.44688
793.76984,0.49155
792.28006,0.60518
790.79027,0.66663
789.30048,0.73125
787.81069,0.77501
786.32090,0.75198
784.83111,0.72898
783.34132,0.77597
781.85154,0.84284
780.36175,0.82516
778.87196,0.86129
777.38217,0.89745
775.89238,0.91746
774.40259,0.90826
772.91281,0.99098
771.42302,1.01109
769.93323,1.03123
768.44344,1.09630
766.95365,0.94421
765.46386,0.98325
763.97407,0.91789
762.48429,0.86562
760.99450,0.81338
759.50471,0.76901
758.01492,0.64218
756.52513,0.58116
755.03534,0.49616
753.54556,0.41120
752.05577,0.30747
750.56598,0.21421
749.07619,0.19304
747.58640,0.17295
746.09661,0.15289
744.60683,0.13599
743.11704,0.04290
741.62725,0.09290
740.13746,0.08602
738.64767,0.07917
737.15788,0.06139
735.66809,0.00919
734.17831,0.06909
732.68852,0.10606
731.19873,0.14305
729.70894,0.07984
728.21915,0.04485
726.72936,0.03809
725.23958,0.03554
723.74979,0.08418
722.26000,0.13286
720.77021,0.10013
719.28042,0.05698
717.79063,0.03057
716.30084,0.01987
714.81106,0.00919
713.32127,0.05280
711.83148,0.03796
710.34169,0.07329
708.85190,0.09663
707.36211,0.12001
705.87233,0.03221
704.38254,0.02485
702.89275,0.06347
701.40296,0.06766
699.91317,0.07189
698.42338,0.13566
696.93360,0.20469
695.44381,0.24556
693.95402,0.23060
692.46423,0.21567
690.97444,0.29214
689.48465,0.27048
687.99486,0.29481
686.50508,0.30298
685.01529,0.31119
683.52550,0.37320
682.03571,0.33501
680.54592,0.37098
679.05613,0.36209
677.56635,0.35323
676.07656,0.31412
674.58677,0.24789
673.09698,0.24644
671.60719,0.22204
670.11740,0.19768
668.62761,0.11801
667.13783,0.06970
665.64804,0.07050
664.15825,0.07133
662.66846,0.02312
661.17867,0.08040
659.68888,0.08968
658.19910,0.11310
656.70931,0.13654
655.21952,0.09267
653.72973,0.12505
652.23994,0.12823
650.75015,0.11526
649.26037,0.10232
647.77058,0.12231
646.28079,0.06297
644.79100,0.09137
643.30121,0.07073
641.81142,0.05013
640.32163,0.08385
638.83185,0.05495
637.34206,0.03758
635.85227,0.02337
634.36248,0.00919
632.87269,0.05215
631.38290,0.05652
629.89312,0.04316
628.40333,0.04811
626.91354,0.05310
625.42375,0.06908
623.93396,0.05794
622.44417,0.05415
620.95438,0.05038
619.46460,0.06545
617.97481,0.09517
616.48502,0.07271
614.99523,0.08213
613.50544,0.09158
612.01565,0.07131
610.52587,0.11581
609.03608,0.16870
607.54629,0.16732
606.05650,0.16597
604.56671,0.12602
603.07692,0.15502
601.58714,0.16004
600.09735,0.16509
598.60756,0.12214
597.11777,0.01239
595.62798,0.09899
594.13819,0.09686
592.64840,0.09476
591.15862,0.11984
589.66883,0.09797
588.17904,0.08971
586.68925,0.09662
585.19946,0.10356
583.70967,0.16745
582.21989,0.16662
580.73010,0.14599
579.24031,0.12539
577.75052,0.08707
576.26073,0.02791
574.77094,0.12540
573.28115,0.16758
571.79137,0.20980
570.30158,0.23326
568.81179,0.25465
567.32200,0.27817
565.83221,0.30173
564.34242,0.37543
562.85264,0.45230
561.36285,0.55322
559.87306,0.50016
558.38327,0.44713
556.89348,0.52517
555.40369,0.55000
553.91391,0.54666
552.42412,0.54336
550.93433,0.63929
549.44454,0.65067
547.95475,0.69027
546.46496,0.71164
544.97517,0.73304
543.48539,0.67668
541.99560,0.91586
540.50581,0.87418
539.01602,0.83254
537.52623,0.74916
536.03644,0.78276
534.54666,0.80700
533.05687,0.77018
531.56708,0.73340
530.07729,0.77235
528.58750,0.76018
527.09771,0.71931
525.60792,0.67849
524.11814,0.67580
522.62835,0.68359
521.13856,0.55150
519.64877,0.57397
518.15898,0.59648
516.66919,0.53758
515.17941,0.54762
513.68962,0.55143
512.19983,0.55527
510.71004,0.53200
509.22025,0.52860
507.73046,0.52732
506.24068,0.53495
504.75089,0.54261
503.26110,0.58111
501.77131,0.58832
500.28152,0.55588
498.79173,0.52347
497.30194,0.47752
495.81216,0.62164
494.32237,0.67130
492.83258,0.72099
491.34279,0.59790
489.85300,0.56360
488.36321,0.54186
486.87343,0.48204
485.38364,0.42225
483.89385,0.34736
482.40406,0.28398
480.91427,0.26189
479.42448,0.23982
477.93469,0.19847
476.44491,0.12061
474.95512,0.09394
473.46533,0.06731
471.97554,0.07517
470.48575,0.11125
468.99596,0.05130
467.50618,0.04412
466.01639,0.03697
464.52660,0.01158
463.03681,0.00919
461.54702,0.02952
460.05723,0.04988
458.56745,0.00919
457.07766,0.07289
455.58787,0.09172
454.09808,0.11058
452.60829,0.22137
451.11850,0.17869
449.62871,0.19661
448.13893,0.21456
446.64914,0.29102
445.15935,0.38212
443.66956,0.44612
442.17977,0.52111
440.68998,0.59613
439.20020,0.63621
437.71041,0.68153
436.22062,0.78224
434.73083,0.88297
433.24104,1.08085
431.75125,1.32575
430.26146,1.31434
428.77168,1.30295
427.28189,1.47381
425.79210,1.60294
424.30231,1.56398
422.81252,1.52505
421.32273,1.46737
419.83295,1.34079
418.34316,1.26542
416.85337,1.19008
415.36358,0.96544
413.87379,0.84631
412.38400,0.84155
410.89422,0.83682
409.40443,0.75956
407.91464,0.80032
406.42485,0.69805
404.93506,0.68301
403.44527,0.66801
401.95548,0.64103
400.46570,0.60781
398.97591,0.61065
397.48612,0.61353
395.99633,0.60025
394.50654,0.65488
393.01675,0.65525
391.52697,0.65564
390.03718,0.53285
388.54739,0.47693
387.05760,0.52546
385.56781,0.57402
384.07802,0.59233
382.58824,0.57203
381.09845,0.53141
379.60866,0.49082
378.11887,0.46332
376.62908,0.33038
375.13929,0.29981
373.64950,0.26927
372.15972,0.28158
370.66993,0.23858
369.18014,0.23215
367.69035,0.22576
366.20056,0.16511
364.71077,0.10970
363.22099,0.12064
361.73120,0.13161
360.24141,0.18386
358.75162,0.19959
357.26183,0.16941
355.77204,0.13927
354.28225,0.05068
352.79247,0.13755
351.30268,0.11533
349.81289,0.09314
348.32310,0.12373
346.83331,0.02695
345.34352,0.06899
343.85374,0.11108
342.36395,0.14901
340.87416,0.16819
339.38437,0.16233
337.89458,0.15651
336.40479,0.03481
334.91501,0.10528
333.42522,0.09121
331.93543,0.07716
330.44564,0.12058
328.95585,0.09616
327.46606,0.07856
325.97627,0.06099
324.48649,0.07564
322.99670,0.14879
321.50691,0.11756
320.01712,0.08636
318.52733,0.11993
317.03754,0.03763
315.54776,0.02950
314.05797,0.02140
312.56818,0.03736
311.07839,0.01366
309.58860,0.01141
308.09881,0.00919
306.60902,0.05372
305.11924,0.06696
303.62945,0.04995
302.13966,0.02088
300.64987,0.00919
299.16008,0.00919
