1778.52000,0.09587
1777.03021,0.04255
1775.54042,0.02983
1774.05063,0.06081
1772.56085,0.06583
1771.07106,0.05010
1769.58127,0.08535
1768.09148,0.03850
1766.60169,0.00000
1765.11190,0.02809
1763.62212,0.00214
1762.13233,0.04694
1760.64254,0.03563
1759.15275,0.04308
1757.66296,0.03600
1756.17317,0.05079
1754.68339,0.05419
1753.19360,0.02539
1751.70381,0.03198
1750.21402,0.02197
1748.72423,0.03696
1747.23444,0.03223
1745.74465,0.03897
1744.25487,0.04783
1742.76508,0.10767
1741.27529,0.05838
1739.78550,0.03824
1738.29571,0.04205
1736.80592,0.04798
1735.31614,0.04250
1733.82635,0.02251
1732.33656,0.04727
1730.84677,0.08662
1729.35698,0.04283
1727.86719,0.03443
1726.37740,0.00214
1724.88762,0.01749
1723.39783,0.01312
1721.90804,0.01086
1720.41825,0.04192
1718.92846,0.05118
1717.43867,0.02512
1715.94889,0.01886
1714.45910,0.03447
1712.96931,0.05428
1711.47952,0.03877
1709.98973,0.06281
1708.49994,0.06401
1707.01016,0.06889
1705.52037,0.07381
1704.03058,0.08657
1702.54079,0.10976
1701.05100,0.13195
1699.56121,0.10634
1698.07142,0.07973
1696.58164,0.08644
1695.09185,0.13477
1693.60206,0.18418
1692.11227,0.17332
1690.62248,0.19889
1689.13269,0.20995
1687.64291,0.23975
1686.15312,0.23112
1684.66333,0.18510
1683.17354,0.15679
1681.68375,0.20338
1680.19396,0.18450
1678.70417,0.16463
1677.21439,0.20509
1675.72460,0.22896
1674.23481,0.18320
1672.74502,0.20091
1671.25523,0.19057
1669.76544,0.22187
1668.27566,0.20226
1666.78587,0.20972
1665.29608,0.16938
1663.80629,0.20083
1662.31650,0.20216
1660.82671,0.18169
1659.33693,0.22261
1657.84714,0.11176
1656.35735,0.17459
1654.86756,0.11892
1653.37777,0.13296
1651.88798,0.15951
1650.39819,0.10811
1648.90841,0.13162
1647.41862,0.12813
1645.92883,0.15639
1644.43904,0.18469
1642.94925,0.19691
1641.45946,0.24452
1639.96968,0.18195
1638.47989,0.13813
1636.99010,0.13698
1635.50031,0.17954
1634.01052,0.13168
1632.52073,0.11505
1631.03094,0.16812
1629.54116,0.17236
1628.05137,0.21303
1626.56158,0.15496
1625.07179,0.20299
1623.58200,0.21985
1622.09221,0.21908
1620.60243,0.20899
1619.11264,0.20206
1617.62285,0.20244
1616.13306,0.15919
1614.64327,0.14301
1613.15348,0.21837
1611.66370,0.21579
1610.17391,0.22052
1608.68412,0.17433
1607.19433,0.14067
1605.70454,0.12575
1604.21475,0.14831
1602.72496,0.17090
1601.23518,0.19458
1599.74539,0.21517
1598.25560,0.17757
1596.76581,0.13896
1595.27602,0.19398
1593.78623,0.15337
1592.29645,0.11800
1590.80666,0.12738
1589.31687,0.14616
1587.82708,0.11818
1586.33729,0.14223
1584.84750,0.14864
1583.35771,0.11245
1581.86793,0.11686
1580.37814,0.10779
1578.88835,0.11019
1577.39856,0.15630
1575.90877,0.09951
1574.41898,0.13010
1572.92920,0.09834
1571.43941,0.00214
1569.94962,0.02532
1568.45983,0.04853
1566.97004,0.06345
1565.48025,0.08986
1563.99047,0.07159
1562.50068,0.06583
1561.01089,0.06532
1559.52110,0.10227
1558.03131,0.11430
1556.54152,0.10350
1555.05173,0.10833
1553.56195,0.08617
1552.07216,0.09211
1550.58237,0.10538
1549.09258,0.06045
1547.60279,0.03116
1546.11300,0.06429
1544.62322,0.07562
1543.13343,0.05060
1541.64364,0.04329
1540.15385,0.06150
1538.66406,0.07974
1537.17427,0.06111
1535.68448,0.06747
1534.19470,0.05100
1532.70491,0.03664
1531.21512,0.03167
1529.72533,0.05690
1528.23554,0.03850
1526.74575,0.04508
1525.25597,0.06523
1523.76618,0.02822
1522.27639,0.04636
1520.78660,0.00214
1519.29681,0.01588
1517.80702,0.06500
1516.31724,0.04242
1514.82745,0.04066
1513.33766,0.02751
1511.84787,0.01440
1510.35808,0.02628
1508.86829,0.03092
1507.37850,0.04703
1505.88872,0.02367
1504.39893,0.06585
1502.90914,0.04881
1501.41935,0.08379
1499.92956,0.04498
1498.43977,0.07588
1496.94999,0.10889
1495.46020,0.14714
1493.97041,0.23742
1492.48062,0.25599
1490.99083,0.32659
1489.50104,0.37435
1488.01125,0.44658
1486.52147,0.51885
1485.03168,0.63743
1483.54189,0.67182
1482.05210,0.76760
1480.56231,0.86654
1479.07252,1.01023
1477.58274,1.18306
1476.09295,1.24884
1474.60316,1.33961
1473.11337,1.45433
1471.62358,1.52646
1470.13379,1.46657
1468.64401,1.30689
1467.15422,1.30531
1465.66443,1.24293
1464.17464,1.18059
1462.68485,1.15313
1461.19506,1.08826
1459.70527,1.05463
1458.21549,0.94201
1456.72570,0.92717
1455.23591,0.81255
1453.74612,0.84354
1452.25633,0.78098
1450.76654,0.77773
1449.27676,0.74125
1447.78697,0.69440
1446.29718,0.66942
1444.80739,0.59614
1443.31760,0.52289
1441.82781,0.43772
1440.33802,0.38898
1438.84824,0.33924
1437.35845,0.31034
1435.86866,0.29810
1434.37887,0.43460
1432.88908,0.38189
1431.39929,0.32818
1429.90951,0.33689
1428.41972,0.36228
1426.92993,0.38667
1425.44014,0.43293
1423.95035,0.43140
1422.46056,0.42990
1420.97078,0.43780
1419.48099,0.47590
1417.99120,0.41837
1416.50141,0.43470
1415.01162,0.43547
1413.52183,0.45812
1412.03204,0.44545
1410.54226,0.45569
1409.05247,0.45142
1407.56268,0.45966
1406.07289,0.48041
1404.58310,0.46273
1403.09331,0.44509
1401.60353,0.52938
1400.11374,0.49622
1398.62395,0.56188
1397.13416,0.60573
1395.64437,0.60595
1394.15458,0.70812
1392.66479,0.68138
1391.17501,0.68483
1389.68522,0.66337
1388.19543,0.62219
1386.70564,0.66527
1385.21585,0.70839
1383.72606,0.56958
1382.23628,0.53271
1380.74649,0.55826
1379.25670,0.57242
1377.76691,0.56270
1376.27712,0.68714
1374.78733,0.71285
1373.29755,0.79578
1371.80776,0.90891
1370.31797,0.90665
1368.82818,1.00321
1367.33839,1.09981
1365.84860,1.19333
1364.35881,1.42830
1362.86903,1.63003
1361.37924,1.69663
1359.88945,1.71335
1358.39966,1.87673
1356.90987,1.87689
1355.42008,1.75855
1353.93030,1.84197
1352.44051,1.81729
1350.95072,1.79265
1349.46093,1.66511
1347.97114,1.55112
1346.48135,1.24376
1344.99156,1.26606
1343.50178,1.13139
1342.01199,1.08306
1340.52220,1.00045
1339.03241,0.97819
1337.54262,0.97364
1336.05283,0.89947
1334.56305,0.82533
1333.07326,0.85417
1331.58347,0.83730
1330.09368,0.78823
1328.60389,0.72048
1327.11410,0.65797
1325.62432,0.66100
1324.13453,0.63080
1322.64474,0.68382
1321.15495,0.69320
1319.66516,0.65427
1318.17537,0.61538
1316.68558,0.66543
1315.19580,0.65105
1313.70601,0.63047
1312.21622,0.47060
1310.72643,0.47920
1309.23664,0.49409
1307.74685,0.46118
1306.25707,0.45223
1304.76728,0.48178
1303.27749,0.51138
1301.78770,0.46406
1300.29791,0.46670
1298.80812,0.52448
1297.31834,0.55422
1295.82855,0.46131
1294.33876,0.51816
1292.84897,0.57193
1291.35918,0.45002
1289.86939,0.47631
1288.37960,0.50264
1286.88982,0.50977
1285.40003,0.59597
1283.91024,0.56678
1282.42045,0.64369
1280.93066,0.54700
1279.44087,0.62606
1277.95109,0.59703
1276.46130,0.59922
1274.97151,0.63785
1273.48172,0.67652
1271.99193,0.57693
1270.50214,0.61255
1269.01235,0.68460
1267.52257,0.69638
1266.03278,0.69676
1264.54299,0.69718
1263.05320,0.74547
1261.56341,0.73712
1260.07362,0.72881
1258.58384,0.81673
1257.09405,0.80694
1255.60426,0.83254
1254.11447,0.82074
1252.62468,0.85369
1251.13489,0.78582
1249.64511,0.76894
1248.15532,0.59925
1246.66553,0.59700
1245.17574,0.59479
1243.68595,0.45432
1242.19616,0.51561
1240.70637,0.54055
1239.21659,0.48026
1237.72680,0.37010
1236.23701,0.35980
1234.74722,0.36305
1233.25743,0.34814
1231.76764,0.33327
1230.27786,0.32936
1228.78807,0.28805
1227.29828,0.35284
1225.80849,0.21074
1224.31870,0.13523
1222.82891,0.15022
1221.33912,0.21308
1219.84934,0.24686
1218.35955,0.28068
1216.86976,0.26359
1215.37997,0.31204
1213.89018,0.30959
1212.40039,0.22710
1210.91061,0.15297
1209.42082,0.12982
1207.93103,0.16235
1206.44124,0.19491
1204.95145,0.18748
1203.46166,0.05635
1201.97188,0.09474
1200.48209,0.14877
1198.99230,0.02503
1197.50251,0.05002
1196.01272,0.01474
1194.52293,0.04032
1193.03314,0.06594
1191.54336,0.01102
1190.05357,0.03100
1188.56378,0.00214
1187.07399,0.05278
1185.58420,0.01715
1184.09441,0.01171
1182.60463,0.00786
1181.11484,0.00406
1179.62505,0.02513
1178.13526,0.03375
1176.64547,0.02786
1175.15568,0.06464
1173.66589,0.05882
1172.17611,0.05928
1170.68632,0.06758
1169.19653,0.07591
1167.70674,0.07961
1166.21695,0.04694
1164.72716,0.09646
1163.23738,0.04308
1161.74759,0.06044
1160.25780,0.07680
1158.76801,0.10411
1157.27822,0.13146
1155.78843,0.08763
1154.29865,0.09998
1152.80886,0.00214
1151.31907,0.09098
1149.82928,0.18298
1148.33949,0.15128
1146.84970,0.11754
1145.35991,0.08383
1143.87013,0.09383
1142.38034,0.15795
1140.89055,0.16075
1139.40076,0.16150
1137.91097,0.26940
1136.42118,0.23904
1134.93140,0.27526
1133.44161,0.31153
1131.95182,0.41333
1130.46203,0.49646
1128.97224,0.48397
1127.48245,0.55677
1125.99266,0.47261
1124.50288,0.55277
1123.01309,0.58046
1121.52330,0.60818
1120.03351,0.63542
1118.54372,0.66998
1117.05393,0.67859
1115.56415,0.72258
1114.07436,0.64391
1112.58457,0.65575
1111.09478,0.66762
1109.60499,0.73256
1108.11520,0.73203
1106.62542,0.76169
1105.13563,0.93072
1103.64584,1.01141
1102.15605,1.14413
1100.66626,1.11623
1099.17647,1.08837
1097.68668,1.15049
1096.19690,1.14922
1094.70711,1.21662
1093.21732,1.25702
1091.72753,1.32241
1090.23774,1.32129
1088.74795,1.32021
1087.25817,1.50841
1085.76838,1.39199
1084.27859,1.56051
1082.78880,1.69788
1081.29901,1.67411
1079.80922,1.72524
1078.31943,1.72703
1076.82965,1.72885
1075.33986,1.79258
1073.85007,1.76692
1072.36028,1.78809
1070.87049,1.87272
1069.38070,1.93764
1067.89092,1.96880
1066.40113,2.00000
1064.91134,1.84563
1063.42155,1.70170
1061.93176,1.63059
1060.44197,1.60215
1058.95219,1.48017
1057.46240,1.41697
1055.97261,1.35381
1054.48282,1.26522
1052.99303,1.22865
1051.50324,1.08086
1050.01345,1.09116
1048.52367,0.94760
1047.03388,0.95381
1045.54409,0.96007
1044.05430,0.89669
1042.56451,0.81359
1041.07472,0.77628
1039.58494,0.68078
1038.09515,0.54373
1036.60536,0.55853
1035.11557,0.57336
1033.62578,0.56744
1032.13599,0.40142
1030.64620,0.44964
1029.15642,0.50102
1027.66663,0.48172
1026.17684,0.46247
1024.68705,0.46717
1023.19726,0.49270
1021.70747,0.67112
1020.21769,0.65618
1018.72790,0.79412
1017.23811,0.87804
1015.74832,0.96199
1014.25853,1.20922
1012.76874,1.27453
1011.27896,1.47297
1009.78917,1.64026
1008.29938,1.55907
1006.80959,1.51483
1005.31980,1.47062
1003.83001,1.44050
1002.34022,1.32307
1000.85044,1.25558
999.36065,1.13926
997.87086,1.11085
996.38107,1.08247
994.89128,1.20750
993.40149,1.20987
991.91171,1.15613
990.42192,1.23656
988.93213,1.19537
987.44234,1.18542
985.95255,1.17550
984.46276,1.15418
982.97297,1.13602
981.48319,1.08254
979.99340,1.17259
978.50361,1.18418
977.01382,1.19580
975.52403,1.07593
974.03424,1.02992
972.54446,0.96939
971.05467,0.92969
969.56488,0.84116
968.07509,0.84417
966.58530,0.84722
965.09551,0.85863
963.60573,0.80456
962.11594,0.77861
960.62615,0.73190
959.13636,0.67171
957.64657,0.61156
956.15678,0.60135
954.66699,0.55063
953.17721,0.62161
951.68742,0.62919
950.19763,0.61914
948.70784,0.60912
947.21805,0.64593
945.72826,0.61624
944.23848,0.66976
942.74869,0.75764
941.25890,0.77276
939.76911,0.87267
938.27932,0.97262
936.78953,0.94834
935.29974,0.93347
933.80996,0.84480
932.32017,0.95166
930.83038,0.94989
929.34059,0.94817
927.85080,1.00314
926.36101,0.90427
924.87123,0.85534
923.38144,0.92395
921.89165,0.98532
920.40186,1.04673
918.91207,1.11753
917.42228,1.12078
915.93250,1.13239
914.44271,1.12220
912.95292,1.12348
911.46313,1.12481
909.97334,1.30085
908.48355,1.31577
906.99376,1.39831
905.50398,1.24174
904.01419,1.26196
902.52440,1.28223
901.03461,1.26302
899.54482,1.42581
898.05503,1.35989
896.56525,1.45933
895.07546,1.50838
893.58567,1.55747
892.09588,1.37107
890.60609,1.31262
889.11630,1.34674
887.62651,1.28524
886.13673,1.28096
884.64694,1.27672
883.15715,1.35883
881.66736,1.35675
880.17757,1.29231
878.68778,1.27055
877.19800,1.24882
875.70821,1.21674
874.21842,1.30843
872.72863,1.37000
871.23884,1.32659
869.74905,1.31493
868.25927,1.30331
866.76948,1.31512
865.27969,1.38624
863.78990,1.33678
862.30011,1.31335
860.81032,1.33935
859.32053,1.36538
857.83075,1.15802
856.34096,1.16386
854.85117,1.09591
853.36138,1.03111
851.87159,0.93152
850.38180,0.83197
848.89202,0.73610
847.40223,0.55291
845.91244,0.58501
844.42265,0.54436
842.93286,0.50374
841.44307,0.51307
839.95329,0.38207
838.46350,0.28230
836.97371,0.36245
835.48392,0.35790
833.99413,0.35338
832.50434,0.32759
831.01455,0.40477
829.52477,0.41025
828.03498,0.30450
826.54519,0.29237
825.05540,0.28029
823.56561,0.27135
822.07582,0.26454
820.58604,0.18498
819.09625,0.12677
817.60646,0.06860
816.11667,0.09105
814.62688,0.04699
813.13709,0.04976
811.64730,0.06088
810.15752,0.03150
808.66773,0.00214
807.17794,0.03269
805.68815,0.04767
804.19836,0.05022
802.70857,0.04240
801.21879,0.03463
799.72900,0.05600
798.23921,0.22507
796.74942,0.27043
795.25963,0.32363
793.76984,0.37687
792.28006,0.45666
790.79027,0.54273
789.30048,0.64547
787.81069,0.57357
786.32090,0.63168
784.83111,0.68982
783.34132,0.70121
781.85154,0.77919
780.36175,0.70955
778.87196,0.72625
777.38217,0.74299
775.89238,0.71090
774.40259,0.77139
772.91281,0.87247
771.42302,0.88884
769.93323,0.90525
768.44344,0.91701
766.95365,0.86331
765.46386,0.99785
763.97407,0.87768
762.48429,0.80797
760.99450,0.73830
759.50471,0.65360
758.01492,0.55541
756.52513,0.47910
755.03534,0.38306
753.54556,0.28707
752.05577,0.19111
750.56598,0.16382
749.07619,0.16880
747.58640,0.14886
746.09661,0.12896
744.60683,0.09350
743.11704,0.06016
741.62725,0.11835
740.13746,0.08716
738.64767,0.05601
737.15788,0.04466
735.66809,0.00214
734.17831,0.06460
732.68852,0.05534
731.19873,0.04612
729.70894,0.06397
728.21915,0.01427
726.72936,0.07275
725.23958,0.02105
723.74979,0.03334
722.26000,0.04566
720.77021,0.05854
719.28042,0.00491
717.79063,0.04797
716.30084,0.02504
714.81106,0.00214
713.32127,0.00492
711.83148,0.08884
710.34169,0.07401
708.85190,0.07898
707.36211,0.08399
705.87233,0.03184
704.38254,0.03380
702.89275,0.09611
701.40296,0.09555
699.91317,0.09503
698.42338,0.13665
696.93360,0.18247
695.44381,0.09628
693.95402,0.13022
692.46423,0.16419
690.97444,0.22368
689.48465,0.22394
687.99486,0.27727
686.50508,0.29268
685.01529,0.30813
683.52550,0.34909
682.03571,0.29963
680.54592,0.30843
679.05613,0.29492
677.56635,0.28144
676.07656,0.35587
674.58677,0.18182
673.09698,0.23240
671.60719,0.21595
670.11740,0.19955
668.62761,0.12235
667.13783,0.07638
665.64804,0.06996
664.15825,0.06359
662.66846,0.05204
661.17867,0.11853
659.68888,0.10706
658.19910,0.13931
656.70931,0.17159
655.21952,0.14984
653.72973,0.10005
652.23994,0.04614
650.75015,0.08897
649.26037,0.13184
647.77058,0.15291
646.28079,0.04197
644.79100,0.10470
643.30121,0.06714
641.81142,0.02961
640.32163,0.14237
638.83185,0.03265
637.34206,0.04983
635.85227,0.02597
634.36248,0.00214
632.87269,0.01782
631.38290,0.07305
629.89312,0.07320
628.40333,0.07963
626.91354,0.08610
625.42375,0.12380
623.93396,0.10954
622.44417,0.09221
620.95438,0.07491
619.46460,0.05869
617.97481,0.11114
616.48502,0.12931
614.99523,0.16571
613.50544,0.20215
612.01565,0.12789
610.52587,0.00896
609.03608,0.12818
607.54629,0.13722
606.05650,0.14629
604.56671,0.20635
603.07692,0.11360
601.58714,0.13319
600.09735,0.15281
598.60756,0.11840
597.11777,0.12355
595.62798,0.09441
594.13819,0.06064
592.64840,0.02690
591.15862,0.03843
589.66883,0.05312
588.17904,0.06473
586.68925,0.05037
585.19946,0.03606
583.70967,0.20063
582.21989,0.09801
580.73010,0.09681
579.24031,0.09564
577.75052,0.11687
576.26073,0.08823
574.77094,0.12201
573.28115,0.17870
571.79137,0.23544
570.30158,0.25893
568.81179,0.28351
567.32200,0.25249
565.83221,0.22151
564.34242,0.22436
562.85264,0.34163
561.36285,0.36535
559.87306,0.41563
558.38327,0.46594
556.89348,0.45338
555.40369,0.50637
553.91391,0.51832
552.42412,0.53031
550.93433,0.66556
549.44454,0.63447
547.95475,0.64294
546.46496,0.66340
544.97517,0.68389
543.48539,0.74654
541.99560,0.82794
540.50581,0.80332
539.01602,0.77874
537.52623,0.71052
536.03644,0.73696
534.54666,0.71561
533.05687,0.73069
531.56708,0.74581
530.07729,0.70482
528.58750,0.74393
527.09771,0.73940
525.60792,0.73491
524.11814,0.75854
522.62835,0.83523
521.13856,0.69568
519.64877,0.65859
518.15898,0.62154
516.66919,0.68902
515.17941,0.56002
513.68962,0.57403
512.19983,0.58808
510.71004,0.53510
509.22025,0.56742
507.73046,0.58106
506.24068,0.62749
504.75089,0.67396
503.26110,0.63468
501.77131,0.65264
500.28152,0.63579
498.79173,0.61898
497.30194,0.58922
495.81216,0.67906
494.32237,0.71644
492.83258,0.75385
491.34279,0.64937
489.85300,0.52205
488.36321,0.51227
486.87343,0.51968
485.38364,0.52712
483.89385,0.40931
482.40406,0.32273
480.91427,0.28558
479.42448,0.24847
477.93469,0.12873
476.44491,0.14732
474.95512,0.14099
473.46533,0.13471
471.97554,0.11598
470.48575,0.05153
468.99596,0.10047
467.50618,0.07821
466.01639,0.05600
464.52660,0.04889
463.03681,0.01375
461.54702,0.07899
460.05723,0.14427
458.56745,0.00214
457.07766,0.03676
455.58787,0.10573
454.09808,0.17473
452.60829,0.29473
451.11850,0.24631
449.62871,0.24680
448.13893,0.24733
446.64914,0.33420
445.15935,0.49701
443.66956,0.56836
442.17977,0.52693
440.68998,0.48553
439.20020,0.68905
437.71041,0.71168
436.22062,0.78685
434.73083,0.86207
433.24104,1.13228
431.75125,1.22161
430.26146,1.29537
428.77168,1.36918
427.28189,1.50437
425.79210,1.50754
424.30231,1.48424
422.81252,1.46097
421.32273,1.41955
419.83295,1.24611
418.34316,1.16005
416.85337,1.07402
415.36358,1.07330
413.87379,0.98839
412.38400,0.94043
410.89422,0.89251
409.40443,0.77653
407.91464,0.81031
406.42485,0.69647
404.93506,0.67834
403.44527,0.66024
401.95548,0.64114
400.46570,0.70630
398.97591,0.69716
397.48612,0.68805
395.99633,0.66182
394.50654,0.70218
393.01675,0.70930
391.52697,0.71646
390.03718,0.55521
388.54739,0.43247
387.05760,0.49537
385.56781,0.55831
384.07802,0.62597
382.58824,0.60008
381.09845,0.57371
379.60866,0.54738
378.11887,0.50704
376.62908,0.40436
375.13929,0.40518
373.64950,0.40603
372.15972,0.36585
370.66993,0.37873
369.18014,0.32615
367.69035,0.27360
366.20056,0.26893
364.71077,0.19982
363.22099,0.23057
361.73120,0.26136
360.24141,0.31714
358.75162,0.26898
357.26183,0.23333
355.77204,0.19772
354.28225,0.27757
352.79247,0.18277
351.30268,0.17535
349.81289,0.16797
348.32310,0.14086
346.83331,0.08573
345.34352,0.13963
343.85374,0.19358
342.36395,0.16957
340.87416,0.14041
339.38437,0.10556
337.89458,0.07076
336.40479,0.13425
334.91501,0.11459
333.42522,0.09341
331.93543,0.07227
330.44564,0.20038
328.95585,0.17672
327.46606,0.14893
325.97627,0.12119
324.48649,0.12458
322.99670,0.19871
321.50691,0.23129
320.01712,0.26391
318.52733,0.32672
317.03754,0.20136
315.54776,0.16598
314.05797,0.13064
312.56818,0.14785
311.07839,0.08088
309.58860,0.04149
308.09881,0.00214
306.60902,0.12155
305.11924,0.12557
303.62945,0.07921
302.13966,0.00912
300.64987,0.02277
299.16008,0.00214
