1778.52000,0.06956
1777.03021,0.08448
1775.54042,0.06334
1774.05063,0.04806
1772.56085,0.03281
1771.07106,0.03390
1769.58127,0.05948
1768.09148,0.00358
1766.60169,0.03855
1765.11190,0.04793
1763.62212,0.05502
1762.13233,0.06680
1760.64254,0.06348
1759.15275,0.08232
1757.66296,0.08257
1756.17317,0.05839
1754.68339,0.06919
1753.19360,0.02994
1751.70381,0.06410
1750.21402,0.04821
1748.72423,0.01722
1747.23444,0.04101
1745.74465,0.04270
1744.25487,0.05607
1742.76508,0.04968
1741.27529,0.01421
1739.78550,0.08009
1738.29571,0.06565
1736.80592,0.03728
1735.31614,0.02175
1733.82635,0.03420
1732.33656,0.04785
1730.84677,0.02661
1729.35698,0.06828
1727.86719,0.02963
1726.37740,0.00616
1724.88762,0.01650
1723.39783,0.00358
1721.90804,0.05786
1720.41825,0.07374
1718.92846,0.08268
1717.43867,0.07068
1715.94889,0.07736
1714.45910,0.04680
1712.96931,0.12109
1711.47952,0.09293
1709.98973,0.11023
1708.49994,0.07632
1707.01016,0.10999
1705.52037,0.14370
1704.03058,0.11921
1702.54079,0.12504
1701.05100,0.13556
1699.56121,0.17290
1698.07142,0.16486
1696.58164,0.18131
1695.09185,0.19663
1693.60206,0.18520
1692.11227,0.19826
1690.62248,0.19273
1689.13269,0.22798
1687.64291,0.22951
1686.15312,0.20894
1684.66333,0.24314
1683.17354,0.25175
1681.68375,0.21382
1680.19396,0.23648
1678.70417,0.23356
1677.21439,0.26560
1675.72460,0.25926
1674.23481,0.21568
1672.74502,0.26064
1671.25523,0.26721
1669.76544,0.31108
1668.27566,0.29909
1666.78587,0.23472
1665.29608,0.25075
1663.80629,0.29243
1662.31650,0.23283
1660.82671,0.21053
1659.33693,0.24417
1657.84714,0.21146
1656.35735,0.18344
1654.86756,0.19389
1653.37777,0.16245
1651.88798,0.14503
1650.39819,0.15325
1648.90841,0.18015
1647.41862,0.16865
1645.92883,0.16126
1644.43904,0.15391
1642.94925,0.17861
1641.45946,0.21617
1639.96968,0.15943
1638.47989,0.14930
1636.99010,0.17997
1635.50031,0.15012
1634.01052,0.17970
1632.52073,0.16040
1631.03094,0.16792
1629.54116,0.19761
1628.05137,0.24246
1626.56158,0.21632
1625.07179,0.21816
1623.58200,0.20489
1622.09221,0.26270
1620.60243,0.25184
1619.11264,0.21772
1617.62285,0.20227
1616.13306,0.19617
1614.64327,0.18311
1613.15348,0.14797
1611.66370,0.19787
1610.17391,0.17561
1608.68412,0.17318
1607.19433,0.13934
1605.70454,0.12534
1604.21475,0.12534
1602.72496,0.12538
1601.23518,0.13477
1599.74539,0.16749
1598.25560,0.17346
1596.76581,0.11774
1595.27602,0.13077
1593.78623,0.12287
1592.29645,0.05095
1590.80666,0.09087
1589.31687,0.08191
1587.82708,0.05435
1586.33729,0.05129
1584.84750,0.12978
1583.35771,0.06739
1581.86793,0.05395
1580.37814,0.07548
1578.88835,0.08424
1577.39856,0.05693
1575.90877,0.06692
1574.41898,0.00358
1572.92920,0.07037
1571.43941,0.07664
1569.94962,0.07013
1568.45983,0.06366
1566.97004,0.02113
1565.48025,0.02055
1563.99047,0.01302
1562.50068,0.06026
1561.01089,0.04233
1559.52110,0.06518
1558.03131,0.04033
1556.54152,0.11566
1555.05173,0.07573
1553.56195,0.05331
1552.07216,0.11361
1550.58237,0.06797
1549.09258,0.08525
1547.60279,0.09092
1546.11300,0.09662
1544.62322,0.12216
1543.13343,0.08485
1541.64364,0.08600
1540.15385,0.05982
1538.66406,0.03368
1537.17427,0.04425
1535.68448,0.04555
1534.19470,0.02941
1532.70491,0.03194
1531.21512,0.04498
1529.72533,0.07670
1528.23554,0.00131
1526.74575,0.02788
1525.25597,0.08942
1523.76618,0.08229
1522.27639,0.06821
1520.78660,0.04718
1519.29681,0.00522
1517.80702,0.03890
1516.31724,0.04001
1514.82745,0.05746
1513.33766,0.05515
1511.84787,0.05287
1510.35808,0.07159
1508.86829,0.00533
1507.37850,0.00432
1505.88872,0.07322
1504.39893,0.00358
1502.90914,0.02567
1501.41935,0.07341
1499.92956,0.04200
1498.43977,0.12941
1496.94999,0.11903
1495.46020,0.26007
1493.97041,0.26723
1492.48062,0.33965
1490.99083,0.33989
1489.50104,0.47293
1488.01125,0.52797
1486.52147,0.58306
1485.03168,0.74299
1483.54189,0.75971
1482.05210,0.94183
1480.56231,0.95746
1479.07252,1.23050
1477.58274,1.34402
1476.09295,1.42380
1474.60316,1.47218
1473.11337,1.63239
1471.62358,1.57487
1470.13379,1.58143
1468.64401,1.46574
1467.15422,1.38154
1465.66443,1.36841
1464.17464,1.35531
1462.68485,1.32129
1461.19506,1.25702
1459.70527,1.19628
1458.21549,1.07968
1456.72570,0.99922
1455.23591,0.85590
1453.74612,0.93505
1452.25633,0.86751
1450.76654,0.78369
1449.27676,0.74067
1447.78697,0.73145
1446.29718,0.71179
1444.80739,0.63860
1443.31760,0.56544
1441.82781,0.48183
1440.33802,0.37381
1438.84824,0.40673
1437.35845,0.32090
1435.86866,0.35972
1434.37887,0.35315
1432.88908,0.39786
1431.39929,0.38670
1429.90951,0.24981
1428.41972,0.39477
1426.92993,0.41983
1425.44014,0.42744
1423.95035,0.44500
1422.46056,0.46259
1420.97078,0.41558
1419.48099,0.39422
1417.99120,0.41483
1416.50141,0.44129
1415.01162,0.41888
1413.52183,0.49083
1412.03204,0.43937
1410.54226,0.47995
1409.05247,0.36801
1407.56268,0.40051
1406.07289,0.37015
1404.58310,0.40331
1403.09331,0.43649
1401.60353,0.40159
1400.11374,0.44474
1398.62395,0.39943
1397.13416,0.42751
1395.64437,0.40672
1394.15458,0.41741
1392.66479,0.47006
1391.17501,0.45403
1389.68522,0.49278
1388.19543,0.43490
1386.70564,0.41490
1385.21585,0.39494
1383.72606,0.38608
1382.23628,0.37027
1380.74649,0.29626
1379.25670,0.34457
1377.76691,0.40572
1376.27712,0.42499
1374.78733,0.43614
1373.29755,0.45896
1371.80776,0.60527
1370.31797,0.61885
1368.82818,0.68255
1367.33839,0.74628
1365.84860,0.80305
1364.35881,0.95419
1362.86903,0.94932
1361.37924,1.02600
1359.88945,1.13649
1358.39966,1.12357
1356.90987,1.22598
1355.42008,1.20963
1353.93030,1.26436
1352.44051,1.24926
1350.95072,1.23418
1349.46093,1.27854
1347.97114,1.03179
1346.48135,0.91900
1344.99156,0.85399
1343.50178,0.82512
1342.01199,0.75087
1340.52220,0.73139
1339.03241,0.68515
1337.54262,0.67622
1336.05283,0.64520
1334.56305,0.61421
1333.07326,0.58442
1331.58347,0.54419
1330.09368,0.53194
1328.60389,0.52322
1327.11410,0.48076
1325.62432,0.49074
1324.13453,0.49494
1322.64474,0.56671
1321.15495,0.47549
1319.66516,0.42797
1318.17537,0.38048
1316.68558,0.46055
1315.19580,0.46146
1313.70601,0.43213
1312.21622,0.38770
1310.72643,0.32350
1309.23664,0.38861
1307.74685,0.38038
1306.25707,0.32794
1304.76728,0.36636
1303.27749,0.40483
1301.78770,0.31639
1300.29791,0.28970
1298.80812,0.36437
1297.31834,0.38667
1295.82855,0.38804
1294.33876,0.42090
1292.84897,0.47940
1291.35918,0.38422
1289.86939,0.40495
1288.37960,0.42571
1286.88982,0.44244
1285.40003,0.52441
1283.91024,0.50976
1282.42045,0.52659
1280.93066,0.53880
1279.44087,0.54638
1277.95109,0.48529
1276.46130,0.51740
1274.97151,0.52975
1273.48172,0.54213
1271.99193,0.59997
1270.50214,0.60893
1269.01235,0.61327
1267.52257,0.65141
1266.03278,0.68377
1264.54299,0.75342
1263.05320,0.74043
1261.56341,0.76125
1260.07362,0.78210
1258.58384,0.79368
1257.09405,0.73075
1255.60426,0.80062
1254.11447,0.83908
1252.62468,0.70639
1251.13489,0.78801
1249.64511,0.73341
1248.15532,0.65905
1246.66553,0.56959
1245.17574,0.48016
1243.68595,0.55148
1242.19616,0.47144
1240.70637,0.42870
1239.21659,0.42908
1237.72680,0.43533
1236.23701,0.33680
1234.74722,0.34660
1233.25743,0.35062
1231.76764,0.35468
1230.27786,0.32150
1228.78807,0.28370
1227.29828,0.25875
1225.80849,0.22102
1224.31870,0.19614
1222.82891,0.22952
1221.33912,0.23848
1219.84934,0.22884
1218.35955,0.21924
1216.86976,0.20850
1215.37997,0.25836
1213.89018,0.21510
1212.40039,0.16022
1210.91061,0.15545
1209.42082,0.18100
1207.93103,0.17630
1206.44124,0.17164
1204.95145,0.16934
1203.46166,0.10303
1201.97188,0.06237
1200.48209,0.10443
1198.99230,0.05918
1197.50251,0.00000
1196.01272,0.02004
1194.52293,0.03837
1193.03314,0.05673
1191.54336,0.09435
1190.05357,0.00273
1188.56378,0.02115
1187.07399,0.00350
1185.58420,0.00358
1184.09441,0.02401
1182.60463,0.02177
1181.11484,0.01956
1179.62505,0.00633
1178.13526,0.05368
1176.64547,0.00442
1175.15568,0.04486
1173.66589,0.02012
1172.17611,0.00939
1170.68632,0.01442
1169.19653,0.01948
1167.70674,0.01002
1166.21695,0.01108
1164.72716,0.02498
1163.23738,0.00864
1161.74759,0.00981
1160.25780,0.01916
1158.76801,0.02097
1157.27822,0.02282
1155.78843,0.00550
1154.29865,0.01615
1152.80886,0.02219
1151.31907,0.02010
1149.82928,0.14732
1148.33949,0.09407
1146.84970,0.07870
1145.35991,0.06336
1143.87013,0.05098
1142.38034,0.15391
1140.89055,0.14858
1139.40076,0.15028
1137.91097,0.21839
1136.42118,0.31564
1134.93140,0.36693
1133.44161,0.41826
1131.95182,0.39568
1130.46203,0.45464
1128.97224,0.49734
1127.48245,0.54241
1125.99266,0.55723
1124.50288,0.48707
1123.01309,0.55378
1121.52330,0.62053
1120.03351,0.72866
1118.54372,0.68659
1117.05393,0.70279
1115.56415,0.69690
1114.07436,0.73296
1112.58457,0.74344
1111.09478,0.75396
1109.60499,0.73539
1108.11520,0.73666
1106.62542,0.79037
1105.13563,0.96756
1103.64584,1.06792
1102.15605,1.16017
1100.66626,1.14939
1099.17647,1.13864
1097.68668,1.23216
1096.19690,1.22905
1094.70711,1.22947
1093.21732,1.36968
1091.72753,1.40976
1090.23774,1.39690
1088.74795,1.38407
1087.25817,1.48832
1085.76838,1.56698
1084.27859,1.59094
1082.78880,1.76749
1081.29901,1.69603
1079.80922,1.68981
1078.31943,1.72731
1076.82965,1.76484
1075.33986,1.87985
1073.85007,1.85631
1072.36028,1.78855
1070.87049,1.85708
1069.38070,1.93031
1067.89092,1.96514
1066.40113,2.00000
1064.91134,1.86837
1063.42155,1.82412
1061.93176,1.71002
1060.44197,1.55753
1058.95219,1.54716
1057.46240,1.49315
1055.97261,1.43917
1054.48282,1.39979
1052.99303,1.26494
1051.50324,1.24310
1050.01345,1.15491
1048.52367,1.04230
1047.03388,1.03919
1045.54409,1.03612
1044.05430,0.95855
1042.56451,0.80882
1041.07472,0.69755
1039.58494,0.70859
1038.09515,0.68474
1036.60536,0.62889
1035.11557,0.57308
1033.62578,0.60989
1032.13599,0.44759
1030.64620,0.50543
1029.15642,0.57611
1027.66663,0.54260
1026.17684,0.50913
1024.68705,0.49724
1023.19726,0.60882
1021.70747,0.77285
1020.21769,0.76106
1018.72790,0.89953
1017.23811,1.03164
1015.74832,1.16378
1014.25853,1.24530
1012.76874,1.42700
1011.27896,1.64135
1009.78917,1.67523
1008.29938,1.62529
1006.80959,1.66681
1005.31980,1.70836
1003.83001,1.58633
1002.34022,1.56681
1000.85044,1.40409
999.36065,1.36135
997.87086,1.34951
996.38107,1.33771
994.89128,1.37077
993.40149,1.57390
991.91171,1.55929
990.42192,1.52492
988.93213,1.55113
987.44234,1.57390
985.95255,1.59669
984.46276,1.51355
982.97297,1.59697
981.48319,1.54069
979.99340,1.48210
978.50361,1.52895
977.01382,1.57583
975.52403,1.49406
974.03424,1.39370
972.54446,1.21651
971.05467,1.25713
969.56488,1.26401
968.07509,1.23075
966.58530,1.19752
965.09551,1.21033
963.60573,1.08692
962.11594,1.14522
960.62615,0.99742
959.13636,0.95331
957.64657,0.90923
956.15678,0.88732
954.66699,0.86893
953.17721,0.85174
951.68742,0.85555
950.19763,0.88386
948.70784,0.91219
947.21805,0.85904
945.72826,0.80244
944.23848,0.88911
942.74869,0.94088
941.25890,0.96590
939.76911,1.04278
938.27932,1.11969
936.78953,1.15995
935.29974,1.18628
933.80996,1.04145
932.32017,1.21458
930.83038,1.21597
929.34059,1.21740
927.85080,1.23109
926.36101,1.14583
924.87123,1.10719
923.38144,1.20367
921.89165,1.21226
920.40186,1.22089
918.91207,1.30816
917.42228,1.36984
915.93250,1.35470
914.44271,1.33028
912.95292,1.34607
911.46313,1.36190
909.97334,1.36204
908.48355,1.42860
906.99376,1.41134
905.50398,1.39295
904.01419,1.40895
902.52440,1.42499
901.03461,1.41137
899.54482,1.48396
898.05503,1.54610
896.56525,1.62226
895.07546,1.58956
893.58567,1.55690
892.09588,1.40141
890.60609,1.48004
889.11630,1.43060
887.62651,1.38235
886.13673,1.37607
884.64694,1.36982
883.15715,1.36245
881.66736,1.41916
880.17757,1.39904
878.68778,1.43195
877.19800,1.46489
875.70821,1.42508
874.21842,1.48546
872.72863,1.54122
871.23884,1.43863
869.74905,1.45603
868.25927,1.47346
866.76948,1.51771
865.27969,1.65516
863.78990,1.59351
862.30011,1.60177
860.81032,1.60657
859.32053,1.61140
857.83075,1.48235
856.34096,1.38710
854.85117,1.32100
853.36138,1.15595
851.87159,1.08585
850.38180,1.01578
848.89202,0.91372
847.40223,0.67661
845.91244,0.73417
844.42265,0.68171
842.93286,0.62928
841.44307,0.57981
839.95329,0.56297
838.46350,0.49726
836.97371,0.47351
835.48392,0.48066
833.99413,0.48784
832.50434,0.41062
831.01455,0.56752
829.52477,0.51017
828.03498,0.50760
826.54519,0.47652
825.05540,0.44548
823.56561,0.33587
822.07582,0.38002
820.58604,0.27630
819.09625,0.23726
817.60646,0.19824
816.11667,0.13423
814.62688,0.13430
813.13709,0.06686
811.64730,0.00877
810.15752,0.02059
808.66773,0.03245
807.17794,0.00358
805.68815,0.05344
804.19836,0.09402
802.70857,0.12473
801.21879,0.15548
799.72900,0.19034
798.23921,0.24620
796.74942,0.38245
795.25963,0.39878
793.76984,0.41515
792.28006,0.52239
790.79027,0.70769
789.30048,0.77075
787.81069,0.72554
786.32090,0.72345
784.83111,0.72140
783.34132,0.84049
781.85154,0.83036
780.36175,0.76669
778.87196,0.79040
777.38217,0.81415
775.89238,0.85772
774.40259,0.87455
772.91281,0.99972
771.42302,0.97469
769.93323,0.94970
768.44344,0.96201
766.95365,1.00231
765.46386,0.96578
763.97407,0.95840
762.48429,0.89457
760.99450,0.83078
759.50471,0.71520
758.01492,0.62644
756.52513,0.53772
755.03534,0.46475
753.54556,0.39182
752.05577,0.27293
750.56598,0.23791
749.07619,0.16567
747.58640,0.14412
746.09661,0.12261
744.60683,0.09356
743.11704,0.08900
741.62725,0.10893
740.13746,0.09222
738.64767,0.07554
737.15788,0.00358
735.66809,0.05308
734.17831,0.09447
732.68852,0.08349
731.19873,0.07255
729.70894,0.08144
728.21915,0.04960
726.72936,0.09349
725.23958,0.10249
723.74979,0.12957
722.26000,0.15668
720.77021,0.07495
719.28042,0.09223
717.79063,0.00358
716.30084,0.04293
714.81106,0.08231
713.32127,0.00818
711.83148,0.05637
710.34169,0.09295
708.85190,0.11326
707.36211,0.13360
705.87233,0.12021
704.38254,0.07075
702.89275,0.08421
701.40296,0.08606
699.91317,0.08795
698.42338,0.05144
696.93360,0.21178
695.44381,0.27899
693.95402,0.27694
692.46423,0.27493
690.97444,0.34108
689.48465,0.24306
687.99486,0.31744
686.50508,0.33012
685.01529,0.34285
683.52550,0.35327
682.03571,0.35093
680.54592,0.32066
679.05613,0.31431
677.56635,0.30799
676.07656,0.30579
674.58677,0.20347
673.09698,0.26888
671.60719,0.23359
670.11740,0.19833
668.62761,0.15321
667.13783,0.13375
665.64804,0.12073
664.15825,0.10774
662.66846,0.04413
661.17867,0.07605
659.68888,0.10568
658.19910,0.11379
656.70931,0.12194
655.21952,0.18079
653.72973,0.11623
652.23994,0.17747
650.75015,0.13161
649.26037,0.08579
647.77058,0.13316
646.28079,0.14331
644.79100,0.12438
643.30121,0.10431
641.81142,0.08429
640.32163,0.08875
638.83185,0.00358
637.34206,0.00270
635.85227,0.01467
634.36248,0.02668
632.87269,0.08530
631.38290,0.04264
629.89312,0.01399
628.40333,0.04186
626.91354,0.06976
625.42375,0.04588
623.93396,0.02203
622.44417,0.02907
620.95438,0.03616
619.46460,0.07530
617.97481,0.08420
616.48502,0.10245
614.99523,0.08696
613.50544,0.07151
612.01565,0.08987
610.52587,0.06401
609.03608,0.04866
607.54629,0.06829
606.05650,0.08795
604.56671,0.13560
603.07692,0.14020
601.58714,0.10115
600.09735,0.06215
598.60756,0.07616
597.11777,0.04713
595.62798,0.00881
594.13819,0.05379
592.64840,0.09881
591.15862,0.07574
589.66883,0.06551
588.17904,0.04134
586.68925,0.04167
585.19946,0.04203
583.70967,0.16586
582.21989,0.16979
580.73010,0.15686
579.24031,0.14397
577.75052,0.11423
576.26073,0.10082
574.77094,0.09444
573.28115,0.16496
571.79137,0.23551
570.30158,0.28513
568.81179,0.30335
567.32200,0.30413
565.83221,0.30495
564.34242,0.35820
562.85264,0.39170
561.36285,0.52538
559.87306,0.53799
558.38327,0.55063
556.89348,0.67161
555.40369,0.60979
553.91391,0.59342
552.42412,0.57709
550.93433,0.62135
549.44454,0.68311
547.95475,0.73443
546.46496,0.71882
544.97517,0.70324
543.48539,0.77330
541.99560,0.86552
540.50581,0.86985
539.01602,0.87421
537.52623,0.86638
536.03644,0.81550
534.54666,0.76233
533.05687,0.80643
531.56708,0.85057
530.07729,0.69967
528.58750,0.84228
527.09771,0.80384
525.60792,0.76544
524.11814,0.82081
522.62835,0.76326
521.13856,0.66382
519.64877,0.65700
518.15898,0.65021
516.66919,0.63356
515.17941,0.61695
513.68962,0.61318
512.19983,0.60944
510.71004,0.58129
509.22025,0.56249
507.73046,0.60195
506.24068,0.61699
504.75089,0.63206
503.26110,0.64368
501.77131,0.61108
500.28152,0.61869
498.79173,0.62634
497.30194,0.64741
495.81216,0.65687
494.32237,0.66987
492.83258,0.68289
491.34279,0.65054
489.85300,0.57397
488.36321,0.47647
486.87343,0.47566
485.38364,0.47489
483.89385,0.39497
482.40406,0.31741
480.91427,0.28530
479.42448,0.25323
477.93469,0.16879
476.44491,0.08904
474.95512,0.11705
473.46533,0.14509
471.97554,0.10039
470.48575,0.14772
468.99596,0.04952
467.50618,0.02879
466.01639,0.00810
464.52660,0.00782
463.03681,0.04834
461.54702,0.03533
460.05723,0.02235
458.56745,0.00358
457.07766,0.10581
455.58787,0.13354
454.09808,0.16130
452.60829,0.20425
451.11850,0.23092
449.62871,0.23783
448.13893,0.24477
446.64914,0.34608
445.15935,0.45791
443.66956,0.56279
442.17977,0.56347
440.68998,0.56419
439.20020,0.67965
437.71041,0.92324
436.22062,0.95376
434.73083,0.98432
433.24104,1.26529
431.75125,1.43100
430.26146,1.47738
428.77168,1.52380
427.28189,1.62091
425.79210,1.69943
424.30231,1.66268
422.81252,1.62597
421.32273,1.70925
419.83295,1.55500
418.34316,1.48229
416.85337,1.40963
415.36358,1.23801
413.87379,1.04662
412.38400,0.99095
410.89422,0.93531
409.40443,0.92803
407.91464,0.89750
406.42485,0.77035
404.93506,0.78821
403.44527,0.80612
401.95548,0.74079
400.46570,0.76400
398.97591,0.73427
397.48612,0.70457
395.99633,0.69994
394.50654,0.84091
393.01675,0.80375
391.52697,0.76662
390.03718,0.63053
388.54739,0.46421
387.05760,0.54655
385.56781,0.62893
384.07802,0.75268
382.58824,0.66569
381.09845,0.64511
379.60866,0.62456
378.11887,0.52020
376.62908,0.42753
375.13929,0.40825
373.64950,0.38901
372.15972,0.29295
370.66993,0.42517
369.18014,0.35189
367.69035,0.27864
366.20056,0.20368
364.71077,0.24288
363.22099,0.25184
361.73120,0.26083
360.24141,0.24191
358.75162,0.20089
357.26183,0.18961
355.77204,0.17837
354.28225,0.11766
352.79247,0.12221
351.30268,0.11398
349.81289,0.10579
348.32310,0.09297
346.83331,0.10814
345.34352,0.08782
343.85374,0.06754
342.36395,0.21558
340.87416,0.15636
339.38437,0.18335
337.89458,0.21037
336.40479,0.21647
334.91501,0.09334
333.42522,0.11407
331.93543,0.13483
330.44564,0.19114
328.95585,0.15782
327.46606,0.12046
325.97627,0.08314
324.48649,0.14351
322.99670,0.23420
321.50691,0.20323
320.01712,0.17229
318.52733,0.18972
317.03754,0.20252
315.54776,0.16005
314.05797,0.11760
312.56818,0.00358
311.07839,0.09247
309.58860,0.08300
308.09881,0.07355
306.60902,0.09734
305.11924,0.12465
303.62945,0.07572
302.13966,0.02683
300.64987,0.07632
299.16008,0.00358
