1778.52000,0.06030
1777.03021,0.02744
1775.54042,0.00791
1774.05063,0.00171
1772.56085,0.00085
1771.07106,0.06121
1769.58127,0.04179
1768.09148,0.04101
1766.60169,0.04292
1765.11190,0.00894
1763.62212,0.02687
1762.13233,0.04881
1760.64254,0.02290
1759.15275,0.01164
1757.66296,0.05229
1756.17317,0.07301
1754.68339,0.03655
1753.19360,0.07063
1751.70381,0.02891
1750.21402,0.01914
1748.72423,0.04132
1747.23444,0.03826
1745.74465,0.02990
1744.25487,0.00960
1742.76508,0.03100
1741.27529,0.08834
1739.78550,0.06190
1738.29571,0.06476
1736.80592,0.03439
1735.31614,0.02133
1733.82635,0.04289
1732.33656,0.01792
1730.84677,0.08209
1729.35698,0.02924
1727.86719,0.00701
1726.37740,0.00742
1724.88762,0.00879
1723.39783,0.02215
1721.90804,0.05151
1720.41825,0.03434
1718.92846,0.02783
1717.43867,0.03865
1715.94889,0.08540
1714.45910,0.06035
1712.96931,0.05528
1711.47952,0.03561
1709.98973,0.06252
1708.49994,0.00698
1707.01016,0.03328
1705.52037,0.05960
1704.03058,0.08662
1702.54079,0.06710
1701.05100,0.09417
1699.56121,0.10530
1698.07142,0.14040
1696.58164,0.08508
1695.09185,0.12290
1693.60206,0.11019
1692.11227,0.10283
1690.62248,0.14738
1689.13269,0.20925
1687.64291,0.11418
1686.15312,0.17343
1684.66333,0.16222
1683.17354,0.12310
1681.68375,0.15982
1680.19396,0.12075
1678.70417,0.14556
1677.21439,0.11186
1675.72460,0.16865
1674.23481,0.12968
1672.74502,0.15992
1671.25523,0.16224
1669.76544,0.12735
1668.27566,0.14037
1666.78587,0.10819
1665.29608,0.12260
1663.80629,0.16895
1662.31650,0.13685
1660.82671,0.17661
1659.33693,0.13658
1657.84714,0.11121
1656.35735,0.08321
1654.86756,0.05524
1653.37777,0.11375
1651.88798,0.14169
1650.39819,0.14439
1648.90841,0.06331
1647.41862,0.12858
1645.92883,0.12072
1644.43904,0.11288
1642.94925,0.15296
1641.45946,0.15050
1639.96968,0.09618
1638.47989,0.10840
1636.99010,0.16189
1635.50031,0.12362
1634.01052,0.12661
1632.52073,0.10834
1631.03094,0.14065
1629.54116,0.13175
1628.05137,0.13617
1626.56158,0.15127
1625.07179,0.15575
1623.58200,0.17489
1622.09221,0.17942
1620.60243,0.16669
1619.11264,0.15132
1617.62285,0.10273
1616.13306,0.12200
1614.64327,0.11735
1613.15348,0.17525
1611.66370,0.14406
1610.17391,0.15013
1608.68412,0.12697
1607.19433,0.13177
1605.70454,0.14990
1604.21475,0.13081
1602.72496,0.11174
1601.23518,0.14724
1599.74539,0.18144
1598.25560,0.17575
1596.76581,0.16478
1595.27602,0.14984
1593.78623,0.11497
1592.29645,0.10407
1590.80666,0.11847
1589.31687,0.07703
1587.82708,0.10878
1586.33729,0.10730
1584.84750,0.07659
1583.35771,0.10974
1581.86793,0.10701
1580.37814,0.11096
1578.88835,0.07769
1577.39856,0.11095
1575.90877,0.11631
1574.41898,0.03523
1572.92920,0.06724
1571.43941,0.00085
1569.94962,0.04769
1568.45983,0.09455
1566.97004,0.06096
1565.48025,0.06598
1563.99047,0.06171
1562.50068,0.03885
1561.01089,0.04394
1559.52110,0.04773
1558.03131,0.09944
1556.54152,0.09397
1555.05173,0.05528
1553.56195,0.10174
1552.07216,0.08039
1550.58237,0.09099
1549.09258,0.04975
1547.60279,0.09898
1546.11300,0.08039
1544.62322,0.09642
1543.13343,0.08055
1541.64364,0.06604
1540.15385,0.08814
1538.66406,0.11026
1537.17427,0.05326
1535.68448,0.04284
1534.19470,0.04310
1532.70491,0.07796
1531.21512,0.07960
1529.72533,0.02672
1528.23554,0.00314
1526.74575,0.05141
1525.25597,0.00926
1523.76618,0.04827
1522.27639,0.00085
1520.78660,0.02690
1519.29681,0.02106
1517.80702,0.03120
1516.31724,0.06531
1514.82745,0.05821
1513.33766,0.05713
1511.84787,0.05607
1510.35808,0.03309
1508.86829,0.03142
1507.37850,0.00317
1505.88872,0.02151
1504.39893,0.07179
1502.90914,0.04362
1501.41935,0.00085
1499.92956,0.06052
1498.43977,0.03375
1496.94999,0.11608
1495.46020,0.19577
1493.97041,0.23293
1492.48062,0.26347
1490.99083,0.27939
1489.50104,0.33259
1488.01125,0.36387
1486.52147,0.39518
1485.03168,0.49900
1483.54189,0.55364
1482.05210,0.61761
1480.56231,0.77872
1479.07252,0.86935
1477.58274,0.95602
1476.09295,1.07197
1474.60316,1.02701
1473.11337,1.14967
1471.62358,1.18190
1470.13379,1.09312
1468.64401,0.99239
1467.15422,0.99677
1465.66443,0.97524
1464.17464,0.95374
1462.68485,0.94889
1461.19506,0.91081
1459.70527,0.73309
1458.21549,0.82542
1456.72570,0.74353
1455.23591,0.63107
1453.74612,0.57716
1452.25633,0.61639
1450.76654,0.58515
1449.27676,0.50472
1447.78697,0.46023
1446.29718,0.39449
1444.80739,0.36734
1443.31760,0.34022
1441.82781,0.24130
1440.33802,0.22488
1438.84824,0.21779
1437.35845,0.18546
1435.86866,0.22366
1434.37887,0.27651
1432.88908,0.21632
1431.39929,0.23864
1429.90951,0.15988
1428.41972,0.22082
1426.92993,0.24454
1425.44014,0.36140
1423.95035,0.34926
1422.46056,0.33715
1420.97078,0.33038
1419.48099,0.27709
1417.99120,0.16396
1416.50141,0.26369
1415.01162,0.33019
1413.52183,0.37543
1412.03204,0.31163
1410.54226,0.30904
1409.05247,0.23864
1407.56268,0.31458
1406.07289,0.34666
1404.58310,0.35747
1403.09331,0.36832
1401.60353,0.39515
1400.11374,0.46059
1398.62395,0.41698
1397.13416,0.49444
1395.64437,0.53069
1394.15458,0.57229
1392.66479,0.66446
1391.17501,0.68483
1389.68522,0.65867
1388.19543,0.66180
1386.70564,0.62904
1385.21585,0.59631
1383.72606,0.62612
1382.23628,0.59344
1380.74649,0.58473
1379.25670,0.68646
1377.76691,0.64588
1376.27712,0.73169
1374.78733,0.82418
1373.29755,0.87812
1371.80776,0.97732
1370.31797,1.05393
1368.82818,1.11726
1367.33839,1.18062
1365.84860,1.49674
1364.35881,1.57745
1362.86903,1.85106
1361.37924,1.84669
1359.88945,1.98866
1358.39966,1.98035
1356.90987,2.00000
1355.42008,1.92789
1353.93030,1.87444
1352.44051,1.85825
1350.95072,1.84209
1349.46093,1.71689
1347.97114,1.48130
1346.48135,1.21249
1344.99156,1.00755
1343.50178,0.94630
1342.01199,0.87975
1340.52220,0.83584
1339.03241,0.75871
1337.54262,0.72151
1336.05283,0.70295
1334.56305,0.68443
1333.07326,0.52626
1331.58347,0.57828
1330.09368,0.48934
1328.60389,0.50683
1327.11410,0.49376
1325.62432,0.44746
1324.13453,0.41315
1322.64474,0.41745
1321.15495,0.41114
1319.66516,0.39554
1318.17537,0.37996
1316.68558,0.36708
1315.19580,0.40609
1313.70601,0.28818
1312.21622,0.25808
1310.72643,0.24263
1309.23664,0.26047
1307.74685,0.36214
1306.25707,0.30156
1304.76728,0.26427
1303.27749,0.22702
1301.78770,0.29288
1300.29791,0.23506
1298.80812,0.29432
1297.31834,0.33764
1295.82855,0.31050
1294.33876,0.31530
1292.84897,0.26825
1291.35918,0.28375
1289.86939,0.27134
1288.37960,0.25896
1286.88982,0.30912
1285.40003,0.39390
1283.91024,0.39490
1282.42045,0.44248
1280.93066,0.40230
1279.44087,0.41003
1277.95109,0.36591
1276.46130,0.38699
1274.97151,0.40278
1273.48172,0.41860
1271.99193,0.45041
1270.50214,0.43568
1269.01235,0.43163
1267.52257,0.44090
1266.03278,0.50607
1264.54299,0.49145
1263.05320,0.52608
1261.56341,0.53546
1260.07362,0.54486
1258.58384,0.56494
1257.09405,0.51055
1255.60426,0.58388
1254.11447,0.63064
1252.62468,0.63486
1251.13489,0.53535
1249.64511,0.56622
1248.15532,0.44415
1246.66553,0.41456
1245.17574,0.38499
1243.68595,0.34946
1242.19616,0.43101
1240.70637,0.36228
1239.21659,0.30555
1237.72680,0.31935
1236.23701,0.24405
1234.74722,0.21001
1233.25743,0.21657
1231.76764,0.22315
1230.27786,0.27832
1228.78807,0.20847
1227.29828,0.18787
1225.80849,0.19788
1224.31870,0.14940
1222.82891,0.12754
1221.33912,0.18553
1219.84934,0.17969
1218.35955,0.17388
1216.86976,0.20001
1215.37997,0.18361
1213.89018,0.23641
1212.40039,0.19878
1210.91061,0.15718
1209.42082,0.14222
1207.93103,0.12795
1206.44124,0.11370
1204.95145,0.16400
1203.46166,0.03208
1201.97188,0.11436
1200.48209,0.13547
1198.99230,0.06748
1197.50251,0.08598
1196.01272,0.08855
1194.52293,0.07917
1193.03314,0.06982
1191.54336,0.05252
1190.05357,0.07780
1188.56378,0.03661
1187.07399,0.07259
1185.58420,0.00085
1184.09441,0.05526
1182.60463,0.08309
1181.11484,0.11094
1179.62505,0.01246
1178.13526,0.09757
1176.64547,0.07230
1175.15568,0.07366
1173.66589,0.09499
1172.17611,0.08710
1170.68632,0.09186
1169.19653,0.09665
1167.70674,0.10080
1166.21695,0.05976
1164.72716,0.00277
1163.23738,0.02829
1161.74759,0.04053
1160.25780,0.06610
1158.76801,0.03915
1157.27822,0.01223
1155.78843,0.04187
1154.29865,0.05158
1152.80886,0.02407
1151.31907,0.07108
1149.82928,0.09019
1148.33949,0.11331
1146.84970,0.08391
1145.35991,0.05454
1143.87013,0.04316
1142.38034,0.06372
1140.89055,0.13486
1139.40076,0.17943
1137.91097,0.14021
1136.42118,0.24868
1134.93140,0.28601
1133.44161,0.32336
1131.95182,0.34278
1130.46203,0.43273
1128.97224,0.36441
1127.48245,0.41850
1125.99266,0.40211
1124.50288,0.49084
1123.01309,0.50842
1121.52330,0.52604
1120.03351,0.54168
1118.54372,0.55469
1117.05393,0.65286
1115.56415,0.57148
1114.07436,0.59388
1112.58457,0.58172
1111.09478,0.56960
1109.60499,0.54020
1108.11520,0.65582
1106.62542,0.58524
1105.13563,0.71555
1103.64584,0.77671
1102.15605,0.83657
1100.66626,0.83327
1099.17647,0.83000
1097.68668,0.86068
1096.19690,0.85812
1094.70711,0.87821
1093.21732,0.91295
1091.72753,0.97965
1090.23774,1.00048
1088.74795,1.02134
1087.25817,1.06018
1085.76838,1.14561
1084.27859,1.18849
1082.78880,1.20347
1081.29901,1.35681
1079.80922,1.27740
1078.31943,1.29978
1076.82965,1.32218
1075.33986,1.41444
1073.85007,1.44022
1072.36028,1.36094
1070.87049,1.56901
1069.38070,1.54033
1067.89092,1.56555
1066.40113,1.59080
1064.91134,1.45578
1063.42155,1.41790
1061.93176,1.28959
1060.44197,1.19456
1058.95219,1.20199
1057.46240,1.17086
1055.97261,1.13976
1054.48282,0.97700
1052.99303,0.89939
1051.50324,0.87103
1050.01345,0.80413
1048.52367,0.75188
1047.03388,0.77481
1045.54409,0.79777
1044.05430,0.64583
1042.56451,0.56177
1041.07472,0.44580
1039.58494,0.46288
1038.09515,0.47466
1036.60536,0.41664
1035.11557,0.35865
1033.62578,0.33459
1032.13599,0.31057
1030.64620,0.30919
1029.15642,0.34774
1027.66663,0.35838
1026.17684,0.36904
1024.68705,0.40634
1023.19726,0.37982
1021.70747,0.52358
1020.21769,0.64609
1018.72790,0.76198
1017.23811,0.85661
1015.74832,0.95126
1014.25853,1.12575
1012.76874,1.29229
1011.27896,1.45354
1009.78917,1.46716
1008.29938,1.49411
1006.80959,1.47852
1005.31980,1.46295
1003.83001,1.47269
1002.34022,1.35209
1000.85044,1.32597
999.36065,1.22671
997.87086,1.17336
996.38107,1.12005
994.89128,1.05678
993.40149,1.11991
991.91171,1.11523
990.42192,0.99485
988.93213,1.04475
987.44234,1.03284
985.95255,1.02094
984.46276,0.94323
982.97297,0.98659
981.48319,0.95416
979.99340,0.86988
978.50361,0.88073
977.01382,0.89161
975.52403,0.83534
974.03424,0.69796
972.54446,0.67234
971.05467,0.74651
969.56488,0.66507
968.07509,0.61027
966.58530,0.55549
965.09551,0.60848
963.60573,0.53513
962.11594,0.44718
960.62615,0.47099
959.13636,0.49017
957.64657,0.50938
956.15678,0.41355
954.66699,0.42815
953.17721,0.43879
951.68742,0.41886
950.19763,0.43554
948.70784,0.45224
947.21805,0.38584
945.72826,0.42987
944.23848,0.46594
942.74869,0.46745
941.25890,0.60733
939.76911,0.61356
938.27932,0.61981
936.78953,0.65202
935.29974,0.68160
933.80996,0.68993
932.32017,0.66901
930.83038,0.72528
929.34059,0.78157
927.85080,0.71019
926.36101,0.64948
924.87123,0.64599
923.38144,0.74362
921.89165,0.72622
920.40186,0.70885
918.91207,0.73872
917.42228,0.72073
915.93250,0.64424
914.44271,0.78460
912.95292,0.75539
911.46313,0.72620
909.97334,0.81742
908.48355,0.81157
906.99376,0.79111
905.50398,0.65628
904.01419,0.67644
902.52440,0.69663
901.03461,0.75342
899.54482,0.82754
898.05503,0.80458
896.56525,0.87741
895.07546,0.84386
893.58567,0.81034
892.09588,0.78748
890.60609,0.76998
889.11630,0.76181
887.62651,0.72839
886.13673,0.73823
884.64694,0.74809
883.15715,0.77462
881.66736,0.96078
880.17757,0.88227
878.68778,0.92683
877.19800,0.97142
875.70821,0.96615
874.21842,0.97819
872.72863,1.06343
871.23884,1.06090
869.74905,1.07635
868.25927,1.09183
866.76948,1.12130
865.27969,1.18140
863.78990,1.15905
862.30011,1.22185
860.81032,1.21352
859.32053,1.20522
857.83075,1.18164
856.34096,1.09026
854.85117,1.06939
853.36138,0.96210
851.87159,0.89540
850.38180,0.82873
848.89202,0.74545
847.40223,0.53318
845.91244,0.54839
844.42265,0.55698
842.93286,0.56560
841.44307,0.44521
839.95329,0.36210
838.46350,0.40937
836.97371,0.31566
835.48392,0.35035
833.99413,0.38506
832.50434,0.34731
831.01455,0.40535
829.52477,0.43948
828.03498,0.34727
826.54519,0.30164
825.05540,0.25604
823.56561,0.27298
822.07582,0.26999
820.58604,0.25107
819.09625,0.21821
817.60646,0.18538
816.11667,0.11998
814.62688,0.15837
813.13709,0.13426
811.64730,0.10885
810.15752,0.05553
808.66773,0.00224
807.17794,0.00085
805.68815,0.03963
804.19836,0.09971
802.70857,0.12590
801.21879,0.15212
799.72900,0.12715
798.23921,0.23788
796.74942,0.29810
795.25963,0.34371
793.76984,0.38935
792.28006,0.46827
790.79027,0.47938
789.30048,0.54238
787.81069,0.57483
786.32090,0.56939
784.83111,0.56397
783.34132,0.58319
781.85154,0.59579
780.36175,0.57781
778.87196,0.57583
777.38217,0.57387
775.89238,0.63978
774.40259,0.64320
772.91281,0.63068
771.42302,0.67472
769.93323,0.71879
768.44344,0.67044
766.95365,0.70325
765.46386,0.67756
763.97407,0.62796
762.48429,0.60432
760.99450,0.58071
759.50471,0.49527
758.01492,0.42715
756.52513,0.43754
755.03534,0.33555
753.54556,0.23359
752.05577,0.17888
750.56598,0.14813
749.07619,0.15466
747.58640,0.13861
746.09661,0.12258
744.60683,0.04006
743.11704,0.04404
741.62725,0.06533
740.13746,0.05273
738.64767,0.04016
737.15788,0.00301
735.66809,0.02840
734.17831,0.03519
732.68852,0.04734
731.19873,0.05950
729.70894,0.05574
728.21915,0.01608
726.72936,0.04695
725.23958,0.10446
723.74979,0.10944
722.26000,0.11445
720.77021,0.01773
719.28042,0.00085
717.79063,0.05713
716.30084,0.03961
714.81106,0.02212
713.32127,0.00000
711.83148,0.02978
710.34169,0.00372
708.85190,0.05750
707.36211,0.11131
705.87233,0.05075
704.38254,0.00085
702.89275,0.01392
701.40296,0.06427
699.91317,0.11464
698.42338,0.16370
696.93360,0.22078
695.44381,0.21270
693.95402,0.25320
692.46423,0.29373
690.97444,0.25912
689.48465,0.32697
687.99486,0.27646
686.50508,0.29581
685.01529,0.31519
683.52550,0.35255
682.03571,0.32343
680.54592,0.30763
679.05613,0.28123
677.56635,0.25484
676.07656,0.30431
674.58677,0.23275
673.09698,0.19581
671.60719,0.19813
670.11740,0.20048
668.62761,0.11174
667.13783,0.16669
665.64804,0.13786
664.15825,0.10905
662.66846,0.12285
661.17867,0.11804
659.68888,0.15848
658.19910,0.16437
656.70931,0.17029
655.21952,0.18687
653.72973,0.10771
652.23994,0.16425
650.75015,0.14433
649.26037,0.12444
647.77058,0.07864
646.28079,0.10070
644.79100,0.08155
643.30121,0.07773
641.81142,0.07393
640.32163,0.09211
638.83185,0.08770
637.34206,0.00085
635.85227,0.01890
634.36248,0.03697
632.87269,0.07569
631.38290,0.05058
629.89312,0.04280
628.40333,0.05366
626.91354,0.06455
625.42375,0.09542
623.93396,0.09439
622.44417,0.11001
620.95438,0.12567
619.46460,0.11408
617.97481,0.10118
616.48502,0.16280
614.99523,0.13400
613.50544,0.10522
612.01565,0.10973
610.52587,0.06637
609.03608,0.12281
607.54629,0.13271
606.05650,0.14265
604.56671,0.16458
603.07692,0.17323
601.58714,0.15730
600.09735,0.14140
598.60756,0.18472
597.11777,0.05913
595.62798,0.12911
594.13819,0.12994
592.64840,0.13080
591.15862,0.12371
589.66883,0.13260
588.17904,0.15615
586.68925,0.14980
585.19946,0.14348
583.70967,0.14450
582.21989,0.17747
580.73010,0.15526
579.24031,0.13308
577.75052,0.03045
576.26073,0.12339
574.77094,0.11658
573.28115,0.15304
571.79137,0.18952
570.30158,0.26660
568.81179,0.22000
567.32200,0.23661
565.83221,0.25324
564.34242,0.18677
562.85264,0.38635
561.36285,0.44231
559.87306,0.41914
558.38327,0.39601
556.89348,0.45071
555.40369,0.48283
553.91391,0.49170
552.42412,0.50059
550.93433,0.50618
549.44454,0.54772
547.95475,0.59460
546.46496,0.59030
544.97517,0.58602
543.48539,0.62767
541.99560,0.64805
540.50581,0.60994
539.01602,0.57185
537.52623,0.55374
536.03644,0.55295
534.54666,0.59209
533.05687,0.60199
531.56708,0.61192
530.07729,0.44629
528.58750,0.53609
527.09771,0.55807
525.60792,0.58008
524.11814,0.55688
522.62835,0.49514
521.13856,0.42678
519.64877,0.45688
518.15898,0.48700
516.66919,0.45596
515.17941,0.38770
513.68962,0.41391
512.19983,0.44015
510.71004,0.41720
509.22025,0.44615
507.73046,0.49109
506.24068,0.50147
504.75089,0.51188
503.26110,0.53561
501.77131,0.54741
500.28152,0.52863
498.79173,0.50988
497.30194,0.49116
495.81216,0.53232
494.32237,0.56420
492.83258,0.59610
491.34279,0.62803
489.85300,0.54426
488.36321,0.52437
486.87343,0.44332
485.38364,0.36229
483.89385,0.40499
482.40406,0.26416
480.91427,0.24972
479.42448,0.23530
477.93469,0.19431
476.44491,0.12675
474.95512,0.12971
473.46533,0.13269
471.97554,0.04791
470.48575,0.02302
468.99596,0.03406
467.50618,0.02651
466.01639,0.01899
464.52660,0.00085
463.03681,0.01111
461.54702,0.04069
460.05723,0.07029
458.56745,0.00747
457.07766,0.02050
455.58787,0.06083
454.09808,0.10118
452.60829,0.17813
451.11850,0.24447
449.62871,0.20376
448.13893,0.16308
446.64914,0.27074
445.15935,0.38906
443.66956,0.38770
442.17977,0.40033
440.68998,0.41298
439.20020,0.43697
437.71041,0.59001
436.22062,0.63002
434.73083,0.67005
433.24104,0.85643
431.75125,0.95238
430.26146,1.01510
428.77168,1.07785
427.28189,1.18187
425.79210,1.16087
424.30231,1.17581
422.81252,1.19078
421.32273,1.18050
419.83295,1.09443
418.34316,1.01437
416.85337,0.93434
415.36358,0.77386
413.87379,0.64267
412.38400,0.62922
410.89422,0.61581
409.40443,0.55387
407.91464,0.54649
406.42485,0.46864
404.93506,0.48659
403.44527,0.50456
401.95548,0.42280
400.46570,0.47009
398.97591,0.43893
397.48612,0.40780
395.99633,0.40728
394.50654,0.33497
393.01675,0.39237
391.52697,0.44980
390.03718,0.32169
388.54739,0.33062
387.05760,0.32428
385.56781,0.31797
384.07802,0.45866
382.58824,0.32271
381.09845,0.31515
379.60866,0.30761
378.11887,0.31007
376.62908,0.19950
375.13929,0.16211
373.64950,0.12475
372.15972,0.20048
370.66993,0.11396
369.18014,0.08666
367.69035,0.05938
366.20056,0.02614
364.71077,0.01554
363.22099,0.06350
361.73120,0.11148
360.24141,0.09032
358.75162,0.09047
357.26183,0.04676
355.77204,0.00306
354.28225,0.11370
352.79247,0.11396
351.30268,0.09362
349.81289,0.07331
348.32310,0.04438
346.83331,0.00085
345.34352,0.03878
343.85374,0.07673
342.36395,0.14996
340.87416,0.26179
339.38437,0.16813
337.89458,0.07450
336.40479,0.04941
334.91501,0.03365
333.42522,0.04186
331.93543,0.05009
330.44564,0.16211
328.95585,0.19434
327.46606,0.15145
325.97627,0.10857
324.48649,0.10896
322.99670,0.13199
321.50691,0.17766
320.01712,0.22335
318.52733,0.24646
317.03754,0.19510
315.54776,0.09921
314.05797,0.00335
312.56818,0.06656
311.07839,0.03535
309.58860,0.03609
308.09881,0.03686
306.60902,0.04564
305.11924,0.10499
303.62945,0.05596
302.13966,0.00695
300.64987,0.00085
299.16008,0.00085
