1778.52000,0.00000
1777.03021,0.05584
1775.54042,0.06479
1774.05063,0.05969
1772.56085,0.06714
1771.07106,0.10121
1769.58127,0.06492
1768.09148,0.04586
1766.60169,0.03153
1765.11190,0.03913
1763.62212,0.05615
1762.13233,0.06069
1760.64254,0.08872
1759.15275,0.07455
1757.66296,0.06666
1756.17317,0.01970
1754.68339,0.04786
1753.19360,0.04163
1751.70381,0.03700
1750.21402,0.04491
1748.72423,0.05912
1747.23444,0.04989
1745.74465,0.02504
1744.25487,0.04873
1742.76508,0.06305
1741.27529,0.07741
1739.78550,0.09180
1738.29571,0.02801
1736.80592,0.05654
1735.31614,0.04131
1733.82635,0.05269
1732.33656,0.08132
1730.84677,0.03489
1729.35698,0.05262
1727.86719,0.00000
1726.37740,0.01533
1724.88762,0.04790
1723.39783,0.03827
1721.90804,0.07873
1720.41825,0.05038
1718.92846,0.10498
1717.43867,0.11112
1715.94889,0.02812
1714.45910,0.08437
1712.96931,0.09060
1711.47952,0.10938
1709.98973,0.06092
1708.49994,0.01405
1707.01016,0.07125
1705.52037,0.12847
1704.03058,0.11924
1702.54079,0.15698
1701.05100,0.12904
1699.56121,0.18248
1698.07142,0.15617
1696.58164,0.11738
1695.09185,0.19125
1693.60206,0.26358
1692.11227,0.19203
1690.62248,0.19560
1689.13269,0.21954
1687.64291,0.23412
1686.15312,0.21901
1684.66333,0.23209
1683.17354,0.20453
1681.68375,0.23957
1680.19396,0.25900
1678.70417,0.26908
1677.21439,0.23382
1675.72460,0.21737
1674.23481,0.23066
1672.74502,0.21740
1671.25523,0.19478
1669.76544,0.22225
1668.27566,0.26696
1666.78587,0.24444
1665.29608,0.20004
1663.80629,0.21982
1662.31650,0.21772
1660.82671,0.22974
1659.33693,0.20424
1657.84714,0.16783
1656.35735,0.15021
1654.86756,0.17018
1653.37777,0.19173
1651.88798,0.10226
1650.39819,0.16611
1648.90841,0.17682
1647.41862,0.17973
1645.92883,0.16390
1644.43904,0.14810
1642.94925,0.10104
1641.45946,0.21827
1639.96968,0.15408
1638.47989,0.18690
1636.99010,0.16813
1635.50031,0.11810
1634.01052,0.14006
1632.52073,0.13859
1631.03094,0.17470
1629.54116,0.18424
1628.05137,0.20477
1626.56158,0.18621
1625.07179,0.17082
1623.58200,0.23368
1622.09221,0.17924
1620.60243,0.20931
1619.11264,0.19717
1617.62285,0.13813
1616.13306,0.14639
1614.64327,0.15155
1613.15348,0.19898
1611.66370,0.15415
1610.17391,0.18444
1608.68412,0.09899
1607.19433,0.08711
1605.70454,0.15503
1604.21475,0.15885
1602.72496,0.16269
1601.23518,0.18378
1599.74539,0.18769
1598.25560,0.15409
1596.76581,0.16432
1595.27602,0.13391
1593.78623,0.13795
1592.29645,0.11073
1590.80666,0.10075
1589.31687,0.08141
1587.82708,0.10747
1586.33729,0.14921
1584.84750,0.10807
1583.35771,0.11076
1581.86793,0.03996
1580.37814,0.09590
1578.88835,0.09399
1577.39856,0.07647
1575.90877,0.12624
1574.41898,0.06342
1572.92920,0.11639
1571.43941,0.03642
1569.94962,0.04408
1568.45983,0.05178
1566.97004,0.00163
1565.48025,0.00000
1563.99047,0.06629
1562.50068,0.09507
1561.01089,0.07695
1559.52110,0.05730
1558.03131,0.10338
1556.54152,0.11820
1555.05173,0.12680
1553.56195,0.10727
1552.07216,0.12219
1550.58237,0.00261
1549.09258,0.08955
1547.60279,0.07328
1546.11300,0.07737
1544.62322,0.09557
1543.13343,0.14040
1541.64364,0.06324
1540.15385,0.08076
1538.66406,0.09830
1537.17427,0.05878
1535.68448,0.07248
1534.19470,0.02677
1532.70491,0.02958
1531.21512,0.07622
1529.72533,0.05563
1528.23554,0.04445
1526.74575,0.05990
1525.25597,0.09416
1523.76618,0.07056
1522.27639,0.01258
1520.78660,0.00000
1519.29681,0.10719
1517.80702,0.02200
1516.31724,0.00724
1514.82745,0.05195
1513.33766,0.04194
1511.84787,0.03196
1510.35808,0.05800
1508.86829,0.05278
1507.37850,0.04133
1505.88872,0.02678
1504.39893,0.03574
1502.90914,0.04941
1501.41935,0.06468
1499.92956,0.03462
1498.43977,0.09532
1496.94999,0.06688
1495.46020,0.21055
1493.97041,0.24475
1492.48062,0.23831
1490.99083,0.23659
1489.50104,0.37100
1488.01125,0.39359
1486.52147,0.41621
1485.03168,0.53194
1483.54189,0.56479
1482.05210,0.72595
1480.56231,0.82926
1479.07252,0.88724
1477.58274,1.07352
1476.09295,1.08150
1474.60316,1.15208
1473.11337,1.21800
1471.62358,1.29021
1470.13379,1.26078
1468.64401,1.12656
1467.15422,0.98612
1465.66443,1.00683
1464.17464,1.02758
1462.68485,1.05618
1461.19506,1.05508
1459.70527,0.93670
1458.21549,0.90908
1456.72570,0.78606
1455.23591,0.83984
1453.74612,0.76382
1452.25633,0.76605
1450.76654,0.70260
1449.27676,0.72053
1447.78697,0.64463
1446.29718,0.61256
1444.80739,0.53751
1443.31760,0.46249
1441.82781,0.45085
1440.33802,0.36885
1438.84824,0.33694
1437.35845,0.29412
1435.86866,0.34518
1434.37887,0.35403
1432.88908,0.33633
1431.39929,0.35306
1429.90951,0.39486
1428.41972,0.33814
1426.92993,0.40191
1425.44014,0.42972
1423.95035,0.42550
1422.46056,0.42131
1420.97078,0.31782
1419.48099,0.36766
1417.99120,0.36591
1416.50141,0.35324
1415.01162,0.47513
1413.52183,0.43123
1412.03204,0.41553
1410.54226,0.41706
1409.05247,0.41394
1407.56268,0.54068
1406.07289,0.44063
1404.58310,0.46731
1403.09331,0.49403
1401.60353,0.53955
1400.11374,0.56321
1398.62395,0.61818
1397.13416,0.58089
1395.64437,0.60776
1394.15458,0.62841
1392.66479,0.66786
1391.17501,0.62444
1389.68522,0.61390
1388.19543,0.67847
1386.70564,0.68051
1385.21585,0.68257
1383.72606,0.61115
1382.23628,0.56009
1380.74649,0.62169
1379.25670,0.60042
1377.76691,0.69963
1376.27712,0.72221
1374.78733,0.67288
1373.29755,0.83006
1371.80776,0.92626
1370.31797,0.97713
1368.82818,1.07184
1367.33839,1.16657
1365.84860,1.38179
1364.35881,1.62519
1362.86903,1.79511
1361.37924,1.83052
1359.88945,1.93636
1358.39966,2.00000
1356.90987,1.96824
1355.42008,1.92557
1353.93030,1.93299
1352.44051,1.88333
1350.95072,1.83371
1349.46093,1.72546
1347.97114,1.51244
1346.48135,1.25251
1344.99156,1.12246
1343.50178,1.08316
1342.01199,1.02982
1340.52220,0.85605
1339.03241,0.92479
1337.54262,0.86372
1336.05283,0.80659
1334.56305,0.74949
1333.07326,0.74952
1331.58347,0.62600
1330.09368,0.67303
1328.60389,0.57460
1327.11410,0.55286
1325.62432,0.51393
1324.13453,0.49695
1322.64474,0.55351
1321.15495,0.52407
1319.66516,0.51265
1318.17537,0.50126
1316.68558,0.45314
1315.19580,0.39410
1313.70601,0.42113
1312.21622,0.36059
1310.72643,0.36422
1309.23664,0.33659
1307.74685,0.41068
1306.25707,0.37999
1304.76728,0.33212
1303.27749,0.28428
1301.78770,0.33502
1300.29791,0.35764
1298.80812,0.39593
1297.31834,0.30286
1295.82855,0.37250
1294.33876,0.47971
1292.84897,0.42427
1291.35918,0.22651
1289.86939,0.27673
1288.37960,0.32697
1286.88982,0.37333
1285.40003,0.49951
1283.91024,0.44269
1282.42045,0.45004
1280.93066,0.43709
1279.44087,0.51646
1277.95109,0.45664
1276.46130,0.45004
1274.97151,0.44112
1273.48172,0.43223
1271.99193,0.47421
1270.50214,0.57098
1269.01235,0.56140
1267.52257,0.55812
1266.03278,0.55173
1264.54299,0.65644
1263.05320,0.60163
1261.56341,0.57344
1260.07362,0.54528
1258.58384,0.60631
1257.09405,0.66582
1255.60426,0.70658
1254.11447,0.77240
1252.62468,0.70999
1251.13489,0.70548
1249.64511,0.58368
1248.15532,0.56985
1246.66553,0.57247
1245.17574,0.57513
1243.68595,0.48944
1242.19616,0.43037
1240.70637,0.41043
1239.21659,0.35455
1237.72680,0.32999
1236.23701,0.34144
1234.74722,0.34979
1233.25743,0.35113
1231.76764,0.35251
1230.27786,0.33905
1228.78807,0.27244
1227.29828,0.28407
1225.80849,0.29261
1224.31870,0.21045
1222.82891,0.22531
1221.33912,0.22143
1219.84934,0.23165
1218.35955,0.24191
1216.86976,0.30070
1215.37997,0.27660
1213.89018,0.29634
1212.40039,0.20348
1210.91061,0.15445
1209.42082,0.17898
1207.93103,0.16834
1206.44124,0.15773
1204.95145,0.07441
1203.46166,0.06777
1201.97188,0.13312
1200.48209,0.07180
1198.99230,0.08403
1197.50251,0.04310
1196.01272,0.07417
1194.52293,0.09979
1193.03314,0.12544
1191.54336,0.10184
1190.05357,0.07515
1188.56378,0.00000
1187.07399,0.06822
1185.58420,0.02384
1184.09441,0.03581
1182.60463,0.03685
1181.11484,0.03793
1179.62505,0.04843
1178.13526,0.05270
1176.64547,0.08046
1175.15568,0.05664
1173.66589,0.07821
1172.17611,0.08886
1170.68632,0.07921
1169.19653,0.06959
1167.70674,0.06625
1166.21695,0.01133
1164.72716,0.00650
1163.23738,0.03924
1161.74759,0.02977
1160.25780,0.01252
1158.76801,0.00624
1157.27822,0.00000
1155.78843,0.02226
1154.29865,0.07583
1152.80886,0.02776
1151.31907,0.03603
1149.82928,0.05059
1148.33949,0.05892
1146.84970,0.03522
1145.35991,0.01155
1143.87013,0.01685
1142.38034,0.06285
1140.89055,0.08073
1139.40076,0.20345
1137.91097,0.17133
1136.42118,0.25656
1134.93140,0.26440
1133.44161,0.27226
1131.95182,0.38888
1130.46203,0.39915
1128.97224,0.35001
1127.48245,0.32593
1125.99266,0.41608
1124.50288,0.47341
1123.01309,0.48384
1121.52330,0.49430
1120.03351,0.54859
1118.54372,0.54504
1117.05393,0.62442
1115.56415,0.58965
1114.07436,0.55021
1112.58457,0.53270
1111.09478,0.51522
1109.60499,0.61197
1108.11520,0.66495
1106.62542,0.57717
1105.13563,0.69904
1103.64584,0.74273
1102.15605,0.85371
1100.66626,0.81377
1099.17647,0.77386
1097.68668,0.86147
1096.19690,0.82710
1094.70711,0.81153
1093.21732,0.93052
1091.72753,1.01982
1090.23774,1.02234
1088.74795,1.02488
1087.25817,1.06891
1085.76838,1.15052
1084.27859,1.13517
1082.78880,1.14644
1081.29901,1.34077
1079.80922,1.35211
1078.31943,1.36895
1076.82965,1.38583
1075.33986,1.39569
1073.85007,1.38525
1072.36028,1.35294
1070.87049,1.52872
1069.38070,1.58251
1067.89092,1.64572
1066.40113,1.70896
1064.91134,1.52976
1063.42155,1.33339
1061.93176,1.33259
1060.44197,1.13002
1058.95219,1.17465
1057.46240,1.15908
1055.97261,1.14354
1054.48282,0.93797
1052.99303,0.95925
1051.50324,0.87889
1050.01345,0.81420
1048.52367,0.74485
1047.03388,0.69586
1045.54409,0.64691
1044.05430,0.72470
1042.56451,0.61793
1041.07472,0.53466
1039.58494,0.45298
1038.09515,0.46519
1036.60536,0.43833
1035.11557,0.41149
1033.62578,0.33150
1032.13599,0.26406
1030.64620,0.41565
1029.15642,0.34045
1027.66663,0.27623
1026.17684,0.21204
1024.68705,0.25113
1023.19726,0.40913
1021.70747,0.55934
1020.21769,0.60947
1018.72790,0.77539
1017.23811,0.83732
1015.74832,0.89927
1014.25853,1.10596
1012.76874,1.17971
1011.27896,1.38646
1009.78917,1.44150
1008.29938,1.43556
1006.80959,1.37413
1005.31980,1.31272
1003.83001,1.40543
1002.34022,1.33079
1000.85044,1.14042
999.36065,1.14093
997.87086,1.07030
996.38107,0.99970
994.89128,1.07226
993.40149,1.09792
991.91171,1.05792
990.42192,0.99604
988.93213,1.06873
987.44234,1.03038
985.95255,0.99206
984.46276,0.97098
982.97297,0.89049
981.48319,0.84445
979.99340,0.87822
978.50361,0.88933
977.01382,0.90048
975.52403,0.75288
974.03424,0.67414
972.54446,0.70180
971.05467,0.69196
969.56488,0.67901
968.07509,0.70130
966.58530,0.72361
965.09551,0.60908
963.60573,0.62286
962.11594,0.52716
960.62615,0.48312
959.13636,0.48760
957.64657,0.49211
956.15678,0.42470
954.66699,0.50593
953.17721,0.52305
951.68742,0.39003
950.19763,0.44006
948.70784,0.49013
947.21805,0.41508
945.72826,0.45426
944.23848,0.42620
942.74869,0.45449
941.25890,0.62830
939.76911,0.66369
938.27932,0.69911
936.78953,0.74317
935.29974,0.61362
933.80996,0.67652
932.32017,0.68000
930.83038,0.68585
929.34059,0.69174
927.85080,0.67029
926.36101,0.61132
924.87123,0.67909
923.38144,0.66712
921.89165,0.69428
920.40186,0.72148
918.91207,0.73306
917.42228,0.81350
915.93250,0.74068
914.44271,0.73045
912.95292,0.81881
911.46313,0.90720
909.97334,0.88299
908.48355,0.75714
906.99376,0.89099
905.50398,0.80743
904.01419,0.76614
902.52440,0.72488
901.03461,0.77907
899.54482,0.93967
898.05503,0.94543
896.56525,0.89961
895.07546,0.91795
893.58567,0.93632
892.09588,0.84678
890.60609,0.89807
889.11630,0.88994
887.62651,0.82866
886.13673,0.84719
884.64694,0.86575
883.15715,0.89685
881.66736,0.92486
880.17757,1.01077
878.68778,1.00834
877.19800,1.00594
875.70821,1.03876
874.21842,1.11386
872.72863,1.07791
871.23884,1.12491
869.74905,1.08669
868.25927,1.04849
866.76948,1.13939
865.27969,1.20372
863.78990,1.24774
862.30011,1.16509
860.81032,1.10593
859.32053,1.04681
857.83075,1.10660
856.34096,1.16486
854.85117,1.14025
853.36138,0.92482
851.87159,0.86663
850.38180,0.80847
848.89202,0.70890
847.40223,0.62030
845.91244,0.55520
844.42265,0.53941
842.93286,0.52364
841.44307,0.45081
839.95329,0.46249
838.46350,0.38503
836.97371,0.41554
835.48392,0.40150
833.99413,0.38749
832.50434,0.38837
831.01455,0.43777
829.52477,0.53414
828.03498,0.36304
826.54519,0.36640
825.05540,0.36978
823.56561,0.25509
822.07582,0.33597
820.58604,0.19318
819.09625,0.18965
817.60646,0.18615
816.11667,0.09665
814.62688,0.06193
813.13709,0.05226
811.64730,0.00509
810.15752,0.00253
808.66773,0.00000
807.17794,0.00814
805.68815,0.05856
804.19836,0.13090
802.70857,0.13210
801.21879,0.13333
799.72900,0.11973
798.23921,0.27041
796.74942,0.26782
795.25963,0.32940
793.76984,0.39101
792.28006,0.40729
790.79027,0.51276
789.30048,0.53849
787.81069,0.57676
786.32090,0.54546
784.83111,0.51418
783.34132,0.52595
781.85154,0.51273
780.36175,0.62624
778.87196,0.58414
777.38217,0.54207
775.89238,0.67445
774.40259,0.68171
772.91281,0.72030
771.42302,0.69165
769.93323,0.66303
768.44344,0.72987
766.95365,0.81081
765.46386,0.78698
763.97407,0.77726
762.48429,0.70109
760.99450,0.62494
759.50471,0.55274
758.01492,0.43365
756.52513,0.41939
755.03534,0.32773
753.54556,0.23610
752.05577,0.21099
750.56598,0.15462
749.07619,0.17024
747.58640,0.18198
746.09661,0.19375
744.60683,0.06867
743.11704,0.06721
741.62725,0.10489
740.13746,0.07768
738.64767,0.05050
737.15788,0.01631
735.66809,0.02908
734.17831,0.06379
732.68852,0.07428
731.19873,0.08480
729.70894,0.06641
728.21915,0.04023
726.72936,0.07822
725.23958,0.09277
723.74979,0.13083
722.26000,0.16891
720.77021,0.06467
719.28042,0.11220
717.79063,0.07216
716.30084,0.03607
714.81106,0.00000
713.32127,0.05044
711.83148,0.06024
710.34169,0.14829
708.85190,0.13860
707.36211,0.12894
705.87233,0.08881
704.38254,0.13318
702.89275,0.09624
701.40296,0.11878
699.91317,0.14134
698.42338,0.17176
696.93360,0.25227
695.44381,0.18576
693.95402,0.23270
692.46423,0.27967
690.97444,0.23672
689.48465,0.32052
687.99486,0.29640
686.50508,0.34350
685.01529,0.39062
683.52550,0.35721
682.03571,0.29725
680.54592,0.28581
679.05613,0.30724
677.56635,0.32871
676.07656,0.28295
674.58677,0.24973
673.09698,0.23845
671.60719,0.24831
670.11740,0.25820
668.62761,0.15628
667.13783,0.19048
665.64804,0.13008
664.15825,0.06970
662.66846,0.12277
661.17867,0.11487
659.68888,0.13045
658.19910,0.12574
656.70931,0.12105
655.21952,0.14768
653.72973,0.17278
652.23994,0.18696
650.75015,0.15894
649.26037,0.13094
647.77058,0.16086
646.28079,0.11729
644.79100,0.09095
643.30121,0.07873
641.81142,0.06653
640.32163,0.08409
638.83185,0.00000
637.34206,0.04852
635.85227,0.05640
634.36248,0.06431
632.87269,0.07538
631.38290,0.05051
629.89312,0.14455
628.40333,0.09705
626.91354,0.04959
625.42375,0.14529
623.93396,0.05017
622.44417,0.05051
620.95438,0.05088
619.46460,0.03252
617.97481,0.06111
616.48502,0.10537
614.99523,0.08397
613.50544,0.06260
612.01565,0.03187
610.52587,0.03089
609.03608,0.06593
607.54629,0.03295
606.05650,0.00000
604.56671,0.10376
603.07692,0.11996
601.58714,0.11898
600.09735,0.11803
598.60756,0.07800
597.11777,0.06303
595.62798,0.03402
594.13819,0.04962
592.64840,0.06525
591.15862,0.03476
589.66883,0.13102
588.17904,0.08182
586.68925,0.12965
585.19946,0.17750
583.70967,0.15812
582.21989,0.13252
580.73010,0.09130
579.24031,0.05012
577.75052,0.10439
576.26073,0.04293
574.77094,0.07692
573.28115,0.13520
571.79137,0.19350
570.30158,0.29173
568.81179,0.21947
567.32200,0.17854
565.83221,0.13763
564.34242,0.32202
562.85264,0.36722
561.36285,0.39367
559.87306,0.43033
558.38327,0.46701
556.89348,0.43255
555.40369,0.50293
553.91391,0.47323
552.42412,0.44356
550.93433,0.45928
549.44454,0.61895
547.95475,0.62222
546.46496,0.56765
544.97517,0.51310
543.48539,0.66038
541.99560,0.63249
540.50581,0.63044
539.01602,0.62843
537.52623,0.56309
536.03644,0.57756
534.54666,0.50759
533.05687,0.56436
531.56708,0.62116
530.07729,0.62638
528.58750,0.60972
527.09771,0.55398
525.60792,0.49828
524.11814,0.53334
522.62835,0.54340
521.13856,0.44868
519.64877,0.47679
518.15898,0.50494
516.66919,0.49322
515.17941,0.43617
513.68962,0.41748
512.19983,0.39882
510.71004,0.41382
509.22025,0.50864
507.73046,0.45957
506.24068,0.52159
504.75089,0.58365
503.26110,0.46272
501.77131,0.57176
500.28152,0.55022
498.79173,0.52872
497.30194,0.63317
495.81216,0.60468
494.32237,0.66774
492.83258,0.73083
491.34279,0.56947
489.85300,0.52860
488.36321,0.49871
486.87343,0.48918
485.38364,0.47968
483.89385,0.40296
482.40406,0.37162
480.91427,0.33250
479.42448,0.29341
477.93469,0.21524
476.44491,0.20594
474.95512,0.15912
473.46533,0.11233
471.97554,0.10781
470.48575,0.09863
468.99596,0.11920
467.50618,0.11790
466.01639,0.11663
464.52660,0.06847
463.03681,0.00000
461.54702,0.02118
460.05723,0.04240
458.56745,0.08476
457.07766,0.12560
455.58787,0.15942
454.09808,0.19328
452.60829,0.30460
451.11850,0.21415
449.62871,0.25905
448.13893,0.30398
446.64914,0.30123
445.15935,0.34075
443.66956,0.49918
442.17977,0.50435
440.68998,0.50955
439.20020,0.53511
437.71041,0.66395
436.22062,0.69662
434.73083,0.72931
433.24104,0.95523
431.75125,1.12956
430.26146,1.09743
428.77168,1.06534
427.28189,1.16155
425.79210,1.21555
424.30231,1.16947
422.81252,1.12342
421.32273,1.04142
419.83295,1.03610
418.34316,0.96668
416.85337,0.89729
415.36358,0.79978
413.87379,0.65849
412.38400,0.67836
410.89422,0.69826
409.40443,0.52579
407.91464,0.51446
406.42485,0.50004
404.93506,0.53415
403.44527,0.56828
401.95548,0.51954
400.46570,0.46927
398.97591,0.48160
397.48612,0.49396
395.99633,0.49383
394.50654,0.47341
393.01675,0.41077
391.52697,0.34817
390.03718,0.30750
388.54739,0.38732
387.05760,0.41867
385.56781,0.45005
384.07802,0.43297
382.58824,0.39871
381.09845,0.35119
379.60866,0.30370
378.11887,0.22574
376.62908,0.14781
375.13929,0.16533
373.64950,0.18288
372.15972,0.25678
370.66993,0.19305
369.18014,0.21617
367.69035,0.23933
366.20056,0.15536
364.71077,0.20751
363.22099,0.18774
361.73120,0.16800
360.24141,0.27031
358.75162,0.20527
357.26183,0.16685
355.77204,0.12846
354.28225,0.19804
352.79247,0.07368
351.30268,0.08310
349.81289,0.09255
348.32310,0.20919
346.83331,0.02238
345.34352,0.09261
343.85374,0.16287
342.36395,0.24099
340.87416,0.13924
339.38437,0.18300
337.89458,0.22680
336.40479,0.00000
334.91501,0.08448
333.42522,0.06184
331.93543,0.03922
330.44564,0.09720
328.95585,0.10829
327.46606,0.11080
325.97627,0.11334
324.48649,0.04474
322.99670,0.07934
321.50691,0.09285
320.01712,0.10639
318.52733,0.18332
317.03754,0.10073
315.54776,0.08542
314.05797,0.07015
312.56818,0.12062
311.07839,0.07412
309.58860,0.03705
308.09881,0.00000
306.60902,0.00654
305.11924,0.18205
303.62945,0.12373
302.13966,0.06544
300.64987,0.00000
299.16008,0.00000
