1778.52000,0.03834
1777.03021,0.04613
1775.54042,0.08184
1774.05063,0.02952
1772.56085,0.09904
1771.07106,0.07026
1769.58127,0.07673
1768.09148,0.05095
1766.60169,0.00171
1765.11190,0.07286
1763.62212,0.04129
1762.13233,0.03324
1760.64254,0.05898
1759.15275,0.12877
1757.66296,0.06064
1756.17317,0.02482
1754.68339,0.06242
1753.19360,0.00171
1751.70381,0.05032
1750.21402,0.07255
1748.72423,0.06105
1747.23444,0.05544
1745.74465,0.07042
1744.25487,0.06635
1742.76508,0.06817
1741.27529,0.10819
1739.78550,0.05871
1738.29571,0.07677
1736.80592,0.03469
1735.31614,0.04694
1733.82635,0.05042
1732.33656,0.07154
1730.84677,0.06040
1729.35698,0.03168
1727.86719,0.03234
1726.37740,0.05799
1724.88762,0.00000
1723.39783,0.05441
1721.90804,0.00171
1720.41825,0.09682
1718.92846,0.03199
1717.43867,0.06405
1715.94889,0.03743
1714.45910,0.03139
1712.96931,0.04006
1711.47952,0.07371
1709.98973,0.07070
1708.49994,0.07506
1707.01016,0.07431
1705.52037,0.07359
1704.03058,0.08831
1702.54079,0.09132
1701.05100,0.16334
1699.56121,0.12532
1698.07142,0.09907
1696.58164,0.12568
1695.09185,0.14059
1693.60206,0.16286
1692.11227,0.18516
1690.62248,0.13411
1689.13269,0.15941
1687.64291,0.17886
1686.15312,0.24532
1684.66333,0.19585
1683.17354,0.16844
1681.68375,0.19682
1680.19396,0.16066
1678.70417,0.21992
1677.21439,0.19703
1675.72460,0.17857
1674.23481,0.21885
1672.74502,0.13440
1671.25523,0.10136
1669.76544,0.24740
1668.27566,0.16891
1666.78587,0.14036
1665.29608,0.14266
1663.80629,0.18755
1662.31650,0.15322
1660.82671,0.18350
1659.33693,0.13014
1657.84714,0.10177
1656.35735,0.10425
1654.86756,0.11851
1653.37777,0.16068
1651.88798,0.13683
1650.39819,0.14530
1648.90841,0.19050
1647.41862,0.05960
1645.92883,0.08578
1644.43904,0.11198
1642.94925,0.08978
1641.45946,0.18356
1639.96968,0.06456
1638.47989,0.07914
1636.99010,0.10991
1635.50031,0.14803
1634.01052,0.14363
1632.52073,0.10550
1631.03094,0.13345
1629.54116,0.16876
1628.05137,0.13219
1626.56158,0.13674
1625.07179,0.14720
1623.58200,0.14594
1622.09221,0.17847
1620.60243,0.17874
1619.11264,0.13355
1617.62285,0.10159
1616.13306,0.15332
1614.64327,0.13757
1613.15348,0.15707
1611.66370,0.13551
1610.17391,0.14040
1608.68412,0.16146
1607.19433,0.07541
1605.70454,0.13176
1604.21475,0.12062
1602.72496,0.10951
1601.23518,0.10578
1599.74539,0.16958
1598.25560,0.13362
1596.76581,0.12410
1595.27602,0.08966
1593.78623,0.06112
1592.29645,0.08986
1590.80666,0.12009
1589.31687,0.09017
1587.82708,0.07643
1586.33729,0.08914
1584.84750,0.07693
1583.35771,0.09410
1581.86793,0.04379
1580.37814,0.07864
1578.88835,0.06948
1577.39856,0.00752
1575.90877,0.07622
1574.41898,0.05981
1572.92920,0.08454
1571.43941,0.06379
1569.94962,0.04528
1568.45983,0.02680
1566.97004,0.05604
1565.48025,0.03689
1563.99047,0.02217
1562.50068,0.05591
1561.01089,0.05886
1559.52110,0.05743
1558.03131,0.06338
1556.54152,0.08990
1555.05173,0.09004
1553.56195,0.03003
1552.07216,0.07279
1550.58237,0.03926
1549.09258,0.07034
1547.60279,0.07943
1546.11300,0.08856
1544.62322,0.11239
1543.13343,0.07020
1541.64364,0.04272
1540.15385,0.03582
1538.66406,0.02895
1537.17427,0.06321
1535.68448,0.11511
1534.19470,0.06430
1532.70491,0.06489
1531.21512,0.07284
1529.72533,0.06469
1528.23554,0.01253
1526.74575,0.02058
1525.25597,0.11526
1523.76618,0.06612
1522.27639,0.03904
1520.78660,0.00171
1519.29681,0.02374
1517.80702,0.08542
1516.31724,0.08109
1514.82745,0.09880
1513.33766,0.09967
1511.84787,0.10056
1510.35808,0.05085
1508.86829,0.03640
1507.37850,0.03372
1505.88872,0.00171
1504.39893,0.10517
1502.90914,0.09858
1501.41935,0.05386
1499.92956,0.08108
1498.43977,0.12449
1496.94999,0.14003
1495.46020,0.23486
1493.97041,0.28129
1492.48062,0.29693
1490.99083,0.28764
1489.50104,0.32976
1488.01125,0.36750
1486.52147,0.40528
1485.03168,0.53848
1483.54189,0.71281
1482.05210,0.72279
1480.56231,0.87076
1479.07252,1.01436
1477.58274,1.11983
1476.09295,1.16222
1474.60316,1.15767
1473.11337,1.25002
1471.62358,1.23672
1470.13379,1.28217
1468.64401,1.19555
1467.15422,1.09429
1465.66443,1.11560
1464.17464,1.13695
1462.68485,1.01523
1461.19506,1.05058
1459.70527,1.02139
1458.21549,0.91884
1456.72570,0.80604
1455.23591,0.71382
1453.74612,0.67007
1452.25633,0.69386
1450.76654,0.56064
1449.27676,0.60945
1447.78697,0.53206
1446.29718,0.52075
1444.80739,0.44195
1443.31760,0.36319
1441.82781,0.30647
1440.33802,0.28060
1438.84824,0.27971
1437.35845,0.30968
1435.86866,0.29565
1434.37887,0.29045
1432.88908,0.35279
1431.39929,0.27427
1429.90951,0.21339
1428.41972,0.18336
1426.92993,0.25463
1425.44014,0.32741
1423.95035,0.33489
1422.46056,0.34241
1420.97078,0.36244
1419.48099,0.29737
1417.99120,0.28957
1416.50141,0.33904
1415.01162,0.33570
1413.52183,0.39257
1412.03204,0.32911
1410.54226,0.41980
1409.05247,0.39163
1407.56268,0.43248
1406.07289,0.38823
1404.58310,0.39097
1403.09331,0.39375
1401.60353,0.44058
1400.11374,0.46837
1398.62395,0.40519
1397.13416,0.42276
1395.64437,0.52843
1394.15458,0.55340
1392.66479,0.58868
1391.17501,0.62839
1389.68522,0.58887
1388.19543,0.54645
1386.70564,0.55690
1385.21585,0.56738
1383.72606,0.61458
1382.23628,0.59723
1380.74649,0.54175
1379.25670,0.60665
1377.76691,0.70241
1376.27712,0.62794
1374.78733,0.68413
1373.29755,0.87097
1371.80776,0.87585
1370.31797,0.98937
1368.82818,1.02660
1367.33839,1.06386
1365.84860,1.34772
1364.35881,1.55382
1362.86903,1.76583
1361.37924,1.88834
1359.88945,1.92868
1358.39966,1.97199
1356.90987,1.87297
1355.42008,2.00000
1353.93030,1.92305
1352.44051,1.84246
1350.95072,1.76190
1349.46093,1.63368
1347.97114,1.37339
1346.48135,1.21586
1344.99156,1.00700
1343.50178,1.07117
1342.01199,0.94602
1340.52220,0.91191
1339.03241,0.86168
1337.54262,0.77039
1336.05283,0.71802
1334.56305,0.66568
1333.07326,0.63759
1331.58347,0.61540
1330.09368,0.60058
1328.60389,0.61074
1327.11410,0.56809
1325.62432,0.44769
1324.13453,0.47115
1322.64474,0.44620
1321.15495,0.45505
1319.66516,0.44924
1318.17537,0.44347
1316.68558,0.39956
1315.19580,0.38945
1313.70601,0.31772
1312.21622,0.28858
1310.72643,0.32846
1309.23664,0.27590
1307.74685,0.29383
1306.25707,0.28976
1304.76728,0.28793
1303.27749,0.28613
1301.78770,0.25280
1300.29791,0.28995
1298.80812,0.31833
1297.31834,0.34234
1295.82855,0.40747
1294.33876,0.39484
1292.84897,0.33381
1291.35918,0.35500
1289.86939,0.33586
1288.37960,0.31675
1286.88982,0.44664
1285.40003,0.43419
1283.91024,0.39389
1282.42045,0.44755
1280.93066,0.36181
1279.44087,0.48011
1277.95109,0.56028
1276.46130,0.46142
1274.97151,0.47927
1273.48172,0.49716
1271.99193,0.45563
1270.50214,0.51247
1269.01235,0.50769
1267.52257,0.48534
1266.03278,0.53493
1264.54299,0.64179
1263.05320,0.63420
1261.56341,0.62151
1260.07362,0.60884
1258.58384,0.59841
1257.09405,0.54251
1255.60426,0.65835
1254.11447,0.68030
1252.62468,0.62889
1251.13489,0.60100
1249.64511,0.57167
1248.15532,0.51595
1246.66553,0.46980
1245.17574,0.42368
1243.68595,0.49427
1242.19616,0.40785
1240.70637,0.36696
1239.21659,0.27326
1237.72680,0.28380
1236.23701,0.30464
1234.74722,0.28588
1233.25743,0.29137
1231.76764,0.29690
1230.27786,0.33107
1228.78807,0.25519
1227.29828,0.28502
1225.80849,0.21068
1224.31870,0.17159
1222.82891,0.15601
1221.33912,0.17862
1219.84934,0.19539
1218.35955,0.21219
1216.86976,0.13363
1215.37997,0.23268
1213.89018,0.18940
1212.40039,0.15055
1210.91061,0.13668
1209.42082,0.06854
1207.93103,0.08408
1206.44124,0.09966
1204.95145,0.10206
1203.46166,0.15732
1201.97188,0.14364
1200.48209,0.09182
1198.99230,0.12222
1197.50251,0.00442
1196.01272,0.09213
1194.52293,0.07272
1193.03314,0.05335
1191.54336,0.00171
1190.05357,0.05292
1188.56378,0.03665
1187.07399,0.00279
1185.58420,0.00620
1184.09441,0.04780
1182.60463,0.03953
1181.11484,0.03129
1179.62505,0.01574
1178.13526,0.02811
1176.64547,0.01849
1175.15568,0.00009
1173.66589,0.11299
1172.17611,0.09969
1170.68632,0.08201
1169.19653,0.06437
1167.70674,0.05556
1166.21695,0.03358
1164.72716,0.05859
1163.23738,0.03960
1161.74759,0.01624
1160.25780,0.00171
1158.76801,0.01949
1157.27822,0.03729
1155.78843,0.04192
1154.29865,0.02016
1152.80886,0.04833
1151.31907,0.03397
1149.82928,0.06366
1148.33949,0.13009
1146.84970,0.11655
1145.35991,0.10304
1143.87013,0.06094
1142.38034,0.13923
1140.89055,0.18672
1139.40076,0.22690
1137.91097,0.27299
1136.42118,0.27361
1134.93140,0.30948
1133.44161,0.34538
1131.95182,0.37985
1130.46203,0.40847
1128.97224,0.42538
1127.48245,0.45407
1125.99266,0.43288
1124.50288,0.58345
1123.01309,0.56085
1121.52330,0.53829
1120.03351,0.63024
1118.54372,0.60480
1117.05393,0.55003
1115.56415,0.59511
1114.07436,0.59471
1112.58457,0.61856
1111.09478,0.64244
1109.60499,0.72873
1108.11520,0.70937
1106.62542,0.72968
1105.13563,0.83954
1103.64584,0.92595
1102.15605,0.94634
1100.66626,0.94402
1099.17647,0.94172
1097.68668,0.90056
1096.19690,0.96804
1094.70711,1.00326
1093.21732,1.21170
1091.72753,1.14278
1090.23774,1.15241
1088.74795,1.16206
1087.25817,1.21798
1085.76838,1.28274
1084.27859,1.37542
1082.78880,1.44170
1081.29901,1.48160
1079.80922,1.46575
1078.31943,1.48663
1076.82965,1.50754
1075.33986,1.49765
1073.85007,1.50394
1072.36028,1.61594
1070.87049,1.68540
1069.38070,1.69179
1067.89092,1.71948
1066.40113,1.74720
1064.91134,1.69790
1063.42155,1.63543
1061.93176,1.45703
1060.44197,1.44598
1058.95219,1.35277
1057.46240,1.28161
1055.97261,1.21047
1054.48282,1.07186
1052.99303,1.11820
1051.50324,0.97671
1050.01345,0.94679
1048.52367,0.86993
1047.03388,0.85109
1045.54409,0.83227
1044.05430,0.74670
1042.56451,0.62447
1041.07472,0.50961
1039.58494,0.56650
1038.09515,0.50893
1036.60536,0.49323
1035.11557,0.47756
1033.62578,0.40248
1032.13599,0.39788
1030.64620,0.35074
1029.15642,0.36968
1027.66663,0.37691
1026.17684,0.38417
1024.68705,0.37091
1023.19726,0.41639
1021.70747,0.56024
1020.21769,0.77603
1018.72790,0.95076
1017.23811,0.99049
1015.74832,1.03025
1014.25853,1.21241
1012.76874,1.37258
1011.27896,1.54453
1009.78917,1.51983
1008.29938,1.55681
1006.80959,1.54612
1005.31980,1.53545
1003.83001,1.55491
1002.34022,1.46872
1000.85044,1.34000
999.36065,1.32138
997.87086,1.29546
996.38107,1.26957
994.89128,1.24664
993.40149,1.25750
991.91171,1.25078
990.42192,1.25143
988.93213,1.25211
987.44234,1.22860
985.95255,1.20512
984.46276,1.19121
982.97297,1.17293
981.48319,1.07836
979.99340,1.08069
978.50361,1.08451
977.01382,1.08837
975.52403,0.89118
974.03424,0.92592
972.54446,0.85501
971.05467,0.93384
969.56488,0.84685
968.07509,0.82740
966.58530,0.80799
965.09551,0.72549
963.60573,0.71641
962.11594,0.70882
960.62615,0.64990
959.13636,0.60202
957.64657,0.55416
956.15678,0.45130
954.66699,0.50257
953.17721,0.56269
951.68742,0.53330
950.19763,0.53183
948.70784,0.53039
947.21805,0.54072
945.72826,0.58043
944.23848,0.57321
942.74869,0.60712
941.25890,0.70857
939.76911,0.72345
938.27932,0.73837
936.78953,0.87807
935.29974,0.78004
933.80996,0.79798
932.32017,0.86879
930.83038,0.87945
929.34059,0.89015
927.85080,0.81868
926.36101,0.83531
924.87123,0.85490
923.38144,0.80407
921.89165,0.85601
920.40186,0.90798
918.91207,0.98347
917.42228,0.98266
915.93250,0.89970
914.44271,0.90042
912.95292,0.90558
911.46313,0.91076
909.97334,1.04661
908.48355,1.08708
906.99376,1.05860
905.50398,0.90393
904.01419,0.90119
902.52440,0.89849
901.03461,0.97140
899.54482,1.12507
898.05503,1.15255
896.56525,1.08172
895.07546,1.14814
893.58567,1.21460
892.09588,1.01177
890.60609,1.07609
889.11630,1.06412
887.62651,0.94063
886.13673,0.95074
884.64694,0.96087
883.15715,1.13248
881.66736,1.11920
880.17757,1.05310
878.68778,1.09931
877.19800,1.14556
875.70821,1.16321
874.21842,1.18384
872.72863,1.27934
871.23884,1.27067
869.74905,1.26716
868.25927,1.26369
866.76948,1.39307
865.27969,1.34048
863.78990,1.33196
862.30011,1.44676
860.81032,1.31868
859.32053,1.19063
857.83075,1.20571
856.34096,1.19881
854.85117,1.13910
853.36138,1.09557
851.87159,1.03078
850.38180,0.96603
848.89202,0.79636
847.40223,0.63406
845.91244,0.58921
844.42265,0.57448
842.93286,0.55978
841.44307,0.52969
839.95329,0.46882
838.46350,0.36541
836.97371,0.42201
835.48392,0.45076
833.99413,0.47954
832.50434,0.36157
831.01455,0.42857
829.52477,0.35616
828.03498,0.33369
826.54519,0.36042
825.05540,0.38717
823.56561,0.38241
822.07582,0.28227
820.58604,0.29077
819.09625,0.22591
817.60646,0.16109
816.11667,0.09189
814.62688,0.10785
813.13709,0.07541
811.64730,0.05327
810.15752,0.04217
808.66773,0.03110
807.17794,0.00171
805.68815,0.08128
804.19836,0.09776
802.70857,0.09446
801.21879,0.09119
799.72900,0.10189
798.23921,0.22710
796.74942,0.31272
795.25963,0.35140
793.76984,0.39011
792.28006,0.54040
790.79027,0.61293
789.30048,0.62384
787.81069,0.66561
786.32090,0.65897
784.83111,0.65236
783.34132,0.65019
781.85154,0.62310
780.36175,0.66208
778.87196,0.63064
777.38217,0.59924
775.89238,0.81737
774.40259,0.73759
772.91281,0.89561
771.42302,0.87240
769.93323,0.84921
768.44344,0.88844
766.95365,0.73249
765.46386,0.86277
763.97407,0.85952
762.48429,0.76898
760.99450,0.67846
759.50471,0.67090
758.01492,0.57384
756.52513,0.44306
755.03534,0.39156
753.54556,0.34009
752.05577,0.23288
750.56598,0.20055
749.07619,0.07138
747.58640,0.12130
746.09661,0.17126
744.60683,0.09648
743.11704,0.13916
741.62725,0.15251
740.13746,0.07710
738.64767,0.00171
737.15788,0.06661
735.66809,0.07724
734.17831,0.10991
732.68852,0.12134
731.19873,0.13279
729.70894,0.03933
728.21915,0.08534
726.72936,0.07266
725.23958,0.04094
723.74979,0.06428
722.26000,0.08766
720.77021,0.03401
719.28042,0.01415
717.79063,0.00459
716.30084,0.00314
714.81106,0.00171
713.32127,0.13751
711.83148,0.04438
710.34169,0.12887
708.85190,0.10551
707.36211,0.08219
705.87233,0.13448
704.38254,0.08699
702.89275,0.10852
701.40296,0.12715
699.91317,0.14580
698.42338,0.16155
696.93360,0.17293
695.44381,0.24011
693.95402,0.26476
692.46423,0.28943
690.97444,0.27158
689.48465,0.29485
687.99486,0.36805
686.50508,0.33121
685.01529,0.29439
683.52550,0.31778
682.03571,0.34267
680.54592,0.39107
679.05613,0.38300
677.56635,0.37496
676.07656,0.29869
674.58677,0.33988
673.09698,0.29010
671.60719,0.20585
670.11740,0.12164
668.62761,0.14974
667.13783,0.18227
665.64804,0.14365
664.15825,0.10505
662.66846,0.11859
661.17867,0.08813
659.68888,0.09586
658.19910,0.09775
656.70931,0.09967
655.21952,0.07814
653.72973,0.12415
652.23994,0.14818
650.75015,0.13995
649.26037,0.13174
647.77058,0.08394
646.28079,0.08021
644.79100,0.06622
643.30121,0.06548
641.81142,0.06477
640.32163,0.11105
638.83185,0.06784
637.34206,0.03933
635.85227,0.03580
634.36248,0.03231
632.87269,0.08168
631.38290,0.05769
629.89312,0.08658
628.40333,0.08100
626.91354,0.07545
625.42375,0.09856
623.93396,0.09380
622.44417,0.10816
620.95438,0.12255
619.46460,0.04010
617.97481,0.00171
616.48502,0.07806
614.99523,0.11627
613.50544,0.15452
612.01565,0.06950
610.52587,0.06671
609.03608,0.09184
607.54629,0.12360
606.05650,0.15539
604.56671,0.20409
603.07692,0.09578
601.58714,0.11445
600.09735,0.13315
598.60756,0.11006
597.11777,0.17065
595.62798,0.11092
594.13819,0.08425
592.64840,0.05760
591.15862,0.11098
589.66883,0.15411
588.17904,0.15031
586.68925,0.20231
585.19946,0.25434
583.70967,0.16109
582.21989,0.18823
580.73010,0.19412
579.24031,0.20004
577.75052,0.20378
576.26073,0.11950
574.77094,0.15266
573.28115,0.22694
571.79137,0.30126
570.30158,0.25379
568.81179,0.25625
567.32200,0.25580
565.83221,0.25539
564.34242,0.39737
562.85264,0.51590
561.36285,0.50237
559.87306,0.48593
558.38327,0.46952
556.89348,0.47369
555.40369,0.49550
553.91391,0.55918
552.42412,0.62288
550.93433,0.66533
549.44454,0.62562
547.95475,0.65199
546.46496,0.68939
544.97517,0.72683
543.48539,0.77970
541.99560,0.74015
540.50581,0.75272
539.01602,0.76533
537.52623,0.71412
536.03644,0.72458
534.54666,0.76737
533.05687,0.74120
531.56708,0.71506
530.07729,0.69042
528.58750,0.75094
527.09771,0.66692
525.60792,0.58293
524.11814,0.56868
522.62835,0.64547
521.13856,0.63569
519.64877,0.59511
518.15898,0.55457
516.66919,0.58744
515.17941,0.55283
513.68962,0.57256
512.19983,0.59231
510.71004,0.61797
509.22025,0.53211
507.73046,0.70313
506.24068,0.66063
504.75089,0.61816
503.26110,0.64690
501.77131,0.70062
500.28152,0.67072
498.79173,0.64084
497.30194,0.66677
495.81216,0.72502
494.32237,0.70771
492.83258,0.69043
491.34279,0.65044
489.85300,0.69413
488.36321,0.63952
486.87343,0.58346
485.38364,0.52744
483.89385,0.55071
482.40406,0.38614
480.91427,0.35810
479.42448,0.33008
477.93469,0.30357
476.44491,0.25507
474.95512,0.27558
473.46533,0.29612
471.97554,0.16552
470.48575,0.17291
468.99596,0.14658
467.50618,0.12394
466.01639,0.10134
464.52660,0.00171
463.03681,0.17062
461.54702,0.17517
460.05723,0.17976
458.56745,0.14768
457.07766,0.24333
455.58787,0.22599
454.09808,0.20868
452.60829,0.32203
451.11850,0.32386
449.62871,0.30737
448.13893,0.29092
446.64914,0.43374
445.15935,0.51055
443.66956,0.58445
442.17977,0.62682
440.68998,0.66923
439.20020,0.74616
437.71041,0.81724
436.22062,0.90157
434.73083,0.98592
433.24104,1.04829
431.75125,1.28829
430.26146,1.28687
428.77168,1.28549
427.28189,1.46686
425.79210,1.37968
424.30231,1.37619
422.81252,1.37272
421.32273,1.36635
419.83295,1.27782
418.34316,1.20914
416.85337,1.14048
415.36358,0.98600
413.87379,1.00180
412.38400,0.93030
410.89422,0.85883
409.40443,0.79399
407.91464,0.81725
406.42485,0.75394
404.93506,0.75378
403.44527,0.75364
401.95548,0.69483
400.46570,0.63458
398.97591,0.60958
397.48612,0.58462
395.99633,0.65509
394.50654,0.57588
393.01675,0.60164
391.52697,0.62743
390.03718,0.47199
388.54739,0.45748
387.05760,0.46942
385.56781,0.48139
384.07802,0.51394
382.58824,0.53771
381.09845,0.52849
379.60866,0.51930
378.11887,0.38025
376.62908,0.25150
375.13929,0.25634
373.64950,0.26121
372.15972,0.29694
370.66993,0.26812
369.18014,0.24813
367.69035,0.22817
366.20056,0.17743
364.71077,0.11790
363.22099,0.17069
361.73120,0.22350
360.24141,0.22278
358.75162,0.19420
357.26183,0.17225
355.77204,0.15033
354.28225,0.11744
352.79247,0.07577
351.30268,0.05982
349.81289,0.04389
348.32310,0.16105
346.83331,0.09331
345.34352,0.11953
343.85374,0.14579
342.36395,0.16033
340.87416,0.11032
339.38437,0.12639
337.89458,0.14249
336.40479,0.03827
334.91501,0.02067
333.42522,0.01118
331.93543,0.00171
330.44564,0.07465
328.95585,0.20045
327.46606,0.14208
325.97627,0.08375
324.48649,0.06287
322.99670,0.11981
321.50691,0.13935
320.01712,0.15893
318.52733,0.08387
317.03754,0.07928
315.54776,0.06739
314.05797,0.05553
312.56818,0.04664
311.07839,0.04071
309.58860,0.07004
308.09881,0.09940
306.60902,0.07888
305.11924,0.11270
303.62945,0.08638
302.13966,0.06008
300.64987,0.16444
299.16008,0.00171
