1778.52000,0.01452
1777.03021,0.06219
1775.54042,0.04582
1774.05063,0.05279
1772.56085,0.06273
1771.07106,0.03484
1769.58127,0.00845
1768.09148,0.04910
1766.60169,0.07231
1765.11190,0.05334
1763.62212,0.02421
1762.13233,0.08251
1760.64254,0.08115
1759.15275,0.05070
1757.66296,0.04068
1756.17317,0.00887
1754.68339,0.03243
1753.19360,0.03129
1751.70381,0.03747
1750.21402,0.00000
1748.72423,0.02520
1747.23444,0.05190
1745.74465,0.04223
1744.25487,0.05883
1742.76508,0.08566
1741.27529,0.06011
1739.78550,0.10887
1738.29571,0.01205
1736.80592,0.08274
1735.31614,0.06028
1733.82635,0.05388
1732.33656,0.04607
1730.84677,0.09655
1729.35698,0.06698
1727.86719,0.05784
1726.37740,0.04293
1724.88762,0.03097
1723.39783,0.08458
1721.90804,0.10038
1720.41825,0.00845
1718.92846,0.06363
1717.43867,0.04166
1715.94889,0.11732
1714.45910,0.14495
1712.96931,0.07361
1711.47952,0.11298
1709.98973,0.06357
1708.49994,0.12925
1707.01016,0.12798
1705.52037,0.12675
1704.03058,0.12557
1702.54079,0.19288
1701.05100,0.15538
1699.56121,0.13831
1698.07142,0.18246
1696.58164,0.19169
1695.09185,0.21553
1693.60206,0.24524
1692.11227,0.20946
1690.62248,0.28732
1689.13269,0.31279
1687.64291,0.29753
1686.15312,0.25027
1684.66333,0.31374
1683.17354,0.30881
1681.68375,0.27334
1680.19396,0.31655
1678.70417,0.28408
1677.21439,0.29825
1675.72460,0.31975
1674.23481,0.29761
1672.74502,0.29735
1671.25523,0.35393
1669.76544,0.35668
1668.27566,0.30995
1666.78587,0.33462
1665.29608,0.27196
1663.80629,0.29673
1662.31650,0.28076
1660.82671,0.18765
1659.33693,0.27808
1657.84714,0.28263
1656.35735,0.19839
1654.86756,0.23944
1653.37777,0.21937
1651.88798,0.24448
1650.39819,0.24488
1648.90841,0.28611
1647.41862,0.16718
1645.92883,0.18810
1644.43904,0.20907
1642.94925,0.22134
1641.45946,0.25550
1639.96968,0.15427
1638.47989,0.25405
1636.99010,0.25194
1635.50031,0.19016
1634.01052,0.18085
1632.52073,0.16722
1631.03094,0.22499
1629.54116,0.19397
1628.05137,0.21979
1626.56158,0.18885
1625.07179,0.23078
1623.58200,0.24654
1622.09221,0.20117
1620.60243,0.28692
1619.11264,0.19650
1617.62285,0.20515
1616.13306,0.21093
1614.64327,0.23715
1613.15348,0.17020
1611.66370,0.20815
1610.17391,0.19373
1608.68412,0.24487
1607.19433,0.21014
1605.70454,0.20458
1604.21475,0.18086
1602.72496,0.15719
1601.23518,0.16195
1599.74539,0.18132
1598.25560,0.20074
1596.76581,0.18379
1595.27602,0.19893
1593.78623,0.14712
1592.29645,0.11428
1590.80666,0.15577
1589.31687,0.12011
1587.82708,0.09760
1586.33729,0.14067
1584.84750,0.13863
1583.35771,0.14684
1581.86793,0.14344
1580.37814,0.07164
1578.88835,0.12658
1577.39856,0.12185
1575.90877,0.06766
1574.41898,0.06302
1572.92920,0.06425
1571.43941,0.06698
1569.94962,0.07267
1568.45983,0.07841
1566.97004,0.09583
1565.48025,0.00845
1563.99047,0.04705
1562.50068,0.06968
1561.01089,0.10837
1559.52110,0.09031
1558.03131,0.10870
1556.54152,0.14753
1555.05173,0.12377
1553.56195,0.14375
1552.07216,0.13028
1550.58237,0.09792
1549.09258,0.07288
1547.60279,0.08867
1546.11300,0.06372
1544.62322,0.10581
1543.13343,0.04891
1541.64364,0.04012
1540.15385,0.03574
1538.66406,0.03140
1537.17427,0.05914
1535.68448,0.05343
1534.19470,0.00845
1532.70491,0.05222
1531.21512,0.04069
1529.72533,0.03066
1528.23554,0.04397
1526.74575,0.05587
1525.25597,0.08093
1523.76618,0.00845
1522.27639,0.04918
1520.78660,0.06373
1519.29681,0.04046
1517.80702,0.04200
1516.31724,0.04212
1514.82745,0.04375
1513.33766,0.04396
1511.84787,0.04422
1510.35808,0.04888
1508.86829,0.00845
1507.37850,0.05090
1505.88872,0.02057
1504.39893,0.08058
1502.90914,0.08093
1501.41935,0.01870
1499.92956,0.04680
1498.43977,0.09825
1496.94999,0.19197
1495.46020,0.24205
1493.97041,0.29800
1492.48062,0.40205
1490.99083,0.41731
1489.50104,0.45883
1488.01125,0.52588
1486.52147,0.59297
1485.03168,0.74675
1483.54189,0.75204
1482.05210,0.89281
1480.56231,1.05692
1479.07252,1.28661
1477.58274,1.35032
1476.09295,1.52913
1474.60316,1.53613
1473.11337,1.67716
1471.62358,1.73377
1470.13379,1.72926
1468.64401,1.54421
1467.15422,1.43638
1465.66443,1.41962
1464.17464,1.40291
1462.68485,1.36366
1461.19506,1.41330
1459.70527,1.34210
1458.21549,1.12095
1456.72570,1.09936
1455.23591,0.98024
1453.74612,1.00679
1452.25633,0.94455
1450.76654,0.91003
1449.27676,0.91778
1447.78697,0.87461
1446.29718,0.80964
1444.80739,0.70320
1443.31760,0.59681
1441.82781,0.53925
1440.33802,0.44387
1438.84824,0.45193
1437.35845,0.35081
1435.86866,0.37498
1434.37887,0.34531
1432.88908,0.35355
1431.39929,0.40260
1429.90951,0.23326
1428.41972,0.31590
1426.92993,0.37091
1425.44014,0.41723
1423.95035,0.46142
1422.46056,0.50564
1420.97078,0.44578
1419.48099,0.32480
1417.99120,0.41940
1416.50141,0.37861
1415.01162,0.42087
1413.52183,0.44424
1412.03204,0.45309
1410.54226,0.43577
1409.05247,0.41996
1407.56268,0.47263
1406.07289,0.42340
1404.58310,0.40990
1403.09331,0.39645
1401.60353,0.42454
1400.11374,0.37404
1398.62395,0.46338
1397.13416,0.44063
1395.64437,0.36259
1394.15458,0.45789
1392.66479,0.47169
1391.17501,0.47533
1389.68522,0.44698
1388.19543,0.42304
1386.70564,0.36929
1385.21585,0.31558
1383.72606,0.39517
1382.23628,0.38160
1380.74649,0.39284
1379.25670,0.46673
1377.76691,0.34990
1376.27712,0.47922
1374.78733,0.46733
1373.29755,0.49334
1371.80776,0.50047
1370.31797,0.54551
1368.82818,0.61024
1367.33839,0.67503
1365.84860,0.80029
1364.35881,0.88045
1362.86903,1.05386
1361.37924,1.06566
1359.88945,1.09936
1358.39966,1.16222
1356.90987,1.23095
1355.42008,1.23274
1353.93030,1.20398
1352.44051,1.17309
1350.95072,1.14224
1349.46093,1.12235
1347.97114,1.13747
1346.48135,0.85991
1344.99156,0.86200
1343.50178,0.87724
1342.01199,0.80806
1340.52220,0.67339
1339.03241,0.67421
1337.54262,0.68380
1336.05283,0.71747
1334.56305,0.75118
1333.07326,0.65605
1331.58347,0.61339
1330.09368,0.48486
1328.60389,0.48889
1327.11410,0.56724
1325.62432,0.55097
1324.13453,0.46922
1322.64474,0.51129
1321.15495,0.58690
1319.66516,0.55916
1318.17537,0.53146
1316.68558,0.57662
1315.19580,0.45144
1313.70601,0.39183
1312.21622,0.41528
1310.72643,0.41693
1309.23664,0.33852
1307.74685,0.42473
1306.25707,0.39738
1304.76728,0.42542
1303.27749,0.45350
1301.78770,0.42919
1300.29791,0.37727
1298.80812,0.34286
1297.31834,0.43228
1295.82855,0.46641
1294.33876,0.43504
1292.84897,0.45324
1291.35918,0.41031
1289.86939,0.41840
1288.37960,0.42653
1286.88982,0.48568
1285.40003,0.56963
1283.91024,0.56187
1282.42045,0.58911
1280.93066,0.62077
1279.44087,0.56800
1277.95109,0.56624
1276.46130,0.56453
1274.97151,0.58617
1273.48172,0.60785
1271.99193,0.70675
1270.50214,0.62075
1269.01235,0.63674
1267.52257,0.71976
1266.03278,0.71253
1264.54299,0.78690
1263.05320,0.86860
1261.56341,0.81126
1260.07362,0.75396
1258.58384,0.77608
1257.09405,0.80844
1255.60426,0.75492
1254.11447,0.85144
1252.62468,0.84315
1251.13489,0.75190
1249.64511,0.72331
1248.15532,0.63214
1246.66553,0.61966
1245.17574,0.60723
1243.68595,0.58464
1242.19616,0.62326
1240.70637,0.59639
1239.21659,0.56228
1237.72680,0.41463
1236.23701,0.39081
1234.74722,0.30586
1233.25743,0.28504
1231.76764,0.26426
1230.27786,0.35857
1228.78807,0.36409
1227.29828,0.37694
1225.80849,0.23546
1224.31870,0.19743
1222.82891,0.22060
1221.33912,0.19722
1219.84934,0.22995
1218.35955,0.26272
1216.86976,0.34141
1215.37997,0.28762
1213.89018,0.35620
1212.40039,0.29667
1210.91061,0.24155
1209.42082,0.24328
1207.93103,0.20646
1206.44124,0.16968
1204.95145,0.10309
1203.46166,0.15450
1201.97188,0.13315
1200.48209,0.12785
1198.99230,0.14882
1197.50251,0.04604
1196.01272,0.10495
1194.52293,0.09183
1193.03314,0.07874
1191.54336,0.05041
1190.05357,0.08912
1188.56378,0.09728
1187.07399,0.06180
1185.58420,0.04239
1184.09441,0.00845
1182.60463,0.02690
1181.11484,0.04539
1179.62505,0.05446
1178.13526,0.05775
1176.64547,0.03487
1175.15568,0.13290
1173.66589,0.05623
1172.17611,0.06115
1170.68632,0.03407
1169.19653,0.00704
1167.70674,0.04165
1166.21695,0.06173
1164.72716,0.06875
1163.23738,0.06562
1161.74759,0.07128
1160.25780,0.09008
1158.76801,0.05796
1157.27822,0.02588
1155.78843,0.12782
1154.29865,0.00845
1152.80886,0.06796
1151.31907,0.08091
1149.82928,0.13177
1148.33949,0.18413
1146.84970,0.09964
1145.35991,0.01519
1143.87013,0.07933
1142.38034,0.16245
1140.89055,0.23978
1139.40076,0.31425
1137.91097,0.24896
1136.42118,0.40798
1134.93140,0.39884
1133.44161,0.38974
1131.95182,0.47462
1130.46203,0.55809
1128.97224,0.49160
1127.48245,0.59555
1125.99266,0.53061
1124.50288,0.61571
1123.01309,0.64042
1121.52330,0.66517
1120.03351,0.73729
1118.54372,0.78325
1117.05393,0.80158
1115.56415,0.79374
1114.07436,0.78303
1112.58457,0.76654
1111.09478,0.75010
1109.60499,0.84292
1108.11520,0.78433
1106.62542,0.82627
1105.13563,0.94252
1103.64584,1.06610
1102.15605,1.21303
1100.66626,1.21146
1099.17647,1.20993
1097.68668,1.19388
1096.19690,1.30311
1094.70711,1.24929
1093.21732,1.35424
1091.72753,1.35585
1090.23774,1.37642
1088.74795,1.39705
1087.25817,1.59101
1085.76838,1.60444
1084.27859,1.55820
1082.78880,1.71444
1081.29901,1.71052
1079.80922,1.57267
1078.31943,1.66205
1076.82965,1.75147
1075.33986,1.76957
1073.85007,1.73966
1072.36028,1.72436
1070.87049,1.85328
1069.38070,1.92399
1067.89092,1.96197
1066.40113,2.00000
1064.91134,1.90045
1063.42155,1.84027
1061.93176,1.62139
1060.44197,1.59333
1058.95219,1.60173
1057.46240,1.52352
1055.97261,1.44535
1054.48282,1.34902
1052.99303,1.19594
1051.50324,1.16378
1050.01345,1.08069
1048.52367,1.10395
1047.03388,1.04935
1045.54409,0.99479
1044.05430,0.89732
1042.56451,0.81153
1041.07472,0.79424
1039.58494,0.68816
1038.09515,0.63746
1036.60536,0.59846
1035.11557,0.55950
1033.62578,0.58029
1032.13599,0.44384
1030.64620,0.48220
1029.15642,0.54099
1027.66663,0.50079
1026.17684,0.46064
1024.68705,0.49917
1023.19726,0.54649
1021.70747,0.78025
1020.21769,0.89464
1018.72790,0.97995
1017.23811,1.08351
1015.74832,1.18711
1014.25853,1.36284
1012.76874,1.48474
1011.27896,1.69551
1009.78917,1.76652
1008.29938,1.74728
1006.80959,1.73828
1005.31980,1.72933
1003.83001,1.65634
1002.34022,1.53097
1000.85044,1.54690
999.36065,1.51482
997.87086,1.47914
996.38107,1.44351
994.89128,1.45671
993.40149,1.51364
991.91171,1.45411
990.42192,1.49511
988.93213,1.55363
987.44234,1.56996
985.95255,1.58633
984.46276,1.66100
982.97297,1.61776
981.48319,1.66776
979.99340,1.62314
978.50361,1.54508
977.01382,1.46705
975.52403,1.47208
974.03424,1.45095
972.54446,1.23325
971.05467,1.31269
969.56488,1.33974
968.07509,1.25688
966.58530,1.17407
965.09551,1.16193
963.60573,1.21392
962.11594,1.17420
960.62615,1.16802
959.13636,1.05121
957.64657,0.93443
956.15678,0.89052
954.66699,0.86122
953.17721,0.91788
951.68742,0.91633
950.19763,0.89226
948.70784,0.86822
947.21805,0.91778
945.72826,0.87272
944.23848,0.83790
942.74869,0.95166
941.25890,0.94897
939.76911,1.07229
938.27932,1.19565
936.78953,1.31979
935.29974,1.12358
933.80996,1.09780
932.32017,1.16382
930.83038,1.23279
929.34059,1.30180
927.85080,1.07669
926.36101,1.03511
924.87123,1.09261
923.38144,1.15161
921.89165,1.16768
920.40186,1.18381
918.91207,1.33905
917.42228,1.21473
915.93250,1.34676
914.44271,1.24292
912.95292,1.26946
911.46313,1.29604
909.97334,1.28844
908.48355,1.49788
906.99376,1.39716
905.50398,1.34310
904.01419,1.34514
902.52440,1.34723
901.03461,1.31951
899.54482,1.44765
898.05503,1.47245
896.56525,1.51330
895.07546,1.57896
893.58567,1.64466
892.09588,1.45847
890.60609,1.45872
889.11630,1.35708
887.62651,1.20306
886.13673,1.19107
884.64694,1.17912
883.15715,1.29173
881.66736,1.42332
880.17757,1.44427
878.68778,1.50677
877.19800,1.56931
875.70821,1.34428
874.21842,1.31881
872.72863,1.50600
871.23884,1.56071
869.74905,1.49823
868.25927,1.43579
866.76948,1.51685
865.27969,1.62708
863.78990,1.66308
862.30011,1.57533
860.81032,1.57282
859.32053,1.57036
857.83075,1.58469
856.34096,1.49276
854.85117,1.50426
853.36138,1.33377
851.87159,1.20483
850.38180,1.07593
848.89202,0.85606
847.40223,0.79060
845.91244,0.74412
844.42265,0.77996
842.93286,0.81585
841.44307,0.70250
839.95329,0.52804
838.46350,0.52547
836.97371,0.48798
835.48392,0.53283
833.99413,0.57771
832.50434,0.59716
831.01455,0.49869
829.52477,0.56046
828.03498,0.44751
826.54519,0.44602
825.05540,0.44456
823.56561,0.48903
822.07582,0.43160
820.58604,0.28829
819.09625,0.26881
817.60646,0.24938
816.11667,0.13824
814.62688,0.22375
813.13709,0.16949
811.64730,0.08470
810.15752,0.04655
808.66773,0.00845
807.17794,0.03979
805.68815,0.09302
804.19836,0.16377
802.70857,0.17995
801.21879,0.19617
799.72900,0.23938
798.23921,0.32487
796.74942,0.44535
795.25963,0.47413
793.76984,0.50295
792.28006,0.58424
790.79027,0.73694
789.30048,0.74114
787.81069,0.89392
786.32090,0.90330
784.83111,0.91273
783.34132,0.89817
781.85154,0.83705
780.36175,0.91578
778.87196,0.87806
777.38217,0.84037
775.89238,1.01099
774.40259,0.95446
772.91281,1.02176
771.42302,1.02940
769.93323,1.03708
768.44344,1.12053
766.95365,1.09480
765.46386,1.03271
763.97407,0.92407
762.48429,0.91522
760.99450,0.90642
759.50471,0.81538
758.01492,0.75351
756.52513,0.62760
755.03534,0.53451
753.54556,0.44146
752.05577,0.29530
750.56598,0.23948
749.07619,0.13564
747.58640,0.11267
746.09661,0.08974
744.60683,0.09380
743.11704,0.09791
741.62725,0.13992
740.13746,0.15212
738.64767,0.16437
737.15788,0.00845
735.66809,0.01386
734.17831,0.14600
732.68852,0.10926
731.19873,0.07257
729.70894,0.09271
728.21915,0.09105
726.72936,0.13313
725.23958,0.07768
723.74979,0.11183
722.26000,0.14603
720.77021,0.14896
719.28042,0.08203
717.79063,0.06903
716.30084,0.06044
714.81106,0.05190
713.32127,0.00845
711.83148,0.12128
710.34169,0.06669
708.85190,0.09442
707.36211,0.12219
705.87233,0.09831
704.38254,0.05262
702.89275,0.11912
701.40296,0.09755
699.91317,0.07603
698.42338,0.14120
696.93360,0.12486
695.44381,0.21488
693.95402,0.21465
692.46423,0.21446
690.97444,0.33228
689.48465,0.33801
687.99486,0.33067
686.50508,0.34450
685.01529,0.35836
683.52550,0.37592
682.03571,0.38478
680.54592,0.28446
679.05613,0.31379
677.56635,0.34317
676.07656,0.36677
674.58677,0.19818
673.09698,0.20585
671.60719,0.20118
670.11740,0.19655
668.62761,0.16212
667.13783,0.24423
665.64804,0.21061
664.15825,0.17704
662.66846,0.12822
661.17867,0.12750
659.68888,0.10352
658.19910,0.16624
656.70931,0.22900
655.21952,0.17458
653.72973,0.16679
652.23994,0.22459
650.75015,0.21180
649.26037,0.19905
647.77058,0.15504
646.28079,0.14602
644.79100,0.05695
643.30121,0.05458
641.81142,0.05224
640.32163,0.00845
638.83185,0.04793
637.34206,0.07289
635.85227,0.10517
634.36248,0.13750
632.87269,0.01405
631.38290,0.02025
629.89312,0.05271
628.40333,0.04298
626.91354,0.03330
625.42375,0.04696
623.93396,0.07231
622.44417,0.06422
620.95438,0.05617
619.46460,0.00884
617.97481,0.04456
616.48502,0.08033
614.99523,0.08338
613.50544,0.08647
612.01565,0.09324
610.52587,0.06802
609.03608,0.14187
607.54629,0.13786
606.05650,0.13388
604.56671,0.17583
603.07692,0.13190
601.58714,0.13315
600.09735,0.13446
598.60756,0.06299
597.11777,0.02797
595.62798,0.16629
594.13819,0.13282
592.64840,0.09939
591.15862,0.07474
589.66883,0.11567
588.17904,0.11732
586.68925,0.11538
585.19946,0.11348
583.70967,0.20118
582.21989,0.14767
580.73010,0.13935
579.24031,0.13107
577.75052,0.15196
576.26073,0.17727
574.77094,0.13854
573.28115,0.19233
571.79137,0.24617
570.30158,0.27747
568.81179,0.42096
567.32200,0.37153
565.83221,0.32214
564.34242,0.40605
562.85264,0.60214
561.36285,0.63225
559.87306,0.64639
558.38327,0.66057
556.89348,0.72577
555.40369,0.69053
553.91391,0.74198
552.42412,0.79347
550.93433,0.73506
549.44454,0.71455
547.95475,0.89215
546.46496,0.89867
544.97517,0.90524
543.48539,1.00142
541.99560,1.07579
540.50581,1.02424
539.01602,0.97273
537.52623,0.80986
536.03644,0.78538
534.54666,0.83522
533.05687,0.90986
531.56708,0.98454
530.07729,0.84810
528.58750,0.78889
527.09771,0.76031
525.60792,0.73177
524.11814,0.76007
522.62835,0.75346
521.13856,0.75127
519.64877,0.69669
518.15898,0.64216
516.66919,0.64883
515.17941,0.71526
513.68962,0.64630
512.19983,0.57737
510.71004,0.60025
509.22025,0.63772
507.73046,0.68981
506.24068,0.70262
504.75089,0.71547
503.26110,0.74584
501.77131,0.65538
500.28152,0.63123
498.79173,0.60713
497.30194,0.49059
495.81216,0.79351
494.32237,0.80303
492.83258,0.81259
491.34279,0.78069
489.85300,0.75466
488.36321,0.60635
486.87343,0.60954
485.38364,0.61277
483.89385,0.51410
482.40406,0.39946
480.91427,0.37442
479.42448,0.34943
477.93469,0.26404
476.44491,0.24569
474.95512,0.20263
473.46533,0.15961
471.97554,0.10352
470.48575,0.09408
468.99596,0.03081
467.50618,0.02219
466.01639,0.01361
464.52660,0.00845
463.03681,0.01935
461.54702,0.05431
460.05723,0.08933
458.56745,0.04210
457.07766,0.12016
455.58787,0.14001
454.09808,0.15991
452.60829,0.26577
451.11850,0.31780
449.62871,0.33783
448.13893,0.35790
446.64914,0.45957
445.15935,0.57730
443.66956,0.69216
442.17977,0.69567
440.68998,0.69921
439.20020,0.83314
437.71041,0.88847
436.22062,1.03996
434.73083,1.19150
433.24104,1.41881
431.75125,1.57480
430.26146,1.69516
428.77168,1.81556
427.28189,1.94692
425.79210,1.96911
424.30231,1.90105
422.81252,1.83304
421.32273,1.64565
419.83295,1.63452
418.34316,1.53314
416.85337,1.43181
415.36358,1.32032
413.87379,1.17102
412.38400,1.14190
410.89422,1.11283
409.40443,1.08308
407.91464,0.92084
406.42485,0.72952
404.93506,0.77781
403.44527,0.82615
401.95548,0.77185
400.46570,0.79625
398.97591,0.81559
397.48612,0.83497
395.99633,0.86969
394.50654,0.84619
393.01675,0.80527
391.52697,0.76439
390.03718,0.66385
388.54739,0.62161
387.05760,0.60052
385.56781,0.57948
384.07802,0.76892
382.58824,0.71228
381.09845,0.62365
379.60866,0.53507
378.11887,0.58633
376.62908,0.40318
375.13929,0.35332
373.64950,0.30350
372.15972,0.28358
370.66993,0.39623
369.18014,0.32761
367.69035,0.25904
366.20056,0.21163
364.71077,0.20067
363.22099,0.16427
361.73120,0.12791
360.24141,0.16805
358.75162,0.26794
357.26183,0.25866
355.77204,0.24942
354.28225,0.09459
352.79247,0.09563
351.30268,0.08580
349.81289,0.07600
348.32310,0.07718
346.83331,0.06939
345.34352,0.09732
343.85374,0.12529
342.36395,0.14093
340.87416,0.19012
339.38437,0.16070
337.89458,0.13133
336.40479,0.15297
334.91501,0.10038
333.42522,0.05439
331.93543,0.00845
330.44564,0.07258
328.95585,0.18336
327.46606,0.14345
325.97627,0.10359
324.48649,0.11517
322.99670,0.22728
321.50691,0.21201
320.01712,0.19679
318.52733,0.20272
317.03754,0.10967
315.54776,0.12152
314.05797,0.13341
312.56818,0.00845
311.07839,0.04624
309.58860,0.04038
308.09881,0.03456
306.60902,0.07248
305.11924,0.03180
303.62945,0.07855
302.13966,0.08352
300.64987,0.00845
299.16008,0.00845
