1778.52000,0.06720
1777.03021,0.05379
1775.54042,0.04594
1774.05063,0.08973
1772.56085,0.05797
1771.07106,0.01703
1769.58127,0.06644
1768.09148,0.05874
1766.60169,0.02342
1765.11190,0.07845
1763.62212,0.02660
1762.13233,0.05404
1760.64254,0.05571
1759.15275,0.03528
1757.66296,0.00383
1756.17317,0.02217
1754.68339,0.07741
1753.19360,0.02762
1751.70381,0.00550
1750.21402,0.00000
1748.72423,0.01469
1747.23444,0.05522
1745.74465,0.00362
1744.25487,0.04236
1742.76508,0.01478
1741.27529,0.06465
1739.78550,0.07583
1738.29571,0.07783
1736.80592,0.05590
1735.31614,0.00819
1733.82635,0.01581
1732.33656,0.01056
1730.84677,0.01824
1729.35698,0.00383
1727.86719,0.07505
1726.37740,0.05045
1724.88762,0.04248
1723.39783,0.03268
1721.90804,0.02292
1720.41825,0.05006
1718.92846,0.06063
1717.43867,0.04543
1715.94889,0.04501
1714.45910,0.05567
1712.96931,0.08111
1711.47952,0.07341
1709.98973,0.10628
1708.49994,0.12075
1707.01016,0.10669
1705.52037,0.09265
1704.03058,0.10352
1702.54079,0.00383
1701.05100,0.11217
1699.56121,0.05832
1698.07142,0.09298
1696.58164,0.05210
1695.09185,0.17899
1693.60206,0.10868
1692.11227,0.16743
1690.62248,0.09533
1689.13269,0.17626
1687.64291,0.13740
1686.15312,0.19627
1684.66333,0.16300
1683.17354,0.18506
1681.68375,0.08549
1680.19396,0.18135
1678.70417,0.17401
1677.21439,0.14826
1675.72460,0.13176
1674.23481,0.14295
1672.74502,0.10807
1671.25523,0.11747
1669.76544,0.16008
1668.27566,0.10318
1666.78587,0.11451
1665.29608,0.15721
1663.80629,0.19810
1662.31650,0.17081
1660.82671,0.12696
1659.33693,0.12185
1657.84714,0.07254
1656.35735,0.14860
1654.86756,0.09565
1653.37777,0.03721
1651.88798,0.02303
1650.39819,0.09184
1648.90841,0.13855
1647.41862,0.12816
1645.92883,0.12608
1644.43904,0.12404
1642.94925,0.14139
1641.45946,0.12742
1639.96968,0.08584
1638.47989,0.13461
1636.99010,0.13548
1635.50031,0.06818
1634.01052,0.13363
1632.52073,0.16962
1631.03094,0.09688
1629.54116,0.12002
1628.05137,0.11738
1626.56158,0.17746
1625.07179,0.18963
1623.58200,0.14284
1622.09221,0.20853
1620.60243,0.16365
1619.11264,0.13355
1617.62285,0.14587
1616.13306,0.11767
1614.64327,0.15033
1613.15348,0.09454
1611.66370,0.10699
1610.17391,0.11578
1608.68412,0.06192
1607.19433,0.07261
1605.70454,0.09255
1604.21475,0.13371
1602.72496,0.17491
1601.23518,0.06221
1599.74539,0.14310
1598.25560,0.16319
1596.76581,0.17962
1595.27602,0.09654
1593.78623,0.14621
1592.29645,0.08162
1590.80666,0.10370
1589.31687,0.10185
1587.82708,0.11846
1586.33729,0.10745
1584.84750,0.13703
1583.35771,0.09474
1581.86793,0.02483
1580.37814,0.10611
1578.88835,0.08604
1577.39856,0.10286
1575.90877,0.01280
1574.41898,0.03521
1572.92920,0.09451
1571.43941,0.08012
1569.94962,0.09156
1568.45983,0.10303
1566.97004,0.11638
1565.48025,0.05786
1563.99047,0.05099
1562.50068,0.03862
1561.01089,0.12581
1559.52110,0.06005
1558.03131,0.07173
1556.54152,0.07053
1555.05173,0.11914
1553.56195,0.02584
1552.07216,0.07267
1550.58237,0.02367
1549.09258,0.04659
1547.60279,0.07692
1546.11300,0.17732
1544.62322,0.20955
1543.13343,0.07222
1541.64364,0.07870
1540.15385,0.06862
1538.66406,0.05858
1537.17427,0.10017
1535.68448,0.04410
1534.19470,0.10050
1532.70491,0.05924
1531.21512,0.07515
1529.72533,0.10030
1528.23554,0.00383
1526.74575,0.09254
1525.25597,0.07990
1523.76618,0.08942
1522.27639,0.06025
1520.78660,0.12697
1519.29681,0.08495
1517.80702,0.04113
1516.31724,0.07476
1514.82745,0.07339
1513.33766,0.05730
1511.84787,0.04125
1510.35808,0.06209
1508.86829,0.09956
1507.37850,0.11861
1505.88872,0.12111
1504.39893,0.00383
1502.90914,0.15181
1501.41935,0.12655
1499.92956,0.12345
1498.43977,0.10378
1496.94999,0.17815
1495.46020,0.24518
1493.97041,0.28459
1492.48062,0.28163
1490.99083,0.27318
1489.50104,0.39009
1488.01125,0.40843
1486.52147,0.42679
1485.03168,0.41476
1483.54189,0.60554
1482.05210,0.66546
1480.56231,0.73464
1479.07252,0.85361
1477.58274,0.93759
1476.09295,0.92574
1474.60316,1.09274
1473.11337,1.18787
1471.62358,1.13740
1470.13379,1.07775
1468.64401,0.99417
1467.15422,1.03780
1465.66443,0.96442
1464.17464,0.89106
1462.68485,0.79101
1461.19506,0.90481
1459.70527,0.85090
1458.21549,0.66799
1456.72570,0.67865
1455.23591,0.55663
1453.74612,0.59685
1452.25633,0.49516
1450.76654,0.46540
1449.27676,0.49649
1447.78697,0.46494
1446.29718,0.37075
1444.80739,0.39732
1443.31760,0.42393
1441.82781,0.32429
1440.33802,0.28183
1438.84824,0.24493
1437.35845,0.27258
1435.86866,0.24312
1434.37887,0.28557
1432.88908,0.24879
1431.39929,0.26734
1429.90951,0.20850
1428.41972,0.23449
1426.92993,0.28999
1425.44014,0.26995
1423.95035,0.34119
1422.46056,0.41246
1420.97078,0.41831
1419.48099,0.36890
1417.99120,0.35454
1416.50141,0.35496
1415.01162,0.38306
1413.52183,0.37616
1412.03204,0.45409
1410.54226,0.43988
1409.05247,0.49943
1407.56268,0.46685
1406.07289,0.44720
1404.58310,0.44510
1403.09331,0.44302
1401.60353,0.48798
1400.11374,0.52375
1398.62395,0.59273
1397.13416,0.57142
1395.64437,0.57226
1394.15458,0.70953
1392.66479,0.66066
1391.17501,0.65790
1389.68522,0.64964
1388.19543,0.66722
1386.70564,0.63506
1385.21585,0.60293
1383.72606,0.67221
1382.23628,0.58115
1380.74649,0.66708
1379.25670,0.67378
1377.76691,0.72475
1376.27712,0.72782
1374.78733,0.75305
1373.29755,0.87784
1371.80776,0.88469
1370.31797,1.00954
1368.82818,1.05977
1367.33839,1.11002
1365.84860,1.48750
1364.35881,1.65856
1362.86903,1.82780
1361.37924,1.89385
1359.88945,1.99126
1358.39966,1.97073
1356.90987,2.00000
1355.42008,1.95741
1353.93030,1.90747
1352.44051,1.84559
1350.95072,1.78373
1349.46093,1.75416
1347.97114,1.47762
1346.48135,1.24903
1344.99156,1.25826
1343.50178,1.09056
1342.01199,0.97820
1340.52220,0.87876
1339.03241,0.82913
1337.54262,0.71316
1336.05283,0.73087
1334.56305,0.74861
1333.07326,0.68988
1331.58347,0.61459
1330.09368,0.58725
1328.60389,0.54520
1327.11410,0.52530
1325.62432,0.47778
1324.13453,0.46163
1322.64474,0.42154
1321.15495,0.49577
1319.66516,0.48063
1318.17537,0.46552
1316.68558,0.37394
1315.19580,0.37824
1313.70601,0.28304
1312.21622,0.32611
1310.72643,0.26230
1309.23664,0.35336
1307.74685,0.27855
1306.25707,0.31253
1304.76728,0.33086
1303.27749,0.34923
1301.78770,0.28560
1300.29791,0.21463
1298.80812,0.27456
1297.31834,0.34743
1295.82855,0.33738
1294.33876,0.36422
1292.84897,0.38925
1291.35918,0.36639
1289.86939,0.35185
1288.37960,0.33734
1286.88982,0.26663
1285.40003,0.42638
1283.91024,0.37601
1282.42045,0.39757
1280.93066,0.35095
1279.44087,0.34491
1277.95109,0.36287
1276.46130,0.38454
1274.97151,0.37583
1273.48172,0.36715
1271.99193,0.41841
1270.50214,0.49366
1269.01235,0.40488
1267.52257,0.39909
1266.03278,0.51683
1264.54299,0.50925
1263.05320,0.55516
1261.56341,0.52460
1260.07362,0.49407
1258.58384,0.64329
1257.09405,0.54185
1255.60426,0.56763
1254.11447,0.65612
1252.62468,0.58426
1251.13489,0.47004
1249.64511,0.50332
1248.15532,0.37809
1246.66553,0.40958
1245.17574,0.44111
1243.68595,0.34363
1242.19616,0.41760
1240.70637,0.33861
1239.21659,0.29652
1237.72680,0.32267
1236.23701,0.29169
1234.74722,0.27366
1233.25743,0.23906
1231.76764,0.20449
1230.27786,0.18286
1228.78807,0.25157
1227.29828,0.19682
1225.80849,0.14947
1224.31870,0.13901
1222.82891,0.14702
1221.33912,0.16243
1219.84934,0.17880
1218.35955,0.19519
1216.86976,0.22175
1215.37997,0.23729
1213.89018,0.21045
1212.40039,0.16337
1210.91061,0.16793
1209.42082,0.20018
1207.93103,0.18821
1206.44124,0.17627
1204.95145,0.16436
1203.46166,0.06216
1201.97188,0.14433
1200.48209,0.11776
1198.99230,0.05989
1197.50251,0.12371
1196.01272,0.08618
1194.52293,0.04499
1193.03314,0.00383
1191.54336,0.06743
1190.05357,0.02599
1188.56378,0.06937
1187.07399,0.02246
1185.58420,0.03641
1184.09441,0.01721
1182.60463,0.02661
1181.11484,0.03605
1179.62505,0.05380
1178.13526,0.04394
1176.64547,0.05807
1175.15568,0.09066
1173.66589,0.09011
1172.17611,0.07484
1170.68632,0.03932
1169.19653,0.00383
1167.70674,0.11562
1166.21695,0.09842
1164.72716,0.04806
1163.23738,0.05857
1161.74759,0.07463
1160.25780,0.04464
1158.76801,0.09118
1157.27822,0.13775
1155.78843,0.05808
1154.29865,0.03006
1152.80886,0.04446
1151.31907,0.06442
1149.82928,0.17658
1148.33949,0.11918
1146.84970,0.10329
1145.35991,0.08743
1143.87013,0.13519
1142.38034,0.11662
1140.89055,0.12204
1139.40076,0.12934
1137.91097,0.24359
1136.42118,0.21408
1134.93140,0.24359
1133.44161,0.27312
1131.95182,0.33587
1130.46203,0.32308
1128.97224,0.40801
1127.48245,0.41186
1125.99266,0.35491
1124.50288,0.39200
1123.01309,0.46138
1121.52330,0.53079
1120.03351,0.49977
1118.54372,0.53698
1117.05393,0.56501
1115.56415,0.49168
1114.07436,0.56770
1112.58457,0.57553
1111.09478,0.58340
1109.60499,0.58393
1108.11520,0.62504
1106.62542,0.56480
1105.13563,0.73131
1103.64584,0.79094
1102.15605,0.85982
1100.66626,0.86422
1099.17647,0.86864
1097.68668,0.81595
1096.19690,0.81859
1094.70711,0.96688
1093.21732,0.99908
1091.72753,1.09766
1090.23774,1.10687
1088.74795,1.11611
1087.25817,0.97331
1085.76838,1.20473
1084.27859,1.17627
1082.78880,1.19762
1081.29901,1.16553
1079.80922,1.17772
1078.31943,1.18164
1076.82965,1.18559
1075.33986,1.37114
1073.85007,1.42769
1072.36028,1.42712
1070.87049,1.57221
1069.38070,1.45742
1067.89092,1.53344
1066.40113,1.60949
1064.91134,1.54640
1063.42155,1.38565
1061.93176,1.22308
1060.44197,1.12505
1058.95219,1.21877
1057.46240,1.15859
1055.97261,1.09845
1054.48282,1.08349
1052.99303,1.03539
1051.50324,0.88962
1050.01345,0.78075
1048.52367,0.79172
1047.03388,0.76955
1045.54409,0.74740
1044.05430,0.62390
1042.56451,0.59260
1041.07472,0.46178
1039.58494,0.34759
1038.09515,0.37905
1036.60536,0.34603
1035.11557,0.31303
1033.62578,0.40910
1032.13599,0.35773
1030.64620,0.31561
1029.15642,0.34725
1027.66663,0.30426
1026.17684,0.26131
1024.68705,0.41654
1023.19726,0.47596
1021.70747,0.60545
1020.21769,0.64464
1018.72790,0.80368
1017.23811,0.91022
1015.74832,1.01679
1014.25853,1.11509
1012.76874,1.25397
1011.27896,1.51086
1009.78917,1.61663
1008.29938,1.53993
1006.80959,1.50198
1005.31980,1.46405
1003.83001,1.38929
1002.34022,1.40673
1000.85044,1.18640
999.36065,1.10067
997.87086,1.11543
996.38107,1.13022
994.89128,1.10541
993.40149,1.12671
991.91171,1.13514
990.42192,1.18968
988.93213,1.01936
987.44234,1.03526
985.95255,1.05118
984.46276,1.03211
982.97297,0.94118
981.48319,1.02171
979.99340,0.95848
978.50361,0.94322
977.01382,0.92798
975.52403,0.84826
974.03424,0.75014
972.54446,0.73868
971.05467,0.73647
969.56488,0.60157
968.07509,0.62154
966.58530,0.64154
965.09551,0.55281
963.60573,0.51757
962.11594,0.49711
960.62615,0.47667
959.13636,0.47101
957.64657,0.46539
956.15678,0.43398
954.66699,0.45975
953.17721,0.39338
951.68742,0.43028
950.19763,0.45890
948.70784,0.48755
947.21805,0.42315
945.72826,0.37352
944.23848,0.48983
942.74869,0.42367
941.25890,0.54925
939.76911,0.55597
938.27932,0.56271
936.78953,0.72156
935.29974,0.59104
933.80996,0.69280
932.32017,0.63607
930.83038,0.64850
929.34059,0.66095
927.85080,0.64303
926.36101,0.58088
924.87123,0.67177
923.38144,0.67605
921.89165,0.64995
920.40186,0.62387
918.91207,0.57847
917.42228,0.66582
915.93250,0.66657
914.44271,0.78900
912.95292,0.72252
911.46313,0.65608
909.97334,0.73989
908.48355,0.78871
906.99376,0.81360
905.50398,0.77216
904.01419,0.72614
902.52440,0.68014
901.03461,0.78257
899.54482,0.79839
898.05503,0.90273
896.56525,0.97206
895.07546,0.96217
893.58567,0.95230
892.09588,0.85214
890.60609,0.79257
889.11630,0.85099
887.62651,0.73065
886.13673,0.75503
884.64694,0.77945
883.15715,0.88961
881.66736,0.88367
880.17757,0.90541
878.68778,0.94654
877.19800,0.98770
875.70821,0.89156
874.21842,0.86365
872.72863,0.97586
871.23884,1.05124
869.74905,1.06397
868.25927,1.07674
866.76948,1.02686
865.27969,1.03231
863.78990,1.15393
862.30011,0.93455
860.81032,0.97327
859.32053,1.01202
857.83075,0.98260
856.34096,0.89238
854.85117,1.04367
853.36138,0.98115
851.87159,0.81452
850.38180,0.64792
848.89202,0.65002
847.40223,0.46965
845.91244,0.45706
844.42265,0.43713
842.93286,0.41722
841.44307,0.33836
839.95329,0.32589
838.46350,0.33004
836.97371,0.28076
835.48392,0.32737
833.99413,0.37400
832.50434,0.31744
831.01455,0.33649
829.52477,0.38137
828.03498,0.29356
826.54519,0.28321
825.05540,0.27288
823.56561,0.27180
822.07582,0.23941
820.58604,0.18678
819.09625,0.14708
817.60646,0.10741
816.11667,0.12675
814.62688,0.13138
813.13709,0.11576
811.64730,0.04119
810.15752,0.03208
808.66773,0.02301
807.17794,0.00383
805.68815,0.05219
804.19836,0.07109
802.70857,0.09740
801.21879,0.12373
799.72900,0.10401
798.23921,0.22257
796.74942,0.27112
795.25963,0.26531
793.76984,0.25954
792.28006,0.40034
790.79027,0.41583
789.30048,0.53088
787.81069,0.42108
786.32090,0.44956
784.83111,0.47807
783.34132,0.57296
781.85154,0.54808
780.36175,0.67806
778.87196,0.62097
777.38217,0.56391
775.89238,0.64237
774.40259,0.58630
772.91281,0.65191
771.42302,0.68714
769.93323,0.72240
768.44344,0.74387
766.95365,0.71006
765.46386,0.81454
763.97407,0.75314
762.48429,0.66321
760.99450,0.57330
759.50471,0.48250
758.01492,0.49312
756.52513,0.40975
755.03534,0.34485
753.54556,0.27998
752.05577,0.26307
750.56598,0.24434
749.07619,0.10398
747.58640,0.10190
746.09661,0.09985
744.60683,0.00383
743.11704,0.07551
741.62725,0.09008
740.13746,0.09915
738.64767,0.10826
737.15788,0.07130
735.66809,0.03069
734.17831,0.00118
732.68852,0.01503
731.19873,0.02892
729.70894,0.01058
728.21915,0.09365
726.72936,0.03113
725.23958,0.09030
723.74979,0.10249
722.26000,0.11471
720.77021,0.15001
719.28042,0.06920
717.79063,0.05110
716.30084,0.07174
714.81106,0.09241
713.32127,0.08546
711.83148,0.01402
710.34169,0.06796
708.85190,0.11548
707.36211,0.16302
705.87233,0.12120
704.38254,0.00383
702.89275,0.05738
701.40296,0.05474
699.91317,0.05212
698.42338,0.06705
696.93360,0.19446
695.44381,0.09148
693.95402,0.17931
692.46423,0.26717
690.97444,0.25276
689.48465,0.21441
687.99486,0.21112
686.50508,0.25025
685.01529,0.28942
683.52550,0.35258
682.03571,0.35309
680.54592,0.25041
679.05613,0.23531
677.56635,0.22025
676.07656,0.32964
674.58677,0.20680
673.09698,0.19275
671.60719,0.19255
670.11740,0.19238
668.62761,0.10284
667.13783,0.14974
665.64804,0.14137
664.15825,0.13303
662.66846,0.17633
661.17867,0.12380
659.68888,0.17085
658.19910,0.17646
656.70931,0.18209
655.21952,0.19605
653.72973,0.05888
652.23994,0.09133
650.75015,0.09340
649.26037,0.09550
647.77058,0.16859
646.28079,0.09056
644.79100,0.11026
643.30121,0.09957
641.81142,0.08892
640.32163,0.14004
638.83185,0.12115
637.34206,0.02487
635.85227,0.01433
634.36248,0.00383
632.87269,0.05285
631.38290,0.02818
629.89312,0.09385
628.40333,0.11163
626.91354,0.12944
625.42375,0.10120
623.93396,0.02322
622.44417,0.05126
620.95438,0.07933
619.46460,0.04936
617.97481,0.05260
616.48502,0.15542
614.99523,0.13015
613.50544,0.10491
612.01565,0.14146
610.52587,0.15407
609.03608,0.10588
607.54629,0.16463
606.05650,0.22342
604.56671,0.16057
603.07692,0.19545
601.58714,0.17507
600.09735,0.15471
598.60756,0.15097
597.11777,0.11592
595.62798,0.13436
594.13819,0.13440
592.64840,0.13447
591.15862,0.07742
589.66883,0.13285
588.17904,0.08324
586.68925,0.16177
585.19946,0.24033
583.70967,0.12998
582.21989,0.15238
580.73010,0.19324
579.24031,0.23413
577.75052,0.12205
576.26073,0.17038
574.77094,0.16159
573.28115,0.18970
571.79137,0.21784
570.30158,0.11882
568.81179,0.15623
567.32200,0.19183
565.83221,0.22747
564.34242,0.33317
562.85264,0.36518
561.36285,0.32533
559.87306,0.38320
558.38327,0.44110
556.89348,0.49535
555.40369,0.50722
553.91391,0.52282
552.42412,0.53845
550.93433,0.51723
549.44454,0.56057
547.95475,0.58735
546.46496,0.57544
544.97517,0.56357
543.48539,0.66785
541.99560,0.71503
540.50581,0.70140
539.01602,0.68780
537.52623,0.74797
536.03644,0.67176
534.54666,0.63982
533.05687,0.61251
531.56708,0.58524
530.07729,0.66215
528.58750,0.53632
527.09771,0.54969
525.60792,0.56309
524.11814,0.61984
522.62835,0.59736
521.13856,0.55094
519.64877,0.52114
518.15898,0.49137
516.66919,0.58330
515.17941,0.60705
513.68962,0.51193
512.19983,0.41685
510.71004,0.49046
509.22025,0.49774
507.73046,0.55113
506.24068,0.54833
504.75089,0.54556
503.26110,0.50872
501.77131,0.48482
500.28152,0.57615
498.79173,0.66751
497.30194,0.51097
495.81216,0.55170
494.32237,0.59339
492.83258,0.63510
491.34279,0.58191
489.85300,0.60248
488.36321,0.54382
486.87343,0.50086
485.38364,0.45793
483.89385,0.44729
482.40406,0.33529
480.91427,0.29890
479.42448,0.26254
477.93469,0.23543
476.44491,0.23968
474.95512,0.21816
473.46533,0.19667
471.97554,0.14203
470.48575,0.20723
468.99596,0.16924
467.50618,0.16169
466.01639,0.15417
464.52660,0.00383
463.03681,0.15538
461.54702,0.12355
460.05723,0.09175
458.56745,0.11435
457.07766,0.03192
455.58787,0.09514
454.09808,0.15839
452.60829,0.28619
451.11850,0.18544
449.62871,0.23588
448.13893,0.28635
446.64914,0.33501
445.15935,0.46295
443.66956,0.43241
442.17977,0.46825
440.68998,0.50412
439.20020,0.55292
437.71041,0.59254
436.22062,0.65707
434.73083,0.72164
433.24104,0.77056
431.75125,0.86560
430.26146,0.91090
428.77168,0.95623
427.28189,1.08638
425.79210,1.28477
424.30231,1.23433
422.81252,1.18392
421.32273,1.27917
419.83295,1.11638
418.34316,1.02828
416.85337,0.94021
415.36358,0.90839
413.87379,0.72544
412.38400,0.66603
410.89422,0.60665
409.40443,0.59153
407.91464,0.58198
406.42485,0.50979
404.93506,0.47633
403.44527,0.44291
401.95548,0.42979
400.46570,0.48306
398.97591,0.50872
397.48612,0.53440
395.99633,0.45504
394.50654,0.41995
393.01675,0.45494
391.52697,0.48996
390.03718,0.38860
388.54739,0.35364
387.05760,0.36202
385.56781,0.37043
384.07802,0.39822
382.58824,0.33020
381.09845,0.32487
379.60866,0.31958
378.11887,0.28666
376.62908,0.26853
375.13929,0.28176
373.64950,0.29502
372.15972,0.30278
370.66993,0.24605
369.18014,0.26124
367.69035,0.27646
366.20056,0.08895
364.71077,0.18718
363.22099,0.22185
361.73120,0.25655
360.24141,0.28114
358.75162,0.26889
357.26183,0.30368
355.77204,0.33850
354.28225,0.26551
352.79247,0.24417
351.30268,0.18968
349.81289,0.13521
348.32310,0.09552
346.83331,0.02269
345.34352,0.06650
343.85374,0.11034
342.36395,0.18739
340.87416,0.34189
339.38437,0.26048
337.89458,0.17909
336.40479,0.16778
334.91501,0.11411
333.42522,0.07428
331.93543,0.03449
330.44564,0.10810
328.95585,0.11169
327.46606,0.11531
325.97627,0.11895
324.48649,0.08208
322.99670,0.09685
321.50691,0.13837
320.01712,0.17993
318.52733,0.10631
317.03754,0.15806
315.54776,0.20340
314.05797,0.24876
312.56818,0.00383
311.07839,0.05143
309.58860,0.06772
308.09881,0.08405
306.60902,0.00824
305.11924,0.08545
303.62945,0.05394
302.13966,0.02246
300.64987,0.06658
299.16008,0.00383
