1778.52000,0.00389
1777.03021,0.05609
1775.54042,0.02914
1774.05063,0.10358
1772.56085,0.05295
1771.07106,0.06411
1769.58127,0.05313
1768.09148,0.08019
1766.60169,0.04869
1765.11190,0.08848
1763.62212,0.15840
1762.13233,0.13967
1760.64254,0.06396
1759.15275,0.12289
1757.66296,0.10426
1756.17317,0.09199
1754.68339,0.09243
1753.19360,0.04064
1751.70381,0.07440
1750.21402,0.07176
1748.72423,0.09133
1747.23444,0.02859
1745.74465,0.00389
1744.25487,0.09572
1742.76508,0.10523
1741.27529,0.10370
1739.78550,0.13228
1738.29571,0.09914
1736.80592,0.09137
1735.31614,0.05196
1733.82635,0.08068
1732.33656,0.00650
1730.84677,0.07487
1729.35698,0.07360
1727.86719,0.07078
1726.37740,0.03790
1724.88762,0.04623
1723.39783,0.01816
1721.90804,0.03923
1720.41825,0.06191
1718.92846,0.09412
1717.43867,0.04085
1715.94889,0.09213
1714.45910,0.06902
1712.96931,0.00793
1711.47952,0.00389
1709.98973,0.05599
1708.49994,0.06063
1707.01016,0.08826
1705.52037,0.11592
1704.03058,0.15232
1702.54079,0.12383
1701.05100,0.16030
1699.56121,0.12713
1698.07142,0.13991
1696.58164,0.15589
1695.09185,0.21942
1693.60206,0.15945
1692.11227,0.20245
1690.62248,0.23282
1689.13269,0.22521
1687.64291,0.18913
1686.15312,0.25918
1684.66333,0.17250
1683.17354,0.24895
1681.68375,0.21300
1680.19396,0.25627
1678.70417,0.26631
1677.21439,0.26847
1675.72460,0.23265
1674.23481,0.22537
1672.74502,0.19279
1671.25523,0.27109
1669.76544,0.22590
1668.27566,0.22984
1666.78587,0.21956
1665.29608,0.18239
1663.80629,0.22285
1662.31650,0.20791
1660.82671,0.24844
1659.33693,0.22565
1657.84714,0.18706
1656.35735,0.12950
1654.86756,0.13374
1653.37777,0.19659
1651.88798,0.11380
1650.39819,0.17989
1648.90841,0.22701
1647.41862,0.14906
1645.92883,0.15745
1644.43904,0.16587
1642.94925,0.15136
1641.45946,0.15272
1639.96968,0.15095
1638.47989,0.13654
1636.99010,0.21560
1635.50031,0.13158
1634.01052,0.13627
1632.52073,0.14733
1631.03094,0.13150
1629.54116,0.15371
1628.05137,0.13162
1626.56158,0.21407
1625.07179,0.18253
1623.58200,0.24130
1622.09221,0.15599
1620.60243,0.17206
1619.11264,0.19450
1617.62285,0.18847
1616.13306,0.18723
1614.64327,0.19868
1613.15348,0.17850
1611.66370,0.10767
1610.17391,0.12397
1608.68412,0.17831
1607.19433,0.14876
1605.70454,0.07490
1604.21475,0.10479
1602.72496,0.13472
1601.23518,0.16389
1599.74539,0.18834
1598.25560,0.18748
1596.76581,0.10274
1595.27602,0.13045
1593.78623,0.03152
1592.29645,0.07988
1590.80666,0.16154
1589.31687,0.12763
1587.82708,0.11275
1586.33729,0.03615
1584.84750,0.07835
1583.35771,0.06832
1581.86793,0.09159
1580.37814,0.06421
1578.88835,0.07011
1577.39856,0.06022
1575.90877,0.07569
1574.41898,0.06428
1572.92920,0.09882
1571.43941,0.07164
1569.94962,0.05003
1568.45983,0.02846
1566.97004,0.08055
1565.48025,0.06300
1563.99047,0.06607
1562.50068,0.06442
1561.01089,0.04380
1559.52110,0.06597
1558.03131,0.12143
1556.54152,0.10091
1555.05173,0.08201
1553.56195,0.06947
1552.07216,0.07122
1550.58237,0.03974
1549.09258,0.07798
1547.60279,0.08933
1546.11300,0.22581
1544.62322,0.21347
1543.13343,0.11248
1541.64364,0.12396
1540.15385,0.10143
1538.66406,0.07892
1537.17427,0.03825
1535.68448,0.05936
1534.19470,0.06783
1532.70491,0.06526
1531.21512,0.06271
1529.72533,0.05387
1528.23554,0.00389
1526.74575,0.08490
1525.25597,0.02975
1523.76618,0.05382
1522.27639,0.09217
1520.78660,0.09889
1519.29681,0.01221
1517.80702,0.02849
1516.31724,0.10498
1514.82745,0.01047
1513.33766,0.05932
1511.84787,0.10819
1510.35808,0.04388
1508.86829,0.06827
1507.37850,0.02144
1505.88872,0.09974
1504.39893,0.01497
1502.90914,0.10443
1501.41935,0.00389
1499.92956,0.07467
1498.43977,0.13599
1496.94999,0.26226
1495.46020,0.21596
1493.97041,0.30271
1492.48062,0.27073
1490.99083,0.36071
1489.50104,0.42222
1488.01125,0.48931
1486.52147,0.55643
1485.03168,0.56103
1483.54189,0.63376
1482.05210,0.84271
1480.56231,0.96459
1479.07252,1.01683
1477.58274,1.09919
1476.09295,1.19901
1474.60316,1.29252
1473.11337,1.41774
1471.62358,1.44955
1470.13379,1.39748
1468.64401,1.34068
1467.15422,1.19366
1465.66443,1.19552
1464.17464,1.19742
1462.68485,1.24210
1461.19506,1.19973
1459.70527,1.13521
1458.21549,0.95988
1456.72570,0.82734
1455.23591,0.85794
1453.74612,0.88698
1452.25633,0.71337
1450.76654,0.79157
1449.27676,0.70670
1447.78697,0.65353
1446.29718,0.59881
1444.80739,0.57580
1443.31760,0.55282
1441.82781,0.42377
1440.33802,0.35651
1438.84824,0.35897
1437.35845,0.35354
1435.86866,0.38456
1434.37887,0.36970
1432.88908,0.36436
1431.39929,0.34164
1429.90951,0.33321
1428.41972,0.31372
1426.92993,0.37345
1425.44014,0.43479
1423.95035,0.42332
1422.46056,0.41188
1420.97078,0.39098
1419.48099,0.41603
1417.99120,0.35402
1416.50141,0.33954
1415.01162,0.42328
1413.52183,0.40729
1412.03204,0.40242
1410.54226,0.42292
1409.05247,0.46403
1407.56268,0.40067
1406.07289,0.48144
1404.58310,0.51157
1403.09331,0.54173
1401.60353,0.48483
1400.11374,0.37729
1398.62395,0.49623
1397.13416,0.45368
1395.64437,0.46025
1394.15458,0.59354
1392.66479,0.55109
1391.17501,0.56410
1389.68522,0.48846
1388.19543,0.46194
1386.70564,0.50751
1385.21585,0.55311
1383.72606,0.45860
1382.23628,0.44013
1380.74649,0.50404
1379.25670,0.52364
1377.76691,0.46252
1376.27712,0.55503
1374.78733,0.63174
1373.29755,0.65464
1371.80776,0.72983
1370.31797,0.84464
1368.82818,0.86923
1367.33839,0.89384
1365.84860,1.00717
1364.35881,1.25672
1362.86903,1.39545
1361.37924,1.47879
1359.88945,1.64767
1358.39966,1.62339
1356.90987,1.56114
1355.42008,1.59869
1353.93030,1.57451
1352.44051,1.58996
1350.95072,1.60543
1349.46093,1.53701
1347.97114,1.32294
1346.48135,1.08990
1344.99156,0.95032
1343.50178,1.02930
1342.01199,0.90404
1340.52220,0.80415
1339.03241,0.75971
1337.54262,0.72956
1336.05283,0.71844
1334.56305,0.70736
1333.07326,0.66305
1331.58347,0.71063
1330.09368,0.65214
1328.60389,0.57943
1327.11410,0.49408
1325.62432,0.50061
1324.13453,0.58477
1322.64474,0.56445
1321.15495,0.52833
1319.66516,0.51045
1318.17537,0.49260
1316.68558,0.36948
1315.19580,0.50609
1313.70601,0.43530
1312.21622,0.50072
1310.72643,0.26371
1309.23664,0.31970
1307.74685,0.38363
1306.25707,0.43176
1304.76728,0.41659
1303.27749,0.40144
1301.78770,0.33249
1300.29791,0.42826
1298.80812,0.37204
1297.31834,0.43779
1295.82855,0.46398
1294.33876,0.43637
1292.84897,0.36286
1291.35918,0.34323
1289.86939,0.39806
1288.37960,0.45292
1286.88982,0.45555
1285.40003,0.51681
1283.91024,0.56702
1282.42045,0.50325
1280.93066,0.53927
1279.44087,0.53257
1277.95109,0.47839
1276.46130,0.56677
1274.97151,0.56730
1273.48172,0.56785
1271.99193,0.58824
1270.50214,0.64666
1269.01235,0.62910
1267.52257,0.67017
1266.03278,0.68752
1264.54299,0.68431
1263.05320,0.75398
1261.56341,0.74213
1260.07362,0.73032
1258.58384,0.70349
1257.09405,0.73845
1255.60426,0.82888
1254.11447,0.83223
1252.62468,0.77387
1251.13489,0.77571
1249.64511,0.72691
1248.15532,0.55937
1246.66553,0.58190
1245.17574,0.60446
1243.68595,0.54154
1242.19616,0.51982
1240.70637,0.46805
1239.21659,0.42107
1237.72680,0.39945
1236.23701,0.36045
1234.74722,0.46241
1233.25743,0.44010
1231.76764,0.41782
1230.27786,0.36470
1228.78807,0.40979
1227.29828,0.37573
1225.80849,0.31479
1224.31870,0.29664
1222.82891,0.27535
1221.33912,0.24617
1219.84934,0.28354
1218.35955,0.32094
1216.86976,0.33937
1215.37997,0.31983
1213.89018,0.28132
1212.40039,0.24760
1210.91061,0.21865
1209.42082,0.30692
1207.93103,0.23767
1206.44124,0.16844
1204.95145,0.19347
1203.46166,0.16469
1201.97188,0.17236
1200.48209,0.19591
1198.99230,0.14981
1197.50251,0.12908
1196.01272,0.19547
1194.52293,0.17323
1193.03314,0.15101
1191.54336,0.21434
1190.05357,0.19219
1188.56378,0.06714
1187.07399,0.00389
1185.58420,0.02719
1184.09441,0.10753
1182.60463,0.11111
1181.11484,0.11471
1179.62505,0.12231
1178.13526,0.11094
1176.64547,0.07427
1175.15568,0.10572
1173.66589,0.14512
1172.17611,0.20514
1170.68632,0.14088
1169.19653,0.07666
1167.70674,0.10035
1166.21695,0.10667
1164.72716,0.14151
1163.23738,0.11463
1161.74759,0.09887
1160.25780,0.10531
1158.76801,0.14267
1157.27822,0.18006
1155.78843,0.09950
1154.29865,0.05857
1152.80886,0.08893
1151.31907,0.18583
1149.82928,0.15766
1148.33949,0.19604
1146.84970,0.16714
1145.35991,0.13829
1143.87013,0.10233
1142.38034,0.14242
1140.89055,0.22847
1139.40076,0.26387
1137.91097,0.30881
1136.42118,0.38704
1134.93140,0.38929
1133.44161,0.39157
1131.95182,0.48732
1130.46203,0.47700
1128.97224,0.49996
1127.48245,0.54196
1125.99266,0.58875
1124.50288,0.57698
1123.01309,0.58978
1121.52330,0.60262
1120.03351,0.69863
1118.54372,0.69174
1117.05393,0.65163
1115.56415,0.71764
1114.07436,0.67760
1112.58457,0.73101
1111.09478,0.78446
1109.60499,0.82844
1108.11520,0.90887
1106.62542,0.82465
1105.13563,0.85923
1103.64584,0.99202
1102.15605,1.07575
1100.66626,1.12864
1099.17647,1.18156
1097.68668,1.10862
1096.19690,1.19090
1094.70711,1.20037
1093.21732,1.31122
1091.72753,1.33184
1090.23774,1.32003
1088.74795,1.30825
1087.25817,1.44616
1085.76838,1.37348
1084.27859,1.47344
1082.78880,1.60036
1081.29901,1.64338
1079.80922,1.61200
1078.31943,1.66301
1076.82965,1.71404
1075.33986,1.69702
1073.85007,1.71962
1072.36028,1.76759
1070.87049,1.66673
1069.38070,1.85570
1067.89092,1.87606
1066.40113,1.89644
1064.91134,2.00000
1063.42155,1.65070
1061.93176,1.65139
1060.44197,1.44783
1058.95219,1.45809
1057.46240,1.44384
1055.97261,1.42962
1054.48282,1.31170
1052.99303,1.27459
1051.50324,1.13933
1050.01345,1.09752
1048.52367,0.97974
1047.03388,0.98631
1045.54409,0.99290
1044.05430,0.99874
1042.56451,0.79083
1041.07472,0.80940
1039.58494,0.75674
1038.09515,0.65978
1036.60536,0.61194
1035.11557,0.56413
1033.62578,0.57336
1032.13599,0.44803
1030.64620,0.51750
1029.15642,0.50308
1027.66663,0.46573
1026.17684,0.42841
1024.68705,0.53127
1023.19726,0.52965
1021.70747,0.60407
1020.21769,0.75295
1018.72790,1.06180
1017.23811,1.10782
1015.74832,1.15387
1014.25853,1.28229
1012.76874,1.51685
1011.27896,1.64851
1009.78917,1.64560
1008.29938,1.66172
1006.80959,1.64067
1005.31980,1.61964
1003.83001,1.50285
1002.34022,1.47635
1000.85044,1.37071
999.36065,1.39495
997.87086,1.29729
996.38107,1.19966
994.89128,1.35860
993.40149,1.50807
991.91171,1.46913
990.42192,1.37005
988.93213,1.34385
987.44234,1.33510
985.95255,1.32638
984.46276,1.34461
982.97297,1.34863
981.48319,1.28458
979.99340,1.29817
978.50361,1.27774
977.01382,1.25734
975.52403,1.28052
974.03424,1.20239
972.54446,1.12904
971.05467,1.13807
969.56488,1.10596
968.07509,1.11109
966.58530,1.11626
965.09551,0.93381
963.60573,1.06652
962.11594,0.95540
960.62615,0.79363
959.13636,0.79896
957.64657,0.80433
956.15678,0.79943
954.66699,0.71381
953.17721,0.77391
951.68742,0.67093
950.19763,0.72476
948.70784,0.77862
947.21805,0.75175
945.72826,0.75025
944.23848,0.75195
942.74869,0.88671
941.25890,0.85522
939.76911,0.91561
938.27932,0.97604
936.78953,1.00165
935.29974,0.95130
933.80996,1.07041
932.32017,1.02645
930.83038,1.04033
929.34059,1.05423
927.85080,1.04046
926.36101,0.86837
924.87123,0.93225
923.38144,1.00251
921.89165,1.06409
920.40186,1.12570
918.91207,1.15013
917.42228,1.09541
915.93250,1.23551
914.44271,1.18877
912.95292,1.21729
911.46313,1.24585
909.97334,1.30215
908.48355,1.29513
906.99376,1.32299
905.50398,1.34455
904.01419,1.28142
902.52440,1.21833
901.03461,1.26215
899.54482,1.36935
898.05503,1.38791
896.56525,1.44925
895.07546,1.43620
893.58567,1.42319
892.09588,1.29777
890.60609,1.33391
889.11630,1.22914
887.62651,1.26218
886.13673,1.27387
884.64694,1.28560
883.15715,1.25381
881.66736,1.29964
880.17757,1.36452
878.68778,1.35816
877.19800,1.35184
875.70821,1.35980
874.21842,1.36463
872.72863,1.37899
871.23884,1.43615
869.74905,1.42603
868.25927,1.41595
866.76948,1.50012
865.27969,1.45130
863.78990,1.47536
862.30011,1.39494
860.81032,1.38186
859.32053,1.36880
857.83075,1.31540
856.34096,1.30795
854.85117,1.24195
853.36138,1.13639
851.87159,1.04670
850.38180,0.95704
848.89202,0.89750
847.40223,0.75724
845.91244,0.69935
844.42265,0.65495
842.93286,0.61059
841.44307,0.56705
839.95329,0.48554
838.46350,0.49907
836.97371,0.50314
835.48392,0.50169
833.99413,0.50028
832.50434,0.48703
831.01455,0.39780
829.52477,0.53663
828.03498,0.35087
826.54519,0.33537
825.05540,0.31990
823.56561,0.41453
822.07582,0.36033
820.58604,0.24599
819.09625,0.19661
817.60646,0.14726
816.11667,0.15337
814.62688,0.14685
813.13709,0.04851
811.64730,0.07213
810.15752,0.03799
808.66773,0.00389
807.17794,0.12144
805.68815,0.10760
804.19836,0.06529
802.70857,0.09031
801.21879,0.11536
799.72900,0.11431
798.23921,0.24315
796.74942,0.41478
795.25963,0.38850
793.76984,0.36225
792.28006,0.48014
790.79027,0.68673
789.30048,0.81894
787.81069,0.68989
786.32090,0.68518
784.83111,0.68051
783.34132,0.71783
781.85154,0.62850
780.36175,0.76565
778.87196,0.74923
777.38217,0.73284
775.89238,0.86059
774.40259,0.86961
772.91281,0.92775
771.42302,0.97562
769.93323,1.02354
768.44344,0.96617
766.95365,0.95952
765.46386,0.94973
763.97407,0.81329
762.48429,0.79881
760.99450,0.78437
759.50471,0.71137
758.01492,0.63682
756.52513,0.51479
755.03534,0.42922
753.54556,0.34369
752.05577,0.22809
750.56598,0.11253
749.07619,0.18545
747.58640,0.15705
746.09661,0.12868
744.60683,0.11777
743.11704,0.13698
741.62725,0.04695
740.13746,0.05831
738.64767,0.06969
737.15788,0.07953
735.66809,0.00389
734.17831,0.10960
732.68852,0.13538
731.19873,0.16119
729.70894,0.04531
728.21915,0.00389
726.72936,0.11861
725.23958,0.21277
723.74979,0.15970
722.26000,0.10666
720.77021,0.04257
719.28042,0.04186
717.79063,0.00000
716.30084,0.02518
714.81106,0.05040
713.32127,0.06773
711.83148,0.06767
710.34169,0.13732
708.85190,0.10724
707.36211,0.07720
705.87233,0.08044
704.38254,0.13122
702.89275,0.06802
701.40296,0.09987
699.91317,0.13174
698.42338,0.15098
696.93360,0.28427
695.44381,0.32258
693.95402,0.31263
692.46423,0.30271
690.97444,0.33953
689.48465,0.30354
687.99486,0.31668
686.50508,0.34094
685.01529,0.36523
683.52550,0.34046
682.03571,0.26980
680.54592,0.27993
679.05613,0.30673
677.56635,0.33355
676.07656,0.31212
674.58677,0.33822
673.09698,0.29943
671.60719,0.29550
670.11740,0.29162
668.62761,0.19117
667.13783,0.09550
665.64804,0.11546
664.15825,0.13546
662.66846,0.10006
661.17867,0.06312
659.68888,0.18139
658.19910,0.14214
656.70931,0.10292
655.21952,0.07877
653.72973,0.20985
652.23994,0.15251
650.75015,0.17122
649.26037,0.18996
647.77058,0.24041
646.28079,0.20063
644.79100,0.12445
643.30121,0.16787
641.81142,0.21132
640.32163,0.20334
638.83185,0.10671
637.34206,0.07663
635.85227,0.04024
634.36248,0.00389
632.87269,0.02005
631.38290,0.07108
629.89312,0.16807
628.40333,0.15978
626.91354,0.15153
625.42375,0.12668
623.93396,0.13196
622.44417,0.14201
620.95438,0.15210
619.46460,0.07830
617.97481,0.14704
616.48502,0.15723
614.99523,0.14687
613.50544,0.13653
612.01565,0.13257
610.52587,0.10647
609.03608,0.13899
607.54629,0.18817
606.05650,0.23738
604.56671,0.25259
603.07692,0.23140
601.58714,0.22529
600.09735,0.21921
598.60756,0.10944
597.11777,0.03930
595.62798,0.15762
594.13819,0.10971
592.64840,0.06184
591.15862,0.12167
589.66883,0.06911
588.17904,0.13376
586.68925,0.13907
585.19946,0.14440
583.70967,0.25508
582.21989,0.22326
580.73010,0.25166
579.24031,0.28008
577.75052,0.22620
576.26073,0.15335
574.77094,0.21988
573.28115,0.23419
571.79137,0.24853
570.30158,0.31199
568.81179,0.28839
567.32200,0.29412
565.83221,0.29988
564.34242,0.47274
562.85264,0.57913
561.36285,0.57628
559.87306,0.57663
558.38327,0.57701
556.89348,0.52992
555.40369,0.55254
553.91391,0.61557
552.42412,0.67864
550.93433,0.73619
549.44454,0.63543
547.95475,0.71997
546.46496,0.73883
544.97517,0.75772
543.48539,0.80594
541.99560,0.84469
540.50581,0.81854
539.01602,0.79243
537.52623,0.83762
536.03644,0.85274
534.54666,0.84415
533.05687,0.83639
531.56708,0.82865
530.07729,0.77265
528.58750,0.84654
527.09771,0.78664
525.60792,0.72678
524.11814,0.64874
522.62835,0.66892
521.13856,0.75405
519.64877,0.69749
518.15898,0.64096
516.66919,0.55042
515.17941,0.63885
513.68962,0.59984
512.19983,0.56086
510.71004,0.59080
509.22025,0.55268
507.73046,0.58901
506.24068,0.57788
504.75089,0.56678
503.26110,0.58580
501.77131,0.59693
500.28152,0.61997
498.79173,0.64305
497.30194,0.67328
495.81216,0.63862
494.32237,0.71880
492.83258,0.79902
491.34279,0.68528
489.85300,0.60958
488.36321,0.47215
486.87343,0.52716
485.38364,0.58220
483.89385,0.54464
482.40406,0.43268
480.91427,0.34372
479.42448,0.25479
477.93469,0.24745
476.44491,0.20372
474.95512,0.18298
473.46533,0.16227
471.97554,0.13447
470.48575,0.07028
468.99596,0.12489
467.50618,0.11541
466.01639,0.10595
464.52660,0.00389
463.03681,0.15821
461.54702,0.16292
460.05723,0.16766
458.56745,0.07663
457.07766,0.08857
455.58787,0.13537
454.09808,0.18221
452.60829,0.29876
451.11850,0.26173
449.62871,0.31738
448.13893,0.37306
446.64914,0.39314
445.15935,0.47343
443.66956,0.53475
442.17977,0.60402
440.68998,0.67332
439.20020,0.61914
437.71041,0.83103
436.22062,0.88380
434.73083,0.93661
433.24104,1.11851
431.75125,1.28619
430.26146,1.29872
428.77168,1.31127
427.28189,1.42205
425.79210,1.42675
424.30231,1.47662
422.81252,1.52652
421.32273,1.55350
419.83295,1.46016
418.34316,1.37318
416.85337,1.28624
415.36358,1.09640
413.87379,0.95251
412.38400,0.88309
410.89422,0.81370
409.40443,0.82510
407.91464,0.73518
406.42485,0.68964
404.93506,0.72965
403.44527,0.76968
401.95548,0.64823
400.46570,0.62183
398.97591,0.63504
397.48612,0.64829
395.99633,0.70116
394.50654,0.58779
393.01675,0.59559
391.52697,0.60343
390.03718,0.55666
388.54739,0.54161
387.05760,0.57250
385.56781,0.60343
384.07802,0.63598
382.58824,0.48328
381.09845,0.45018
379.60866,0.41710
378.11887,0.39594
376.62908,0.25288
375.13929,0.24365
373.64950,0.23447
372.15972,0.31161
370.66993,0.35079
369.18014,0.26727
367.69035,0.18379
366.20056,0.21515
364.71077,0.15469
363.22099,0.15682
361.73120,0.15897
360.24141,0.09228
358.75162,0.19031
357.26183,0.19732
355.77204,0.20436
354.28225,0.11405
352.79247,0.14887
351.30268,0.09504
349.81289,0.04125
348.32310,0.10910
346.83331,0.05505
345.34352,0.05170
343.85374,0.04839
342.36395,0.09737
340.87416,0.09888
339.38437,0.07825
337.89458,0.05765
336.40479,0.13685
334.91501,0.00389
333.42522,0.02869
331.93543,0.05353
330.44564,0.12591
328.95585,0.17773
327.46606,0.15358
325.97627,0.12946
324.48649,0.04520
322.99670,0.07583
321.50691,0.07165
320.01712,0.06751
318.52733,0.01431
317.03754,0.04982
315.54776,0.03786
314.05797,0.02593
312.56818,0.02829
311.07839,0.07027
309.58860,0.03706
308.09881,0.00389
306.60902,0.09881
305.11924,0.08451
303.62945,0.04807
302.13966,0.01166
300.64987,0.01409
299.16008,0.00389
