1778.52000,0.01427
1777.03021,0.01506
1775.54042,0.04227
1774.05063,0.02680
1772.56085,0.00761
1771.07106,0.01985
1769.58127,0.00324
1768.09148,0.04320
1766.60169,0.02038
1765.11190,0.03403
1763.62212,0.03641
1762.13233,0.05515
1760.64254,0.02118
1759.15275,0.02116
1757.66296,0.08147
1756.17317,0.05012
1754.68339,0.05272
1753.19360,0.01390
1751.70381,0.02663
1750.21402,0.09466
1748.72423,0.01325
1747.23444,0.02917
1745.74465,0.06899
1744.25487,0.05735
1742.76508,0.05957
1741.27529,0.09448
1739.78550,0.07039
1738.29571,0.07020
1736.80592,0.07884
1735.31614,0.03602
1733.82635,0.06358
1732.33656,0.01581
1730.84677,0.00324
1729.35698,0.03967
1727.86719,0.01082
1726.37740,0.01089
1724.88762,0.03989
1723.39783,0.09782
1721.90804,0.02389
1720.41825,0.02663
1718.92846,0.05452
1717.43867,0.02090
1715.94889,0.03254
1714.45910,0.03039
1712.96931,0.04839
1711.47952,0.08651
1709.98973,0.06941
1708.49994,0.09128
1707.01016,0.08932
1705.52037,0.08740
1704.03058,0.06416
1702.54079,0.09873
1701.05100,0.13838
1699.56121,0.14791
1698.07142,0.12733
1696.58164,0.11558
1695.09185,0.14532
1693.60206,0.17007
1692.11227,0.17727
1690.62248,0.11793
1689.13269,0.17546
1687.64291,0.16267
1686.15312,0.22278
1684.66333,0.15982
1683.17354,0.21121
1681.68375,0.15838
1680.19396,0.18974
1678.70417,0.19602
1677.21439,0.22495
1675.72460,0.22376
1674.23481,0.21382
1672.74502,0.17503
1671.25523,0.21917
1669.76544,0.22567
1668.27566,0.24854
1666.78587,0.20361
1665.29608,0.19012
1663.80629,0.23571
1662.31650,0.16075
1660.82671,0.19761
1659.33693,0.16041
1657.84714,0.18102
1656.35735,0.16901
1654.86756,0.15075
1653.37777,0.14007
1651.88798,0.11938
1650.39819,0.14395
1648.90841,0.13589
1647.41862,0.11907
1645.92883,0.11988
1644.43904,0.12073
1642.94925,0.16306
1641.45946,0.16524
1639.96968,0.15363
1638.47989,0.11192
1636.99010,0.12551
1635.50031,0.13914
1634.01052,0.17416
1632.52073,0.17279
1631.03094,0.13126
1629.54116,0.17267
1628.05137,0.19151
1626.56158,0.20159
1625.07179,0.18533
1623.58200,0.19799
1622.09221,0.18934
1620.60243,0.22721
1619.11264,0.14954
1617.62285,0.18497
1616.13306,0.19908
1614.64327,0.15418
1613.15348,0.18344
1611.66370,0.20645
1610.17391,0.20312
1608.68412,0.20108
1607.19433,0.16517
1605.70454,0.12301
1604.21475,0.16504
1602.72496,0.20712
1601.23518,0.15502
1599.74539,0.20219
1598.25560,0.16524
1596.76581,0.16350
1595.27602,0.13165
1593.78623,0.09355
1592.29645,0.06805
1590.80666,0.09409
1589.31687,0.13901
1587.82708,0.10106
1586.33729,0.13224
1584.84750,0.09938
1583.35771,0.10802
1581.86793,0.05892
1580.37814,0.09526
1578.88835,0.06884
1577.39856,0.07009
1575.90877,0.16056
1574.41898,0.11038
1572.92920,0.10672
1571.43941,0.02270
1569.94962,0.03606
1568.45983,0.04947
1566.97004,0.00324
1565.48025,0.05826
1563.99047,0.12337
1562.50068,0.08552
1561.01089,0.11050
1559.52110,0.07272
1558.03131,0.10406
1556.54152,0.12413
1555.05173,0.09776
1553.56195,0.10409
1552.07216,0.06272
1550.58237,0.08043
1549.09258,0.03788
1547.60279,0.05063
1546.11300,0.09986
1544.62322,0.09510
1543.13343,0.07280
1541.64364,0.04048
1540.15385,0.05154
1538.66406,0.06263
1537.17427,0.08946
1535.68448,0.00704
1534.19470,0.03270
1532.70491,0.07094
1531.21512,0.00748
1529.72533,0.09479
1528.23554,0.00628
1526.74575,0.03588
1525.25597,0.03161
1523.76618,0.02360
1522.27639,0.04829
1520.78660,0.09939
1519.29681,0.08898
1517.80702,0.00324
1516.31724,0.07653
1514.82745,0.00539
1513.33766,0.04358
1511.84787,0.08180
1510.35808,0.00449
1508.86829,0.00385
1507.37850,0.00324
1505.88872,0.03955
1504.39893,0.05078
1502.90914,0.05576
1501.41935,0.04320
1499.92956,0.04072
1498.43977,0.08852
1496.94999,0.12882
1495.46020,0.20936
1493.97041,0.25099
1492.48062,0.28010
1490.99083,0.28914
1489.50104,0.46404
1488.01125,0.48446
1486.52147,0.50493
1485.03168,0.62969
1483.54189,0.69921
1482.05210,0.82907
1480.56231,0.97781
1479.07252,1.17682
1477.58274,1.26911
1476.09295,1.24210
1474.60316,1.41233
1473.11337,1.44443
1471.62358,1.48536
1470.13379,1.44845
1468.64401,1.30982
1467.15422,1.28303
1465.66443,1.24748
1464.17464,1.21197
1462.68485,1.13756
1461.19506,1.19131
1459.70527,1.15339
1458.21549,0.97860
1456.72570,0.92945
1455.23591,0.81000
1453.74612,0.80615
1452.25633,0.83877
1450.76654,0.77219
1449.27676,0.68303
1447.78697,0.62908
1446.29718,0.56387
1444.80739,0.53198
1443.31760,0.50012
1441.82781,0.36216
1440.33802,0.33854
1438.84824,0.32250
1437.35845,0.31152
1435.86866,0.35710
1434.37887,0.33615
1432.88908,0.30141
1431.39929,0.34208
1429.90951,0.29234
1428.41972,0.31424
1426.92993,0.35628
1425.44014,0.37574
1423.95035,0.39775
1422.46056,0.41980
1420.97078,0.36903
1419.48099,0.29443
1417.99120,0.37688
1416.50141,0.32120
1415.01162,0.35976
1413.52183,0.40715
1412.03204,0.39303
1410.54226,0.35885
1409.05247,0.40635
1407.56268,0.43002
1406.07289,0.43112
1404.58310,0.43540
1403.09331,0.43971
1401.60353,0.42082
1400.11374,0.43212
1398.62395,0.52384
1397.13416,0.56410
1395.64437,0.56546
1394.15458,0.63092
1392.66479,0.55321
1391.17501,0.58106
1389.68522,0.53232
1388.19543,0.56024
1386.70564,0.52413
1385.21585,0.48807
1383.72606,0.54122
1382.23628,0.49643
1380.74649,0.51951
1379.25670,0.55142
1377.76691,0.48413
1376.27712,0.49728
1374.78733,0.51925
1373.29755,0.62039
1371.80776,0.72409
1370.31797,0.84541
1368.82818,0.89579
1367.33839,0.94621
1365.84860,1.12542
1364.35881,1.34989
1362.86903,1.44752
1361.37924,1.62810
1359.88945,1.64793
1358.39966,1.61127
1356.90987,1.75679
1355.42008,1.70889
1353.93030,1.66355
1352.44051,1.64211
1350.95072,1.62071
1349.46093,1.46493
1347.97114,1.39210
1346.48135,1.04924
1344.99156,1.02170
1343.50178,0.96657
1342.01199,0.88007
1340.52220,0.84510
1339.03241,0.74988
1337.54262,0.76650
1336.05283,0.70024
1334.56305,0.63402
1333.07326,0.64698
1331.58347,0.70393
1330.09368,0.62903
1328.60389,0.59311
1327.11410,0.56727
1325.62432,0.54021
1324.13453,0.49938
1322.64474,0.44853
1321.15495,0.47685
1319.66516,0.44869
1318.17537,0.42056
1316.68558,0.41759
1315.19580,0.46616
1313.70601,0.43311
1312.21622,0.32097
1310.72643,0.35332
1309.23664,0.29276
1307.74685,0.38171
1306.25707,0.38528
1304.76728,0.37318
1303.27749,0.36112
1301.78770,0.36732
1300.29791,0.36475
1298.80812,0.35720
1297.31834,0.42254
1295.82855,0.37110
1294.33876,0.35236
1292.84897,0.36254
1291.35918,0.34889
1289.86939,0.40437
1288.37960,0.45988
1286.88982,0.49659
1285.40003,0.46802
1283.91024,0.54751
1282.42045,0.53408
1280.93066,0.48050
1279.44087,0.45333
1277.95109,0.47895
1276.46130,0.60511
1274.97151,0.57616
1273.48172,0.54726
1271.99193,0.55921
1270.50214,0.49960
1269.01235,0.56690
1267.52257,0.62419
1266.03278,0.64885
1264.54299,0.65974
1263.05320,0.71713
1261.56341,0.72118
1260.07362,0.72527
1258.58384,0.68103
1257.09405,0.69335
1255.60426,0.74465
1254.11447,0.79725
1252.62468,0.82350
1251.13489,0.67393
1249.64511,0.61232
1248.15532,0.52186
1246.66553,0.51749
1245.17574,0.51315
1243.68595,0.37883
1242.19616,0.40283
1240.70637,0.42059
1239.21659,0.35170
1237.72680,0.40219
1236.23701,0.31328
1234.74722,0.32616
1233.25743,0.33216
1231.76764,0.33821
1230.27786,0.31853
1228.78807,0.30644
1227.29828,0.25292
1225.80849,0.23462
1224.31870,0.18746
1222.82891,0.23706
1221.33912,0.19248
1219.84934,0.19505
1218.35955,0.19766
1216.86976,0.27504
1215.37997,0.30221
1213.89018,0.28797
1212.40039,0.22854
1210.91061,0.19428
1209.42082,0.11985
1207.93103,0.12837
1206.44124,0.13692
1204.95145,0.10783
1203.46166,0.09007
1201.97188,0.14898
1200.48209,0.09613
1198.99230,0.12622
1197.50251,0.16138
1196.01272,0.03076
1194.52293,0.06033
1193.03314,0.08994
1191.54336,0.03354
1190.05357,0.01738
1188.56378,0.03014
1187.07399,0.04922
1185.58420,0.03694
1184.09441,0.02092
1182.60463,0.02881
1181.11484,0.03673
1179.62505,0.00324
1178.13526,0.02040
1176.64547,0.04764
1175.15568,0.06738
1173.66589,0.10349
1172.17611,0.12833
1170.68632,0.07658
1169.19653,0.02487
1167.70674,0.08248
1166.21695,0.11123
1164.72716,0.04079
1163.23738,0.06459
1161.74759,0.05703
1160.25780,0.09347
1158.76801,0.07593
1157.27822,0.05843
1155.78843,0.06484
1154.29865,0.03862
1152.80886,0.07273
1151.31907,0.05537
1149.82928,0.10086
1148.33949,0.13886
1146.84970,0.10591
1145.35991,0.07300
1143.87013,0.07719
1142.38034,0.13417
1140.89055,0.12461
1139.40076,0.20428
1137.91097,0.31287
1136.42118,0.33357
1134.93140,0.39576
1133.44161,0.45799
1131.95182,0.43483
1130.46203,0.46698
1128.97224,0.49540
1127.48245,0.56783
1125.99266,0.53980
1124.50288,0.50803
1123.01309,0.54539
1121.52330,0.58279
1120.03351,0.60515
1118.54372,0.69287
1117.05393,0.67009
1115.56415,0.70386
1114.07436,0.72637
1112.58457,0.72882
1111.09478,0.73131
1109.60499,0.81171
1108.11520,0.76779
1106.62542,0.88846
1105.13563,0.89612
1103.64584,1.05455
1102.15605,1.16026
1100.66626,1.16614
1099.17647,1.17206
1097.68668,1.21633
1096.19690,1.19657
1094.70711,1.26102
1093.21732,1.28279
1091.72753,1.42644
1090.23774,1.42504
1088.74795,1.42368
1087.25817,1.51971
1085.76838,1.61578
1084.27859,1.58878
1082.78880,1.73140
1081.29901,1.78863
1079.80922,1.83209
1078.31943,1.81654
1076.82965,1.80103
1075.33986,1.76672
1073.85007,1.83921
1072.36028,1.79367
1070.87049,1.87754
1069.38070,1.97276
1067.89092,1.98636
1066.40113,2.00000
1064.91134,1.97599
1063.42155,1.78119
1061.93176,1.66807
1060.44197,1.61654
1058.95219,1.55248
1057.46240,1.50793
1055.97261,1.46342
1054.48282,1.40575
1052.99303,1.36320
1051.50324,1.32319
1050.01345,1.10234
1048.52367,0.95940
1047.03388,0.94463
1045.54409,0.92990
1044.05430,0.88882
1042.56451,0.78623
1041.07472,0.73894
1039.58494,0.71933
1038.09515,0.66961
1036.60536,0.66201
1035.11557,0.65444
1033.62578,0.54453
1032.13599,0.46606
1030.64620,0.51702
1029.15642,0.54791
1027.66663,0.52859
1026.17684,0.50931
1024.68705,0.47876
1023.19726,0.55126
1021.70747,0.76447
1020.21769,0.85588
1018.72790,0.90210
1017.23811,1.03755
1015.74832,1.17304
1014.25853,1.27213
1012.76874,1.45793
1011.27896,1.58850
1009.78917,1.64374
1008.29938,1.57591
1006.80959,1.58412
1005.31980,1.59236
1003.83001,1.57489
1002.34022,1.49214
1000.85044,1.33656
999.36065,1.30036
997.87086,1.31130
996.38107,1.32228
994.89128,1.31382
993.40149,1.35313
991.91171,1.29827
990.42192,1.29495
988.93213,1.29544
987.44234,1.31543
985.95255,1.33546
984.46276,1.38127
982.97297,1.23368
981.48319,1.22555
979.99340,1.21495
978.50361,1.20628
977.01382,1.19763
975.52403,1.12182
974.03424,1.01465
972.54446,1.02936
971.05467,1.01521
969.56488,0.96969
968.07509,0.95625
966.58530,0.94284
965.09551,0.77559
963.60573,0.88347
962.11594,0.75021
960.62615,0.72879
959.13636,0.66595
957.64657,0.60314
956.15678,0.71498
954.66699,0.66606
953.17721,0.68627
951.68742,0.60352
950.19763,0.62946
948.70784,0.65543
947.21805,0.68458
945.72826,0.66227
944.23848,0.74677
942.74869,0.77603
941.25890,0.82040
939.76911,0.87737
938.27932,0.93438
936.78953,0.96128
935.29974,0.89902
933.80996,0.98001
932.32017,1.05978
930.83038,1.06986
929.34059,1.07999
927.85080,1.09455
926.36101,0.93328
924.87123,0.97052
923.38144,0.94876
921.89165,1.04260
920.40186,1.13648
918.91207,1.21658
917.42228,1.11457
915.93250,1.16208
914.44271,1.16692
912.95292,1.25785
911.46313,1.34881
909.97334,1.30351
908.48355,1.25700
906.99376,1.34618
905.50398,1.25327
904.01419,1.23575
902.52440,1.21828
901.03461,1.39805
899.54482,1.47235
898.05503,1.36454
896.56525,1.54443
895.07546,1.54158
893.58567,1.53878
892.09588,1.33816
890.60609,1.36746
889.11630,1.34152
887.62651,1.31437
886.13673,1.28034
884.64694,1.24635
883.15715,1.41526
881.66736,1.41212
880.17757,1.29470
878.68778,1.33309
877.19800,1.37151
875.70821,1.36349
874.21842,1.42585
872.72863,1.40409
871.23884,1.47406
869.74905,1.45991
868.25927,1.44580
866.76948,1.53347
865.27969,1.55334
863.78990,1.54185
862.30011,1.41106
860.81032,1.43042
859.32053,1.44981
857.83075,1.26009
856.34096,1.30531
854.85117,1.26013
853.36138,1.20367
851.87159,1.10706
850.38180,1.01048
848.89202,0.86118
847.40223,0.76593
845.91244,0.67323
844.42265,0.65217
842.93286,0.63115
841.44307,0.49082
839.95329,0.48118
838.46350,0.49795
836.97371,0.47833
835.48392,0.44995
833.99413,0.42161
832.50434,0.43601
831.01455,0.51829
829.52477,0.50764
828.03498,0.41539
826.54519,0.39477
825.05540,0.37418
823.56561,0.39635
822.07582,0.29796
820.58604,0.24859
819.09625,0.23695
817.60646,0.22535
816.11667,0.15474
814.62688,0.14949
813.13709,0.12795
811.64730,0.13659
810.15752,0.06990
808.66773,0.00324
807.17794,0.09292
805.68815,0.07336
804.19836,0.11035
802.70857,0.12352
801.21879,0.13672
799.72900,0.15499
798.23921,0.31649
796.74942,0.44034
795.25963,0.45683
793.76984,0.47336
792.28006,0.51693
790.79027,0.58692
789.30048,0.77502
787.81069,0.71444
786.32090,0.71546
784.83111,0.71650
783.34132,0.77914
781.85154,0.74634
780.36175,0.77137
778.87196,0.75560
777.38217,0.73988
775.89238,0.92078
774.40259,0.95977
772.91281,0.96613
771.42302,0.97002
769.93323,0.97395
768.44344,1.00304
766.95365,0.79475
765.46386,1.05379
763.97407,0.84307
762.48429,0.83713
760.99450,0.83123
759.50471,0.75377
758.01492,0.65247
756.52513,0.46957
755.03534,0.43304
753.54556,0.39655
752.05577,0.29415
750.56598,0.27846
749.07619,0.23391
747.58640,0.22269
746.09661,0.21151
744.60683,0.17210
743.11704,0.17544
741.62725,0.11977
740.13746,0.10308
738.64767,0.08643
737.15788,0.00324
735.66809,0.07631
734.17831,0.10546
732.68852,0.09319
731.19873,0.08095
729.70894,0.11523
728.21915,0.11814
726.72936,0.11356
725.23958,0.09393
723.74979,0.14218
722.26000,0.19046
720.77021,0.13075
719.28042,0.00324
717.79063,0.01522
716.30084,0.03791
714.81106,0.06064
713.32127,0.09533
711.83148,0.10620
710.34169,0.08947
708.85190,0.05017
707.36211,0.01090
705.87233,0.13623
704.38254,0.10457
702.89275,0.11817
701.40296,0.12365
699.91317,0.12916
698.42338,0.19563
696.93360,0.18300
695.44381,0.21311
693.95402,0.23573
692.46423,0.25838
690.97444,0.21575
689.48465,0.27240
687.99486,0.31149
686.50508,0.31419
685.01529,0.31693
683.52550,0.35739
682.03571,0.31875
680.54592,0.31155
679.05613,0.31067
677.56635,0.30982
676.07656,0.33916
674.58677,0.38989
673.09698,0.28616
671.60719,0.24589
670.11740,0.20566
668.62761,0.14600
667.13783,0.11778
665.64804,0.13356
664.15825,0.14937
662.66846,0.06850
661.17867,0.02410
659.68888,0.13172
658.19910,0.11566
656.70931,0.09963
655.21952,0.08677
653.72973,0.12546
652.23994,0.19182
650.75015,0.15207
649.26037,0.11235
647.77058,0.13863
646.28079,0.11092
644.79100,0.04431
643.30121,0.05876
641.81142,0.07324
640.32163,0.07835
638.83185,0.06213
637.34206,0.00324
635.85227,0.00517
634.36248,0.00713
632.87269,0.04054
631.38290,0.06519
629.89312,0.06978
628.40333,0.08948
626.91354,0.10921
625.42375,0.13778
623.93396,0.08724
622.44417,0.05872
620.95438,0.03025
619.46460,0.06398
617.97481,0.04877
616.48502,0.10519
614.99523,0.11140
613.50544,0.11765
612.01565,0.04480
610.52587,0.05992
609.03608,0.12783
607.54629,0.12606
606.05650,0.12433
604.56671,0.15467
603.07692,0.07199
601.58714,0.10366
600.09735,0.13536
598.60756,0.08922
597.11777,0.06698
595.62798,0.09252
594.13819,0.09987
592.64840,0.10727
591.15862,0.05252
589.66883,0.12719
588.17904,0.08885
586.68925,0.10707
585.19946,0.12532
583.70967,0.11095
582.21989,0.14938
580.73010,0.13195
579.24031,0.11455
577.75052,0.12545
576.26073,0.00324
574.77094,0.10920
573.28115,0.16307
571.79137,0.21697
570.30158,0.26903
568.81179,0.27338
567.32200,0.26585
565.83221,0.25835
564.34242,0.39220
562.85264,0.44946
561.36285,0.48164
559.87306,0.46989
558.38327,0.45818
556.89348,0.42389
555.40369,0.62831
553.91391,0.58593
552.42412,0.54359
550.93433,0.59362
549.44454,0.67759
547.95475,0.70257
546.46496,0.68173
544.97517,0.66092
543.48539,0.77394
541.99560,0.84177
540.50581,0.79470
539.01602,0.74767
537.52623,0.74149
536.03644,0.73787
534.54666,0.82096
533.05687,0.83248
531.56708,0.84405
530.07729,0.75641
528.58750,0.74292
527.09771,0.73010
525.60792,0.71731
524.11814,0.75544
522.62835,0.68934
521.13856,0.60569
519.64877,0.59054
518.15898,0.57543
516.66919,0.63384
515.17941,0.61189
513.68962,0.55920
512.19983,0.50655
510.71004,0.56636
509.22025,0.57973
507.73046,0.63334
506.24068,0.62857
504.75089,0.62384
503.26110,0.59842
501.77131,0.59815
500.28152,0.60986
498.79173,0.62161
497.30194,0.63653
495.81216,0.59370
494.32237,0.71861
492.83258,0.84356
491.34279,0.67398
489.85300,0.69913
488.36321,0.64519
486.87343,0.60258
485.38364,0.56002
483.89385,0.41072
482.40406,0.45113
480.91427,0.33456
479.42448,0.21803
477.93469,0.21208
476.44491,0.20114
474.95512,0.15318
473.46533,0.10526
471.97554,0.14216
470.48575,0.00324
468.99596,0.03227
467.50618,0.01612
466.01639,0.00000
464.52660,0.07743
463.03681,0.05817
461.54702,0.07538
460.05723,0.09263
458.56745,0.11996
457.07766,0.06819
455.58787,0.11821
454.09808,0.16826
452.60829,0.19197
451.11850,0.29234
449.62871,0.26902
448.13893,0.24574
446.64914,0.39646
445.15935,0.55979
443.66956,0.51715
442.17977,0.60455
440.68998,0.69199
439.20020,0.70096
437.71041,0.92979
436.22062,0.95956
434.73083,0.98937
433.24104,1.16555
431.75125,1.35433
430.26146,1.36038
428.77168,1.36647
427.28189,1.58551
425.79210,1.54205
424.30231,1.49109
422.81252,1.44017
421.32273,1.40059
419.83295,1.28317
418.34316,1.25811
416.85337,1.23309
415.36358,1.08940
413.87379,0.92942
412.38400,0.90262
410.89422,0.87586
409.40443,0.71096
407.91464,0.74206
406.42485,0.71164
404.93506,0.69822
403.44527,0.68484
401.95548,0.65579
400.46570,0.65064
398.97591,0.59340
397.48612,0.53620
395.99633,0.70954
394.50654,0.61912
393.01675,0.59971
391.52697,0.58034
390.03718,0.50762
388.54739,0.49775
387.05760,0.53062
385.56781,0.56352
384.07802,0.67686
382.58824,0.50886
381.09845,0.47467
379.60866,0.44052
378.11887,0.43593
376.62908,0.29445
375.13929,0.29370
373.64950,0.29299
372.15972,0.23704
370.66993,0.24771
369.18014,0.24647
367.69035,0.24528
366.20056,0.21586
364.71077,0.22667
363.22099,0.21240
361.73120,0.19816
360.24141,0.23923
358.75162,0.11453
357.26183,0.10920
355.77204,0.10390
354.28225,0.06849
352.79247,0.00549
351.30268,0.06688
349.81289,0.12831
348.32310,0.16339
346.83331,0.02140
345.34352,0.06598
343.85374,0.11059
342.36395,0.07171
340.87416,0.14969
339.38437,0.10712
337.89458,0.06458
336.40479,0.06227
334.91501,0.06503
333.42522,0.04459
331.93543,0.02418
330.44564,0.16773
328.95585,0.22717
327.46606,0.19745
325.97627,0.16776
324.48649,0.10044
322.99670,0.09595
321.50691,0.13547
320.01712,0.17502
318.52733,0.14678
317.03754,0.20902
315.54776,0.10611
314.05797,0.00324
312.56818,0.07882
311.07839,0.11801
309.58860,0.11767
308.09881,0.11736
306.60902,0.09762
305.11924,0.17338
303.62945,0.15246
302.13966,0.13158
300.64987,0.00395
299.16008,0.00324
