1778.52000,0.05058
1777.03021,0.04408
1775.54042,0.00000
1774.05063,0.03274
1772.56085,0.01850
1771.07106,0.01841
1769.58127,0.01835
1768.09148,0.02616
1766.60169,0.06221
1765.11190,0.09986
1763.62212,0.07330
1762.13233,0.07655
1760.64254,0.07827
1759.15275,0.05495
1757.66296,0.11158
1756.17317,0.05543
1754.68339,0.12780
1753.19360,0.08269
1751.70381,0.00000
1750.21402,0.07213
1748.72423,0.07691
1747.23444,0.07390
1745.74465,0.09442
1744.25487,0.08051
1742.76508,0.05879
1741.27529,0.03868
1739.78550,0.11106
1738.29571,0.11296
1736.80592,0.04124
1735.31614,0.07925
1733.82635,0.09692
1732.33656,0.01121
1730.84677,0.02739
1729.35698,0.04674
1727.86719,0.02538
1726.37740,0.03853
1724.88762,0.00000
1723.39783,0.03075
1721.90804,0.03020
1720.41825,0.06102
1718.92846,0.01039
1717.43867,0.10396
1715.94889,0.02520
1714.45910,0.04990
1712.96931,0.09500
1711.47952,0.06178
1709.98973,0.06151
1708.49994,0.06128
1707.01016,0.09007
1705.52037,0.11889
1704.03058,0.09996
1702.54079,0.11240
1701.05100,0.12958
1699.56121,0.17030
1698.07142,0.12330
1696.58164,0.12178
1695.09185,0.20491
1693.60206,0.18936
1692.11227,0.16914
1690.62248,0.18187
1689.13269,0.19306
1687.64291,0.17138
1686.15312,0.20302
1684.66333,0.22372
1683.17354,0.18961
1681.68375,0.25112
1680.19396,0.20455
1678.70417,0.20659
1677.21439,0.19456
1675.72460,0.21704
1674.23481,0.18314
1672.74502,0.20099
1671.25523,0.22671
1669.76544,0.25874
1668.27566,0.25475
1666.78587,0.18499
1665.29608,0.20772
1663.80629,0.17407
1662.31650,0.20471
1660.82671,0.16799
1659.33693,0.16423
1657.84714,0.15109
1656.35735,0.15209
1654.86756,0.07635
1653.37777,0.14793
1651.88798,0.16941
1650.39819,0.16585
1648.90841,0.20464
1647.41862,0.10087
1645.92883,0.13424
1644.43904,0.16764
1642.94925,0.16426
1641.45946,0.13741
1639.96968,0.11843
1638.47989,0.13240
1636.99010,0.12132
1635.50031,0.14162
1634.01052,0.20897
1632.52073,0.11808
1631.03094,0.17766
1629.54116,0.17146
1628.05137,0.18254
1626.56158,0.22029
1625.07179,0.17973
1623.58200,0.23948
1622.09221,0.13631
1620.60243,0.21337
1619.11264,0.13378
1617.62285,0.17331
1616.13306,0.16429
1614.64327,0.16628
1613.15348,0.15107
1611.66370,0.19231
1610.17391,0.20381
1608.68412,0.19497
1607.19433,0.17207
1605.70454,0.18681
1604.21475,0.17965
1602.72496,0.17252
1601.23518,0.17953
1599.74539,0.13487
1598.25560,0.17642
1596.76581,0.17257
1595.27602,0.13584
1593.78623,0.10543
1592.29645,0.08288
1590.80666,0.06350
1589.31687,0.07236
1587.82708,0.07655
1586.33729,0.11525
1584.84750,0.11795
1583.35771,0.11912
1581.86793,0.10935
1580.37814,0.09649
1578.88835,0.05232
1577.39856,0.02542
1575.90877,0.06280
1574.41898,0.05635
1572.92920,0.10320
1571.43941,0.04981
1569.94962,0.05286
1568.45983,0.05595
1566.97004,0.03400
1565.48025,0.00425
1563.99047,0.02625
1562.50068,0.03261
1561.01089,0.05468
1559.52110,0.00000
1558.03131,0.08546
1556.54152,0.04716
1555.05173,0.06844
1553.56195,0.09602
1552.07216,0.09387
1550.58237,0.06825
1549.09258,0.05520
1547.60279,0.10016
1546.11300,0.09188
1544.62322,0.12595
1543.13343,0.11617
1541.64364,0.05473
1540.15385,0.06461
1538.66406,0.07453
1537.17427,0.11974
1535.68448,0.07880
1534.19470,0.04730
1532.70491,0.05971
1531.21512,0.07529
1529.72533,0.02666
1528.23554,0.00000
1526.74575,0.05795
1525.25597,0.10026
1523.76618,0.03919
1522.27639,0.06434
1520.78660,0.00647
1519.29681,0.03591
1517.80702,0.03874
1516.31724,0.09802
1514.82745,0.03041
1513.33766,0.04353
1511.84787,0.05669
1510.35808,0.05187
1508.86829,0.07999
1507.37850,0.01569
1505.88872,0.00000
1504.39893,0.02413
1502.90914,0.04829
1501.41935,0.00510
1499.92956,0.05127
1498.43977,0.14135
1496.94999,0.18132
1495.46020,0.21663
1493.97041,0.23317
1492.48062,0.28422
1490.99083,0.33216
1489.50104,0.48670
1488.01125,0.52924
1486.52147,0.57180
1485.03168,0.68727
1483.54189,0.75420
1482.05210,0.85564
1480.56231,1.03389
1479.07252,1.21845
1477.58274,1.27612
1476.09295,1.38240
1474.60316,1.46521
1473.11337,1.49634
1471.62358,1.44916
1470.13379,1.46313
1468.64401,1.41446
1467.15422,1.34232
1465.66443,1.32349
1464.17464,1.30469
1462.68485,1.33138
1461.19506,1.34086
1459.70527,1.26732
1458.21549,1.11078
1456.72570,0.97464
1455.23591,0.78369
1453.74612,0.84662
1452.25633,0.85475
1450.76654,0.75793
1449.27676,0.66270
1447.78697,0.60042
1446.29718,0.54914
1444.80739,0.53394
1443.31760,0.51878
1441.82781,0.41746
1440.33802,0.31932
1438.84824,0.34813
1437.35845,0.32841
1435.86866,0.33692
1434.37887,0.35487
1432.88908,0.33996
1431.39929,0.31724
1429.90951,0.28045
1428.41972,0.28758
1426.92993,0.39972
1425.44014,0.37401
1423.95035,0.40631
1422.46056,0.43865
1420.97078,0.40051
1419.48099,0.38434
1417.99120,0.34471
1416.50141,0.45240
1415.01162,0.38620
1413.52183,0.41718
1412.03204,0.38238
1410.54226,0.43537
1409.05247,0.43199
1407.56268,0.47252
1406.07289,0.46607
1404.58310,0.43694
1403.09331,0.40784
1401.60353,0.47671
1400.11374,0.49077
1398.62395,0.55188
1397.13416,0.58325
1395.64437,0.61309
1394.15458,0.61476
1392.66479,0.58356
1391.17501,0.67305
1389.68522,0.64192
1388.19543,0.57792
1386.70564,0.59152
1385.21585,0.60515
1383.72606,0.53499
1382.23628,0.56985
1380.74649,0.53423
1379.25670,0.58953
1377.76691,0.61039
1376.27712,0.66263
1374.78733,0.64595
1373.29755,0.78758
1371.80776,0.91044
1370.31797,0.95811
1368.82818,1.08182
1367.33839,1.20557
1365.84860,1.32857
1364.35881,1.52368
1362.86903,1.69532
1361.37924,1.80432
1359.88945,1.82718
1358.39966,1.85947
1356.90987,1.90903
1355.42008,1.98213
1353.93030,1.98632
1352.44051,1.86911
1350.95072,1.75193
1349.46093,1.68728
1347.97114,1.42993
1346.48135,1.24940
1344.99156,1.10964
1343.50178,1.04513
1342.01199,0.96499
1340.52220,0.93503
1339.03241,0.86436
1337.54262,0.82976
1336.05283,0.78894
1334.56305,0.74815
1333.07326,0.70896
1331.58347,0.64630
1330.09368,0.59465
1328.60389,0.63705
1327.11410,0.52905
1325.62432,0.42736
1324.13453,0.46046
1322.64474,0.49517
1321.15495,0.54715
1319.66516,0.52238
1318.17537,0.49765
1316.68558,0.42594
1315.19580,0.44202
1313.70601,0.37038
1312.21622,0.38810
1310.72643,0.29460
1309.23664,0.33902
1307.74685,0.39132
1306.25707,0.36844
1304.76728,0.35029
1303.27749,0.33218
1301.78770,0.37208
1300.29791,0.34934
1298.80812,0.44102
1297.31834,0.41208
1295.82855,0.38631
1294.33876,0.38251
1292.84897,0.35055
1291.35918,0.33742
1289.86939,0.30552
1288.37960,0.27366
1286.88982,0.40794
1285.40003,0.47800
1283.91024,0.55123
1282.42045,0.48347
1280.93066,0.53327
1279.44087,0.47811
1277.95109,0.53268
1276.46130,0.56692
1274.97151,0.52597
1273.48172,0.48506
1271.99193,0.54604
1270.50214,0.49894
1269.01235,0.52081
1267.52257,0.64928
1266.03278,0.67279
1264.54299,0.71044
1263.05320,0.71679
1261.56341,0.71064
1260.07362,0.70452
1258.58384,0.69844
1257.09405,0.67985
1255.60426,0.79920
1254.11447,0.73681
1252.62468,0.80922
1251.13489,0.72183
1249.64511,0.63918
1248.15532,0.51582
1246.66553,0.50532
1245.17574,0.49486
1243.68595,0.43898
1242.19616,0.50694
1240.70637,0.42607
1239.21659,0.46118
1237.72680,0.37725
1236.23701,0.28551
1234.74722,0.33014
1233.25743,0.29489
1231.76764,0.25967
1230.27786,0.33260
1228.78807,0.32880
1227.29828,0.29212
1225.80849,0.23040
1224.31870,0.16245
1222.82891,0.26377
1221.33912,0.20686
1219.84934,0.20562
1218.35955,0.20441
1216.86976,0.24006
1215.37997,0.28201
1213.89018,0.17983
1212.40039,0.19835
1210.91061,0.09625
1209.42082,0.18222
1207.93103,0.14286
1206.44124,0.10354
1204.95145,0.11597
1203.46166,0.10179
1201.97188,0.05161
1200.48209,0.14719
1198.99230,0.10022
1197.50251,0.00000
1196.01272,0.01339
1194.52293,0.05580
1193.03314,0.09825
1191.54336,0.09450
1190.05357,0.01715
1188.56378,0.04952
1187.07399,0.00201
1185.58420,0.04369
1184.09441,0.10108
1182.60463,0.09270
1181.11484,0.08434
1179.62505,0.05722
1178.13526,0.02230
1176.64547,0.07204
1175.15568,0.13591
1173.66589,0.10579
1172.17611,0.14936
1170.68632,0.07466
1169.19653,0.00000
1167.70674,0.03035
1166.21695,0.09991
1164.72716,0.07862
1163.23738,0.06990
1161.74759,0.05809
1160.25780,0.11368
1158.76801,0.08705
1157.27822,0.06045
1155.78843,0.09265
1154.29865,0.01990
1152.80886,0.10702
1151.31907,0.06568
1149.82928,0.09488
1148.33949,0.16173
1146.84970,0.16515
1145.35991,0.16861
1143.87013,0.08357
1142.38034,0.10826
1140.89055,0.11887
1139.40076,0.14833
1137.91097,0.28907
1136.42118,0.30293
1134.93140,0.35756
1133.44161,0.41223
1131.95182,0.47476
1130.46203,0.49033
1128.97224,0.47615
1127.48245,0.60774
1125.99266,0.58581
1124.50288,0.65949
1123.01309,0.63136
1121.52330,0.60326
1120.03351,0.66294
1118.54372,0.68192
1117.05393,0.71034
1115.56415,0.73879
1114.07436,0.73281
1112.58457,0.74645
1111.09478,0.76012
1109.60499,0.81379
1108.11520,0.81578
1106.62542,0.89772
1105.13563,0.86844
1103.64584,1.02410
1102.15605,1.18763
1100.66626,1.15924
1099.17647,1.13089
1097.68668,1.16134
1096.19690,1.27957
1094.70711,1.27091
1093.21732,1.32496
1091.72753,1.41352
1090.23774,1.37050
1088.74795,1.32751
1087.25817,1.39424
1085.76838,1.54249
1084.27859,1.61086
1082.78880,1.70747
1081.29901,1.62235
1079.80922,1.58740
1078.31943,1.66296
1076.82965,1.73856
1075.33986,1.75073
1073.85007,1.90240
1072.36028,1.89584
1070.87049,1.92222
1069.38070,1.88909
1067.89092,1.94452
1066.40113,2.00000
1064.91134,1.93250
1063.42155,1.76789
1061.93176,1.68950
1060.44197,1.60800
1058.95219,1.50774
1057.46240,1.45531
1055.97261,1.40291
1054.48282,1.29335
1052.99303,1.22770
1051.50324,1.07748
1050.01345,1.04481
1048.52367,1.10776
1047.03388,0.98584
1045.54409,0.86396
1044.05430,0.83300
1042.56451,0.79737
1041.07472,0.72104
1039.58494,0.66824
1038.09515,0.56848
1036.60536,0.60821
1035.11557,0.64797
1033.62578,0.49190
1032.13599,0.36877
1030.64620,0.36790
1029.15642,0.39213
1027.66663,0.44147
1026.17684,0.49085
1024.68705,0.47759
1023.19726,0.53017
1021.70747,0.69247
1020.21769,0.72632
1018.72790,0.95451
1017.23811,1.03544
1015.74832,1.11640
1014.25853,1.28829
1012.76874,1.44140
1011.27896,1.67917
1009.78917,1.65685
1008.29938,1.70195
1006.80959,1.68363
1005.31980,1.66534
1003.83001,1.54915
1002.34022,1.46276
1000.85044,1.48454
999.36065,1.36375
997.87086,1.35426
996.38107,1.34480
994.89128,1.34477
993.40149,1.39493
991.91171,1.39341
990.42192,1.32768
988.93213,1.35287
987.44234,1.38279
985.95255,1.41276
984.46276,1.26569
982.97297,1.41637
981.48319,1.32735
979.99340,1.30104
978.50361,1.29514
977.01382,1.28928
975.52403,1.19569
974.03424,1.15229
972.54446,1.06505
971.05467,1.13297
969.56488,1.05677
968.07509,1.04014
966.58530,1.02356
965.09551,0.91142
963.60573,0.84319
962.11594,0.97870
960.62615,0.78519
959.13636,0.76486
957.64657,0.74457
956.15678,0.69846
954.66699,0.71819
953.17721,0.71289
951.68742,0.71232
950.19763,0.71649
948.70784,0.72070
947.21805,0.67480
945.72826,0.67281
944.23848,0.60974
942.74869,0.72848
941.25890,0.92873
939.76911,0.94177
938.27932,0.95484
936.78953,1.01104
935.29974,0.92782
933.80996,0.97155
932.32017,1.00749
930.83038,1.09360
929.34059,1.17975
927.85080,0.98388
926.36101,0.93064
924.87123,0.97145
923.38144,1.00759
921.89165,1.01870
920.40186,1.02985
918.91207,1.16169
917.42228,1.11023
915.93250,1.13871
914.44271,1.18291
912.95292,1.16994
911.46313,1.15701
909.97334,1.28906
908.48355,1.28796
906.99376,1.18973
905.50398,1.13542
904.01419,1.14069
902.52440,1.14599
901.03461,1.28922
899.54482,1.35257
898.05503,1.28590
896.56525,1.36812
895.07546,1.34931
893.58567,1.33054
892.09588,1.24991
890.60609,1.35578
889.11630,1.21880
887.62651,1.17902
886.13673,1.20273
884.64694,1.22648
883.15715,1.32469
881.66736,1.28191
880.17757,1.21566
878.68778,1.24425
877.19800,1.27287
875.70821,1.44334
874.21842,1.33963
872.72863,1.48980
871.23884,1.54756
869.74905,1.52308
868.25927,1.49864
866.76948,1.53770
865.27969,1.56112
863.78990,1.66449
862.30011,1.60337
860.81032,1.56422
859.32053,1.52510
857.83075,1.45625
856.34096,1.40624
854.85117,1.36096
853.36138,1.27812
851.87159,1.18120
850.38180,1.08432
848.89202,0.84958
847.40223,0.79665
845.91244,0.70301
844.42265,0.64388
842.93286,0.58478
841.44307,0.51318
839.95329,0.53877
838.46350,0.46725
836.97371,0.46157
835.48392,0.50215
833.99413,0.54277
832.50434,0.45415
831.01455,0.43294
829.52477,0.51519
828.03498,0.44705
826.54519,0.44553
825.05540,0.44406
823.56561,0.40892
822.07582,0.26414
820.58604,0.31683
819.09625,0.28102
817.60646,0.24524
816.11667,0.07396
814.62688,0.12052
813.13709,0.00102
811.64730,0.09466
810.15752,0.04731
808.66773,0.00000
807.17794,0.03471
805.68815,0.04282
804.19836,0.07917
802.70857,0.08892
801.21879,0.09870
799.72900,0.19470
798.23921,0.31424
796.74942,0.38054
795.25963,0.44531
793.76984,0.51011
792.28006,0.53734
790.79027,0.62415
789.30048,0.71100
787.81069,0.69759
786.32090,0.72183
784.83111,0.74610
783.34132,0.74691
781.85154,0.77595
780.36175,0.68124
778.87196,0.71428
777.38217,0.74735
775.89238,0.91443
774.40259,0.89037
772.91281,0.98074
771.42302,0.99044
769.93323,1.00019
768.44344,1.02171
766.95365,0.86151
765.46386,0.99123
763.97407,0.89534
762.48429,0.81908
760.99450,0.74285
759.50471,0.66587
758.01492,0.63437
756.52513,0.53552
755.03534,0.47510
753.54556,0.41472
752.05577,0.22667
750.56598,0.17654
749.07619,0.20009
747.58640,0.21742
746.09661,0.23477
744.60683,0.19419
743.11704,0.14424
741.62725,0.13663
740.13746,0.11887
738.64767,0.10115
737.15788,0.08111
735.66809,0.00000
734.17831,0.18928
732.68852,0.14042
731.19873,0.09160
729.70894,0.05691
728.21915,0.04733
726.72936,0.10516
725.23958,0.12229
723.74979,0.09793
722.26000,0.07361
720.77021,0.01093
719.28042,0.10363
717.79063,0.03654
716.30084,0.02432
714.81106,0.01214
713.32127,0.00000
711.83148,0.11516
710.34169,0.11597
708.85190,0.12309
707.36211,0.13024
705.87233,0.08414
704.38254,0.10390
702.89275,0.12056
701.40296,0.13177
699.91317,0.14301
698.42338,0.16761
696.93360,0.23612
695.44381,0.20594
693.95402,0.26277
692.46423,0.31963
690.97444,0.30210
689.48465,0.30653
687.99486,0.37996
686.50508,0.38447
685.01529,0.38901
683.52550,0.47978
682.03571,0.38724
680.54592,0.33548
679.05613,0.37464
677.56635,0.41384
676.07656,0.39352
674.58677,0.28079
673.09698,0.26682
671.60719,0.23408
670.11740,0.20137
668.62761,0.15302
667.13783,0.14389
665.64804,0.10972
664.15825,0.07559
662.66846,0.11827
661.17867,0.10771
659.68888,0.10032
658.19910,0.15330
656.70931,0.20631
655.21952,0.13321
653.72973,0.10246
652.23994,0.18770
650.75015,0.17895
649.26037,0.17024
647.77058,0.07226
646.28079,0.05108
644.79100,0.12239
643.30121,0.12009
641.81142,0.11783
640.32163,0.11090
638.83185,0.10714
637.34206,0.09871
635.85227,0.07074
634.36248,0.04279
632.87269,0.00000
631.38290,0.07228
629.89312,0.08506
628.40333,0.06809
626.91354,0.05116
625.42375,0.09225
623.93396,0.10986
622.44417,0.10714
620.95438,0.10446
619.46460,0.09241
617.97481,0.06472
616.48502,0.07155
614.99523,0.07527
613.50544,0.07903
612.01565,0.12357
610.52587,0.07412
609.03608,0.14694
607.54629,0.15711
606.05650,0.16731
604.56671,0.16031
603.07692,0.12515
601.58714,0.14173
600.09735,0.15834
598.60756,0.11231
597.11777,0.03655
595.62798,0.14102
594.13819,0.11781
592.64840,0.09465
591.15862,0.06603
589.66883,0.06566
588.17904,0.15777
586.68925,0.17548
585.19946,0.19323
583.70967,0.19143
582.21989,0.15990
580.73010,0.20047
579.24031,0.24109
577.75052,0.18772
576.26073,0.12185
574.77094,0.15943
573.28115,0.15005
571.79137,0.14069
570.30158,0.14705
568.81179,0.26469
567.32200,0.31028
565.83221,0.35592
564.34242,0.40158
562.85264,0.53660
561.36285,0.57137
559.87306,0.58738
558.38327,0.60341
556.89348,0.58031
555.40369,0.61835
553.91391,0.65565
552.42412,0.69298
550.93433,0.74054
549.44454,0.70508
547.95475,0.72919
546.46496,0.74395
544.97517,0.75874
543.48539,0.84877
541.99560,0.88870
540.50581,0.85659
539.01602,0.82451
537.52623,0.78463
536.03644,0.76359
534.54666,0.75355
533.05687,0.80466
531.56708,0.85581
530.07729,0.88349
528.58750,0.71376
527.09771,0.71252
525.60792,0.71132
524.11814,0.67646
522.62835,0.75915
521.13856,0.61311
519.64877,0.57992
518.15898,0.54677
516.66919,0.61081
515.17941,0.52288
513.68962,0.55722
512.19983,0.59159
510.71004,0.56958
509.22025,0.64946
507.73046,0.63536
506.24068,0.65342
504.75089,0.67151
503.26110,0.61364
501.77131,0.67960
500.28152,0.69623
498.79173,0.71290
497.30194,0.67710
495.81216,0.67269
494.32237,0.68868
492.83258,0.70470
491.34279,0.68629
489.85300,0.76193
488.36321,0.57749
486.87343,0.54743
485.38364,0.51741
483.89385,0.46783
482.40406,0.49351
480.91427,0.38054
479.42448,0.26761
477.93469,0.34823
476.44491,0.31137
474.95512,0.27454
473.46533,0.23775
471.97554,0.18689
470.48575,0.11256
468.99596,0.03200
467.50618,0.07762
466.01639,0.12327
464.52660,0.00991
463.03681,0.00000
461.54702,0.04918
460.05723,0.09839
458.56745,0.13980
457.07766,0.11387
455.58787,0.11539
454.09808,0.11695
452.60829,0.31520
451.11850,0.22987
449.62871,0.22762
448.13893,0.22540
446.64914,0.27963
445.15935,0.42635
443.66956,0.49945
442.17977,0.58591
440.68998,0.67241
439.20020,0.62809
437.71041,0.83610
436.22062,0.92505
434.73083,1.01403
433.24104,1.13283
431.75125,1.35351
430.26146,1.35015
428.77168,1.34683
427.28189,1.46733
425.79210,1.55966
424.30231,1.55723
422.81252,1.55483
421.32273,1.54385
419.83295,1.37621
418.34316,1.30262
416.85337,1.22907
415.36358,1.17435
413.87379,0.96924
412.38400,0.87699
410.89422,0.78478
409.40443,0.72550
407.91464,0.79946
406.42485,0.76532
404.93506,0.73593
403.44527,0.70657
401.95548,0.66941
400.46570,0.61818
398.97591,0.64690
397.48612,0.67566
395.99633,0.73579
394.50654,0.59069
393.01675,0.60624
391.52697,0.62182
390.03718,0.61158
388.54739,0.45095
387.05760,0.49797
385.56781,0.54503
384.07802,0.61328
382.58824,0.43556
381.09845,0.44277
379.60866,0.45001
378.11887,0.46043
376.62908,0.30948
375.13929,0.31448
373.64950,0.31952
372.15972,0.19531
370.66993,0.25135
369.18014,0.25257
367.69035,0.25383
366.20056,0.19715
364.71077,0.19065
363.22099,0.22962
361.73120,0.26863
360.24141,0.11023
358.75162,0.12111
357.26183,0.12653
355.77204,0.13199
354.28225,0.04112
352.79247,0.03176
351.30268,0.05222
349.81289,0.07270
348.32310,0.02742
346.83331,0.12703
345.34352,0.07703
343.85374,0.02707
342.36395,0.05314
340.87416,0.20617
339.38437,0.20254
337.89458,0.19895
336.40479,0.01989
334.91501,0.04144
333.42522,0.04656
331.93543,0.05173
330.44564,0.12666
328.95585,0.10917
327.46606,0.09564
325.97627,0.08214
324.48649,0.05536
322.99670,0.09503
321.50691,0.11984
320.01712,0.14469
318.52733,0.10298
317.03754,0.10988
315.54776,0.05492
314.05797,0.00000
312.56818,0.07758
311.07839,0.09094
309.58860,0.08554
308.09881,0.08018
306.60902,0.09208
305.11924,0.13379
303.62945,0.12383
302.13966,0.11391
300.64987,0.00687
299.16008,0.00000
