1778.52000,0.04889
1777.03021,0.04784
1775.54042,0.02401
1774.05063,0.02151
1772.56085,0.02815
1771.07106,0.03483
1769.58127,0.09173
1768.09148,0.03460
1766.60169,0.00791
1765.11190,0.05882
1763.62212,0.05197
1762.13233,0.09077
1760.64254,0.05509
1759.15275,0.08483
1757.66296,0.15871
1756.17317,0.12159
1754.68339,0.04953
1753.19360,0.00791
1751.70381,0.08328
1750.21402,0.02485
1748.72423,0.05769
1747.23444,0.06776
1745.74465,0.07177
1744.25487,0.09710
1742.76508,0.07836
1741.27529,0.04597
1739.78550,0.06075
1738.29571,0.06796
1736.80592,0.08888
1735.31614,0.04140
1733.82635,0.12018
1732.33656,0.02106
1730.84677,0.03298
1729.35698,0.05863
1727.86719,0.02043
1726.37740,0.02332
1724.88762,0.07644
1723.39783,0.00791
1721.90804,0.03834
1720.41825,0.08401
1718.92846,0.13123
1717.43867,0.06442
1715.94889,0.12083
1714.45910,0.03735
1712.96931,0.05276
1711.47952,0.08644
1709.98973,0.06693
1708.49994,0.09916
1707.01016,0.10253
1705.52037,0.10592
1704.03058,0.10935
1702.54079,0.08391
1701.05100,0.12238
1699.56121,0.14719
1698.07142,0.12184
1696.58164,0.02809
1695.09185,0.12904
1693.60206,0.09618
1692.11227,0.12115
1690.62248,0.18416
1689.13269,0.14684
1687.64291,0.18863
1686.15312,0.20307
1684.66333,0.19930
1683.17354,0.11799
1681.68375,0.15382
1680.19396,0.15470
1678.70417,0.14953
1677.21439,0.12006
1675.72460,0.16818
1674.23481,0.13420
1672.74502,0.14893
1671.25523,0.16216
1669.76544,0.16630
1668.27566,0.22979
1666.78587,0.11536
1665.29608,0.15153
1663.80629,0.14059
1662.31650,0.14489
1660.82671,0.15986
1659.33693,0.15205
1657.84714,0.12906
1656.35735,0.07417
1654.86756,0.14706
1653.37777,0.10743
1651.88798,0.07849
1650.39819,0.11345
1648.90841,0.10738
1647.41862,0.07244
1645.92883,0.10369
1644.43904,0.13498
1642.94925,0.13359
1641.45946,0.15809
1639.96968,0.05639
1638.47989,0.16765
1636.99010,0.06905
1635.50031,0.13626
1634.01052,0.08944
1632.52073,0.11260
1631.03094,0.12667
1629.54116,0.12405
1628.05137,0.10777
1626.56158,0.10064
1625.07179,0.12092
1623.58200,0.12450
1622.09221,0.14028
1620.60243,0.20172
1619.11264,0.18410
1617.62285,0.15587
1616.13306,0.13375
1614.64327,0.12839
1613.15348,0.11698
1611.66370,0.10865
1610.17391,0.12467
1608.68412,0.08142
1607.19433,0.09447
1605.70454,0.13644
1604.21475,0.10545
1602.72496,0.07449
1601.23518,0.10287
1599.74539,0.14040
1598.25560,0.09585
1596.76581,0.12280
1595.27602,0.07982
1593.78623,0.08859
1592.29645,0.06545
1590.80666,0.03017
1589.31687,0.10899
1587.82708,0.03271
1586.33729,0.09790
1584.84750,0.08556
1583.35771,0.09606
1581.86793,0.11572
1580.37814,0.04720
1578.88835,0.07301
1577.39856,0.08516
1575.90877,0.00000
1574.41898,0.01677
1572.92920,0.07008
1571.43941,0.04281
1569.94962,0.04523
1568.45983,0.04767
1566.97004,0.03418
1565.48025,0.01008
1563.99047,0.08486
1562.50068,0.02432
1561.01089,0.00791
1559.52110,0.03097
1558.03131,0.07535
1556.54152,0.05284
1555.05173,0.04405
1553.56195,0.07636
1552.07216,0.11174
1550.58237,0.10912
1549.09258,0.05787
1547.60279,0.05380
1546.11300,0.19424
1544.62322,0.15678
1543.13343,0.16496
1541.64364,0.07433
1540.15385,0.06129
1538.66406,0.04828
1537.17427,0.06115
1535.68448,0.02844
1534.19470,0.00791
1532.70491,0.05369
1531.21512,0.01432
1529.72533,0.06472
1528.23554,0.02085
1526.74575,0.05762
1525.25597,0.02751
1523.76618,0.07955
1522.27639,0.03885
1520.78660,0.03012
1519.29681,0.05336
1517.80702,0.02796
1516.31724,0.07103
1514.82745,0.03961
1513.33766,0.04624
1511.84787,0.05291
1510.35808,0.09154
1508.86829,0.05721
1507.37850,0.00617
1505.88872,0.07668
1504.39893,0.06966
1502.90914,0.00791
1501.41935,0.09451
1499.92956,0.03817
1498.43977,0.17045
1496.94999,0.21303
1495.46020,0.19480
1493.97041,0.22984
1492.48062,0.26187
1490.99083,0.30457
1489.50104,0.37012
1488.01125,0.41669
1486.52147,0.46329
1485.03168,0.53045
1483.54189,0.60068
1482.05210,0.68312
1480.56231,0.75798
1479.07252,0.96214
1477.58274,1.05227
1476.09295,1.04662
1474.60316,1.20068
1473.11337,1.34413
1471.62358,1.27926
1470.13379,1.31936
1468.64401,1.23934
1467.15422,1.11525
1465.66443,1.09613
1464.17464,1.07703
1462.68485,1.00322
1461.19506,1.02069
1459.70527,0.88155
1458.21549,0.87323
1456.72570,0.69308
1455.23591,0.77151
1453.74612,0.70245
1452.25633,0.67600
1450.76654,0.57050
1449.27676,0.57909
1447.78697,0.55274
1446.29718,0.44733
1444.80739,0.43321
1443.31760,0.41911
1441.82781,0.34269
1440.33802,0.27999
1438.84824,0.23406
1437.35845,0.24746
1435.86866,0.29435
1434.37887,0.27893
1432.88908,0.23615
1431.39929,0.28466
1429.90951,0.23587
1428.41972,0.20687
1426.92993,0.27981
1425.44014,0.26761
1423.95035,0.34136
1422.46056,0.41515
1420.97078,0.32092
1419.48099,0.34382
1417.99120,0.28919
1416.50141,0.32280
1415.01162,0.35340
1413.52183,0.37034
1412.03204,0.39949
1410.54226,0.41953
1409.05247,0.46851
1407.56268,0.35782
1406.07289,0.37644
1404.58310,0.40041
1403.09331,0.42442
1401.60353,0.49940
1400.11374,0.50294
1398.62395,0.49129
1397.13416,0.56789
1395.64437,0.56391
1394.15458,0.62993
1392.66479,0.64122
1391.17501,0.75749
1389.68522,0.68672
1388.19543,0.66312
1386.70564,0.67606
1385.21585,0.68904
1383.72606,0.65185
1382.23628,0.65271
1380.74649,0.60190
1379.25670,0.63933
1377.76691,0.67375
1376.27712,0.68995
1374.78733,0.74115
1373.29755,0.83194
1371.80776,0.91514
1370.31797,1.05313
1368.82818,1.13792
1367.33839,1.22275
1365.84860,1.31216
1364.35881,1.62974
1362.86903,1.83328
1361.37924,1.85435
1359.88945,1.94389
1358.39966,2.00000
1356.90987,1.98619
1355.42008,1.92830
1353.93030,1.92823
1352.44051,1.93200
1350.95072,1.93580
1349.46093,1.83697
1347.97114,1.59674
1346.48135,1.30635
1344.99156,1.17567
1343.50178,1.04351
1342.01199,0.96765
1340.52220,0.79297
1339.03241,0.82972
1337.54262,0.78893
1336.05283,0.74969
1334.56305,0.71049
1333.07326,0.60592
1331.58347,0.57438
1330.09368,0.57177
1328.60389,0.49163
1327.11410,0.51798
1325.62432,0.53219
1324.13453,0.35785
1322.64474,0.40406
1321.15495,0.50657
1319.66516,0.45323
1318.17537,0.39992
1316.68558,0.41128
1315.19580,0.42723
1313.70601,0.38542
1312.21622,0.31626
1310.72643,0.34295
1309.23664,0.32405
1307.74685,0.32494
1306.25707,0.35477
1304.76728,0.34280
1303.27749,0.33086
1301.78770,0.31820
1300.29791,0.31164
1298.80812,0.28231
1297.31834,0.31840
1295.82855,0.37582
1294.33876,0.38460
1292.84897,0.40862
1291.35918,0.26081
1289.86939,0.30391
1288.37960,0.34703
1286.88982,0.40463
1285.40003,0.41968
1283.91024,0.47431
1282.42045,0.49246
1280.93066,0.37073
1279.44087,0.40719
1277.95109,0.47411
1276.46130,0.44980
1274.97151,0.48104
1273.48172,0.51230
1271.99193,0.43790
1270.50214,0.45935
1269.01235,0.56295
1267.52257,0.51754
1266.03278,0.58166
1264.54299,0.55760
1263.05320,0.59745
1261.56341,0.61908
1260.07362,0.64074
1258.58384,0.70806
1257.09405,0.60355
1255.60426,0.61314
1254.11447,0.69576
1252.62468,0.69324
1251.13489,0.70444
1249.64511,0.56663
1248.15532,0.41669
1246.66553,0.41429
1245.17574,0.41193
1243.68595,0.33052
1242.19616,0.50159
1240.70637,0.34420
1239.21659,0.40888
1237.72680,0.36104
1236.23701,0.27522
1234.74722,0.28524
1233.25743,0.28617
1231.76764,0.28713
1230.27786,0.27291
1228.78807,0.29979
1227.29828,0.25217
1225.80849,0.16505
1224.31870,0.12814
1222.82891,0.18860
1221.33912,0.13198
1219.84934,0.16893
1218.35955,0.20591
1216.86976,0.17220
1215.37997,0.24802
1213.89018,0.26000
1212.40039,0.22030
1210.91061,0.18519
1209.42082,0.20486
1207.93103,0.19872
1206.44124,0.19260
1204.95145,0.20628
1203.46166,0.16373
1201.97188,0.12576
1200.48209,0.10608
1198.99230,0.13510
1197.50251,0.10940
1196.01272,0.11262
1194.52293,0.08774
1193.03314,0.06289
1191.54336,0.09511
1190.05357,0.15169
1188.56378,0.12465
1187.07399,0.00791
1185.58420,0.06437
1184.09441,0.03113
1182.60463,0.06408
1181.11484,0.09706
1179.62505,0.08216
1178.13526,0.03840
1176.64547,0.02965
1175.15568,0.12131
1173.66589,0.11566
1172.17611,0.11004
1170.68632,0.08164
1169.19653,0.05328
1167.70674,0.10554
1166.21695,0.07876
1164.72716,0.04136
1163.23738,0.02224
1161.74759,0.01532
1160.25780,0.13314
1158.76801,0.07534
1157.27822,0.01756
1155.78843,0.09289
1154.29865,0.08461
1152.80886,0.00791
1151.31907,0.08159
1149.82928,0.15833
1148.33949,0.13929
1146.84970,0.10888
1145.35991,0.07849
1143.87013,0.11430
1142.38034,0.18207
1140.89055,0.13885
1139.40076,0.21429
1137.91097,0.20460
1136.42118,0.29987
1134.93140,0.34042
1133.44161,0.38101
1131.95182,0.43835
1130.46203,0.40904
1128.97224,0.35391
1127.48245,0.51020
1125.99266,0.51444
1124.50288,0.51567
1123.01309,0.54278
1121.52330,0.56993
1120.03351,0.55604
1118.54372,0.68819
1117.05393,0.64547
1115.56415,0.70315
1114.07436,0.66962
1112.58457,0.58973
1111.09478,0.50988
1109.60499,0.67871
1108.11520,0.71070
1106.62542,0.68949
1105.13563,0.76564
1103.64584,0.89201
1102.15605,1.01081
1100.66626,0.96539
1099.17647,0.92000
1097.68668,0.99023
1096.19690,1.03463
1094.70711,1.05017
1093.21732,1.10680
1091.72753,1.08894
1090.23774,1.10457
1088.74795,1.12023
1087.25817,1.16938
1085.76838,1.29156
1084.27859,1.32709
1082.78880,1.42652
1081.29901,1.35869
1079.80922,1.37302
1078.31943,1.37749
1076.82965,1.38200
1075.33986,1.54698
1073.85007,1.61010
1072.36028,1.61698
1070.87049,1.60563
1069.38070,1.71447
1067.89092,1.69407
1066.40113,1.67369
1064.91134,1.71114
1063.42155,1.44294
1061.93176,1.36486
1060.44197,1.24424
1058.95219,1.24379
1057.46240,1.22665
1055.97261,1.20953
1054.48282,1.11793
1052.99303,1.07502
1051.50324,0.91352
1050.01345,0.98170
1048.52367,0.85676
1047.03388,0.77596
1045.54409,0.69518
1044.05430,0.66007
1042.56451,0.70103
1041.07472,0.57776
1039.58494,0.51841
1038.09515,0.41802
1036.60536,0.37850
1035.11557,0.33900
1033.62578,0.39384
1032.13599,0.33616
1030.64620,0.36976
1029.15642,0.38666
1027.66663,0.40207
1026.17684,0.41752
1024.68705,0.41170
1023.19726,0.54735
1021.70747,0.66631
1020.21769,0.75184
1018.72790,0.84348
1017.23811,0.90930
1015.74832,0.97515
1014.25853,1.28436
1012.76874,1.35484
1011.27896,1.51811
1009.78917,1.65709
1008.29938,1.64249
1006.80959,1.65529
1005.31980,1.66813
1003.83001,1.52283
1002.34022,1.53117
1000.85044,1.48631
999.36065,1.35479
997.87086,1.32139
996.38107,1.28803
994.89128,1.22809
993.40149,1.23053
991.91171,1.26950
990.42192,1.25071
988.93213,1.25476
987.44234,1.27101
985.95255,1.28729
984.46276,1.16065
982.97297,1.03708
981.48319,1.05193
979.99340,1.05769
978.50361,0.99048
977.01382,0.92331
975.52403,0.98239
974.03424,0.88790
972.54446,0.89229
971.05467,0.92562
969.56488,0.87532
968.07509,0.77563
966.58530,0.67597
965.09551,0.64250
963.60573,0.54519
962.11594,0.58934
960.62615,0.57421
959.13636,0.53403
957.64657,0.49387
956.15678,0.50316
954.66699,0.47447
953.17721,0.52338
951.68742,0.49627
950.19763,0.52470
948.70784,0.55317
947.21805,0.49574
945.72826,0.48548
944.23848,0.52088
942.74869,0.61107
941.25890,0.53247
939.76911,0.62880
938.27932,0.72516
936.78953,0.82307
935.29974,0.81607
933.80996,0.69200
932.32017,0.87821
930.83038,0.85458
929.34059,0.83098
927.85080,0.77091
926.36101,0.80517
924.87123,0.76189
923.38144,0.79316
921.89165,0.78264
920.40186,0.77216
918.91207,0.82025
917.42228,0.83796
915.93250,0.81616
914.44271,0.89933
912.95292,0.89584
911.46313,0.89238
909.97334,0.85094
908.48355,0.98898
906.99376,0.84874
905.50398,0.87887
904.01419,0.81321
902.52440,0.74758
901.03461,0.80974
899.54482,0.89170
898.05503,0.93262
896.56525,0.92187
895.07546,0.88758
893.58567,0.85332
892.09588,0.90349
890.60609,0.87918
889.11630,0.76060
887.62651,0.90821
886.13673,0.89007
884.64694,0.87196
883.15715,0.90103
881.66736,0.96055
880.17757,1.04899
878.68778,1.05611
877.19800,1.06325
875.70821,1.06206
874.21842,1.08827
872.72863,1.13733
871.23884,1.21075
869.74905,1.18003
868.25927,1.14933
866.76948,1.20308
865.27969,1.20971
863.78990,1.21485
862.30011,1.28390
860.81032,1.24119
859.32053,1.19852
857.83075,1.27374
856.34096,1.18931
854.85117,1.14445
853.36138,1.08441
851.87159,0.97193
850.38180,0.85949
848.89202,0.74935
847.40223,0.60579
845.91244,0.59001
844.42265,0.59251
842.93286,0.59505
841.44307,0.55655
839.95329,0.45117
838.46350,0.33364
836.97371,0.36064
835.48392,0.39526
833.99413,0.42992
832.50434,0.37336
831.01455,0.44001
829.52477,0.39872
828.03498,0.35442
826.54519,0.33448
825.05540,0.31457
823.56561,0.34945
822.07582,0.30223
820.58604,0.28241
819.09625,0.23982
817.60646,0.19725
816.11667,0.16384
814.62688,0.18826
813.13709,0.15643
811.64730,0.04708
810.15752,0.02748
808.66773,0.00791
807.17794,0.01755
805.68815,0.09413
804.19836,0.04908
802.70857,0.11812
801.21879,0.18719
799.72900,0.22436
798.23921,0.31174
796.74942,0.39308
795.25963,0.36190
793.76984,0.33075
792.28006,0.41674
790.79027,0.52709
789.30048,0.63139
787.81069,0.62774
786.32090,0.63173
784.83111,0.63575
783.34132,0.69759
781.85154,0.67733
780.36175,0.74380
778.87196,0.69775
777.38217,0.65174
775.89238,0.81715
774.40259,0.79553
772.91281,0.76634
771.42302,0.78660
769.93323,0.80690
768.44344,0.80061
766.95365,0.83846
765.46386,0.82463
763.97407,0.70742
762.48429,0.68301
760.99450,0.65862
759.50471,0.64948
758.01492,0.50197
756.52513,0.50354
755.03534,0.42833
753.54556,0.35316
752.05577,0.16775
750.56598,0.24701
749.07619,0.16660
747.58640,0.15847
746.09661,0.15037
744.60683,0.10199
743.11704,0.07646
741.62725,0.08594
740.13746,0.06352
738.64767,0.04112
737.15788,0.01876
735.66809,0.02380
734.17831,0.05625
732.68852,0.06363
731.19873,0.07105
729.70894,0.04276
728.21915,0.03274
726.72936,0.09424
725.23958,0.10102
723.74979,0.06753
722.26000,0.03407
720.77021,0.07592
719.28042,0.09804
717.79063,0.06695
716.30084,0.03742
714.81106,0.00791
713.32127,0.10713
711.83148,0.06950
710.34169,0.13987
708.85190,0.17531
707.36211,0.21077
705.87233,0.14132
704.38254,0.14339
702.89275,0.08313
701.40296,0.09590
699.91317,0.10871
698.42338,0.12002
696.93360,0.24087
695.44381,0.24312
693.95402,0.26821
692.46423,0.29334
690.97444,0.30177
689.48465,0.31023
687.99486,0.37195
686.50508,0.33560
685.01529,0.29929
683.52550,0.38087
682.03571,0.31193
680.54592,0.33578
679.05613,0.33533
677.56635,0.33491
676.07656,0.35734
674.58677,0.29311
673.09698,0.24716
671.60719,0.24839
670.11740,0.24964
668.62761,0.17185
667.13783,0.18230
665.64804,0.19049
664.15825,0.19872
662.66846,0.06630
661.17867,0.06470
659.68888,0.18024
658.19910,0.17490
656.70931,0.16960
655.21952,0.07535
653.72973,0.09368
652.23994,0.09835
650.75015,0.13271
649.26037,0.16710
647.77058,0.13841
646.28079,0.10214
644.79100,0.14956
643.30121,0.14757
641.81142,0.14562
640.32163,0.13837
638.83185,0.09618
637.34206,0.03424
635.85227,0.04799
634.36248,0.06176
632.87269,0.05123
631.38290,0.05747
629.89312,0.07742
628.40333,0.04265
626.91354,0.00791
625.42375,0.08413
623.93396,0.07064
622.44417,0.08380
620.95438,0.09699
619.46460,0.07295
617.97481,0.08240
616.48502,0.08428
614.99523,0.10063
613.50544,0.11702
612.01565,0.14332
610.52587,0.09362
609.03608,0.15344
607.54629,0.16995
606.05650,0.18650
604.56671,0.23729
603.07692,0.18774
601.58714,0.15799
600.09735,0.12827
598.60756,0.23545
597.11777,0.17386
595.62798,0.13663
594.13819,0.11540
592.64840,0.09420
591.15862,0.16504
589.66883,0.10969
588.17904,0.12888
586.68925,0.16180
585.19946,0.19474
583.70967,0.22772
582.21989,0.22118
580.73010,0.23978
579.24031,0.25840
577.75052,0.13789
576.26073,0.09194
574.77094,0.13119
573.28115,0.14841
571.79137,0.16567
570.30158,0.22174
568.81179,0.35084
567.32200,0.32637
565.83221,0.30192
564.34242,0.33530
562.85264,0.33526
561.36285,0.44018
559.87306,0.43563
558.38327,0.43111
556.89348,0.41294
555.40369,0.46019
553.91391,0.53409
552.42412,0.60803
550.93433,0.54435
549.44454,0.62063
547.95475,0.67412
546.46496,0.68506
544.97517,0.69603
543.48539,0.70703
541.99560,0.78042
540.50581,0.74434
539.01602,0.70829
537.52623,0.67683
536.03644,0.63780
534.54666,0.78282
533.05687,0.78568
531.56708,0.78856
530.07729,0.71011
528.58750,0.56782
527.09771,0.58981
525.60792,0.61183
524.11814,0.57913
522.62835,0.57688
521.13856,0.56706
519.64877,0.57400
518.15898,0.58096
516.66919,0.52561
515.17941,0.49157
513.68962,0.51156
512.19983,0.53158
510.71004,0.36381
509.22025,0.42875
507.73046,0.51502
506.24068,0.52452
504.75089,0.53405
503.26110,0.51243
501.77131,0.57144
500.28152,0.56358
498.79173,0.55574
497.30194,0.59812
495.81216,0.55993
494.32237,0.61910
492.83258,0.67830
491.34279,0.65389
489.85300,0.46526
488.36321,0.53064
486.87343,0.49111
485.38364,0.45162
483.89385,0.41063
482.40406,0.36968
480.91427,0.29301
479.42448,0.21638
477.93469,0.26525
476.44491,0.15902
474.95512,0.17754
473.46533,0.19608
471.97554,0.11124
470.48575,0.07510
468.99596,0.08309
467.50618,0.04549
466.01639,0.00791
464.52660,0.02002
463.03681,0.08995
461.54702,0.07018
460.05723,0.05044
458.56745,0.00791
457.07766,0.06058
455.58787,0.11860
454.09808,0.17666
452.60829,0.21421
451.11850,0.20921
449.62871,0.20424
448.13893,0.19930
446.64914,0.27348
445.15935,0.31422
443.66956,0.37934
442.17977,0.45589
440.68998,0.53247
439.20020,0.55814
437.71041,0.73287
436.22062,0.74720
434.73083,0.76155
433.24104,0.83600
431.75125,1.04432
430.26146,1.06485
428.77168,1.08541
427.28189,1.25124
425.79210,1.27110
424.30231,1.27731
422.81252,1.28354
421.32273,1.52402
419.83295,1.42538
418.34316,1.32448
416.85337,1.22363
415.36358,0.94410
413.87379,0.75281
412.38400,0.71820
410.89422,0.68362
409.40443,0.62626
407.91464,0.64193
406.42485,0.60744
404.93506,0.60493
403.44527,0.60244
401.95548,0.44638
400.46570,0.43635
398.97591,0.40278
397.48612,0.36924
395.99633,0.42014
394.50654,0.57145
393.01675,0.47260
391.52697,0.37379
390.03718,0.28642
388.54739,0.35572
387.05760,0.36422
385.56781,0.37275
384.07802,0.42694
382.58824,0.25304
381.09845,0.26774
379.60866,0.28248
378.11887,0.30030
376.62908,0.18430
375.13929,0.14895
373.64950,0.11363
372.15972,0.17567
370.66993,0.17538
369.18014,0.10822
367.69035,0.04108
366.20056,0.08956
364.71077,0.11677
363.22099,0.14934
361.73120,0.18195
360.24141,0.16819
358.75162,0.12101
357.26183,0.10124
355.77204,0.08149
354.28225,0.07395
352.79247,0.04971
351.30268,0.05211
349.81289,0.05454
348.32310,0.05777
346.83331,0.05102
345.34352,0.04888
343.85374,0.04676
342.36395,0.12376
340.87416,0.13083
339.38437,0.13641
337.89458,0.14202
336.40479,0.11116
334.91501,0.01189
333.42522,0.04193
331.93543,0.07200
330.44564,0.08537
328.95585,0.15352
327.46606,0.12741
325.97627,0.10134
324.48649,0.08745
322.99670,0.13341
321.50691,0.09804
320.01712,0.06269
318.52733,0.12091
317.03754,0.16699
315.54776,0.15835
314.05797,0.14974
312.56818,0.04079
311.07839,0.00791
309.58860,0.04847
308.09881,0.08906
306.60902,0.05363
305.11924,0.11253
303.62945,0.08477
302.13966,0.05704
300.64987,0.02022
299.16008,0.00791
