1778.52000,0.07237
1777.03021,0.07008
1775.54042,0.06477
1774.05063,0.07787
1772.56085,0.05577
1771.07106,0.00000
1769.58127,0.12353
1768.09148,0.12299
1766.60169,0.01523
1765.11190,0.05919
1763.62212,0.02811
1762.13233,0.09206
1760.64254,0.08250
1759.15275,0.08523
1757.66296,0.12631
1756.17317,0.05557
1754.68339,0.10131
1753.19360,0.00000
1751.70381,0.03802
1750.21402,0.04697
1748.72423,0.07893
1747.23444,0.07569
1745.74465,0.09240
1744.25487,0.12753
1742.76508,0.14738
1741.27529,0.12896
1739.78550,0.10444
1738.29571,0.17496
1736.80592,0.12140
1735.31614,0.11078
1733.82635,0.08182
1732.33656,0.15860
1730.84677,0.08221
1729.35698,0.07786
1727.86719,0.00000
1726.37740,0.05545
1724.88762,0.04965
1723.39783,0.05921
1721.90804,0.03662
1720.41825,0.11367
1718.92846,0.07737
1717.43867,0.05949
1715.94889,0.09680
1714.45910,0.03762
1712.96931,0.13782
1711.47952,0.08485
1709.98973,0.11311
1708.49994,0.12915
1707.01016,0.13756
1705.52037,0.14601
1704.03058,0.16522
1702.54079,0.16302
1701.05100,0.14399
1699.56121,0.20008
1698.07142,0.16121
1696.58164,0.12544
1695.09185,0.16172
1693.60206,0.15973
1692.11227,0.22825
1690.62248,0.15432
1689.13269,0.15856
1687.64291,0.12300
1686.15312,0.24376
1684.66333,0.25117
1683.17354,0.15597
1681.68375,0.21554
1680.19396,0.14952
1678.70417,0.21530
1677.21439,0.17079
1675.72460,0.19221
1674.23481,0.16463
1672.74502,0.15088
1671.25523,0.24901
1669.76544,0.21541
1668.27566,0.23240
1666.78587,0.14984
1665.29608,0.18070
1663.80629,0.18554
1662.31650,0.17357
1660.82671,0.22292
1659.33693,0.17578
1657.84714,0.24052
1656.35735,0.18885
1654.86756,0.16173
1653.37777,0.13771
1651.88798,0.14744
1650.39819,0.14801
1648.90841,0.16393
1647.41862,0.17683
1645.92883,0.17597
1644.43904,0.17514
1642.94925,0.17282
1641.45946,0.25940
1639.96968,0.15144
1638.47989,0.11551
1636.99010,0.13785
1635.50031,0.20159
1634.01052,0.17803
1632.52073,0.04726
1631.03094,0.14634
1629.54116,0.12289
1628.05137,0.19294
1626.56158,0.18641
1625.07179,0.19218
1623.58200,0.23628
1622.09221,0.24365
1620.60243,0.16985
1619.11264,0.16810
1617.62285,0.18630
1616.13306,0.19228
1614.64327,0.14160
1613.15348,0.19055
1611.66370,0.16599
1610.17391,0.19662
1608.68412,0.18286
1607.19433,0.14462
1605.70454,0.15085
1604.21475,0.12876
1602.72496,0.10672
1601.23518,0.21417
1599.74539,0.14393
1598.25560,0.17178
1596.76581,0.16290
1595.27602,0.15865
1593.78623,0.16056
1592.29645,0.08590
1590.80666,0.12466
1589.31687,0.10370
1587.82708,0.17623
1586.33729,0.09252
1584.84750,0.16359
1583.35771,0.02786
1581.86793,0.11279
1580.37814,0.09204
1578.88835,0.10810
1577.39856,0.11806
1575.90877,0.07290
1574.41898,0.04003
1572.92920,0.11139
1571.43941,0.03110
1569.94962,0.04201
1568.45983,0.05295
1566.97004,0.13670
1565.48025,0.02897
1563.99047,0.08062
1562.50068,0.05876
1561.01089,0.04307
1559.52110,0.09483
1558.03131,0.11598
1556.54152,0.11418
1555.05173,0.16911
1553.56195,0.10609
1552.07216,0.05077
1550.58237,0.06138
1549.09258,0.00000
1547.60279,0.06929
1546.11300,0.15087
1544.62322,0.15895
1543.13343,0.11803
1541.64364,0.06948
1540.15385,0.08839
1538.66406,0.10733
1537.17427,0.10486
1535.68448,0.13153
1534.19470,0.04945
1532.70491,0.11450
1531.21512,0.11523
1529.72533,0.12060
1528.23554,0.00802
1526.74575,0.05942
1525.25597,0.05723
1523.76618,0.01677
1522.27639,0.07441
1520.78660,0.00337
1519.29681,0.10398
1517.80702,0.03762
1516.31724,0.08620
1514.82745,0.11643
1513.33766,0.13291
1511.84787,0.14943
1510.35808,0.19202
1508.86829,0.14272
1507.37850,0.00000
1505.88872,0.04713
1504.39893,0.16017
1502.90914,0.15681
1501.41935,0.13050
1499.92956,0.13181
1498.43977,0.18065
1496.94999,0.25557
1495.46020,0.24932
1493.97041,0.26455
1492.48062,0.36103
1490.99083,0.39012
1489.50104,0.35337
1488.01125,0.38943
1486.52147,0.42553
1485.03168,0.50227
1483.54189,0.56831
1482.05210,0.68036
1480.56231,0.80010
1479.07252,0.93673
1477.58274,1.04735
1476.09295,1.05841
1474.60316,1.13693
1473.11337,1.18331
1471.62358,1.23738
1470.13379,1.19802
1468.64401,1.06218
1467.15422,1.01676
1465.66443,1.08783
1464.17464,1.15893
1462.68485,0.97879
1461.19506,0.95804
1459.70527,0.98941
1458.21549,0.85688
1456.72570,0.77034
1455.23591,0.71296
1453.74612,0.73528
1452.25633,0.70860
1450.76654,0.66052
1449.27676,0.60174
1447.78697,0.55832
1446.29718,0.58082
1444.80739,0.52138
1443.31760,0.46198
1441.82781,0.39112
1440.33802,0.32643
1438.84824,0.31693
1437.35845,0.20481
1435.86866,0.24288
1434.37887,0.26566
1432.88908,0.36508
1431.39929,0.31745
1429.90951,0.38631
1428.41972,0.41536
1426.92993,0.36631
1425.44014,0.33721
1423.95035,0.34032
1422.46056,0.34346
1420.97078,0.41100
1419.48099,0.44333
1417.99120,0.40368
1416.50141,0.43914
1415.01162,0.39803
1413.52183,0.45655
1412.03204,0.41858
1410.54226,0.42813
1409.05247,0.40708
1407.56268,0.40446
1406.07289,0.41565
1404.58310,0.44374
1403.09331,0.47186
1401.60353,0.48929
1400.11374,0.44241
1398.62395,0.55950
1397.13416,0.47439
1395.64437,0.57929
1394.15458,0.59231
1392.66479,0.66204
1391.17501,0.65827
1389.68522,0.68825
1388.19543,0.64777
1386.70564,0.64871
1385.21585,0.64967
1383.72606,0.55262
1382.23628,0.54293
1380.74649,0.58844
1379.25670,0.63245
1377.76691,0.65964
1376.27712,0.67461
1374.78733,0.74324
1373.29755,0.87626
1371.80776,0.95875
1370.31797,1.07345
1368.82818,1.10009
1367.33839,1.12676
1365.84860,1.38712
1364.35881,1.55866
1362.86903,1.63676
1361.37924,1.88191
1359.88945,1.89267
1358.39966,2.00000
1356.90987,1.94035
1355.42008,1.83937
1353.93030,1.85181
1352.44051,1.84513
1350.95072,1.83849
1349.46093,1.74378
1347.97114,1.70733
1346.48135,1.30166
1344.99156,1.21625
1343.50178,0.94242
1342.01199,0.92143
1340.52220,0.80702
1339.03241,0.82594
1337.54262,0.90005
1336.05283,0.84550
1334.56305,0.79098
1333.07326,0.67981
1331.58347,0.70810
1330.09368,0.65522
1328.60389,0.64221
1327.11410,0.54956
1325.62432,0.49219
1324.13453,0.59267
1322.64474,0.47715
1321.15495,0.42908
1319.66516,0.39177
1318.17537,0.35449
1316.68558,0.47966
1315.19580,0.38730
1313.70601,0.39916
1312.21622,0.34211
1310.72643,0.35098
1309.23664,0.33537
1307.74685,0.37035
1306.25707,0.40077
1304.76728,0.33777
1303.27749,0.27480
1301.78770,0.25631
1300.29791,0.27615
1298.80812,0.28070
1297.31834,0.34658
1295.82855,0.36652
1294.33876,0.42481
1292.84897,0.38047
1291.35918,0.33158
1289.86939,0.34554
1288.37960,0.35953
1286.88982,0.38276
1285.40003,0.41368
1283.91024,0.41092
1282.42045,0.47409
1280.93066,0.49133
1279.44087,0.43658
1277.95109,0.53356
1276.46130,0.51414
1274.97151,0.46333
1273.48172,0.41256
1271.99193,0.58016
1270.50214,0.46435
1269.01235,0.44816
1267.52257,0.52700
1266.03278,0.55685
1264.54299,0.59593
1263.05320,0.52319
1261.56341,0.53323
1260.07362,0.54330
1258.58384,0.58405
1257.09405,0.57121
1255.60426,0.61663
1254.11447,0.71111
1252.62468,0.73208
1251.13489,0.65963
1249.64511,0.57802
1248.15532,0.44895
1246.66553,0.44325
1245.17574,0.43758
1243.68595,0.31781
1242.19616,0.35435
1240.70637,0.33271
1239.21659,0.36473
1237.72680,0.24510
1236.23701,0.36299
1234.74722,0.24189
1233.25743,0.25873
1231.76764,0.27560
1230.27786,0.30630
1228.78807,0.31252
1227.29828,0.21152
1225.80849,0.25458
1224.31870,0.13680
1222.82891,0.22897
1221.33912,0.11279
1219.84934,0.17055
1218.35955,0.22834
1216.86976,0.22565
1215.37997,0.23831
1213.89018,0.24029
1212.40039,0.24537
1210.91061,0.18919
1209.42082,0.17289
1207.93103,0.16888
1206.44124,0.16490
1204.95145,0.12879
1203.46166,0.03295
1201.97188,0.11795
1200.48209,0.15089
1198.99230,0.11491
1197.50251,0.02228
1196.01272,0.07372
1194.52293,0.08994
1193.03314,0.10620
1191.54336,0.08266
1190.05357,0.11891
1188.56378,0.08778
1187.07399,0.00000
1185.58420,0.06283
1184.09441,0.03836
1182.60463,0.06909
1181.11484,0.09985
1179.62505,0.05403
1178.13526,0.03737
1176.64547,0.03606
1175.15568,0.05470
1173.66589,0.19289
1172.17611,0.15338
1170.68632,0.13613
1169.19653,0.11891
1167.70674,0.11781
1166.21695,0.10756
1164.72716,0.10653
1163.23738,0.02281
1161.74759,0.01879
1160.25780,0.09601
1158.76801,0.05146
1157.27822,0.00694
1155.78843,0.00000
1154.29865,0.11722
1152.80886,0.09964
1151.31907,0.09435
1149.82928,0.09216
1148.33949,0.16662
1146.84970,0.16374
1145.35991,0.16089
1143.87013,0.13587
1142.38034,0.15071
1140.89055,0.14414
1139.40076,0.18357
1137.91097,0.23683
1136.42118,0.20891
1134.93140,0.25687
1133.44161,0.30487
1131.95182,0.30771
1130.46203,0.33050
1128.97224,0.37477
1127.48245,0.46811
1125.99266,0.49713
1124.50288,0.50321
1123.01309,0.45799
1121.52330,0.41281
1120.03351,0.47416
1118.54372,0.61520
1117.05393,0.55557
1115.56415,0.49751
1114.07436,0.60496
1112.58457,0.59293
1111.09478,0.58094
1109.60499,0.64100
1108.11520,0.55400
1106.62542,0.64171
1105.13563,0.72792
1103.64584,0.91069
1102.15605,0.85601
1100.66626,0.90172
1099.17647,0.94747
1097.68668,0.90363
1096.19690,1.00077
1094.70711,1.05352
1093.21732,1.01285
1091.72753,1.13461
1090.23774,1.11086
1088.74795,1.08714
1087.25817,1.10177
1085.76838,1.22827
1084.27859,1.19241
1082.78880,1.33124
1081.29901,1.51454
1079.80922,1.33016
1078.31943,1.33580
1076.82965,1.34148
1075.33986,1.47436
1073.85007,1.54906
1072.36028,1.44299
1070.87049,1.59743
1069.38070,1.53434
1067.89092,1.64365
1066.40113,1.75300
1064.91134,1.60268
1063.42155,1.39724
1061.93176,1.42166
1060.44197,1.20709
1058.95219,1.28214
1057.46240,1.14349
1055.97261,1.00487
1054.48282,0.85787
1052.99303,1.00201
1051.50324,0.93781
1050.01345,0.89662
1048.52367,0.83250
1047.03388,0.75002
1045.54409,0.66757
1044.05430,0.70008
1042.56451,0.55335
1041.07472,0.44803
1039.58494,0.44387
1038.09515,0.42749
1036.60536,0.43872
1035.11557,0.44998
1033.62578,0.41379
1032.13599,0.37303
1030.64620,0.38134
1029.15642,0.34218
1027.66663,0.31149
1026.17684,0.28084
1024.68705,0.33831
1023.19726,0.58888
1021.70747,0.68014
1020.21769,0.77296
1018.72790,0.88421
1017.23811,0.92578
1015.74832,0.96738
1014.25853,1.12163
1012.76874,1.26519
1011.27896,1.53137
1009.78917,1.64436
1008.29938,1.62408
1006.80959,1.58623
1005.31980,1.54841
1003.83001,1.50066
1002.34022,1.56020
1000.85044,1.44665
999.36065,1.34385
997.87086,1.29778
996.38107,1.25174
994.89128,1.06479
993.40149,1.21034
991.91171,1.14449
990.42192,1.23190
988.93213,1.11709
987.44234,1.18388
985.95255,1.25071
984.46276,1.16665
982.97297,1.04433
981.48319,0.95575
979.99340,0.97752
978.50361,0.98093
977.01382,0.98439
975.52403,0.97715
974.03424,0.84278
972.54446,0.82949
971.05467,0.71970
969.56488,0.70801
968.07509,0.68793
966.58530,0.66789
965.09551,0.66396
963.60573,0.63709
962.11594,0.60566
960.62615,0.61257
959.13636,0.57202
957.64657,0.53150
956.15678,0.50634
954.66699,0.49347
953.17721,0.49442
951.68742,0.54598
950.19763,0.53015
948.70784,0.51436
947.21805,0.44191
945.72826,0.46603
944.23848,0.53768
942.74869,0.59404
941.25890,0.57230
939.76911,0.58966
938.27932,0.60706
936.78953,0.84742
935.29974,0.70938
933.80996,0.68168
932.32017,0.71837
930.83038,0.74591
929.34059,0.77348
927.85080,0.62642
926.36101,0.68776
924.87123,0.68173
923.38144,0.70944
921.89165,0.75711
920.40186,0.80481
918.91207,0.72231
917.42228,0.83290
915.93250,0.97111
914.44271,0.93161
912.95292,0.84543
911.46313,0.75928
909.97334,0.88996
908.48355,0.91803
906.99376,0.92468
905.50398,0.78581
904.01419,0.73891
902.52440,0.69204
901.03461,0.79842
899.54482,0.87573
898.05503,0.99750
896.56525,0.97682
895.07546,0.94545
893.58567,0.91412
892.09588,0.80315
890.60609,0.98179
889.11630,0.99346
887.62651,0.87340
886.13673,0.85910
884.64694,0.84483
883.15715,0.89035
881.66736,0.87615
880.17757,0.96158
878.68778,0.97733
877.19800,0.99312
875.70821,0.96221
874.21842,1.08149
872.72863,1.02154
871.23884,1.21749
869.74905,1.18596
868.25927,1.15446
866.76948,1.12376
865.27969,1.22334
863.78990,1.32141
862.30011,1.13607
860.81032,1.16221
859.32053,1.18838
857.83075,1.09661
856.34096,0.99568
854.85117,1.06485
853.36138,0.95174
851.87159,0.89841
850.38180,0.84512
848.89202,0.75050
847.40223,0.55173
845.91244,0.54604
844.42265,0.53196
842.93286,0.51792
841.44307,0.46178
839.95329,0.41027
838.46350,0.32049
836.97371,0.27211
835.48392,0.31034
833.99413,0.34861
832.50434,0.32639
831.01455,0.39460
829.52477,0.43373
828.03498,0.34267
826.54519,0.30833
825.05540,0.27403
823.56561,0.28113
822.07582,0.29746
820.58604,0.15448
819.09625,0.20153
817.60646,0.24861
816.11667,0.09961
814.62688,0.10539
813.13709,0.01928
811.64730,0.11553
810.15752,0.13367
808.66773,0.15185
807.17794,0.00000
805.68815,0.10015
804.19836,0.02260
802.70857,0.12052
801.21879,0.21847
799.72900,0.19312
798.23921,0.25361
796.74942,0.36776
795.25963,0.36090
793.76984,0.35408
792.28006,0.36108
790.79027,0.59488
789.30048,0.59276
787.81069,0.74083
786.32090,0.72116
784.83111,0.70153
783.34132,0.69496
781.85154,0.60262
780.36175,0.57160
778.87196,0.55287
777.38217,0.53419
775.89238,0.70245
774.40259,0.67005
772.91281,0.77710
771.42302,0.72868
769.93323,0.68029
768.44344,0.82728
766.95365,0.79199
765.46386,0.79044
763.97407,0.82569
762.48429,0.75603
760.99450,0.68640
759.50471,0.55476
758.01492,0.54266
756.52513,0.49382
755.03534,0.43583
753.54556,0.37787
752.05577,0.21576
750.56598,0.22069
749.07619,0.17816
747.58640,0.16017
746.09661,0.14223
744.60683,0.08755
743.11704,0.16160
741.62725,0.15602
740.13746,0.14664
738.64767,0.13730
737.15788,0.02457
735.66809,0.03292
734.17831,0.15009
732.68852,0.12327
731.19873,0.09649
729.70894,0.10651
728.21915,0.12576
726.72936,0.03167
725.23958,0.10462
723.74979,0.14159
722.26000,0.17861
720.77021,0.23481
719.28042,0.08573
717.79063,0.13587
716.30084,0.13396
714.81106,0.13208
713.32127,0.00000
711.83148,0.07736
710.34169,0.17928
708.85190,0.15023
707.36211,0.12121
705.87233,0.22477
704.38254,0.09700
702.89275,0.16998
701.40296,0.22844
699.91317,0.28693
698.42338,0.22825
696.93360,0.21251
695.44381,0.30712
693.95402,0.30447
692.46423,0.30185
690.97444,0.19585
689.48465,0.30286
687.99486,0.23830
686.50508,0.25191
685.01529,0.26556
683.52550,0.38191
682.03571,0.34353
680.54592,0.25004
679.05613,0.25464
677.56635,0.25927
676.07656,0.32983
674.58677,0.30695
673.09698,0.25960
671.60719,0.31800
670.11740,0.37644
668.62761,0.24646
667.13783,0.19312
665.64804,0.17812
664.15825,0.16315
662.66846,0.13903
661.17867,0.11188
659.68888,0.20121
658.19910,0.17566
656.70931,0.15015
655.21952,0.17830
653.72973,0.09157
652.23994,0.17494
650.75015,0.12582
649.26037,0.07674
647.77058,0.10660
646.28079,0.07367
644.79100,0.13578
643.30121,0.14199
641.81142,0.14824
640.32163,0.10780
638.83185,0.07352
637.34206,0.03468
635.85227,0.01732
634.36248,0.00000
632.87269,0.07104
631.38290,0.09462
629.89312,0.13202
628.40333,0.11124
626.91354,0.09049
625.42375,0.19389
623.93396,0.16249
622.44417,0.13802
620.95438,0.11358
619.46460,0.17881
617.97481,0.14755
616.48502,0.10560
614.99523,0.09969
613.50544,0.09382
612.01565,0.15157
610.52587,0.04081
609.03608,0.14766
607.54629,0.16185
606.05650,0.17607
604.56671,0.18956
603.07692,0.18011
601.58714,0.21129
600.09735,0.24251
598.60756,0.14889
597.11777,0.06450
595.62798,0.03837
594.13819,0.01917
592.64840,0.00000
591.15862,0.17268
589.66883,0.13395
588.17904,0.19179
586.68925,0.16080
585.19946,0.12984
583.70967,0.11884
582.21989,0.21359
580.73010,0.19730
579.24031,0.18104
577.75052,0.12881
576.26073,0.11492
574.77094,0.18839
573.28115,0.17534
571.79137,0.16232
570.30158,0.29719
568.81179,0.25437
567.32200,0.27900
565.83221,0.30366
564.34242,0.26400
562.85264,0.26575
561.36285,0.35947
559.87306,0.39117
558.38327,0.42290
556.89348,0.44624
555.40369,0.55695
553.91391,0.51448
552.42412,0.47205
550.93433,0.52004
549.44454,0.66460
547.95475,0.51962
546.46496,0.49571
544.97517,0.47184
543.48539,0.62267
541.99560,0.76128
540.50581,0.75360
539.01602,0.74596
537.52623,0.55985
536.03644,0.60361
534.54666,0.53249
533.05687,0.55333
531.56708,0.57421
530.07729,0.59666
528.58750,0.63906
527.09771,0.59033
525.60792,0.54164
524.11814,0.59028
522.62835,0.46888
521.13856,0.46549
519.64877,0.47746
518.15898,0.48947
516.66919,0.47699
515.17941,0.41706
513.68962,0.44296
512.19983,0.46889
510.71004,0.37076
509.22025,0.30637
507.73046,0.47031
506.24068,0.49026
504.75089,0.51024
503.26110,0.45518
501.77131,0.45686
500.28152,0.50682
498.79173,0.55683
497.30194,0.45288
495.81216,0.56041
494.32237,0.63351
492.83258,0.70663
491.34279,0.49711
489.85300,0.45004
488.36321,0.29881
486.87343,0.36135
485.38364,0.42393
483.89385,0.34942
482.40406,0.24430
480.91427,0.21046
479.42448,0.17665
477.93469,0.18196
476.44491,0.09230
474.95512,0.07545
473.46533,0.05864
471.97554,0.07481
470.48575,0.02820
468.99596,0.00000
467.50618,0.01500
466.01639,0.03003
464.52660,0.06195
463.03681,0.11995
461.54702,0.10598
460.05723,0.09204
458.56745,0.00000
457.07766,0.06816
455.58787,0.03676
454.09808,0.00539
452.60829,0.09204
451.11850,0.10825
449.62871,0.15666
448.13893,0.20511
446.64914,0.25054
445.15935,0.25616
443.66956,0.53147
442.17977,0.55862
440.68998,0.58579
439.20020,0.42302
437.71041,0.55292
436.22062,0.63919
434.73083,0.72550
433.24104,0.80801
431.75125,0.85992
430.26146,0.87509
428.77168,0.89029
427.28189,1.03117
425.79210,1.08168
424.30231,1.03571
422.81252,0.98976
421.32273,0.99442
419.83295,0.85049
418.34316,0.79853
416.85337,0.74660
415.36358,0.68551
413.87379,0.67349
412.38400,0.61631
410.89422,0.55916
409.40443,0.35572
407.91464,0.47408
406.42485,0.34579
404.93506,0.34164
403.44527,0.33753
401.95548,0.29974
400.46570,0.23288
398.97591,0.20436
397.48612,0.17588
395.99633,0.29298
394.50654,0.29062
393.01675,0.31586
391.52697,0.34115
390.03718,0.12745
388.54739,0.21102
387.05760,0.26016
385.56781,0.30933
384.07802,0.38075
382.58824,0.24384
381.09845,0.19966
379.60866,0.15551
378.11887,0.23933
376.62908,0.17457
375.13929,0.17419
373.64950,0.17385
372.15972,0.20419
370.66993,0.19473
369.18014,0.15543
367.69035,0.11616
366.20056,0.02407
364.71077,0.08676
363.22099,0.13723
361.73120,0.18773
360.24141,0.17239
358.75162,0.22143
357.26183,0.17016
355.77204,0.11891
354.28225,0.27838
352.79247,0.19886
351.30268,0.19905
349.81289,0.19928
348.32310,0.13979
346.83331,0.00985
345.34352,0.05156
343.85374,0.09329
342.36395,0.21474
340.87416,0.10792
339.38437,0.11223
337.89458,0.11657
336.40479,0.17074
334.91501,0.02270
333.42522,0.03405
331.93543,0.04542
330.44564,0.06450
328.95585,0.14029
327.46606,0.10964
325.97627,0.07903
324.48649,0.02623
322.99670,0.14736
321.50691,0.17123
320.01712,0.19513
318.52733,0.28725
317.03754,0.20167
315.54776,0.13299
314.05797,0.06434
312.56818,0.03096
311.07839,0.04053
309.58860,0.02025
308.09881,0.00000
306.60902,0.05968
305.11924,0.18375
303.62945,0.09948
302.13966,0.01524
300.64987,0.09187
299.16008,0.00000
