1778.52000,0.07413
1777.03021,0.03690
1775.54042,0.02689
1774.05063,0.03844
1772.56085,0.03870
1771.07106,0.05938
1769.58127,0.04274
1768.09148,0.03068
1766.60169,0.00506
1765.11190,0.06328
1763.62212,0.02416
1762.13233,0.05755
1760.64254,0.02078
1759.15275,0.02595
1757.66296,0.04814
1756.17317,0.04999
1754.68339,0.08812
1753.19360,0.05042
1751.70381,0.02070
1750.21402,0.03970
1748.72423,0.05421
1747.23444,0.05065
1745.74465,0.02902
1744.25487,0.07876
1742.76508,0.09571
1741.27529,0.07759
1739.78550,0.06632
1738.29571,0.09471
1736.80592,0.07899
1735.31614,0.05878
1733.82635,0.04314
1732.33656,0.06264
1730.84677,0.06746
1729.35698,0.10516
1727.86719,0.00250
1726.37740,0.01169
1724.88762,0.00506
1723.39783,0.06409
1721.90804,0.00879
1720.41825,0.05771
1718.92846,0.05572
1717.43867,0.03792
1715.94889,0.05073
1714.45910,0.05452
1712.96931,0.05043
1711.47952,0.08488
1709.98973,0.10917
1708.49994,0.11653
1707.01016,0.11261
1705.52037,0.10872
1704.03058,0.12639
1702.54079,0.08183
1701.05100,0.07128
1699.56121,0.14682
1698.07142,0.13522
1696.58164,0.14857
1695.09185,0.18348
1693.60206,0.19012
1692.11227,0.18887
1690.62248,0.20466
1689.13269,0.28275
1687.64291,0.23408
1686.15312,0.23866
1684.66333,0.24555
1683.17354,0.21059
1681.68375,0.25040
1680.19396,0.27326
1678.70417,0.22484
1677.21439,0.26704
1675.72460,0.27418
1674.23481,0.20550
1672.74502,0.20026
1671.25523,0.27433
1669.76544,0.26013
1668.27566,0.26068
1666.78587,0.25222
1665.29608,0.21662
1663.80629,0.22523
1662.31650,0.25312
1660.82671,0.25841
1659.33693,0.25242
1657.84714,0.22270
1656.35735,0.17942
1654.86756,0.16110
1653.37777,0.17906
1651.88798,0.09062
1650.39819,0.16527
1648.90841,0.17656
1647.41862,0.10976
1645.92883,0.16075
1644.43904,0.21179
1642.94925,0.17909
1641.45946,0.13736
1639.96968,0.16022
1638.47989,0.12084
1636.99010,0.12340
1635.50031,0.14639
1634.01052,0.12525
1632.52073,0.18115
1631.03094,0.13632
1629.54116,0.15947
1628.05137,0.16908
1626.56158,0.20703
1625.07179,0.16916
1623.58200,0.25588
1622.09221,0.25093
1620.60243,0.18941
1619.11264,0.18228
1617.62285,0.11744
1616.13306,0.11039
1614.64327,0.09433
1613.15348,0.14738
1611.66370,0.16536
1610.17391,0.22755
1608.68412,0.16410
1607.19433,0.16749
1605.70454,0.14035
1604.21475,0.13760
1602.72496,0.13489
1601.23518,0.15656
1599.74539,0.14544
1598.25560,0.18079
1596.76581,0.14597
1595.27602,0.10894
1593.78623,0.12969
1592.29645,0.06782
1590.80666,0.05695
1589.31687,0.10614
1587.82708,0.06251
1586.33729,0.04611
1584.84750,0.11353
1583.35771,0.05645
1581.86793,0.00506
1580.37814,0.07592
1578.88835,0.08001
1577.39856,0.03207
1575.90877,0.01360
1574.41898,0.05858
1572.92920,0.02321
1571.43941,0.02411
1569.94962,0.03865
1568.45983,0.05322
1566.97004,0.04633
1565.48025,0.02023
1563.99047,0.02700
1562.50068,0.07118
1561.01089,0.04520
1559.52110,0.06569
1558.03131,0.05678
1556.54152,0.06603
1555.05173,0.08777
1553.56195,0.07899
1552.07216,0.07251
1550.58237,0.06833
1549.09258,0.01212
1547.60279,0.09181
1546.11300,0.10362
1544.62322,0.01582
1543.13343,0.00506
1541.64364,0.05085
1540.15385,0.06837
1538.66406,0.08593
1537.17427,0.03107
1535.68448,0.03626
1534.19470,0.04603
1532.70491,0.07394
1531.21512,0.03284
1529.72533,0.08122
1528.23554,0.04699
1526.74575,0.02979
1525.25597,0.03414
1523.76618,0.02720
1522.27639,0.00333
1520.78660,0.04992
1519.29681,0.04447
1517.80702,0.07982
1516.31724,0.00651
1514.82745,0.06179
1513.33766,0.05144
1511.84787,0.04113
1510.35808,0.01048
1508.86829,0.07725
1507.37850,0.02518
1505.88872,0.05693
1504.39893,0.08079
1502.90914,0.00506
1501.41935,0.05237
1499.92956,0.01028
1498.43977,0.09843
1496.94999,0.10963
1495.46020,0.20806
1493.97041,0.26917
1492.48062,0.30088
1490.99083,0.39830
1489.50104,0.40518
1488.01125,0.47608
1486.52147,0.54702
1485.03168,0.65706
1483.54189,0.69241
1482.05210,0.89765
1480.56231,0.95913
1479.07252,1.13161
1477.58274,1.22601
1476.09295,1.29781
1474.60316,1.39682
1473.11337,1.43926
1471.62358,1.51005
1470.13379,1.50841
1468.64401,1.37434
1467.15422,1.32524
1465.66443,1.28636
1464.17464,1.24753
1462.68485,1.20421
1461.19506,1.18357
1459.70527,1.10523
1458.21549,1.02580
1456.72570,0.92037
1455.23591,0.83650
1453.74612,0.79229
1452.25633,0.78776
1450.76654,0.72213
1449.27676,0.65540
1447.78697,0.59438
1446.29718,0.56624
1444.80739,0.53983
1443.31760,0.51347
1441.82781,0.45035
1440.33802,0.36123
1438.84824,0.32537
1437.35845,0.24086
1435.86866,0.24697
1434.37887,0.33126
1432.88908,0.28197
1431.39929,0.28255
1429.90951,0.21637
1428.41972,0.26345
1426.92993,0.32077
1425.44014,0.31019
1423.95035,0.32117
1422.46056,0.33219
1420.97078,0.38401
1419.48099,0.36228
1417.99120,0.32020
1416.50141,0.30874
1415.01162,0.33809
1413.52183,0.40257
1412.03204,0.31537
1410.54226,0.33352
1409.05247,0.27584
1407.56268,0.29407
1406.07289,0.32366
1404.58310,0.32442
1403.09331,0.32523
1401.60353,0.31984
1400.11374,0.31337
1398.62395,0.40658
1397.13416,0.42057
1395.64437,0.41082
1394.15458,0.40678
1392.66479,0.55111
1391.17501,0.45656
1389.68522,0.49567
1388.19543,0.45670
1386.70564,0.45852
1385.21585,0.46039
1383.72606,0.47023
1382.23628,0.42915
1380.74649,0.44926
1379.25670,0.43431
1377.76691,0.40129
1376.27712,0.47814
1374.78733,0.51540
1373.29755,0.55270
1371.80776,0.67043
1370.31797,0.68630
1368.82818,0.75543
1367.33839,0.82460
1365.84860,1.05913
1364.35881,1.18386
1362.86903,1.27920
1361.37924,1.31457
1359.88945,1.41905
1358.39966,1.53150
1356.90987,1.45264
1355.42008,1.43835
1353.93030,1.45468
1352.44051,1.43652
1350.95072,1.41840
1349.46093,1.35672
1347.97114,1.23622
1346.48135,1.03762
1344.99156,0.97494
1343.50178,0.88400
1342.01199,0.77498
1340.52220,0.67619
1339.03241,0.66576
1337.54262,0.66896
1336.05283,0.62748
1334.56305,0.58603
1333.07326,0.59615
1331.58347,0.56781
1330.09368,0.55990
1328.60389,0.51240
1327.11410,0.48192
1325.62432,0.38468
1324.13453,0.44147
1322.64474,0.37036
1321.15495,0.39666
1319.66516,0.41904
1318.17537,0.44146
1316.68558,0.31956
1315.19580,0.37434
1313.70601,0.28989
1312.21622,0.33909
1310.72643,0.34304
1309.23664,0.27343
1307.74685,0.27067
1306.25707,0.30191
1304.76728,0.29980
1303.27749,0.29773
1301.78770,0.24192
1300.29791,0.29032
1298.80812,0.31385
1297.31834,0.24684
1295.82855,0.37009
1294.33876,0.35751
1292.84897,0.33818
1291.35918,0.34720
1289.86939,0.34834
1288.37960,0.34951
1286.88982,0.33035
1285.40003,0.42672
1283.91024,0.43142
1282.42045,0.46107
1280.93066,0.36621
1279.44087,0.45029
1277.95109,0.43364
1276.46130,0.43288
1274.97151,0.45142
1273.48172,0.46999
1271.99193,0.47276
1270.50214,0.46538
1269.01235,0.53729
1267.52257,0.55604
1266.03278,0.60199
1264.54299,0.58119
1263.05320,0.60572
1261.56341,0.62010
1260.07362,0.63452
1258.58384,0.60822
1257.09405,0.70425
1255.60426,0.70181
1254.11447,0.75037
1252.62468,0.70725
1251.13489,0.77627
1249.64511,0.65058
1248.15532,0.57702
1246.66553,0.53464
1245.17574,0.49229
1243.68595,0.42452
1242.19616,0.36471
1240.70637,0.38307
1239.21659,0.34372
1237.72680,0.31687
1236.23701,0.30932
1234.74722,0.25311
1233.25743,0.25979
1231.76764,0.26651
1230.27786,0.28289
1228.78807,0.26309
1227.29828,0.23087
1225.80849,0.20775
1224.31870,0.22091
1222.82891,0.15598
1221.33912,0.17827
1219.84934,0.18136
1218.35955,0.18450
1216.86976,0.17408
1215.37997,0.27920
1213.89018,0.19414
1212.40039,0.19291
1210.91061,0.15549
1209.42082,0.15434
1207.93103,0.16342
1206.44124,0.17255
1204.95145,0.09113
1203.46166,0.02108
1201.97188,0.12884
1200.48209,0.07359
1198.99230,0.10104
1197.50251,0.06173
1196.01272,0.03831
1194.52293,0.04041
1193.03314,0.04255
1191.54336,0.05209
1190.05357,0.00506
1188.56378,0.01858
1187.07399,0.01968
1185.58420,0.02535
1184.09441,0.03559
1182.60463,0.04134
1181.11484,0.04714
1179.62505,0.04391
1178.13526,0.01583
1176.64547,0.00929
1175.15568,0.03502
1173.66589,0.08004
1172.17611,0.06396
1170.68632,0.03490
1169.19653,0.00588
1167.70674,0.05267
1166.21695,0.08706
1164.72716,0.10336
1163.23738,0.05631
1161.74759,0.06250
1160.25780,0.07441
1158.76801,0.06371
1157.27822,0.05305
1155.78843,0.00506
1154.29865,0.08390
1152.80886,0.05069
1151.31907,0.06960
1149.82928,0.15310
1148.33949,0.09057
1146.84970,0.11187
1145.35991,0.13322
1143.87013,0.10931
1142.38034,0.09904
1140.89055,0.14994
1139.40076,0.16466
1137.91097,0.20772
1136.42118,0.26555
1134.93140,0.28492
1133.44161,0.30433
1131.95182,0.33285
1130.46203,0.52331
1128.97224,0.45227
1127.48245,0.45826
1125.99266,0.47562
1124.50288,0.49415
1123.01309,0.50366
1121.52330,0.51321
1120.03351,0.52394
1118.54372,0.67059
1117.05393,0.71876
1115.56415,0.63564
1114.07436,0.63521
1112.58457,0.64671
1111.09478,0.65826
1109.60499,0.77118
1108.11520,0.63505
1106.62542,0.73786
1105.13563,0.83166
1103.64584,0.93456
1102.15605,1.08506
1100.66626,1.07652
1099.17647,1.06801
1097.68668,1.02502
1096.19690,1.05339
1094.70711,1.09653
1093.21732,1.14538
1091.72753,1.22257
1090.23774,1.20639
1088.74795,1.19025
1087.25817,1.31399
1085.76838,1.32907
1084.27859,1.31362
1082.78880,1.41258
1081.29901,1.55573
1079.80922,1.53248
1078.31943,1.50814
1076.82965,1.48385
1075.33986,1.64755
1073.85007,1.61201
1072.36028,1.57651
1070.87049,1.53880
1069.38070,1.69247
1067.89092,1.72334
1066.40113,1.75425
1064.91134,1.74047
1063.42155,1.58747
1061.93176,1.53076
1060.44197,1.35859
1058.95219,1.22723
1057.46240,1.18026
1055.97261,1.13333
1054.48282,1.12551
1052.99303,1.10188
1051.50324,0.95147
1050.01345,0.90868
1048.52367,0.86026
1047.03388,0.79207
1045.54409,0.72392
1044.05430,0.73564
1042.56451,0.52095
1041.07472,0.55426
1039.58494,0.45401
1038.09515,0.42853
1036.60536,0.44612
1035.11557,0.46375
1033.62578,0.37385
1032.13599,0.24324
1030.64620,0.35044
1029.15642,0.31162
1027.66663,0.30625
1026.17684,0.30091
1024.68705,0.37998
1023.19726,0.46474
1021.70747,0.53257
1020.21769,0.70687
1018.72790,0.68532
1017.23811,0.77422
1015.74832,0.86316
1014.25853,1.08631
1012.76874,1.18608
1011.27896,1.37309
1009.78917,1.41407
1008.29938,1.44943
1006.80959,1.40501
1005.31980,1.36063
1003.83001,1.37347
1002.34022,1.34673
1000.85044,1.29738
999.36065,1.26505
997.87086,1.21352
996.38107,1.16203
994.89128,1.18871
993.40149,1.28337
991.91171,1.34410
990.42192,1.30523
988.93213,1.38982
987.44234,1.37991
985.95255,1.37004
984.46276,1.27698
982.97297,1.29041
981.48319,1.33105
979.99340,1.28002
978.50361,1.26696
977.01382,1.25394
975.52403,1.29022
974.03424,1.13971
972.54446,1.02888
971.05467,1.14567
969.56488,0.98170
968.07509,1.01083
966.58530,1.04000
965.09551,0.86823
963.60573,0.90144
962.11594,0.91885
960.62615,0.80268
959.13636,0.76016
957.64657,0.71768
956.15678,0.78393
954.66699,0.66115
953.17721,0.72069
951.68742,0.63309
950.19763,0.66158
948.70784,0.69011
947.21805,0.63320
945.72826,0.56275
944.23848,0.67576
942.74869,0.75485
941.25890,0.80907
939.76911,0.82653
938.27932,0.84403
936.78953,0.90064
935.29974,0.84180
933.80996,0.79658
932.32017,0.86917
930.83038,0.86480
929.34059,0.86047
927.85080,0.91167
926.36101,0.89497
924.87123,0.96776
923.38144,0.87755
921.89165,0.93061
920.40186,0.98371
918.91207,1.04535
917.42228,0.99380
915.93250,1.04420
914.44271,1.05727
912.95292,1.03925
911.46313,1.02127
909.97334,1.01522
908.48355,1.10998
906.99376,1.04966
905.50398,1.13206
904.01419,1.06729
902.52440,1.00257
901.03461,1.09302
899.54482,1.18237
898.05503,1.18684
896.56525,1.22532
895.07546,1.20157
893.58567,1.17786
892.09588,1.06701
890.60609,1.19398
889.11630,1.10925
887.62651,1.12874
886.13673,1.07919
884.64694,1.02969
883.15715,1.13535
881.66736,1.08367
880.17757,1.15771
878.68778,1.17008
877.19800,1.18250
875.70821,1.18533
874.21842,1.24595
872.72863,1.30661
871.23884,1.32769
869.74905,1.34427
868.25927,1.36090
866.76948,1.36625
865.27969,1.46675
863.78990,1.46538
862.30011,1.47312
860.81032,1.46108
859.32053,1.44909
857.83075,1.37542
856.34096,1.20782
854.85117,1.22936
853.36138,1.07882
851.87159,1.02797
850.38180,0.97716
848.89202,0.83468
847.40223,0.63903
845.91244,0.64609
844.42265,0.58582
842.93286,0.52560
841.44307,0.54524
839.95329,0.45849
838.46350,0.43292
836.97371,0.43004
835.48392,0.43626
833.99413,0.44252
832.50434,0.46355
831.01455,0.49820
829.52477,0.47968
828.03498,0.43742
826.54519,0.40086
825.05540,0.36435
823.56561,0.26560
822.07582,0.30163
820.58604,0.29355
819.09625,0.24645
817.60646,0.19938
816.11667,0.15746
814.62688,0.13142
813.13709,0.03750
811.64730,0.03646
810.15752,0.02074
808.66773,0.00506
807.17794,0.03332
805.68815,0.05595
804.19836,0.10354
802.70857,0.08890
801.21879,0.07429
799.72900,0.10389
798.23921,0.26260
796.74942,0.38966
795.25963,0.39956
793.76984,0.40951
792.28006,0.50725
790.79027,0.62541
789.30048,0.75721
787.81069,0.76336
786.32090,0.73388
784.83111,0.70445
783.34132,0.77640
781.85154,0.76120
780.36175,0.77435
778.87196,0.75075
777.38217,0.72719
775.89238,0.92389
774.40259,0.88173
772.91281,0.93019
771.42302,0.91529
769.93323,0.90042
768.44344,0.90825
766.95365,0.95235
765.46386,0.92629
763.97407,0.91272
762.48429,0.82843
760.99450,0.74419
759.50471,0.69112
758.01492,0.55883
756.52513,0.49792
755.03534,0.43365
753.54556,0.36943
752.05577,0.16824
750.56598,0.18449
749.07619,0.10114
747.58640,0.09992
746.09661,0.09875
744.60683,0.05402
743.11704,0.08407
741.62725,0.10509
740.13746,0.09389
738.64767,0.08274
737.15788,0.01444
735.66809,0.00506
734.17831,0.02881
732.68852,0.04864
731.19873,0.06851
729.70894,0.06521
728.21915,0.01440
726.72936,0.04515
725.23958,0.04424
723.74979,0.05130
722.26000,0.05840
720.77021,0.13007
719.28042,0.11801
717.79063,0.01767
716.30084,0.01134
714.81106,0.00506
713.32127,0.06350
711.83148,0.02460
710.34169,0.09331
708.85190,0.06582
707.36211,0.03838
705.87233,0.06419
704.38254,0.05607
702.89275,0.10121
701.40296,0.09544
699.91317,0.08971
698.42338,0.17008
696.93360,0.14745
695.44381,0.26413
693.95402,0.24498
692.46423,0.22588
690.97444,0.26229
689.48465,0.34404
687.99486,0.31261
686.50508,0.36726
685.01529,0.42196
683.52550,0.36800
682.03571,0.35711
680.54592,0.35872
679.05613,0.35641
677.56635,0.35413
676.07656,0.37059
674.58677,0.25460
673.09698,0.27000
671.60719,0.26960
670.11740,0.26923
668.62761,0.23720
667.13783,0.08293
665.64804,0.11666
664.15825,0.15042
662.66846,0.05289
661.17867,0.10939
659.68888,0.11837
658.19910,0.18231
656.70931,0.24629
655.21952,0.21237
653.72973,0.16378
652.23994,0.17410
650.75015,0.16295
649.26037,0.15185
647.77058,0.19060
646.28079,0.08560
644.79100,0.08141
643.30121,0.10104
641.81142,0.12071
640.32163,0.09627
638.83185,0.00506
637.34206,0.02828
635.85227,0.04589
634.36248,0.06353
632.87269,0.03139
631.38290,0.03780
629.89312,0.05670
628.40333,0.04903
626.91354,0.04141
625.42375,0.14082
623.93396,0.09875
622.44417,0.04935
620.95438,0.00000
619.46460,0.11090
617.97481,0.06107
616.48502,0.12790
614.99523,0.13193
613.50544,0.13600
612.01565,0.08407
610.52587,0.05256
609.03608,0.06525
607.54629,0.11534
606.05650,0.16548
604.56671,0.17943
603.07692,0.19908
601.58714,0.19499
600.09735,0.19094
598.60756,0.13485
597.11777,0.06975
595.62798,0.04092
594.13819,0.07610
592.64840,0.11133
591.15862,0.07696
589.66883,0.13322
588.17904,0.11818
586.68925,0.13829
585.19946,0.15844
583.70967,0.20014
582.21989,0.19433
580.73010,0.23329
579.24031,0.27228
577.75052,0.12959
576.26073,0.11603
574.77094,0.14213
573.28115,0.19035
571.79137,0.23861
570.30158,0.34523
568.81179,0.44170
567.32200,0.41196
565.83221,0.38226
564.34242,0.43017
562.85264,0.52227
561.36285,0.60310
559.87306,0.60583
558.38327,0.60862
556.89348,0.58426
555.40369,0.74225
553.91391,0.74289
552.42412,0.74357
550.93433,0.76015
549.44454,0.84244
547.95475,0.77758
546.46496,0.78748
544.97517,0.79743
543.48539,0.91612
541.99560,0.99862
540.50581,0.98775
539.01602,0.97691
537.52623,0.86592
536.03644,0.79459
534.54666,0.87730
533.05687,0.87456
531.56708,0.87186
530.07729,0.92639
528.58750,0.90282
527.09771,0.90535
525.60792,0.90791
524.11814,0.84824
522.62835,0.71955
521.13856,0.80149
519.64877,0.76573
518.15898,0.73000
516.66919,0.69772
515.17941,0.56470
513.68962,0.55627
512.19983,0.54789
510.71004,0.65957
509.22025,0.63088
507.73046,0.74378
506.24068,0.72707
504.75089,0.71040
503.26110,0.71585
501.77131,0.72814
500.28152,0.76255
498.79173,0.79700
497.30194,0.76073
495.81216,0.79243
494.32237,0.83719
492.83258,0.88200
491.34279,0.85042
489.85300,0.63319
488.36321,0.65718
486.87343,0.63082
485.38364,0.60450
483.89385,0.55048
482.40406,0.37875
480.91427,0.31350
479.42448,0.24828
477.93469,0.22047
476.44491,0.14515
474.95512,0.13215
473.46533,0.11918
471.97554,0.02927
470.48575,0.00506
468.99596,0.09417
467.50618,0.07858
466.01639,0.06304
464.52660,0.04470
463.03681,0.09435
461.54702,0.09138
460.05723,0.08846
458.56745,0.13369
457.07766,0.15746
455.58787,0.19146
454.09808,0.22550
452.60829,0.21996
451.11850,0.28465
449.62871,0.33184
448.13893,0.37907
446.64914,0.51182
445.15935,0.55630
443.66956,0.71858
442.17977,0.74220
440.68998,0.76586
439.20020,0.88977
437.71041,1.02843
436.22062,1.12525
434.73083,1.22210
433.24104,1.51036
431.75125,1.73071
430.26146,1.81411
428.77168,1.89754
427.28189,1.93460
425.79210,2.00000
424.30231,1.98053
422.81252,1.96109
421.32273,1.70619
419.83295,1.56908
418.34316,1.52939
416.85337,1.48974
415.36358,1.40598
413.87379,1.26677
412.38400,1.18026
410.89422,1.09379
409.40443,1.05548
407.91464,1.06930
406.42485,1.03673
404.93506,0.97194
403.44527,0.90719
401.95548,0.87588
400.46570,0.95332
398.97591,0.90285
397.48612,0.85241
395.99633,0.82127
394.50654,0.87736
393.01675,0.89725
391.52697,0.91719
390.03718,0.66316
388.54739,0.64808
387.05760,0.67664
385.56781,0.70523
384.07802,0.73104
382.58824,0.67876
381.09845,0.66898
379.60866,0.65924
378.11887,0.64672
376.62908,0.52327
375.13929,0.52555
373.64950,0.52787
372.15972,0.39323
370.66993,0.33336
369.18014,0.32108
367.69035,0.30885
366.20056,0.22759
364.71077,0.18940
363.22099,0.22994
361.73120,0.27052
360.24141,0.35474
358.75162,0.25331
357.26183,0.22948
355.77204,0.20569
354.28225,0.14401
352.79247,0.22957
351.30268,0.21892
349.81289,0.20832
348.32310,0.27136
346.83331,0.07968
345.34352,0.13028
343.85374,0.18093
342.36395,0.20105
340.87416,0.24045
339.38437,0.23405
337.89458,0.22768
336.40479,0.10190
334.91501,0.12109
333.42522,0.13920
331.93543,0.15734
330.44564,0.12684
328.95585,0.19375
327.46606,0.16390
325.97627,0.13409
324.48649,0.12187
322.99670,0.23956
321.50691,0.22596
320.01712,0.21239
318.52733,0.27473
317.03754,0.23408
315.54776,0.14987
314.05797,0.06570
312.56818,0.10443
311.07839,0.00506
309.58860,0.04280
308.09881,0.08059
306.60902,0.09293
305.11924,0.08155
303.62945,0.07530
302.13966,0.05912
300.64987,0.00506
299.16008,0.00506
