1778.52000,0.05945
1777.03021,0.10635
1775.54042,0.01274
1774.05063,0.00000
1772.56085,0.04118
1771.07106,0.04726
1769.58127,0.06041
1768.09148,0.03145
1766.60169,0.07983
1765.11190,0.02753
1763.62212,0.01861
1762.13233,0.04604
1760.64254,0.04658
1759.15275,0.06824
1757.66296,0.06536
1756.17317,0.06837
1754.68339,0.07026
1753.19360,0.02065
1751.70381,0.03785
1750.21402,0.04807
1748.72423,0.01734
1747.23444,0.02062
1745.74465,0.02863
1744.25487,0.07299
1742.76508,0.08812
1741.27529,0.05409
1739.78550,0.08570
1738.29571,0.08456
1736.80592,0.02139
1735.31614,0.04845
1733.82635,0.02871
1732.33656,0.04648
1730.84677,0.10061
1729.35698,0.04704
1727.86719,0.07666
1726.37740,0.01146
1724.88762,0.01306
1723.39783,0.08147
1721.90804,0.00000
1720.41825,0.08718
1718.92846,0.07719
1717.43867,0.06841
1715.94889,0.07257
1714.45910,0.09902
1712.96931,0.11731
1711.47952,0.11223
1709.98973,0.10250
1708.49994,0.07292
1707.01016,0.09139
1705.52037,0.10991
1704.03058,0.15307
1702.54079,0.11194
1701.05100,0.13176
1699.56121,0.12118
1698.07142,0.13640
1696.58164,0.17159
1695.09185,0.17167
1693.60206,0.14721
1692.11227,0.14036
1690.62248,0.18158
1689.13269,0.22752
1687.64291,0.19270
1686.15312,0.21648
1684.66333,0.17588
1683.17354,0.18570
1681.68375,0.16510
1680.19396,0.19375
1678.70417,0.21072
1677.21439,0.13404
1675.72460,0.19327
1674.23481,0.18109
1672.74502,0.15960
1671.25523,0.22715
1669.76544,0.22683
1668.27566,0.16681
1666.78587,0.16189
1665.29608,0.16989
1663.80629,0.20253
1662.31650,0.20711
1660.82671,0.23399
1659.33693,0.17541
1657.84714,0.16607
1656.35735,0.16965
1654.86756,0.13112
1653.37777,0.12191
1651.88798,0.14319
1650.39819,0.13876
1648.90841,0.16247
1647.41862,0.18623
1645.92883,0.15616
1644.43904,0.12614
1642.94925,0.15120
1641.45946,0.14703
1639.96968,0.11831
1638.47989,0.11189
1636.99010,0.14181
1635.50031,0.15422
1634.01052,0.09991
1632.52073,0.13114
1631.03094,0.12142
1629.54116,0.16329
1628.05137,0.13258
1626.56158,0.16867
1625.07179,0.23760
1623.58200,0.26207
1622.09221,0.17415
1620.60243,0.19988
1619.11264,0.23737
1617.62285,0.18238
1616.13306,0.18950
1614.64327,0.15685
1613.15348,0.10901
1611.66370,0.20528
1610.17391,0.14114
1608.68412,0.12741
1607.19433,0.15822
1605.70454,0.19611
1604.21475,0.16318
1602.72496,0.13030
1601.23518,0.08048
1599.74539,0.13962
1598.25560,0.12854
1596.76581,0.11984
1595.27602,0.11705
1593.78623,0.09438
1592.29645,0.07996
1590.80666,0.07379
1589.31687,0.09928
1587.82708,0.04049
1586.33729,0.14688
1584.84750,0.04953
1583.35771,0.10565
1581.86793,0.07163
1580.37814,0.13252
1578.88835,0.08336
1577.39856,0.00731
1575.90877,0.06600
1574.41898,0.07085
1572.92920,0.04295
1571.43941,0.02915
1569.94962,0.02184
1568.45983,0.01457
1566.97004,0.04307
1565.48025,0.00954
1563.99047,0.01470
1562.50068,0.00000
1561.01089,0.03651
1559.52110,0.05550
1558.03131,0.13309
1556.54152,0.10415
1555.05173,0.15958
1553.56195,0.02414
1552.07216,0.06912
1550.58237,0.03450
1549.09258,0.04091
1547.60279,0.06963
1546.11300,0.08082
1544.62322,0.10025
1543.13343,0.09396
1541.64364,0.05960
1540.15385,0.04813
1538.66406,0.03670
1537.17427,0.01536
1535.68448,0.06902
1534.19470,0.02552
1532.70491,0.06873
1531.21512,0.11667
1529.72533,0.04285
1528.23554,0.05574
1526.74575,0.05462
1525.25597,0.04769
1523.76618,0.01855
1522.27639,0.00000
1520.78660,0.01943
1519.29681,0.04007
1517.80702,0.04436
1516.31724,0.09554
1514.82745,0.06946
1513.33766,0.05749
1511.84787,0.04556
1510.35808,0.04655
1508.86829,0.03120
1507.37850,0.05922
1505.88872,0.07909
1504.39893,0.06621
1502.90914,0.04049
1501.41935,0.04878
1499.92956,0.03369
1498.43977,0.10883
1496.94999,0.14653
1495.46020,0.15383
1493.97041,0.22090
1492.48062,0.33721
1490.99083,0.35869
1489.50104,0.47392
1488.01125,0.53824
1486.52147,0.60261
1485.03168,0.71680
1483.54189,0.80643
1482.05210,0.87034
1480.56231,1.09125
1479.07252,1.14822
1477.58274,1.33524
1476.09295,1.47195
1474.60316,1.56654
1473.11337,1.72676
1471.62358,1.70197
1470.13379,1.61749
1468.64401,1.49558
1467.15422,1.40065
1465.66443,1.38834
1464.17464,1.37607
1462.68485,1.37849
1461.19506,1.37158
1459.70527,1.20075
1458.21549,1.12717
1456.72570,0.98336
1455.23591,0.94500
1453.74612,0.98399
1452.25633,0.84149
1450.76654,0.76110
1449.27676,0.82482
1447.78697,0.70002
1446.29718,0.73103
1444.80739,0.66839
1443.31760,0.60580
1441.82781,0.51748
1440.33802,0.36245
1438.84824,0.39251
1437.35845,0.34063
1435.86866,0.34736
1434.37887,0.37638
1432.88908,0.36563
1431.39929,0.26591
1429.90951,0.23300
1428.41972,0.24463
1426.92993,0.33830
1425.44014,0.42498
1423.95035,0.45197
1422.46056,0.47901
1420.97078,0.48618
1419.48099,0.44420
1417.99120,0.39290
1416.50141,0.35570
1415.01162,0.41458
1413.52183,0.48171
1412.03204,0.38725
1410.54226,0.48023
1409.05247,0.45847
1407.56268,0.49298
1406.07289,0.44906
1404.58310,0.43447
1403.09331,0.41992
1401.60353,0.48623
1400.11374,0.53150
1398.62395,0.44212
1397.13416,0.51676
1395.64437,0.59262
1394.15458,0.63455
1392.66479,0.63086
1391.17501,0.65882
1389.68522,0.59548
1388.19543,0.57318
1386.70564,0.53569
1385.21585,0.49825
1383.72606,0.55221
1382.23628,0.43170
1380.74649,0.46818
1379.25670,0.53632
1377.76691,0.58811
1376.27712,0.61067
1374.78733,0.64264
1373.29755,0.74141
1371.80776,0.89528
1370.31797,0.86413
1368.82818,0.94254
1367.33839,1.02100
1365.84860,1.21720
1364.35881,1.34435
1362.86903,1.46686
1361.37924,1.54725
1359.88945,1.76003
1358.39966,1.75735
1356.90987,1.78985
1355.42008,1.63384
1353.93030,1.68634
1352.44051,1.62118
1350.95072,1.55606
1349.46093,1.67780
1347.97114,1.44001
1346.48135,1.29832
1344.99156,1.13792
1343.50178,1.03262
1342.01199,0.87817
1340.52220,0.84089
1339.03241,0.83059
1337.54262,0.80511
1336.05283,0.76972
1334.56305,0.73437
1333.07326,0.69379
1331.58347,0.65092
1330.09368,0.63503
1328.60389,0.61216
1327.11410,0.55419
1325.62432,0.53024
1324.13453,0.56020
1322.64474,0.51759
1321.15495,0.60855
1319.66516,0.57540
1318.17537,0.54230
1316.68558,0.55843
1315.19580,0.48442
1313.70601,0.51352
1312.21622,0.36699
1310.72643,0.38096
1309.23664,0.47344
1307.74685,0.43245
1306.25707,0.49691
1304.76728,0.49641
1303.27749,0.49596
1301.78770,0.37785
1300.29791,0.43311
1298.80812,0.48608
1297.31834,0.45243
1295.82855,0.50900
1294.33876,0.45787
1292.84897,0.49345
1291.35918,0.45763
1289.86939,0.46519
1288.37960,0.47279
1286.88982,0.51207
1285.40003,0.53381
1283.91024,0.61299
1282.42045,0.57627
1280.93066,0.53373
1279.44087,0.59080
1277.95109,0.55069
1276.46130,0.57739
1274.97151,0.57251
1273.48172,0.56767
1271.99193,0.57577
1270.50214,0.58976
1269.01235,0.65298
1267.52257,0.64481
1266.03278,0.73858
1264.54299,0.85347
1263.05320,0.85715
1261.56341,0.85384
1260.07362,0.85057
1258.58384,0.85086
1257.09405,0.85823
1255.60426,0.86212
1254.11447,0.80048
1252.62468,0.79977
1251.13489,0.84011
1249.64511,0.86058
1248.15532,0.64334
1246.66553,0.64457
1245.17574,0.64585
1243.68595,0.52009
1242.19616,0.57358
1240.70637,0.55098
1239.21659,0.51437
1237.72680,0.47312
1236.23701,0.36867
1234.74722,0.41183
1233.25743,0.41464
1231.76764,0.41748
1230.27786,0.32258
1228.78807,0.41745
1227.29828,0.30624
1225.80849,0.27706
1224.31870,0.27134
1222.82891,0.20946
1221.33912,0.28933
1219.84934,0.28550
1218.35955,0.28172
1216.86976,0.32074
1215.37997,0.29421
1213.89018,0.34970
1212.40039,0.36074
1210.91061,0.22308
1209.42082,0.23420
1207.93103,0.24655
1206.44124,0.25893
1204.95145,0.24442
1203.46166,0.13978
1201.97188,0.23428
1200.48209,0.12855
1198.99230,0.18449
1197.50251,0.05191
1196.01272,0.13137
1194.52293,0.12068
1193.03314,0.11005
1191.54336,0.06431
1190.05357,0.15566
1188.56378,0.03037
1187.07399,0.00000
1185.58420,0.07954
1184.09441,0.03381
1182.60463,0.05722
1181.11484,0.08067
1179.62505,0.13111
1178.13526,0.10663
1176.64547,0.09977
1175.15568,0.12692
1173.66589,0.12483
1172.17611,0.10756
1170.68632,0.08682
1169.19653,0.06612
1167.70674,0.02205
1166.21695,0.11153
1164.72716,0.09331
1163.23738,0.03180
1161.74759,0.03475
1160.25780,0.02369
1158.76801,0.02146
1157.27822,0.01927
1155.78843,0.07276
1154.29865,0.09467
1152.80886,0.06744
1151.31907,0.12340
1149.82928,0.14779
1148.33949,0.16285
1146.84970,0.16625
1145.35991,0.16968
1143.87013,0.06424
1142.38034,0.21300
1140.89055,0.21774
1139.40076,0.25415
1137.91097,0.33511
1136.42118,0.28611
1134.93140,0.34901
1133.44161,0.41194
1131.95182,0.46146
1130.46203,0.48408
1128.97224,0.53485
1127.48245,0.59036
1125.99266,0.57915
1124.50288,0.60663
1123.01309,0.63591
1121.52330,0.66524
1120.03351,0.71277
1118.54372,0.71700
1117.05393,0.71309
1115.56415,0.70921
1114.07436,0.79088
1112.58457,0.77948
1111.09478,0.76813
1109.60499,0.77849
1108.11520,0.82754
1106.62542,0.82510
1105.13563,0.98083
1103.64584,1.14362
1102.15605,1.08510
1100.66626,1.18532
1099.17647,1.28559
1097.68668,1.22485
1096.19690,1.15129
1094.70711,1.21713
1093.21732,1.38141
1091.72753,1.42158
1090.23774,1.47878
1088.74795,1.53602
1087.25817,1.48028
1085.76838,1.58856
1084.27859,1.50246
1082.78880,1.61200
1081.29901,1.57987
1079.80922,1.49742
1078.31943,1.54970
1076.82965,1.60202
1075.33986,1.78323
1073.85007,1.82159
1072.36028,1.84477
1070.87049,1.89961
1069.38070,1.94748
1067.89092,1.97372
1066.40113,2.00000
1064.91134,1.99998
1063.42155,1.73530
1061.93176,1.61825
1060.44197,1.58791
1058.95219,1.51193
1057.46240,1.43307
1055.97261,1.35426
1054.48282,1.44473
1052.99303,1.28226
1051.50324,1.19128
1050.01345,1.05233
1048.52367,0.95675
1047.03388,0.94965
1045.54409,0.94259
1044.05430,0.90922
1042.56451,0.70373
1041.07472,0.69153
1039.58494,0.55289
1038.09515,0.50682
1036.60536,0.52520
1035.11557,0.54363
1033.62578,0.45202
1032.13599,0.39792
1030.64620,0.35675
1029.15642,0.49951
1027.66663,0.49064
1026.17684,0.48182
1024.68705,0.38344
1023.19726,0.56736
1021.70747,0.69160
1020.21769,0.70228
1018.72790,0.77390
1017.23811,0.86665
1015.74832,0.95945
1014.25853,1.17175
1012.76874,1.25526
1011.27896,1.52387
1009.78917,1.58873
1008.29938,1.54238
1006.80959,1.58625
1005.31980,1.63016
1003.83001,1.45510
1002.34022,1.39370
1000.85044,1.34522
999.36065,1.23939
997.87086,1.26010
996.38107,1.28086
994.89128,1.35905
993.40149,1.34593
991.91171,1.34339
990.42192,1.28585
988.93213,1.40756
987.44234,1.39988
985.95255,1.39225
984.46276,1.45201
982.97297,1.36308
981.48319,1.34328
979.99340,1.32002
978.50361,1.32667
977.01382,1.33336
975.52403,1.21068
974.03424,1.05993
972.54446,1.05094
971.05467,1.11462
969.56488,1.02256
968.07509,1.03011
966.58530,1.03770
965.09551,0.92001
963.60573,0.93471
962.11594,0.89910
960.62615,0.89398
959.13636,0.82742
957.64657,0.76090
956.15678,0.78168
954.66699,0.72755
953.17721,0.83743
951.68742,0.76465
950.19763,0.73583
948.70784,0.70706
947.21805,0.72460
945.72826,0.58523
944.23848,0.70709
942.74869,0.75053
941.25890,0.87013
939.76911,0.90136
938.27932,0.93263
936.78953,1.06759
935.29974,1.01989
933.80996,0.90665
932.32017,1.13662
930.83038,1.12068
929.34059,1.10478
927.85080,0.97063
926.36101,0.88572
924.87123,0.94959
923.38144,0.96667
921.89165,0.99433
920.40186,1.02203
918.91207,1.07320
917.42228,1.17712
915.93250,1.11594
914.44271,1.16607
912.95292,1.13954
911.46313,1.11304
909.97334,1.18907
908.48355,1.28389
906.99376,1.19956
905.50398,1.06022
904.01419,1.06205
902.52440,1.06394
901.03461,1.08519
899.54482,1.16504
898.05503,1.25197
896.56525,1.35300
895.07546,1.37209
893.58567,1.39122
892.09588,1.22885
890.60609,1.18834
889.11630,1.15490
887.62651,1.07465
886.13673,1.14261
884.64694,1.21061
883.15715,1.18438
881.66736,1.23080
880.17757,1.20114
878.68778,1.18089
877.19800,1.16069
875.70821,1.29045
874.21842,1.33124
872.72863,1.33810
871.23884,1.41060
869.74905,1.42283
868.25927,1.43510
866.76948,1.38124
865.27969,1.44221
863.78990,1.47745
862.30011,1.38157
860.81032,1.39992
859.32053,1.41831
857.83075,1.44670
856.34096,1.43649
854.85117,1.29163
853.36138,1.09060
851.87159,1.08462
850.38180,1.07869
848.89202,0.75481
847.40223,0.63126
845.91244,0.66703
844.42265,0.63082
842.93286,0.59466
841.44307,0.54273
839.95329,0.52363
838.46350,0.43080
836.97371,0.40125
835.48392,0.40981
833.99413,0.41842
832.50434,0.47099
831.01455,0.52360
829.52477,0.55050
828.03498,0.32914
826.54519,0.36315
825.05540,0.39720
823.56561,0.36454
822.07582,0.38580
820.58604,0.23728
819.09625,0.21119
817.60646,0.18515
816.11667,0.14334
814.62688,0.18707
813.13709,0.11256
811.64730,0.01232
810.15752,0.03218
808.66773,0.05208
807.17794,0.00000
805.68815,0.10817
804.19836,0.12270
802.70857,0.14078
801.21879,0.15890
799.72900,0.28248
798.23921,0.38385
796.74942,0.38337
795.25963,0.41104
793.76984,0.43875
792.28006,0.50282
790.79027,0.59973
789.30048,0.66037
787.81069,0.64141
786.32090,0.70624
784.83111,0.77112
783.34132,0.81437
781.85154,0.80613
780.36175,0.79560
778.87196,0.80033
777.38217,0.80511
775.89238,0.84625
774.40259,0.81832
772.91281,0.85603
771.42302,0.88324
769.93323,0.91049
768.44344,0.89094
766.95365,0.89837
765.46386,0.96441
763.97407,0.79859
762.48429,0.75697
760.99450,0.71538
759.50471,0.68439
758.01492,0.66632
756.52513,0.57568
755.03534,0.45873
753.54556,0.34183
752.05577,0.12483
750.56598,0.20771
749.07619,0.21568
747.58640,0.15985
746.09661,0.10408
744.60683,0.09578
743.11704,0.12734
741.62725,0.06174
740.13746,0.05065
738.64767,0.03960
737.15788,0.07017
735.66809,0.10898
734.17831,0.11622
732.68852,0.12936
731.19873,0.14254
729.70894,0.08315
728.21915,0.07300
726.72936,0.07343
725.23958,0.02471
723.74979,0.07325
722.26000,0.12183
720.77021,0.18803
719.28042,0.10904
717.79063,0.09685
716.30084,0.04841
714.81106,0.00000
713.32127,0.06385
711.83148,0.14531
710.34169,0.06167
708.85190,0.10165
707.36211,0.14166
705.87233,0.15069
704.38254,0.06254
702.89275,0.10796
701.40296,0.11595
699.91317,0.12398
698.42338,0.13322
696.93360,0.26549
695.44381,0.22329
693.95402,0.24321
692.46423,0.26317
690.97444,0.33589
689.48465,0.33954
687.99486,0.38541
686.50508,0.39676
685.01529,0.40816
683.52550,0.52678
682.03571,0.45804
680.54592,0.33195
679.05613,0.35173
677.56635,0.37155
676.07656,0.29011
674.58677,0.27078
673.09698,0.21871
671.60719,0.23109
670.11740,0.24352
668.62761,0.15996
667.13783,0.15491
665.64804,0.12531
664.15825,0.09575
662.66846,0.06390
661.17867,0.12227
659.68888,0.13150
658.19910,0.17122
656.70931,0.21099
655.21952,0.20161
653.72973,0.17822
652.23994,0.10569
650.75015,0.11049
649.26037,0.11535
647.77058,0.12376
646.28079,0.06545
644.79100,0.05404
643.30121,0.06141
641.81142,0.06883
640.32163,0.00719
638.83185,0.07560
637.34206,0.07261
635.85227,0.03628
634.36248,0.00000
632.87269,0.08410
631.38290,0.07455
629.89312,0.07442
628.40333,0.09073
626.91354,0.10708
625.42375,0.07662
623.93396,0.00756
622.44417,0.00531
620.95438,0.00310
619.46460,0.03255
617.97481,0.09016
616.48502,0.18295
614.99523,0.17857
613.50544,0.17424
612.01565,0.01652
610.52587,0.04625
609.03608,0.12403
607.54629,0.12632
606.05650,0.12865
604.56671,0.10116
603.07692,0.17795
601.58714,0.14059
600.09735,0.10328
598.60756,0.12633
597.11777,0.12249
595.62798,0.07184
594.13819,0.09034
592.64840,0.10888
591.15862,0.06656
589.66883,0.12501
588.17904,0.08981
586.68925,0.09623
585.19946,0.10270
583.70967,0.19764
582.21989,0.24342
580.73010,0.22426
579.24031,0.20513
577.75052,0.18781
576.26073,0.12368
574.77094,0.14393
573.28115,0.17125
571.79137,0.19861
570.30158,0.35485
568.81179,0.32842
567.32200,0.35299
565.83221,0.37760
564.34242,0.35130
562.85264,0.45974
561.36285,0.53778
559.87306,0.56432
558.38327,0.59091
556.89348,0.61637
555.40369,0.70512
553.91391,0.70959
552.42412,0.71411
550.93433,0.77137
549.44454,0.71038
547.95475,0.77008
546.46496,0.82981
544.97517,0.88959
543.48539,0.80068
541.99560,0.86523
540.50581,0.85780
539.01602,0.85042
537.52623,0.83546
536.03644,0.78190
534.54666,0.76353
533.05687,0.78033
531.56708,0.79717
530.07729,0.82812
528.58750,0.83568
527.09771,0.85091
525.60792,0.86617
524.11814,0.86333
522.62835,0.90387
521.13856,0.76057
519.64877,0.70574
518.15898,0.65095
516.66919,0.68815
515.17941,0.70783
513.68962,0.69886
512.19983,0.68993
510.71004,0.57973
509.22025,0.67923
507.73046,0.66867
506.24068,0.70033
504.75089,0.73203
503.26110,0.75792
501.77131,0.75340
500.28152,0.71964
498.79173,0.68593
497.30194,0.63938
495.81216,0.72873
494.32237,0.74200
492.83258,0.75532
491.34279,0.76516
489.85300,0.67316
488.36321,0.57885
486.87343,0.55428
485.38364,0.52975
483.89385,0.61829
482.40406,0.46677
480.91427,0.39084
479.42448,0.31496
477.93469,0.23268
476.44491,0.30621
474.95512,0.28141
473.46533,0.25665
471.97554,0.20617
470.48575,0.19087
468.99596,0.15101
467.50618,0.07549
466.01639,0.00000
464.52660,0.00580
463.03681,0.15688
461.54702,0.11768
460.05723,0.07853
458.56745,0.16064
457.07766,0.14207
455.58787,0.13877
454.09808,0.13551
452.60829,0.25762
451.11850,0.24860
449.62871,0.27710
448.13893,0.30564
446.64914,0.48298
445.15935,0.64513
443.66956,0.70191
442.17977,0.76870
440.68998,0.83553
439.20020,0.73785
437.71041,0.89203
436.22062,0.92502
434.73083,0.95807
433.24104,1.30679
431.75125,1.47052
430.26146,1.56108
428.77168,1.65169
427.28189,1.73239
425.79210,1.79439
424.30231,1.77973
422.81252,1.76510
421.32273,1.77337
419.83295,1.60130
418.34316,1.52533
416.85337,1.44939
415.36358,1.10061
413.87379,1.15477
412.38400,1.06082
410.89422,0.96691
409.40443,0.92751
407.91464,0.82022
406.42485,0.81252
404.93506,0.81249
403.44527,0.81250
401.95548,0.80259
400.46570,0.79391
398.97591,0.78761
397.48612,0.78135
395.99633,0.74469
394.50654,0.85330
393.01675,0.80502
391.52697,0.75678
390.03718,0.63596
388.54739,0.57376
387.05760,0.66737
385.56781,0.76102
384.07802,0.73876
382.58824,0.67908
381.09845,0.65106
379.60866,0.62308
378.11887,0.52839
376.62908,0.47942
375.13929,0.40883
373.64950,0.33828
372.15972,0.38665
370.66993,0.37651
369.18014,0.32191
367.69035,0.26735
366.20056,0.29599
364.71077,0.29422
363.22099,0.30539
361.73120,0.31659
360.24141,0.30910
358.75162,0.42815
357.26183,0.33408
355.77204,0.24005
354.28225,0.19643
352.79247,0.18565
351.30268,0.16028
349.81289,0.13494
348.32310,0.06808
346.83331,0.04576
345.34352,0.16083
343.85374,0.27594
342.36395,0.33546
340.87416,0.23223
339.38437,0.26900
337.89458,0.30582
336.40479,0.19335
334.91501,0.11489
333.42522,0.08449
331.93543,0.05414
330.44564,0.08708
328.95585,0.20790
327.46606,0.15895
325.97627,0.11003
324.48649,0.08108
322.99670,0.21616
321.50691,0.22538
320.01712,0.23465
318.52733,0.27148
317.03754,0.23457
315.54776,0.14969
314.05797,0.06485
312.56818,0.07258
311.07839,0.09441
309.58860,0.04718
308.09881,0.00000
306.60902,0.00828
305.11924,0.09273
303.62945,0.05600
302.13966,0.01699
300.64987,0.01843
299.16008,0.00000
