1778.52000,0.02519
1777.03021,0.02650
1775.54042,0.01731
1774.05063,0.03386
1772.56085,0.05394
1771.07106,0.04950
1769.58127,0.01003
1768.09148,0.03019
1766.60169,0.00128
1765.11190,0.04487
1763.62212,0.02770
1762.13233,0.09238
1760.64254,0.00631
1759.15275,0.05233
1757.66296,0.05280
1756.17317,0.04512
1754.68339,0.03512
1753.19360,0.02982
1751.70381,-0.00000
1750.21402,0.02281
1748.72423,0.03512
1747.23444,0.01239
1745.74465,0.04228
1744.25487,0.01259
1742.76508,0.05306
1741.27529,0.01758
1739.78550,0.07446
1738.29571,0.03903
1736.80592,0.00128
1735.31614,0.03796
1733.82635,0.00570
1732.33656,0.00853
1730.84677,0.02776
1729.35698,0.04116
1727.86719,0.02069
1726.37740,0.03181
1724.88762,0.01256
1723.39783,0.00269
1721.90804,0.04311
1720.41825,0.01693
1718.92846,0.00947
1717.43867,0.01373
1715.94889,0.00632
1714.45910,0.00128
1712.96931,0.03407
1711.47952,0.03064
1709.98973,0.02724
1708.49994,0.02737
1707.01016,0.02929
1705.52037,0.03122
1704.03058,0.07118
1702.54079,0.06907
1701.05100,0.08687
1699.56121,0.08014
1698.07142,0.04656
1696.58164,0.06092
1695.09185,0.08583
1693.60206,0.08856
1692.11227,0.09482
1690.62248,0.11045
1689.13269,0.12611
1687.64291,0.15933
1686.15312,0.15401
1684.66333,0.14754
1683.17354,0.16915
1681.68375,0.15805
1680.19396,0.14932
1678.70417,0.17101
1677.21439,0.12259
1675.72460,0.13614
1674.23481,0.12517
1672.74502,0.10605
1671.25523,0.12202
1669.76544,0.16607
1668.27566,0.17040
1666.78587,0.11398
1665.29608,0.09849
1663.80629,0.11108
1662.31650,0.09564
1660.82671,0.15270
1659.33693,0.10693
1657.84714,0.07403
1656.35735,0.07039
1654.86756,0.08781
1653.37777,0.07252
1651.88798,0.12623
1650.39819,0.08528
1648.90841,0.08527
1647.41862,0.12620
1645.92883,0.10461
1644.43904,0.08306
1642.94925,0.09951
1641.45946,0.16626
1639.96968,0.08925
1638.47989,0.09410
1636.99010,0.07559
1635.50031,0.09919
1634.01052,0.07606
1632.52073,0.11373
1631.03094,0.08598
1629.54116,0.12370
1628.05137,0.11002
1626.56158,0.11507
1625.07179,0.15989
1623.58200,0.12642
1622.09221,0.10232
1620.60243,0.10630
1619.11264,0.13486
1617.62285,0.12370
1616.13306,0.13945
1614.64327,0.12132
1613.15348,0.11491
1611.66370,0.10152
1610.17391,0.10568
1608.68412,0.08415
1607.19433,0.11408
1605.70454,0.10079
1604.21475,0.09921
1602.72496,0.09765
1601.23518,0.08093
1599.74539,0.10748
1598.25560,0.13756
1596.76581,0.11624
1595.27602,0.08326
1593.78623,0.08186
1592.29645,0.07113
1590.80666,0.07329
1589.31687,0.03106
1587.82708,0.08586
1586.33729,0.06823
1584.84750,0.07633
1583.35771,0.07277
1581.86793,0.04937
1580.37814,0.08560
1578.88835,0.07394
1577.39856,0.06932
1575.90877,0.04601
1574.41898,0.07417
1572.92920,0.02988
1571.43941,0.04055
1569.94962,0.04190
1568.45983,0.04327
1566.97004,0.04234
1565.48025,0.01220
1563.99047,0.03469
1562.50068,0.00578
1561.01089,0.06221
1559.52110,0.09764
1558.03131,0.08166
1556.54152,0.04466
1555.05173,0.04393
1553.56195,0.02686
1552.07216,0.04488
1550.58237,0.07461
1549.09258,0.03307
1547.60279,0.04532
1546.11300,0.06812
1544.62322,0.10847
1543.13343,0.06119
1541.64364,0.04666
1540.15385,0.04326
1538.66406,0.03989
1537.17427,0.03595
1535.68448,0.03555
1534.19470,0.00128
1532.70491,0.05924
1531.21512,0.06814
1529.72533,0.04317
1528.23554,0.02991
1526.74575,0.07278
1525.25597,0.08177
1523.76618,0.04288
1522.27639,0.03907
1520.78660,0.00723
1519.29681,0.03036
1517.80702,0.04650
1516.31724,0.08371
1514.82745,0.07769
1513.33766,0.06176
1511.84787,0.04586
1510.35808,0.02005
1508.86829,0.00128
1507.37850,0.03800
1505.88872,0.11214
1504.39893,0.07644
1502.90914,0.05245
1501.41935,0.09512
1499.92956,0.12378
1498.43977,0.14195
1496.94999,0.13092
1495.46020,0.18304
1493.97041,0.21531
1492.48062,0.21605
1490.99083,0.27993
1489.50104,0.33098
1488.01125,0.36627
1486.52147,0.40160
1485.03168,0.46558
1483.54189,0.56933
1482.05210,0.66025
1480.56231,0.75938
1479.07252,0.83749
1477.58274,0.87121
1476.09295,0.92717
1474.60316,1.01939
1473.11337,1.07189
1471.62358,1.05078
1470.13379,1.03437
1468.64401,0.97473
1467.15422,0.97006
1465.66443,0.93444
1464.17464,0.89885
1462.68485,0.82412
1461.19506,0.86631
1459.70527,0.81852
1458.21549,0.71465
1456.72570,0.56522
1455.23591,0.55608
1453.74612,0.50488
1452.25633,0.49696
1450.76654,0.53582
1449.27676,0.42860
1447.78697,0.41725
1446.29718,0.36151
1444.80739,0.31690
1443.31760,0.27231
1441.82781,0.25405
1440.33802,0.22412
1438.84824,0.23514
1437.35845,0.24267
1435.86866,0.22451
1434.37887,0.22741
1432.88908,0.25138
1431.39929,0.22746
1429.90951,0.20005
1428.41972,0.26267
1426.92993,0.23064
1425.44014,0.27812
1423.95035,0.27770
1422.46056,0.27730
1420.97078,0.30031
1419.48099,0.26724
1417.99120,0.23653
1416.50141,0.28299
1415.01162,0.33065
1413.52183,0.29534
1412.03204,0.27876
1410.54226,0.34987
1409.05247,0.36841
1407.56268,0.34840
1406.07289,0.36114
1404.58310,0.36281
1403.09331,0.36450
1401.60353,0.36095
1400.11374,0.39952
1398.62395,0.47901
1397.13416,0.53048
1395.64437,0.50951
1394.15458,0.59610
1392.66479,0.63128
1391.17501,0.58701
1389.68522,0.64445
1388.19543,0.61542
1386.70564,0.61973
1385.21585,0.62407
1383.72606,0.58811
1382.23628,0.58256
1380.74649,0.60392
1379.25670,0.63466
1377.76691,0.65724
1376.27712,0.68569
1374.78733,0.68846
1373.29755,0.80462
1371.80776,0.92199
1370.31797,1.02184
1368.82818,1.11471
1367.33839,1.20760
1365.84860,1.39052
1364.35881,1.66113
1362.86903,1.78683
1361.37924,1.97216
1359.88945,1.97401
1358.39966,1.96771
1356.90987,2.00000
1355.42008,1.96686
1353.93030,1.90453
1352.44051,1.78962
1350.95072,1.67474
1349.46093,1.59378
1347.97114,1.31414
1346.48135,1.13738
1344.99156,1.08923
1343.50178,1.01188
1342.01199,0.85624
1340.52220,0.74738
1339.03241,0.68530
1337.54262,0.70156
1336.05283,0.65999
1334.56305,0.61844
1333.07326,0.59270
1331.58347,0.52023
1330.09368,0.43960
1328.60389,0.45134
1327.11410,0.36142
1325.62432,0.39425
1324.13453,0.40022
1322.64474,0.37700
1321.15495,0.34211
1319.66516,0.34173
1318.17537,0.34137
1316.68558,0.26916
1315.19580,0.25892
1313.70601,0.27910
1312.21622,0.28878
1310.72643,0.20966
1309.23664,0.28251
1307.74685,0.20344
1306.25707,0.27634
1304.76728,0.25050
1303.27749,0.22469
1301.78770,0.19247
1300.29791,0.22924
1298.80812,0.20292
1297.31834,0.23975
1295.82855,0.25673
1294.33876,0.23399
1292.84897,0.23582
1291.35918,0.20379
1289.86939,0.25476
1288.37960,0.30577
1286.88982,0.34861
1285.40003,0.30032
1283.91024,0.33152
1282.42045,0.33938
1280.93066,0.30402
1279.44087,0.34699
1277.95109,0.32921
1276.46130,0.37107
1274.97151,0.34399
1273.48172,0.31694
1271.99193,0.34835
1270.50214,0.41252
1269.01235,0.37853
1267.52257,0.39833
1266.03278,0.47076
1264.54299,0.49412
1263.05320,0.43803
1261.56341,0.44858
1260.07362,0.45916
1258.58384,0.52003
1257.09405,0.49559
1255.60426,0.53781
1254.11447,0.51226
1252.62468,0.56154
1251.13489,0.47993
1249.64511,0.39952
1248.15532,0.37290
1246.66553,0.35332
1245.17574,0.33377
1243.68595,0.31073
1242.19616,0.32747
1240.70637,0.24838
1239.21659,0.21607
1237.72680,0.21067
1236.23701,0.18543
1234.74722,0.17423
1233.25743,0.18235
1231.76764,0.19050
1230.27786,0.16536
1228.78807,0.19401
1227.29828,0.14788
1225.80849,0.17541
1224.31870,0.15271
1222.82891,0.09847
1221.33912,0.15414
1219.84934,0.15255
1218.35955,0.15099
1216.86976,0.14946
1215.37997,0.21224
1213.89018,0.13010
1212.40039,0.12163
1210.91061,0.10150
1209.42082,0.06853
1207.93103,0.10690
1206.44124,0.14528
1204.95145,0.08083
1203.46166,0.07836
1201.97188,0.06072
1200.48209,0.07116
1198.99230,0.03136
1197.50251,0.03834
1196.01272,0.07690
1194.52293,0.06348
1193.03314,0.05009
1191.54336,0.02561
1190.05357,0.00934
1188.56378,0.00128
1187.07399,0.03661
1185.58420,0.01235
1184.09441,0.02435
1182.60463,0.02703
1181.11484,0.02973
1179.62505,0.03830
1178.13526,0.04456
1176.64547,0.03214
1175.15568,0.06768
1173.66589,0.09505
1172.17611,0.05232
1170.68632,0.04702
1169.19653,0.04175
1167.70674,0.07390
1166.21695,0.03945
1164.72716,0.05296
1163.23738,0.03610
1161.74759,0.03796
1160.25780,0.00128
1158.76801,0.03735
1157.27822,0.07345
1155.78843,0.01723
1154.29865,0.07559
1152.80886,0.06501
1151.31907,0.05913
1149.82928,0.07314
1148.33949,0.16316
1146.84970,0.13632
1145.35991,0.10950
1143.87013,0.06869
1142.38034,0.07816
1140.89055,0.13674
1139.40076,0.17782
1137.91097,0.20373
1136.42118,0.20863
1134.93140,0.23810
1133.44161,0.26759
1131.95182,0.28425
1130.46203,0.31497
1128.97224,0.32584
1127.48245,0.36712
1125.99266,0.35934
1124.50288,0.39834
1123.01309,0.45256
1121.52330,0.50680
1120.03351,0.43250
1118.54372,0.48212
1117.05393,0.55047
1115.56415,0.52416
1114.07436,0.51775
1112.58457,0.53709
1111.09478,0.55645
1109.60499,0.60856
1108.11520,0.56368
1106.62542,0.63221
1105.13563,0.65985
1103.64584,0.67934
1102.15605,0.85665
1100.66626,0.84287
1099.17647,0.82912
1097.68668,0.81715
1096.19690,0.86833
1094.70711,0.92654
1093.21732,1.01400
1091.72753,0.94603
1090.23774,0.92249
1088.74795,0.89899
1087.25817,0.98655
1085.76838,1.04609
1084.27859,1.16058
1082.78880,1.29848
1081.29901,1.18511
1079.80922,1.24591
1078.31943,1.26584
1076.82965,1.28578
1075.33986,1.30108
1073.85007,1.37835
1072.36028,1.35162
1070.87049,1.44531
1069.38070,1.44084
1067.89092,1.47439
1066.40113,1.50796
1064.91134,1.41356
1063.42155,1.29581
1061.93176,1.20848
1060.44197,1.16092
1058.95219,1.06546
1057.46240,1.03548
1055.97261,1.00552
1054.48282,0.91248
1052.99303,0.90478
1051.50324,0.87724
1050.01345,0.74453
1048.52367,0.67964
1047.03388,0.68023
1045.54409,0.68084
1044.05430,0.63122
1042.56451,0.49747
1041.07472,0.41517
1039.58494,0.45213
1038.09515,0.38040
1036.60536,0.33675
1035.11557,0.29313
1033.62578,0.38512
1032.13599,0.25973
1030.64620,0.34593
1029.15642,0.34332
1027.66663,0.30333
1026.17684,0.26337
1024.68705,0.35786
1023.19726,0.39041
1021.70747,0.50365
1020.21769,0.63678
1018.72790,0.78163
1017.23811,0.86397
1015.74832,0.94633
1014.25853,1.15437
1012.76874,1.21633
1011.27896,1.30637
1009.78917,1.41631
1008.29938,1.42341
1006.80959,1.40891
1005.31980,1.39444
1003.83001,1.40161
1002.34022,1.36089
1000.85044,1.20565
999.36065,1.19420
997.87086,1.14070
996.38107,1.08723
994.89128,1.06300
993.40149,1.05750
991.91171,1.02865
990.42192,1.04307
988.93213,1.00491
987.44234,0.98315
985.95255,0.96142
984.46276,0.93386
982.97297,0.90750
981.48319,0.90922
979.99340,0.85252
978.50361,0.84435
977.01382,0.83621
975.52403,0.73517
974.03424,0.71013
972.54446,0.67694
971.05467,0.66247
969.56488,0.56971
968.07509,0.53484
966.58530,0.50000
965.09551,0.54408
963.60573,0.45376
962.11594,0.44763
960.62615,0.38191
959.13636,0.37817
957.64657,0.37445
956.15678,0.42219
954.66699,0.40918
953.17721,0.33190
951.68742,0.37387
950.19763,0.36327
948.70784,0.35269
947.21805,0.41695
945.72826,0.38772
944.23848,0.42514
942.74869,0.47428
941.25890,0.48838
939.76911,0.52530
938.27932,0.56224
936.78953,0.60096
935.29974,0.51931
933.80996,0.69250
932.32017,0.71728
930.83038,0.71285
929.34059,0.70845
927.85080,0.65499
926.36101,0.54194
924.87123,0.56567
923.38144,0.60345
921.89165,0.64418
920.40186,0.68494
918.91207,0.69241
917.42228,0.70808
915.93250,0.69106
914.44271,0.71614
912.95292,0.71027
911.46313,0.70442
909.97334,0.78218
908.48355,0.87398
906.99376,0.76360
905.50398,0.83442
904.01419,0.78663
902.52440,0.73886
901.03461,0.80858
899.54482,0.84794
898.05503,0.83123
896.56525,0.88583
895.07546,0.86858
893.58567,0.85136
892.09588,0.77279
890.60609,0.85789
889.11630,0.77353
887.62651,0.76985
886.13673,0.76795
884.64694,0.76608
883.15715,0.87936
881.66736,0.85824
880.17757,0.89911
878.68778,0.95402
877.19800,1.00897
875.70821,1.06276
874.21842,1.06633
872.72863,1.08511
871.23884,1.11794
869.74905,1.07892
868.25927,1.03992
866.76948,1.14180
865.27969,1.13850
863.78990,1.22991
862.30011,1.09341
860.81032,1.09954
859.32053,1.10570
857.83075,1.05110
856.34096,1.03159
854.85117,1.05653
853.36138,0.93889
851.87159,0.84348
850.38180,0.74810
848.89202,0.62470
847.40223,0.54924
845.91244,0.65615
844.42265,0.56613
842.93286,0.47614
841.44307,0.38558
839.95329,0.40844
838.46350,0.38807
836.97371,0.32916
835.48392,0.34741
833.99413,0.36569
832.50434,0.37465
831.01455,0.38947
829.52477,0.36108
828.03498,0.32102
826.54519,0.32248
825.05540,0.32396
823.56561,0.25359
822.07582,0.25688
820.58604,0.20643
819.09625,0.18464
817.60646,0.16288
816.11667,0.11835
814.62688,0.09722
813.13709,0.06560
811.64730,0.05037
810.15752,0.02581
808.66773,0.00128
807.17794,0.02861
805.68815,0.09102
804.19836,0.12307
802.70857,0.12008
801.21879,0.11712
799.72900,0.12003
798.23921,0.23517
796.74942,0.26501
795.25963,0.31767
793.76984,0.37036
792.28006,0.43067
790.79027,0.51088
789.30048,0.55721
787.81069,0.59305
786.32090,0.55820
784.83111,0.52338
783.34132,0.58851
781.85154,0.61160
780.36175,0.63822
778.87196,0.61284
777.38217,0.58750
775.89238,0.69484
774.40259,0.72273
772.91281,0.71558
771.42302,0.70378
769.93323,0.69200
768.44344,0.70948
766.95365,0.70009
765.46386,0.73982
763.97407,0.64282
762.48429,0.62065
760.99450,0.59851
759.50471,0.61614
758.01492,0.50288
756.52513,0.34990
755.03534,0.30740
753.54556,0.26494
752.05577,0.27217
750.56598,0.14618
749.07619,0.13243
747.58640,0.12863
746.09661,0.12486
744.60683,0.09015
743.11704,0.13260
741.62725,0.05001
740.13746,0.05979
738.64767,0.06959
737.15788,0.05253
735.66809,0.04485
734.17831,0.05356
732.68852,0.05762
731.19873,0.06171
729.70894,0.01556
728.21915,0.00567
726.72936,0.06477
725.23958,0.06779
723.74979,0.07200
722.26000,0.07624
720.77021,0.02791
719.28042,0.09298
717.79063,0.00846
716.30084,0.01890
714.81106,0.02937
713.32127,0.06791
711.83148,0.00128
710.34169,0.06758
708.85190,0.09066
707.36211,0.11376
705.87233,0.07845
704.38254,0.09109
702.89275,0.06635
701.40296,0.08780
699.91317,0.10928
698.42338,0.09864
696.93360,0.14180
695.44381,0.18030
693.95402,0.18786
692.46423,0.19544
690.97444,0.24688
689.48465,0.27263
687.99486,0.25281
686.50508,0.28095
685.01529,0.30912
683.52550,0.32445
682.03571,0.29890
680.54592,0.28389
679.05613,0.29579
677.56635,0.30772
676.07656,0.32786
674.58677,0.25919
673.09698,0.22561
671.60719,0.23647
670.11740,0.24736
668.62761,0.08294
667.13783,0.10674
665.64804,0.09199
664.15825,0.07726
662.66846,0.11633
661.17867,0.07010
659.68888,0.11974
658.19910,0.15304
656.70931,0.18637
655.21952,0.09816
653.72973,0.10115
652.23994,0.13338
650.75015,0.12999
649.26037,0.12663
647.77058,0.06777
646.28079,0.02062
644.79100,0.04831
643.30121,0.05148
641.81142,0.05467
640.32163,0.05555
638.83185,0.03191
637.34206,0.00128
635.85227,0.02060
634.36248,0.03993
632.87269,0.03709
631.38290,0.06350
629.89312,0.04200
628.40333,0.03573
626.91354,0.02948
625.42375,0.05131
623.93396,0.08837
622.44417,0.06057
620.95438,0.03280
619.46460,0.07928
617.97481,0.08955
616.48502,0.07647
614.99523,0.04764
613.50544,0.01883
612.01565,0.08180
610.52587,0.05596
609.03608,0.08041
607.54629,0.07625
606.05650,0.07212
604.56671,0.16210
603.07692,0.14691
601.58714,0.13292
600.09735,0.11895
598.60756,0.08514
597.11777,0.14252
595.62798,0.09590
594.13819,0.09782
592.64840,0.09976
591.15862,0.10114
589.66883,0.11307
588.17904,0.14138
586.68925,0.10661
585.19946,0.07185
583.70967,0.08856
582.21989,0.11347
580.73010,0.10568
579.24031,0.09792
577.75052,0.11706
576.26073,0.04155
574.77094,0.07828
573.28115,0.10042
571.79137,0.12259
570.30158,0.19563
568.81179,0.18571
567.32200,0.19978
565.83221,0.21386
564.34242,0.25428
562.85264,0.30407
561.36285,0.40181
559.87306,0.39263
558.38327,0.38347
556.89348,0.43219
555.40369,0.41549
553.91391,0.44731
552.42412,0.47917
550.93433,0.43449
549.44454,0.49736
547.95475,0.53456
546.46496,0.53378
544.97517,0.53304
543.48539,0.62407
541.99560,0.56902
540.50581,0.56192
539.01602,0.55485
537.52623,0.48585
536.03644,0.58637
534.54666,0.65418
533.05687,0.63903
531.56708,0.62390
530.07729,0.52230
528.58750,0.56100
527.09771,0.51497
525.60792,0.46897
524.11814,0.52060
522.62835,0.54770
521.13856,0.49769
519.64877,0.47634
518.15898,0.45502
516.66919,0.44599
515.17941,0.41244
513.68962,0.44905
512.19983,0.48569
510.71004,0.39611
509.22025,0.45969
507.73046,0.47419
506.24068,0.46418
504.75089,0.45419
503.26110,0.46994
501.77131,0.46935
500.28152,0.48281
498.79173,0.49630
497.30194,0.54255
495.81216,0.54557
494.32237,0.60939
492.83258,0.67325
491.34279,0.57699
489.85300,0.55557
488.36321,0.47456
486.87343,0.44852
485.38364,0.42249
483.89385,0.35325
482.40406,0.28637
480.91427,0.25575
479.42448,0.22516
477.93469,0.23199
476.44491,0.19444
474.95512,0.14873
473.46533,0.10304
471.97554,0.05504
470.48575,0.04915
468.99596,0.08770
467.50618,0.06198
466.01639,0.03629
464.52660,0.00128
463.03681,0.02823
461.54702,0.02188
460.05723,0.01557
458.56745,0.03207
457.07766,0.06029
455.58787,0.06983
454.09808,0.07939
452.60829,0.17431
451.11850,0.15120
449.62871,0.14331
448.13893,0.13544
446.64914,0.23280
445.15935,0.37577
443.66956,0.41474
442.17977,0.42568
440.68998,0.43664
439.20020,0.53530
437.71041,0.61761
436.22062,0.73093
434.73083,0.84427
433.24104,0.93602
431.75125,1.04766
430.26146,1.09738
428.77168,1.14712
427.28189,1.16650
425.79210,1.16252
424.30231,1.13403
422.81252,1.10556
421.32273,1.05958
419.83295,0.99844
418.34316,0.98232
416.85337,0.96623
415.36358,0.78827
413.87379,0.71788
412.38400,0.67147
410.89422,0.62509
409.40443,0.57581
407.91464,0.59669
406.42485,0.50656
404.93506,0.49885
403.44527,0.49117
401.95548,0.48176
400.46570,0.49693
398.97591,0.47939
397.48612,0.46187
395.99633,0.42569
394.50654,0.45264
393.01675,0.45683
391.52697,0.46104
390.03718,0.38755
388.54739,0.37837
387.05760,0.40663
385.56781,0.43490
384.07802,0.43165
382.58824,0.39452
381.09845,0.34281
379.60866,0.29112
378.11887,0.26693
376.62908,0.27198
375.13929,0.21745
373.64950,0.16294
372.15972,0.21015
370.66993,0.18375
369.18014,0.18133
367.69035,0.17894
366.20056,0.10119
364.71077,0.02813
363.22099,0.07710
361.73120,0.12609
360.24141,0.07284
358.75162,0.08039
357.26183,0.08971
355.77204,0.09907
354.28225,0.03306
352.79247,0.08045
351.30268,0.06183
349.81289,0.04323
348.32310,0.05213
346.83331,0.08209
345.34352,0.06240
343.85374,0.04274
342.36395,0.06577
340.87416,0.12973
339.38437,0.09261
337.89458,0.05552
336.40479,0.02021
334.91501,0.00128
333.42522,0.02165
331.93543,0.04204
330.44564,0.05662
328.95585,0.06654
327.46606,0.05721
325.97627,0.04789
324.48649,0.04824
322.99670,0.04745
321.50691,0.06421
320.01712,0.08100
318.52733,0.08146
317.03754,0.00128
315.54776,0.01098
314.05797,0.02070
312.56818,0.08889
311.07839,0.02737
309.58860,0.02255
308.09881,0.01777
306.60902,0.09308
305.11924,0.03750
303.62945,0.02344
302.13966,0.00940
300.64987,0.07078
299.16008,0.00128
