1778.52000,0.04229
1777.03021,0.02752
1775.54042,0.03923
1774.05063,0.03423
1772.56085,0.02749
1771.07106,0.00933
1769.58127,0.03878
1768.09148,0.06034
1766.60169,0.04668
1765.11190,0.04803
1763.62212,0.01681
1762.13233,0.02439
1760.64254,0.03377
1759.15275,0.05727
1757.66296,0.07288
1756.17317,0.04094
1754.68339,0.03634
1753.19360,0.00622
1751.70381,0.01930
1750.21402,0.05181
1748.72423,0.04734
1747.23444,0.04025
1745.74465,0.02086
1744.25487,0.03147
1742.76508,0.04651
1741.27529,0.06510
1739.78550,0.00883
1738.29571,0.03453
1736.80592,0.02591
1735.31614,0.01026
1733.82635,0.06107
1732.33656,-0.00000
1730.84677,0.03137
1729.35698,0.02753
1727.86719,0.02548
1726.37740,0.02082
1724.88762,0.03117
1723.39783,0.02833
1721.90804,0.01848
1720.41825,0.02364
1718.92846,0.02794
1717.43867,0.05255
1715.94889,0.05780
1714.45910,0.00933
1712.96931,0.02736
1711.47952,0.08331
1709.98973,0.04941
1708.49994,0.06401
1707.01016,0.07379
1705.52037,0.08360
1704.03058,0.08331
1702.54079,0.11037
1701.05100,0.07842
1699.56121,0.07206
1698.07142,0.11595
1696.58164,0.14402
1695.09185,0.13511
1693.60206,0.12975
1692.11227,0.18787
1690.62248,0.14468
1689.13269,0.18612
1687.64291,0.23112
1686.15312,0.20125
1684.66333,0.16700
1683.17354,0.13895
1681.68375,0.20258
1680.19396,0.16578
1678.70417,0.16514
1677.21439,0.19978
1675.72460,0.16132
1674.23481,0.17840
1672.74502,0.18670
1671.25523,0.17564
1669.76544,0.17255
1668.27566,0.21178
1666.78587,0.17791
1665.29608,0.17491
1663.80629,0.18604
1662.31650,0.15667
1660.82671,0.16962
1659.33693,0.15706
1657.84714,0.13835
1656.35735,0.13730
1654.86756,0.12571
1653.37777,0.12473
1651.88798,0.13523
1650.39819,0.15281
1648.90841,0.16954
1647.41862,0.12991
1645.92883,0.12908
1644.43904,0.12828
1642.94925,0.13104
1641.45946,0.14616
1639.96968,0.13488
1638.47989,0.09808
1636.99010,0.09656
1635.50031,0.11798
1634.01052,0.14472
1632.52073,0.12566
1631.03094,0.13308
1629.54116,0.18723
1628.05137,0.15505
1626.56158,0.13877
1625.07179,0.15336
1623.58200,0.19529
1622.09221,0.18439
1620.60243,0.19907
1619.11264,0.13977
1617.62285,0.14658
1616.13306,0.14197
1614.64327,0.13916
1613.15348,0.17250
1611.66370,0.12834
1610.17391,0.14059
1608.68412,0.14055
1607.19433,0.16168
1605.70454,0.15024
1604.21475,0.13663
1602.72496,0.12305
1601.23518,0.15577
1599.74539,0.14269
1598.25560,0.13846
1596.76581,0.11575
1595.27602,0.11158
1593.78623,0.10039
1592.29645,0.06280
1590.80666,0.07987
1589.31687,0.10579
1587.82708,0.06564
1586.33729,0.05726
1584.84750,0.07269
1583.35771,0.08728
1581.86793,0.03228
1580.37814,0.09539
1578.88835,0.08011
1577.39856,0.04724
1575.90877,0.02144
1574.41898,0.02829
1572.92920,0.05543
1571.43941,0.02356
1569.94962,0.02874
1568.45983,0.03394
1566.97004,0.05592
1565.48025,0.01713
1563.99047,0.03829
1562.50068,0.05243
1561.01089,0.00933
1559.52110,0.03763
1558.03131,0.06596
1556.54152,0.04409
1555.05173,0.07689
1553.56195,0.09650
1552.07216,0.03684
1550.58237,0.09000
1549.09258,0.04802
1547.60279,0.07921
1546.11300,0.07959
1544.62322,0.12054
1543.13343,0.09014
1541.64364,0.03334
1540.15385,0.04046
1538.66406,0.04761
1537.17427,0.08254
1535.68448,0.03468
1534.19470,0.06968
1532.70491,0.06241
1531.21512,0.02433
1529.72533,0.03828
1528.23554,0.00467
1526.74575,0.04413
1525.25597,0.06425
1523.76618,0.06148
1522.27639,0.06315
1520.78660,0.00933
1519.29681,0.04109
1517.80702,0.02706
1516.31724,0.03157
1514.82745,0.02730
1513.33766,0.02878
1511.84787,0.03030
1510.35808,0.03846
1508.86829,0.05282
1507.37850,0.01257
1505.88872,0.03580
1504.39893,0.03616
1502.90914,0.04976
1501.41935,0.03695
1499.92956,0.05238
1498.43977,0.08018
1496.94999,0.14501
1495.46020,0.18961
1493.97041,0.24306
1492.48062,0.23837
1490.99083,0.37031
1489.50104,0.36304
1488.01125,0.42763
1486.52147,0.49224
1485.03168,0.58200
1483.54189,0.67180
1482.05210,0.71756
1480.56231,0.92726
1479.07252,1.07178
1477.58274,1.17315
1476.09295,1.22609
1474.60316,1.24558
1473.11337,1.42018
1471.62358,1.46088
1470.13379,1.39586
1468.64401,1.27448
1467.15422,1.22450
1465.66443,1.19439
1464.17464,1.16430
1462.68485,1.11442
1461.19506,1.06898
1459.70527,1.08702
1458.21549,0.96938
1456.72570,0.88614
1455.23591,0.78883
1453.74612,0.73561
1452.25633,0.70886
1450.76654,0.62310
1449.27676,0.58320
1447.78697,0.54861
1446.29718,0.54490
1444.80739,0.51346
1443.31760,0.48205
1441.82781,0.36212
1440.33802,0.35588
1438.84824,0.34440
1437.35845,0.23689
1435.86866,0.21489
1434.37887,0.29250
1432.88908,0.28995
1431.39929,0.28655
1429.90951,0.25763
1428.41972,0.33096
1426.92993,0.29416
1425.44014,0.38958
1423.95035,0.37489
1422.46056,0.36022
1420.97078,0.37114
1419.48099,0.39883
1417.99120,0.30495
1416.50141,0.35121
1415.01162,0.35961
1413.52183,0.37774
1412.03204,0.36417
1410.54226,0.30922
1409.05247,0.39265
1407.56268,0.42676
1406.07289,0.37543
1404.58310,0.40343
1403.09331,0.43147
1401.60353,0.44103
1400.11374,0.48500
1398.62395,0.49727
1397.13416,0.50428
1395.64437,0.54217
1394.15458,0.60652
1392.66479,0.63566
1391.17501,0.69744
1389.68522,0.63059
1388.19543,0.63162
1386.70564,0.62255
1385.21585,0.61352
1383.72606,0.60143
1382.23628,0.61316
1380.74649,0.60201
1379.25670,0.62438
1377.76691,0.63004
1376.27712,0.69389
1374.78733,0.69521
1373.29755,0.79525
1371.80776,0.93322
1370.31797,0.98662
1368.82818,1.05018
1367.33839,1.11378
1365.84860,1.31532
1364.35881,1.53010
1362.86903,1.69822
1361.37924,1.90337
1359.88945,1.85654
1358.39966,1.95160
1356.90987,2.00000
1355.42008,1.97881
1353.93030,1.86777
1352.44051,1.85854
1350.95072,1.84934
1349.46093,1.73664
1347.97114,1.51117
1346.48135,1.26987
1344.99156,1.21894
1343.50178,1.10195
1342.01199,0.94886
1340.52220,0.90860
1339.03241,0.84722
1337.54262,0.74974
1336.05283,0.73778
1334.56305,0.72584
1333.07326,0.68926
1331.58347,0.63509
1330.09368,0.60738
1328.60389,0.59205
1327.11410,0.57233
1325.62432,0.53415
1324.13453,0.49159
1322.64474,0.50634
1321.15495,0.48146
1319.66516,0.49936
1318.17537,0.51729
1316.68558,0.40439
1315.19580,0.44309
1313.70601,0.39105
1312.21622,0.40161
1310.72643,0.34876
1309.23664,0.35498
1307.74685,0.39119
1306.25707,0.39043
1304.76728,0.38484
1303.27749,0.37929
1301.78770,0.34954
1300.29791,0.33656
1298.80812,0.35710
1297.31834,0.36885
1295.82855,0.39562
1294.33876,0.38629
1292.84897,0.40960
1291.35918,0.40298
1289.86939,0.41401
1288.37960,0.42508
1286.88982,0.43176
1285.40003,0.49400
1283.91024,0.49547
1282.42045,0.50666
1280.93066,0.44121
1279.44087,0.48331
1277.95109,0.53512
1276.46130,0.55789
1274.97151,0.51945
1273.48172,0.48104
1271.99193,0.48100
1270.50214,0.55148
1269.01235,0.60172
1267.52257,0.60265
1266.03278,0.62299
1264.54299,0.64425
1263.05320,0.66907
1261.56341,0.65426
1260.07362,0.63948
1258.58384,0.69171
1257.09405,0.67347
1255.60426,0.71078
1254.11447,0.66881
1252.62468,0.72733
1251.13489,0.71803
1249.64511,0.64619
1248.15532,0.54355
1246.66553,0.53963
1245.17574,0.53574
1243.68595,0.46226
1242.19616,0.49016
1240.70637,0.46257
1239.21659,0.41387
1237.72680,0.39427
1236.23701,0.35004
1234.74722,0.31465
1233.25743,0.30924
1231.76764,0.30388
1230.27786,0.28532
1228.78807,0.24917
1227.29828,0.30734
1225.80849,0.22103
1224.31870,0.20700
1222.82891,0.23090
1221.33912,0.19138
1219.84934,0.21358
1218.35955,0.23581
1216.86976,0.22018
1215.37997,0.20987
1213.89018,0.21016
1212.40039,0.22899
1210.91061,0.21437
1209.42082,0.18920
1207.93103,0.19094
1206.44124,0.19272
1204.95145,0.17557
1203.46166,0.08444
1201.97188,0.09909
1200.48209,0.15870
1198.99230,0.10027
1197.50251,0.05861
1196.01272,0.07514
1194.52293,0.06350
1193.03314,0.05190
1191.54336,0.07205
1190.05357,0.06580
1188.56378,0.04547
1187.07399,0.10713
1185.58420,0.00933
1184.09441,0.05281
1182.60463,0.06152
1181.11484,0.07026
1179.62505,0.03454
1178.13526,0.06669
1176.64547,0.06451
1175.15568,0.07734
1173.66589,0.08139
1172.17611,0.07490
1170.68632,0.06271
1169.19653,0.05056
1167.70674,0.02918
1166.21695,0.06863
1164.72716,0.07287
1163.23738,0.04189
1161.74759,0.02857
1160.25780,0.04260
1158.76801,0.05225
1157.27822,0.06193
1155.78843,0.05138
1154.29865,0.09461
1152.80886,0.05239
1151.31907,0.00933
1149.82928,0.11612
1148.33949,0.10046
1146.84970,0.10465
1145.35991,0.10887
1143.87013,0.11181
1142.38034,0.16589
1140.89055,0.16976
1139.40076,0.15781
1137.91097,0.29217
1136.42118,0.24327
1134.93140,0.30103
1133.44161,0.35882
1131.95182,0.43602
1130.46203,0.45246
1128.97224,0.46099
1127.48245,0.53477
1125.99266,0.55306
1124.50288,0.58548
1123.01309,0.59062
1121.52330,0.59578
1120.03351,0.66179
1118.54372,0.63882
1117.05393,0.66170
1115.56415,0.71810
1114.07436,0.71462
1112.58457,0.69354
1111.09478,0.67249
1109.60499,0.70875
1108.11520,0.74856
1106.62542,0.80075
1105.13563,0.86089
1103.64584,0.98275
1102.15605,1.05618
1100.66626,1.05870
1099.17647,1.06125
1097.68668,1.07662
1096.19690,1.04266
1094.70711,1.12065
1093.21732,1.20572
1091.72753,1.25910
1090.23774,1.25435
1088.74795,1.24963
1087.25817,1.24847
1085.76838,1.37423
1084.27859,1.42248
1082.78880,1.43287
1081.29901,1.54110
1079.80922,1.52952
1078.31943,1.52062
1076.82965,1.51174
1075.33986,1.66328
1073.85007,1.78048
1072.36028,1.68975
1070.87049,1.65985
1069.38070,1.78244
1067.89092,1.82839
1066.40113,1.87437
1064.91134,1.82785
1063.42155,1.66769
1061.93176,1.53400
1060.44197,1.46026
1058.95219,1.36277
1057.46240,1.33095
1055.97261,1.29916
1054.48282,1.30398
1052.99303,1.14492
1051.50324,1.07842
1050.01345,1.01107
1048.52367,0.87501
1047.03388,0.85796
1045.54409,0.84093
1044.05430,0.81160
1042.56451,0.67391
1041.07472,0.56885
1039.58494,0.58103
1038.09515,0.55270
1036.60536,0.51780
1035.11557,0.48293
1033.62578,0.41063
1032.13599,0.35600
1030.64620,0.38775
1029.15642,0.43892
1027.66663,0.41345
1026.17684,0.38802
1024.68705,0.46044
1023.19726,0.55932
1021.70747,0.68995
1020.21769,0.81092
1018.72790,0.90990
1017.23811,1.00670
1015.74832,1.10353
1014.25853,1.25019
1012.76874,1.50614
1011.27896,1.65462
1009.78917,1.64627
1008.29938,1.68731
1006.80959,1.66625
1005.31980,1.64522
1003.83001,1.51451
1002.34022,1.48782
1000.85044,1.42855
999.36065,1.30411
997.87086,1.28236
996.38107,1.26064
994.89128,1.25877
993.40149,1.31069
991.91171,1.35648
990.42192,1.25073
988.93213,1.32830
987.44234,1.33805
985.95255,1.34783
984.46276,1.25983
982.97297,1.25557
981.48319,1.23372
979.99340,1.16785
978.50361,1.19188
977.01382,1.21595
975.52403,1.07350
974.03424,1.00334
972.54446,0.93586
971.05467,0.92833
969.56488,0.91819
968.07509,0.86666
966.58530,0.81516
965.09551,0.78044
963.60573,0.73253
962.11594,0.72784
960.62615,0.73198
959.13636,0.65465
957.64657,0.57734
956.15678,0.59304
954.66699,0.56206
953.17721,0.56372
951.68742,0.60506
950.19763,0.60282
948.70784,0.60060
947.21805,0.58564
945.72826,0.59363
944.23848,0.59723
942.74869,0.70309
941.25890,0.69443
939.76911,0.76025
938.27932,0.82611
936.78953,0.88892
935.29974,0.90505
933.80996,0.83486
932.32017,0.87397
930.83038,0.87081
929.34059,0.86768
927.85080,0.88661
926.36101,0.82186
924.87123,0.83557
923.38144,0.86165
921.89165,0.86308
920.40186,0.86455
918.91207,0.85283
917.42228,0.91957
915.93250,0.93170
914.44271,0.89364
912.95292,0.91685
911.46313,0.94009
909.97334,0.92328
908.48355,0.94967
906.99376,0.96199
905.50398,0.91354
904.01419,0.93430
902.52440,0.95508
901.03461,0.89704
899.54482,1.01350
898.05503,1.00398
896.56525,1.10111
895.07546,1.07491
893.58567,1.04875
892.09588,0.98031
890.60609,1.00091
889.11630,0.96779
887.62651,0.92764
886.13673,0.94437
884.64694,0.96113
883.15715,1.09115
881.66736,1.03880
880.17757,1.06666
878.68778,1.10161
877.19800,1.13659
875.70821,1.14957
874.21842,1.24365
872.72863,1.26639
871.23884,1.25744
869.74905,1.31152
868.25927,1.36563
866.76948,1.31623
865.27969,1.38847
863.78990,1.44929
862.30011,1.32861
860.81032,1.35953
859.32053,1.39048
857.83075,1.30602
856.34096,1.29297
854.85117,1.26321
853.36138,1.15241
851.87159,1.06984
850.38180,0.98731
848.89202,0.91802
847.40223,0.70777
845.91244,0.61211
844.42265,0.61913
842.93286,0.62620
841.44307,0.51124
839.95329,0.50206
838.46350,0.44004
836.97371,0.40273
835.48392,0.40818
833.99413,0.41367
832.50434,0.44959
831.01455,0.45117
829.52477,0.48892
828.03498,0.42535
826.54519,0.40676
825.05540,0.38821
823.56561,0.37761
822.07582,0.34237
820.58604,0.29218
819.09625,0.25701
817.60646,0.22186
816.11667,0.17265
814.62688,0.16576
813.13709,0.09899
811.64730,0.03754
810.15752,0.03030
808.66773,0.02311
807.17794,0.00933
805.68815,0.04007
804.19836,0.06907
802.70857,0.09855
801.21879,0.12806
799.72900,0.14482
798.23921,0.25767
796.74942,0.36702
795.25963,0.39005
793.76984,0.41311
792.28006,0.43708
790.79027,0.54039
789.30048,0.60584
787.81069,0.62197
786.32090,0.63637
784.83111,0.65080
783.34132,0.74898
781.85154,0.69122
780.36175,0.67491
778.87196,0.66391
777.38217,0.65294
775.89238,0.74335
774.40259,0.83114
772.91281,0.84847
771.42302,0.87684
769.93323,0.90525
768.44344,0.89535
766.95365,0.83085
765.46386,0.83336
763.97407,0.83766
762.48429,0.77325
760.99450,0.70888
759.50471,0.64189
758.01492,0.53969
756.52513,0.48863
755.03534,0.41953
753.54556,0.35047
752.05577,0.26866
750.56598,0.14634
749.07619,0.14038
747.58640,0.14194
746.09661,0.14353
744.60683,0.09007
743.11704,0.05604
741.62725,0.07579
740.13746,0.06428
738.64767,0.05281
737.15788,0.02771
735.66809,0.09605
734.17831,0.00933
732.68852,0.04009
731.19873,0.07089
729.70894,0.06074
728.21915,0.05062
726.72936,0.08019
725.23958,0.02960
723.74979,0.06143
722.26000,0.09330
720.77021,0.09391
719.28042,0.11482
717.79063,0.04236
716.30084,0.03382
714.81106,0.02530
713.32127,0.00933
711.83148,0.03662
710.34169,0.03751
708.85190,0.07280
707.36211,0.10812
705.87233,0.06063
704.38254,0.04843
702.89275,0.08648
701.40296,0.09902
699.91317,0.11158
698.42338,0.14268
696.93360,0.20465
695.44381,0.25785
693.95402,0.24366
692.46423,0.22950
690.97444,0.29248
689.48465,0.28235
687.99486,0.31896
686.50508,0.33136
685.01529,0.34380
683.52550,0.37169
682.03571,0.39608
680.54592,0.32710
679.05613,0.30706
677.56635,0.28705
676.07656,0.29835
674.58677,0.24095
673.09698,0.23557
671.60719,0.20996
670.11740,0.18438
668.62761,0.13768
667.13783,0.12537
665.64804,0.12985
664.15825,0.13435
662.66846,0.13800
661.17867,0.06767
659.68888,0.12514
658.19910,0.11963
656.70931,0.11416
655.21952,0.13559
653.72973,0.16058
652.23994,0.15036
650.75015,0.14545
649.26037,0.14057
647.77058,0.10312
646.28079,0.04279
644.79100,0.05475
643.30121,0.04031
641.81142,0.02590
640.32163,0.01416
638.83185,0.03682
637.34206,0.02338
635.85227,0.04777
634.36248,0.07219
632.87269,0.06183
631.38290,0.03829
629.89312,0.07381
628.40333,0.05033
626.91354,0.02688
625.42375,0.06162
623.93396,0.09023
622.44417,0.08582
620.95438,0.08144
619.46460,0.12864
617.97481,0.00933
616.48502,0.04745
614.99523,0.06534
613.50544,0.08326
612.01565,0.09857
610.52587,0.06457
609.03608,0.08787
607.54629,0.12398
606.05650,0.16012
604.56671,0.17999
603.07692,0.07917
601.58714,0.11761
600.09735,0.15608
598.60756,0.09676
597.11777,0.13089
595.62798,0.07164
594.13819,0.07807
592.64840,0.08454
591.15862,0.10910
589.66883,0.13721
588.17904,0.12218
586.68925,0.12921
585.19946,0.13627
583.70967,0.09313
582.21989,0.19102
580.73010,0.16513
579.24031,0.13927
577.75052,0.20905
576.26073,0.13346
574.77094,0.24737
573.28115,0.22164
571.79137,0.19593
570.30158,0.21300
568.81179,0.27768
567.32200,0.28953
565.83221,0.30140
564.34242,0.40142
562.85264,0.37194
561.36285,0.44560
559.87306,0.44834
558.38327,0.45112
556.89348,0.51870
555.40369,0.54048
553.91391,0.54203
552.42412,0.54361
550.93433,0.60074
549.44454,0.59005
547.95475,0.62257
546.46496,0.63044
544.97517,0.63835
543.48539,0.71766
541.99560,0.79084
540.50581,0.77417
539.01602,0.75752
537.52623,0.67659
536.03644,0.65031
534.54666,0.64874
533.05687,0.65822
531.56708,0.66773
530.07729,0.68036
528.58750,0.64984
527.09771,0.64490
525.60792,0.64000
524.11814,0.60692
522.62835,0.57829
521.13856,0.50827
519.64877,0.49380
518.15898,0.47936
516.66919,0.54514
515.17941,0.48406
513.68962,0.49879
512.19983,0.51355
510.71004,0.43670
509.22025,0.53701
507.73046,0.53160
506.24068,0.56896
504.75089,0.60635
503.26110,0.60456
501.77131,0.65479
500.28152,0.64909
498.79173,0.64343
497.30194,0.59154
495.81216,0.56787
494.32237,0.65087
492.83258,0.73389
491.34279,0.65040
489.85300,0.65241
488.36321,0.49408
486.87343,0.50409
485.38364,0.51413
483.89385,0.46516
482.40406,0.34044
480.91427,0.29330
479.42448,0.24619
477.93469,0.15681
476.44491,0.16175
474.95512,0.14954
473.46533,0.13736
471.97554,0.12741
470.48575,0.04260
468.99596,0.03800
467.50618,0.03080
466.01639,0.02362
464.52660,0.09226
463.03681,0.09043
461.54702,0.04987
460.05723,0.00933
458.56745,0.02278
457.07766,0.04420
455.58787,0.10530
454.09808,0.16643
452.60829,0.21526
451.11850,0.16277
449.62871,0.17730
448.13893,0.19185
446.64914,0.32716
445.15935,0.38143
443.66956,0.43749
442.17977,0.48742
440.68998,0.53738
439.20020,0.57327
437.71041,0.70700
436.22062,0.77512
434.73083,0.84327
433.24104,1.01499
431.75125,1.20789
430.26146,1.22811
428.77168,1.24836
427.28189,1.42196
425.79210,1.44668
424.30231,1.45557
422.81252,1.46448
421.32273,1.43378
419.83295,1.32732
418.34316,1.24513
416.85337,1.16297
415.36358,0.92883
413.87379,0.85863
412.38400,0.79418
410.89422,0.72977
409.40443,0.70460
407.91464,0.67330
406.42485,0.58034
404.93506,0.60726
403.44527,0.63421
401.95548,0.50522
400.46570,0.52694
398.97591,0.52931
397.48612,0.53171
395.99633,0.55353
394.50654,0.57450
393.01675,0.55893
391.52697,0.54339
390.03718,0.40495
388.54739,0.38023
387.05760,0.38417
385.56781,0.38814
384.07802,0.42078
382.58824,0.39354
381.09845,0.36985
379.60866,0.34619
378.11887,0.29877
376.62908,0.29279
375.13929,0.24720
373.64950,0.20163
372.15972,0.22043
370.66993,0.19784
369.18014,0.14091
367.69035,0.08402
366.20056,0.06593
364.71077,0.10338
363.22099,0.12810
361.73120,0.15284
360.24141,0.18598
358.75162,0.07112
357.26183,0.11402
355.77204,0.15695
354.28225,0.10562
352.79247,0.05081
351.30268,0.08194
349.81289,0.11310
348.32310,0.06983
346.83331,0.04245
345.34352,0.06332
343.85374,0.08422
342.36395,0.16243
340.87416,0.13052
339.38437,0.12816
337.89458,0.12583
336.40479,0.09402
334.91501,0.02874
333.42522,0.01902
331.93543,0.00933
330.44564,0.06039
328.95585,0.06302
327.46606,0.08110
325.97627,0.09921
324.48649,0.05346
322.99670,0.06777
321.50691,0.05788
320.01712,0.04802
318.52733,0.07829
317.03754,0.10242
315.54776,0.07018
314.05797,0.03798
312.56818,0.00933
311.07839,0.02640
309.58860,0.02103
308.09881,0.01569
306.60902,0.05224
305.11924,0.08795
303.62945,0.05274
302.13966,0.01757
300.64987,0.02974
299.16008,0.00933
