1778.52000,0.05146
1777.03021,0.05631
1775.54042,0.05176
1774.05063,0.03403
1772.56085,0.03143
1771.07106,0.02414
1769.58127,0.05557
1768.09148,0.06722
1766.60169,0.03737
1765.11190,0.06984
1763.62212,0.00797
1762.13233,0.03484
1760.64254,0.06835
1759.15275,0.05092
1757.66296,0.03541
1756.17317,0.04731
1754.68339,0.04602
1753.19360,0.03815
1751.70381,0.03032
1750.21402,0.02440
1748.72423,0.04683
1747.23444,0.02871
1745.74465,0.01911
1744.25487,0.03314
1742.76508,0.03021
1741.27529,0.03391
1739.78550,0.05086
1738.29571,0.03387
1736.80592,0.04711
1735.31614,0.04810
1733.82635,0.04064
1732.33656,0.01622
1730.84677,0.02958
1729.35698,0.02315
1727.86719,0.04318
1726.37740,0.00000
1724.88762,0.00121
1723.39783,0.01220
1721.90804,0.02699
1720.41825,0.03898
1718.92846,0.02552
1717.43867,0.05078
1715.94889,0.04588
1714.45910,0.00797
1712.96931,0.06151
1711.47952,0.07638
1709.98973,0.06675
1708.49994,0.05526
1707.01016,0.06503
1705.52037,0.07484
1704.03058,0.05400
1702.54079,0.06529
1701.05100,0.09170
1699.56121,0.13231
1698.07142,0.10687
1696.58164,0.08147
1695.09185,0.15803
1693.60206,0.09872
1692.11227,0.15552
1690.62248,0.12835
1689.13269,0.16445
1687.64291,0.17132
1686.15312,0.22070
1684.66333,0.15024
1683.17354,0.17608
1681.68375,0.15476
1680.19396,0.14952
1678.70417,0.18017
1677.21439,0.14478
1675.72460,0.13680
1674.23481,0.16188
1672.74502,0.15302
1671.25523,0.13852
1669.76544,0.17219
1668.27566,0.14831
1666.78587,0.14807
1665.29608,0.13464
1663.80629,0.11369
1662.31650,0.15317
1660.82671,0.15777
1659.33693,0.11992
1657.84714,0.08305
1656.35735,0.09057
1654.86756,0.11322
1653.37777,0.10758
1651.88798,0.09632
1650.39819,0.13605
1648.90841,0.12673
1647.41862,0.13915
1645.92883,0.14405
1644.43904,0.14898
1642.94925,0.14168
1641.45946,0.11458
1639.96968,0.09979
1638.47989,0.14354
1636.99010,0.12125
1635.50031,0.12732
1634.01052,0.12586
1632.52073,0.12160
1631.03094,0.11171
1629.54116,0.12072
1628.05137,0.17413
1626.56158,0.13035
1625.07179,0.15550
1623.58200,0.17030
1622.09221,0.17853
1620.60243,0.13865
1619.11264,0.15354
1617.62285,0.14204
1616.13306,0.13340
1614.64327,0.13045
1613.15348,0.17378
1611.66370,0.15391
1610.17391,0.07744
1608.68412,0.13596
1607.19433,0.10202
1605.70454,0.12002
1604.21475,0.12296
1602.72496,0.12592
1601.23518,0.13268
1599.74539,0.14420
1598.25560,0.13876
1596.76581,0.04181
1595.27602,0.13647
1593.78623,0.08393
1592.29645,0.07106
1590.80666,0.09504
1589.31687,0.10111
1587.82708,0.10060
1586.33729,0.10579
1584.84750,0.05815
1583.35771,0.09927
1581.86793,0.06208
1580.37814,0.12213
1578.88835,0.09632
1577.39856,0.06961
1575.90877,0.04386
1574.41898,0.03797
1572.92920,0.01607
1571.43941,0.00174
1569.94962,0.03328
1568.45983,0.06485
1566.97004,0.03793
1565.48025,0.06201
1563.99047,0.05403
1562.50068,0.04514
1561.01089,0.00797
1559.52110,0.05521
1558.03131,0.07323
1556.54152,0.03465
1555.05173,0.08387
1553.56195,0.03120
1552.07216,0.05028
1550.58237,0.03165
1549.09258,0.01493
1547.60279,0.03411
1546.11300,0.05992
1544.62322,0.06594
1543.13343,0.04652
1541.64364,0.01768
1540.15385,0.04409
1538.66406,0.07053
1537.17427,0.07199
1535.68448,0.02629
1534.19470,0.02876
1532.70491,0.03786
1531.21512,0.02057
1529.72533,0.01935
1528.23554,0.05780
1526.74575,0.03966
1525.25597,0.05457
1523.76618,0.04121
1522.27639,0.03071
1520.78660,0.00797
1519.29681,0.03961
1517.80702,0.05617
1516.31724,0.02841
1514.82745,0.07241
1513.33766,0.05651
1511.84787,0.04064
1510.35808,0.04510
1508.86829,0.01938
1507.37850,0.03805
1505.88872,0.01428
1504.39893,0.01413
1502.90914,0.03667
1501.41935,0.02243
1499.92956,0.02333
1498.43977,0.07899
1496.94999,0.11298
1495.46020,0.15171
1493.97041,0.23861
1492.48062,0.27081
1490.99083,0.28132
1489.50104,0.33622
1488.01125,0.37983
1486.52147,0.42347
1485.03168,0.52377
1483.54189,0.60711
1482.05210,0.70842
1480.56231,0.80220
1479.07252,0.94981
1477.58274,1.03800
1476.09295,1.10262
1474.60316,1.13706
1473.11337,1.29801
1471.62358,1.25702
1470.13379,1.23682
1468.64401,1.12604
1467.15422,1.04078
1465.66443,1.04521
1464.17464,1.04968
1462.68485,1.03057
1461.19506,1.00678
1459.70527,0.84806
1458.21549,0.78375
1456.72570,0.78364
1455.23591,0.69391
1453.74612,0.64951
1452.25633,0.61080
1450.76654,0.55797
1449.27676,0.57123
1447.78697,0.47976
1446.29718,0.45062
1444.80739,0.39885
1443.31760,0.34712
1441.82781,0.30768
1440.33802,0.29753
1438.84824,0.27420
1437.35845,0.26317
1435.86866,0.24085
1434.37887,0.24593
1432.88908,0.22933
1431.39929,0.26183
1429.90951,0.20377
1428.41972,0.23445
1426.92993,0.25384
1425.44014,0.26382
1423.95035,0.29695
1422.46056,0.33012
1420.97078,0.31471
1419.48099,0.27384
1417.99120,0.27265
1416.50141,0.31679
1415.01162,0.29301
1413.52183,0.34665
1412.03204,0.33520
1410.54226,0.34266
1409.05247,0.31523
1407.56268,0.33313
1406.07289,0.35672
1404.58310,0.33881
1403.09331,0.32094
1401.60353,0.39654
1400.11374,0.39949
1398.62395,0.44872
1397.13416,0.44890
1395.64437,0.49914
1394.15458,0.57677
1392.66479,0.60158
1391.17501,0.60189
1389.68522,0.60789
1388.19543,0.62524
1386.70564,0.60771
1385.21585,0.59021
1383.72606,0.53121
1382.23628,0.52603
1380.74649,0.52939
1379.25670,0.57241
1377.76691,0.52297
1376.27712,0.61985
1374.78733,0.70449
1373.29755,0.74952
1371.80776,0.88236
1370.31797,0.93501
1368.82818,1.00467
1367.33839,1.07437
1365.84860,1.35456
1364.35881,1.56683
1362.86903,1.74043
1361.37924,1.84423
1359.88945,1.89520
1358.39966,2.00000
1356.90987,1.98402
1355.42008,1.99451
1353.93030,1.97104
1352.44051,1.85134
1350.95072,1.73167
1349.46093,1.65544
1347.97114,1.44334
1346.48135,1.22183
1344.99156,1.07208
1343.50178,1.08281
1342.01199,0.95389
1340.52220,0.88351
1339.03241,0.72161
1337.54262,0.78532
1336.05283,0.73768
1334.56305,0.69008
1333.07326,0.62457
1331.58347,0.58930
1330.09368,0.58049
1328.60389,0.47166
1327.11410,0.50254
1325.62432,0.40038
1324.13453,0.43511
1322.64474,0.46986
1321.15495,0.43575
1319.66516,0.41960
1318.17537,0.40347
1316.68558,0.41287
1315.19580,0.35245
1313.70601,0.33642
1312.21622,0.28834
1310.72643,0.29408
1309.23664,0.26021
1307.74685,0.30848
1306.25707,0.33131
1304.76728,0.29564
1303.27749,0.26001
1301.78770,0.28670
1300.29791,0.30115
1298.80812,0.29298
1297.31834,0.31127
1295.82855,0.34091
1294.33876,0.28470
1292.84897,0.34744
1291.35918,0.27241
1289.86939,0.28000
1288.37960,0.28762
1286.88982,0.34104
1285.40003,0.34636
1283.91024,0.40739
1282.42045,0.41089
1280.93066,0.39931
1279.44087,0.41985
1277.95109,0.44609
1276.46130,0.42517
1274.97151,0.43731
1273.48172,0.44948
1271.99193,0.39751
1270.50214,0.47015
1269.01235,0.49562
1267.52257,0.51075
1266.03278,0.49193
1264.54299,0.53827
1263.05320,0.59029
1261.56341,0.60601
1260.07362,0.62177
1258.58384,0.53892
1257.09405,0.62411
1255.60426,0.61211
1254.11447,0.67376
1252.62468,0.61086
1251.13489,0.54138
1249.64511,0.53800
1248.15532,0.43650
1246.66553,0.43318
1245.17574,0.42989
1243.68595,0.37472
1242.19616,0.40831
1240.70637,0.41832
1239.21659,0.37174
1237.72680,0.30632
1236.23701,0.23998
1234.74722,0.22369
1233.25743,0.26360
1231.76764,0.30353
1230.27786,0.24298
1228.78807,0.27683
1227.29828,0.24560
1225.80849,0.13229
1224.31870,0.15303
1222.82891,0.15209
1221.33912,0.15684
1219.84934,0.14983
1218.35955,0.14285
1216.86976,0.18922
1215.37997,0.24884
1213.89018,0.21316
1212.40039,0.15770
1210.91061,0.13813
1209.42082,0.16956
1207.93103,0.14014
1206.44124,0.11075
1204.95145,0.10452
1203.46166,0.10398
1201.97188,0.11291
1200.48209,0.04637
1198.99230,0.06008
1197.50251,0.03229
1196.01272,0.06871
1194.52293,0.06317
1193.03314,0.05765
1191.54336,0.06396
1190.05357,0.02406
1188.56378,0.06536
1187.07399,0.01608
1185.58420,0.03195
1184.09441,0.03936
1182.60463,0.06898
1181.11484,0.09864
1179.62505,0.08915
1178.13526,0.00797
1176.64547,0.05438
1175.15568,0.09610
1173.66589,0.06896
1172.17611,0.08432
1170.68632,0.08367
1169.19653,0.08304
1167.70674,0.06735
1166.21695,0.05546
1164.72716,0.02661
1163.23738,0.05537
1161.74759,0.04452
1160.25780,0.03936
1158.76801,0.03706
1157.27822,0.03480
1155.78843,0.06371
1154.29865,0.05395
1152.80886,0.06310
1151.31907,0.08739
1149.82928,0.09660
1148.33949,0.12567
1146.84970,0.10049
1145.35991,0.07535
1143.87013,0.07997
1142.38034,0.11859
1140.89055,0.12988
1139.40076,0.17989
1137.91097,0.26580
1136.42118,0.28661
1134.93140,0.31784
1133.44161,0.34910
1131.95182,0.35208
1130.46203,0.42304
1128.97224,0.39399
1127.48245,0.46218
1125.99266,0.40770
1124.50288,0.47596
1123.01309,0.51357
1121.52330,0.55121
1120.03351,0.58085
1118.54372,0.63413
1117.05393,0.60249
1115.56415,0.54257
1114.07436,0.60821
1112.58457,0.64084
1111.09478,0.67350
1109.60499,0.60332
1108.11520,0.64643
1106.62542,0.66975
1105.13563,0.75162
1103.64584,0.83068
1102.15605,0.92110
1100.66626,0.92047
1099.17647,0.91988
1097.68668,0.97547
1096.19690,0.96786
1094.70711,1.01030
1093.21732,1.06787
1091.72753,1.09811
1090.23774,1.11751
1088.74795,1.13696
1087.25817,1.18238
1085.76838,1.25332
1084.27859,1.34411
1082.78880,1.36037
1081.29901,1.35684
1079.80922,1.30238
1078.31943,1.38432
1076.82965,1.46630
1075.33986,1.59503
1073.85007,1.53691
1072.36028,1.55055
1070.87049,1.57555
1069.38070,1.64966
1067.89092,1.66387
1066.40113,1.67811
1064.91134,1.58998
1063.42155,1.48394
1061.93176,1.38266
1060.44197,1.32765
1058.95219,1.25191
1057.46240,1.24746
1055.97261,1.24304
1054.48282,1.09566
1052.99303,1.00966
1051.50324,0.95389
1050.01345,0.88966
1048.52367,0.86227
1047.03388,0.82453
1045.54409,0.78682
1044.05430,0.69817
1042.56451,0.59823
1041.07472,0.58987
1039.58494,0.52302
1038.09515,0.46281
1036.60536,0.44699
1035.11557,0.43121
1033.62578,0.37581
1032.13599,0.32610
1030.64620,0.39818
1029.15642,0.40422
1027.66663,0.41312
1026.17684,0.42206
1024.68705,0.37817
1023.19726,0.53534
1021.70747,0.59911
1020.21769,0.70727
1018.72790,0.87491
1017.23811,0.96095
1015.74832,1.04702
1014.25853,1.28932
1012.76874,1.32590
1011.27896,1.49559
1009.78917,1.62189
1008.29938,1.61892
1006.80959,1.60325
1005.31980,1.58760
1003.83001,1.50167
1002.34022,1.55829
1000.85044,1.41202
999.36065,1.27616
997.87086,1.26539
996.38107,1.25465
994.89128,1.22742
993.40149,1.17851
991.91171,1.18343
990.42192,1.18461
988.93213,1.26510
987.44234,1.25030
985.95255,1.23552
984.46276,1.17831
982.97297,1.16359
981.48319,1.10361
979.99340,1.00874
978.50361,1.00119
977.01382,0.99368
975.52403,0.98384
974.03424,0.88154
972.54446,0.86044
971.05467,0.86484
969.56488,0.82776
968.07509,0.79212
966.58530,0.75651
965.09551,0.70819
963.60573,0.70614
962.11594,0.67015
960.62615,0.66628
959.13636,0.62139
957.64657,0.57652
956.15678,0.52556
954.66699,0.51898
953.17721,0.52942
951.68742,0.52101
950.19763,0.55747
948.70784,0.59396
947.21805,0.50731
945.72826,0.54811
944.23848,0.50305
942.74869,0.59676
941.25890,0.64142
939.76911,0.67054
938.27932,0.69970
936.78953,0.78504
935.29974,0.75998
933.80996,0.71986
932.32017,0.74394
930.83038,0.79401
929.34059,0.84411
927.85080,0.75881
926.36101,0.73016
924.87123,0.71099
923.38144,0.79943
921.89165,0.80297
920.40186,0.80654
918.91207,0.82335
917.42228,0.83736
915.93250,0.85800
914.44271,0.86169
912.95292,0.84465
911.46313,0.82764
909.97334,0.93996
908.48355,0.97397
906.99376,0.99952
905.50398,0.91185
904.01419,0.87234
902.52440,0.83286
901.03461,0.95858
899.54482,1.02864
898.05503,1.01568
896.56525,1.08392
895.07546,1.05309
893.58567,1.02229
892.09588,1.02455
890.60609,1.05044
889.11630,0.93007
887.62651,0.92110
886.13673,0.92679
884.64694,0.93251
883.15715,0.97837
881.66736,0.98085
880.17757,1.03716
878.68778,1.07415
877.19800,1.11117
875.70821,1.05903
874.21842,1.13811
872.72863,1.18230
871.23884,1.24445
869.74905,1.20942
868.25927,1.17443
866.76948,1.27726
865.27969,1.26214
863.78990,1.33200
862.30011,1.22256
860.81032,1.20943
859.32053,1.19632
857.83075,1.20213
856.34096,1.16926
854.85117,1.11284
853.36138,1.04417
851.87159,0.93637
850.38180,0.82860
848.89202,0.79117
847.40223,0.58766
845.91244,0.54463
844.42265,0.54033
842.93286,0.53606
841.44307,0.45820
839.95329,0.45871
838.46350,0.40262
836.97371,0.34656
835.48392,0.34763
833.99413,0.34873
832.50434,0.43906
831.01455,0.41144
829.52477,0.43859
828.03498,0.38177
826.54519,0.35943
825.05540,0.33712
823.56561,0.36062
822.07582,0.30298
820.58604,0.24632
819.09625,0.24631
817.60646,0.24634
816.11667,0.15579
814.62688,0.21817
813.13709,0.11069
811.64730,0.00797
810.15752,0.02322
808.66773,0.03850
807.17794,0.07363
805.68815,0.09463
804.19836,0.07886
802.70857,0.08860
801.21879,0.09837
799.72900,0.18840
798.23921,0.28317
796.74942,0.36193
795.25963,0.39353
793.76984,0.42516
792.28006,0.45966
790.79027,0.57252
789.30048,0.58820
787.81069,0.60202
786.32090,0.63003
784.83111,0.65807
783.34132,0.72673
781.85154,0.66517
780.36175,0.66310
778.87196,0.67947
777.38217,0.69587
775.89238,0.75430
774.40259,0.76179
772.91281,0.81650
771.42302,0.83161
769.93323,0.84675
768.44344,0.85625
766.95365,0.83936
765.46386,0.81778
763.97407,0.81699
762.48429,0.71667
760.99450,0.61637
759.50471,0.57415
758.01492,0.53290
756.52513,0.45771
755.03534,0.40143
753.54556,0.34517
752.05577,0.27007
750.56598,0.17896
749.07619,0.13035
747.58640,0.13745
746.09661,0.14458
744.60683,0.05265
743.11704,0.07022
741.62725,0.03120
740.13746,0.03563
738.64767,0.04008
737.15788,0.09365
735.66809,0.06985
734.17831,0.03665
732.68852,0.02943
731.19873,0.02224
729.70894,0.03726
728.21915,0.04288
726.72936,0.06268
725.23958,0.07213
723.74979,0.06604
722.26000,0.05998
720.77021,0.07897
719.28042,0.03191
717.79063,0.03963
716.30084,0.02378
714.81106,0.00797
713.32127,0.02320
711.83148,0.06205
710.34169,0.06602
708.85190,0.08134
707.36211,0.09669
705.87233,0.04790
704.38254,0.06520
702.89275,0.10141
701.40296,0.08904
699.91317,0.07671
698.42338,0.09224
696.93360,0.15311
695.44381,0.16399
693.95402,0.17915
692.46423,0.19434
690.97444,0.22607
689.48465,0.22764
687.99486,0.28681
686.50508,0.29457
685.01529,0.30236
683.52550,0.31726
682.03571,0.32181
680.54592,0.25466
679.05613,0.27296
677.56635,0.29128
676.07656,0.32710
674.58677,0.23365
673.09698,0.26103
671.60719,0.22758
670.11740,0.19415
668.62761,0.13668
667.13783,0.09246
665.64804,0.11811
664.15825,0.14380
662.66846,0.08174
661.17867,0.07633
659.68888,0.12382
658.19910,0.10054
656.70931,0.07730
655.21952,0.11827
653.72973,0.17814
652.23994,0.11630
650.75015,0.10970
649.26037,0.10313
647.77058,0.09517
646.28079,0.06554
644.79100,0.05764
643.30121,0.03279
641.81142,0.00797
640.32163,0.06323
638.83185,0.04113
637.34206,0.01812
635.85227,0.01685
634.36248,0.01561
632.87269,0.01534
631.38290,0.05097
629.89312,0.04415
628.40333,0.02604
626.91354,0.00797
625.42375,0.06649
623.93396,0.09106
622.44417,0.06753
620.95438,0.04402
619.46460,0.09700
617.97481,0.03204
616.48502,0.03789
614.99523,0.08246
613.50544,0.12707
612.01565,0.10753
610.52587,0.06254
609.03608,0.13744
607.54629,0.15574
606.05650,0.17407
604.56671,0.21131
603.07692,0.10418
601.58714,0.09382
600.09735,0.08350
598.60756,0.12086
597.11777,0.14976
595.62798,0.10979
594.13819,0.08732
592.64840,0.06487
591.15862,0.10050
589.66883,0.09369
588.17904,0.11995
586.68925,0.13585
585.19946,0.15178
583.70967,0.17152
582.21989,0.16864
580.73010,0.13464
579.24031,0.10068
577.75052,0.14980
576.26073,0.06210
574.77094,0.10467
573.28115,0.17748
571.79137,0.25032
570.30158,0.21748
568.81179,0.21393
567.32200,0.22740
565.83221,0.24090
564.34242,0.31673
562.85264,0.37370
561.36285,0.44204
559.87306,0.43112
558.38327,0.42024
556.89348,0.39429
555.40369,0.48917
553.91391,0.53076
552.42412,0.57238
550.93433,0.55882
549.44454,0.59153
547.95475,0.60635
546.46496,0.61647
544.97517,0.62663
543.48539,0.71704
541.99560,0.69800
540.50581,0.69268
539.01602,0.68738
537.52623,0.64673
536.03644,0.64669
534.54666,0.66650
533.05687,0.67501
531.56708,0.68356
530.07729,0.65533
528.58750,0.64695
527.09771,0.63246
525.60792,0.61801
524.11814,0.60689
522.62835,0.65148
521.13856,0.53189
519.64877,0.50765
518.15898,0.48344
516.66919,0.55175
515.17941,0.53704
513.68962,0.49923
512.19983,0.46146
510.71004,0.48459
509.22025,0.46151
507.73046,0.54794
506.24068,0.56786
504.75089,0.58782
503.26110,0.56297
501.77131,0.55986
500.28152,0.54876
498.79173,0.53769
497.30194,0.52712
495.81216,0.64023
494.32237,0.65001
492.83258,0.65983
491.34279,0.62485
489.85300,0.55781
488.36321,0.45116
486.87343,0.47101
485.38364,0.49089
483.89385,0.41642
482.40406,0.31744
480.91427,0.29117
479.42448,0.26493
477.93469,0.17076
476.44491,0.15213
474.95512,0.13495
473.46533,0.11779
471.97554,0.08321
470.48575,0.05810
468.99596,0.06038
467.50618,0.05137
466.01639,0.04240
464.52660,0.00797
463.03681,0.01978
461.54702,0.05758
460.05723,0.09541
458.56745,0.06768
457.07766,0.07773
455.58787,0.10527
454.09808,0.13285
452.60829,0.25530
451.11850,0.26453
449.62871,0.23982
448.13893,0.21513
446.64914,0.27447
445.15935,0.40841
443.66956,0.45082
442.17977,0.47204
440.68998,0.49328
439.20020,0.58864
437.71041,0.68215
436.22062,0.78748
434.73083,0.89284
433.24104,0.99493
431.75125,1.23202
430.26146,1.27943
428.77168,1.32687
427.28189,1.34981
425.79210,1.44922
424.30231,1.37218
422.81252,1.29516
421.32273,1.19741
419.83295,1.12046
418.34316,1.05392
416.85337,0.98740
415.36358,0.92564
413.87379,0.82427
412.38400,0.79702
410.89422,0.76980
409.40443,0.68363
407.91464,0.65411
406.42485,0.61518
404.93506,0.61168
403.44527,0.60821
401.95548,0.57881
400.46570,0.62684
398.97591,0.60553
397.48612,0.58425
395.99633,0.64086
394.50654,0.58142
393.01675,0.53239
391.52697,0.48339
390.03718,0.43442
388.54739,0.46099
387.05760,0.50740
385.56781,0.55385
384.07802,0.53898
382.58824,0.53169
381.09845,0.49376
379.60866,0.45586
378.11887,0.37033
376.62908,0.21593
375.13929,0.22673
373.64950,0.23756
372.15972,0.22577
370.66993,0.26969
369.18014,0.25041
367.69035,0.23116
366.20056,0.16286
364.71077,0.15217
363.22099,0.12122
361.73120,0.09029
360.24141,0.14575
358.75162,0.16538
357.26183,0.13078
355.77204,0.09620
354.28225,0.03853
352.79247,0.06017
351.30268,0.08232
349.81289,0.10449
348.32310,0.03939
346.83331,0.07571
345.34352,0.07146
343.85374,0.06725
342.36395,0.16406
340.87416,0.11650
339.38437,0.13550
337.89458,0.15454
336.40479,0.00797
334.91501,0.05058
333.42522,0.07104
331.93543,0.09153
330.44564,0.11913
328.95585,0.22038
327.46606,0.19236
325.97627,0.16437
324.48649,0.06185
322.99670,0.20360
321.50691,0.17927
320.01712,0.15498
318.52733,0.13826
317.03754,0.23201
315.54776,0.15353
314.05797,0.07509
312.56818,0.09153
311.07839,0.02401
309.58860,0.01597
308.09881,0.00797
306.60902,0.07249
305.11924,0.10496
303.62945,0.06808
302.13966,0.03124
300.64987,0.02195
299.16008,0.00797
