1778.52000,0.01281
1777.03021,0.00286
1775.54042,0.03625
1774.05063,0.00986
1772.56085,0.00000
1771.07106,0.00151
1769.58127,0.03193
1768.09148,0.01495
1766.60169,0.02996
1765.11190,0.01303
1763.62212,0.01367
1762.13233,0.03290
1760.64254,0.01194
1759.15275,0.02298
1757.66296,0.03508
1756.17317,0.03174
1754.68339,0.00369
1753.19360,0.01279
1751.70381,0.01161
1750.21402,0.00324
1748.72423,0.02790
1747.23444,0.00000
1745.74465,0.00384
1744.25487,0.00978
1742.76508,0.02708
1741.27529,0.05164
1739.78550,0.06076
1738.29571,0.05341
1736.80592,0.00897
1735.31614,0.02953
1733.82635,0.02743
1732.33656,0.07073
1730.84677,0.05219
1729.35698,0.02543
1727.86719,0.02139
1726.37740,0.02976
1724.88762,0.00000
1723.39783,0.02239
1721.90804,0.07369
1720.41825,0.06211
1718.92846,0.03098
1717.43867,0.05761
1715.94889,0.06469
1714.45910,0.05633
1712.96931,0.07894
1711.47952,0.04796
1709.98973,0.03350
1708.49994,0.04898
1707.01016,0.05882
1705.52037,0.06869
1704.03058,0.05436
1702.54079,0.06481
1701.05100,0.10931
1699.56121,0.10642
1698.07142,0.09530
1696.58164,0.08628
1695.09185,0.13091
1693.60206,0.11370
1692.11227,0.12333
1690.62248,0.16289
1689.13269,0.13133
1687.64291,0.16890
1686.15312,0.16215
1684.66333,0.16678
1683.17354,0.17866
1681.68375,0.13591
1680.19396,0.12001
1678.70417,0.14126
1677.21439,0.14913
1675.72460,0.13023
1674.23481,0.18559
1672.74502,0.15953
1671.25523,0.08813
1669.76544,0.15287
1668.27566,0.16608
1666.78587,0.10818
1665.29608,0.13176
1663.80629,0.11723
1662.31650,0.13778
1660.82671,0.15940
1659.33693,0.12124
1657.84714,0.11817
1656.35735,0.10997
1654.86756,0.10696
1653.37777,0.10192
1651.88798,0.07835
1650.39819,0.11977
1648.90841,0.08492
1647.41862,0.08104
1645.92883,0.09883
1644.43904,0.11666
1642.94925,0.11802
1641.45946,0.12354
1639.96968,0.09712
1638.47989,0.05939
1636.99010,0.07531
1635.50031,0.09744
1634.01052,0.09899
1632.52073,0.07478
1631.03094,0.05164
1629.54116,0.13577
1628.05137,0.17971
1626.56158,0.09995
1625.07179,0.11096
1623.58200,0.14159
1622.09221,0.16297
1620.60243,0.16376
1619.11264,0.14293
1617.62285,0.13656
1616.13306,0.09516
1614.64327,0.10741
1613.15348,0.12176
1611.66370,0.11139
1610.17391,0.11446
1608.68412,0.12580
1607.19433,0.15677
1605.70454,0.11353
1604.21475,0.09248
1602.72496,0.07147
1601.23518,0.09843
1599.74539,0.09450
1598.25560,0.14111
1596.76581,0.15064
1595.27602,0.09524
1593.78623,0.08627
1592.29645,0.05464
1590.80666,0.07976
1589.31687,0.05438
1587.82708,0.07028
1586.33729,0.06662
1584.84750,0.04855
1583.35771,0.06660
1581.86793,0.07953
1580.37814,0.07702
1578.88835,0.05598
1577.39856,0.06488
1575.90877,0.03668
1574.41898,0.03430
1572.92920,0.03710
1571.43941,0.05540
1569.94962,0.06032
1568.45983,0.06527
1566.97004,0.06923
1565.48025,0.00000
1563.99047,0.03951
1562.50068,0.02028
1561.01089,0.02995
1559.52110,0.02934
1558.03131,0.08031
1556.54152,0.06326
1555.05173,0.07099
1553.56195,0.07463
1552.07216,0.09479
1550.58237,0.04384
1549.09258,0.03210
1547.60279,0.06885
1546.11300,0.08399
1544.62322,0.10533
1543.13343,0.06175
1541.64364,0.03676
1540.15385,0.03809
1538.66406,0.03946
1537.17427,0.06715
1535.68448,0.00000
1534.19470,0.05215
1532.70491,0.01050
1531.21512,0.08540
1529.72533,0.01288
1528.23554,0.03422
1526.74575,0.04941
1525.25597,0.04710
1523.76618,0.02935
1522.27639,0.03019
1520.78660,0.00735
1519.29681,0.00000
1517.80702,0.06335
1516.31724,0.04424
1514.82745,0.03960
1513.33766,0.03137
1511.84787,0.02318
1510.35808,0.01657
1508.86829,0.02442
1507.37850,0.07355
1505.88872,0.00000
1504.39893,0.06098
1502.90914,0.04568
1501.41935,0.02217
1499.92956,0.05539
1498.43977,0.08350
1496.94999,0.11576
1495.46020,0.13979
1493.97041,0.17211
1492.48062,0.26015
1490.99083,0.28531
1489.50104,0.29916
1488.01125,0.38264
1486.52147,0.46616
1485.03168,0.51001
1483.54189,0.58069
1482.05210,0.62047
1480.56231,0.73247
1479.07252,0.92080
1477.58274,1.02460
1476.09295,1.13566
1474.60316,1.15806
1473.11337,1.25990
1471.62358,1.23596
1470.13379,1.28630
1468.64401,1.18716
1467.15422,1.06226
1465.66443,1.05237
1464.17464,1.04251
1462.68485,1.01361
1461.19506,0.94761
1459.70527,0.90330
1458.21549,0.76106
1456.72570,0.70753
1455.23591,0.73549
1453.74612,0.64902
1452.25633,0.53371
1450.76654,0.55455
1449.27676,0.55788
1447.78697,0.55816
1446.29718,0.42235
1444.80739,0.41134
1443.31760,0.40036
1441.82781,0.30795
1440.33802,0.26198
1438.84824,0.19644
1437.35845,0.18971
1435.86866,0.28612
1434.37887,0.21037
1432.88908,0.24497
1431.39929,0.22599
1429.90951,0.21013
1428.41972,0.21390
1426.92993,0.24760
1425.44014,0.32051
1423.95035,0.35117
1422.46056,0.38187
1420.97078,0.32495
1419.48099,0.29796
1417.99120,0.28648
1416.50141,0.29152
1415.01162,0.33474
1413.52183,0.32540
1412.03204,0.33157
1410.54226,0.36973
1409.05247,0.39451
1407.56268,0.33684
1406.07289,0.36478
1404.58310,0.36748
1403.09331,0.37022
1401.60353,0.42610
1400.11374,0.50571
1398.62395,0.47400
1397.13416,0.47944
1395.64437,0.50656
1394.15458,0.55847
1392.66479,0.64236
1391.17501,0.65308
1389.68522,0.64114
1388.19543,0.62098
1386.70564,0.60705
1385.21585,0.59314
1383.72606,0.59576
1382.23628,0.58810
1380.74649,0.60212
1379.25670,0.64814
1377.76691,0.63439
1376.27712,0.64438
1374.78733,0.74308
1373.29755,0.73561
1371.80776,0.92923
1370.31797,1.02596
1368.82818,1.11912
1367.33839,1.21230
1365.84860,1.35449
1364.35881,1.54621
1362.86903,1.75033
1361.37924,1.78435
1359.88945,1.96481
1358.39966,1.93599
1356.90987,2.00000
1355.42008,1.90112
1353.93030,1.83939
1352.44051,1.79161
1350.95072,1.74387
1349.46093,1.64408
1347.97114,1.47317
1346.48135,1.31982
1344.99156,1.17888
1343.50178,1.01528
1342.01199,0.90224
1340.52220,0.79439
1339.03241,0.74224
1337.54262,0.68395
1336.05283,0.67517
1334.56305,0.66643
1333.07326,0.58348
1331.58347,0.56345
1330.09368,0.47437
1328.60389,0.43688
1327.11410,0.48707
1325.62432,0.43417
1324.13453,0.38749
1322.64474,0.45942
1321.15495,0.46436
1319.66516,0.43685
1318.17537,0.40937
1316.68558,0.35871
1315.19580,0.38027
1313.70601,0.32556
1312.21622,0.31521
1310.72643,0.28634
1309.23664,0.28946
1307.74685,0.23590
1306.25707,0.27723
1304.76728,0.30519
1303.27749,0.33319
1301.78770,0.30346
1300.29791,0.27274
1298.80812,0.27401
1297.31834,0.30110
1295.82855,0.36017
1294.33876,0.32751
1292.84897,0.31860
1291.35918,0.30146
1289.86939,0.32457
1288.37960,0.34771
1286.88982,0.38120
1285.40003,0.34666
1283.91024,0.46682
1282.42045,0.43131
1280.93066,0.43810
1279.44087,0.41400
1277.95109,0.40126
1276.46130,0.39165
1274.97151,0.39393
1273.48172,0.39624
1271.99193,0.46715
1270.50214,0.48138
1269.01235,0.46677
1267.52257,0.49962
1266.03278,0.45723
1264.54299,0.59738
1263.05320,0.62001
1261.56341,0.61483
1260.07362,0.60968
1258.58384,0.56847
1257.09405,0.60669
1255.60426,0.58823
1254.11447,0.64817
1252.62468,0.66277
1251.13489,0.57943
1249.64511,0.52294
1248.15532,0.45720
1246.66553,0.44408
1245.17574,0.43099
1243.68595,0.40865
1242.19616,0.34406
1240.70637,0.40633
1239.21659,0.35315
1237.72680,0.30722
1236.23701,0.25409
1234.74722,0.26700
1233.25743,0.24074
1231.76764,0.21452
1230.27786,0.21721
1228.78807,0.23229
1227.29828,0.25463
1225.80849,0.15429
1224.31870,0.13544
1222.82891,0.13002
1221.33912,0.10608
1219.84934,0.13115
1218.35955,0.15624
1216.86976,0.21179
1215.37997,0.23128
1213.89018,0.22811
1212.40039,0.21466
1210.91061,0.14453
1209.42082,0.13320
1207.93103,0.13274
1206.44124,0.13230
1204.95145,0.09735
1203.46166,0.08409
1201.97188,0.11519
1200.48209,0.11642
1198.99230,0.07025
1197.50251,0.07980
1196.01272,0.02338
1194.52293,0.04690
1193.03314,0.07046
1191.54336,0.07393
1190.05357,0.05063
1188.56378,0.03149
1187.07399,0.00000
1185.58420,0.01892
1184.09441,0.00591
1182.60463,0.02953
1181.11484,0.05319
1179.62505,0.07842
1178.13526,0.01706
1176.64547,0.06917
1175.15568,0.04809
1173.66589,0.05591
1172.17611,0.05655
1170.68632,0.07011
1169.19653,0.08370
1167.70674,0.03699
1166.21695,0.03156
1164.72716,0.01586
1163.23738,0.05792
1161.74759,0.00000
1160.25780,0.02239
1158.76801,0.03193
1157.27822,0.04149
1155.78843,0.09697
1154.29865,0.04112
1152.80886,0.05129
1151.31907,0.08624
1149.82928,0.10781
1148.33949,0.11189
1146.84970,0.09640
1145.35991,0.08095
1143.87013,0.09027
1142.38034,0.09859
1140.89055,0.19460
1139.40076,0.17720
1137.91097,0.22583
1136.42118,0.23634
1134.93140,0.23657
1133.44161,0.23682
1131.95182,0.32785
1130.46203,0.39932
1128.97224,0.42442
1127.48245,0.44027
1125.99266,0.42933
1124.50288,0.50608
1123.01309,0.54161
1121.52330,0.57717
1120.03351,0.57564
1118.54372,0.52775
1117.05393,0.53453
1115.56415,0.61352
1114.07436,0.56262
1112.58457,0.56434
1111.09478,0.56608
1109.60499,0.61736
1108.11520,0.61711
1106.62542,0.70350
1105.13563,0.72187
1103.64584,0.82276
1102.15605,0.82263
1100.66626,0.85192
1099.17647,0.88124
1097.68668,0.85851
1096.19690,0.89563
1094.70711,0.87915
1093.21732,0.99882
1091.72753,1.07211
1090.23774,1.07274
1088.74795,1.07341
1087.25817,1.13133
1085.76838,1.18618
1084.27859,1.20704
1082.78880,1.24134
1081.29901,1.25092
1079.80922,1.19453
1078.31943,1.27687
1076.82965,1.35924
1075.33986,1.44731
1073.85007,1.44054
1072.36028,1.51630
1070.87049,1.51784
1069.38070,1.61222
1067.89092,1.61640
1066.40113,1.62061
1064.91134,1.52742
1063.42155,1.41363
1061.93176,1.23181
1060.44197,1.20573
1058.95219,1.14462
1057.46240,1.15726
1055.97261,1.16994
1054.48282,1.11820
1052.99303,0.99535
1051.50324,0.89211
1050.01345,0.76004
1048.52367,0.79504
1047.03388,0.75479
1045.54409,0.71458
1044.05430,0.62491
1042.56451,0.59713
1041.07472,0.50442
1039.58494,0.40659
1038.09515,0.35828
1036.60536,0.36465
1035.11557,0.37106
1033.62578,0.33831
1032.13599,0.26228
1030.64620,0.30487
1029.15642,0.35264
1027.66663,0.33393
1026.17684,0.31526
1024.68705,0.43221
1023.19726,0.42545
1021.70747,0.60021
1020.21769,0.59042
1018.72790,0.70028
1017.23811,0.82305
1015.74832,0.94586
1014.25853,1.11458
1012.76874,1.19775
1011.27896,1.39437
1009.78917,1.42708
1008.29938,1.54127
1006.80959,1.48381
1005.31980,1.42638
1003.83001,1.40146
1002.34022,1.30233
1000.85044,1.27747
999.36065,1.12685
997.87086,1.10050
996.38107,1.07419
994.89128,1.04636
993.40149,1.15159
991.91171,1.13310
990.42192,1.15692
988.93213,1.07250
987.44234,1.05514
985.95255,1.03780
984.46276,0.98338
982.97297,0.98364
981.48319,0.99527
979.99340,0.88938
978.50361,0.92479
977.01382,0.96023
975.52403,0.87712
974.03424,0.78785
972.54446,0.74295
971.05467,0.78470
969.56488,0.67284
968.07509,0.65433
966.58530,0.63585
965.09551,0.62616
963.60573,0.54226
962.11594,0.55120
960.62615,0.46427
959.13636,0.41398
957.64657,0.36371
956.15678,0.39443
954.66699,0.39836
953.17721,0.45079
951.68742,0.47850
950.19763,0.47479
948.70784,0.47111
947.21805,0.41745
945.72826,0.49272
944.23848,0.42572
942.74869,0.48248
941.25890,0.50010
939.76911,0.54662
938.27932,0.59316
936.78953,0.70986
935.29974,0.71006
933.80996,0.66596
932.32017,0.66932
930.83038,0.71912
929.34059,0.76894
927.85080,0.70228
926.36101,0.71711
924.87123,0.62266
923.38144,0.63755
921.89165,0.65865
920.40186,0.67979
918.91207,0.68962
917.42228,0.75412
915.93250,0.68873
914.44271,0.76980
912.95292,0.76428
911.46313,0.75879
909.97334,0.79045
908.48355,0.85514
906.99376,0.80231
905.50398,0.76394
904.01419,0.74984
902.52440,0.73577
901.03461,0.68100
899.54482,0.78712
898.05503,0.74994
896.56525,0.87056
895.07546,0.86437
893.58567,0.85822
892.09588,0.81807
890.60609,0.84291
889.11630,0.78838
887.62651,0.72049
886.13673,0.77171
884.64694,0.82297
883.15715,0.82425
881.66736,0.83897
880.17757,0.86093
878.68778,0.90819
877.19800,0.95547
875.70821,1.00331
874.21842,0.98518
872.72863,1.09185
871.23884,1.05522
869.74905,1.07224
868.25927,1.08929
866.76948,1.13731
865.27969,1.15030
863.78990,1.21178
862.30011,1.19699
860.81032,1.16161
859.32053,1.12626
857.83075,1.20539
856.34096,1.15154
854.85117,1.14515
853.36138,1.05424
851.87159,0.98398
850.38180,0.91376
848.89202,0.71054
847.40223,0.58263
845.91244,0.54962
844.42265,0.56458
842.93286,0.57958
841.44307,0.43632
839.95329,0.45499
838.46350,0.37985
836.97371,0.34599
835.48392,0.39207
833.99413,0.43818
832.50434,0.33430
831.01455,0.43255
829.52477,0.46071
828.03498,0.38372
826.54519,0.34853
825.05540,0.31336
823.56561,0.37258
822.07582,0.28850
820.58604,0.18382
819.09625,0.17405
817.60646,0.16430
816.11667,0.12984
814.62688,0.17789
813.13709,0.13215
811.64730,0.03075
810.15752,0.05364
808.66773,0.07656
807.17794,0.00000
805.68815,0.02484
804.19836,0.07962
802.70857,0.09422
801.21879,0.10884
799.72900,0.10597
798.23921,0.19386
796.74942,0.30963
795.25963,0.36356
793.76984,0.41752
792.28006,0.43749
790.79027,0.44614
789.30048,0.53731
787.81069,0.50684
786.32090,0.53466
784.83111,0.56251
783.34132,0.57647
781.85154,0.57706
780.36175,0.65295
778.87196,0.65463
777.38217,0.65634
775.89238,0.68901
774.40259,0.66810
772.91281,0.76477
771.42302,0.76196
769.93323,0.75918
768.44344,0.77448
766.95365,0.78156
765.46386,0.82476
763.97407,0.65970
762.48429,0.63439
760.99450,0.60911
759.50471,0.55138
758.01492,0.54009
756.52513,0.39993
755.03534,0.35054
753.54556,0.30118
752.05577,0.15493
750.56598,0.15925
749.07619,0.16154
747.58640,0.14015
746.09661,0.11878
744.60683,0.06652
743.11704,0.04315
741.62725,0.06519
740.13746,0.05220
738.64767,0.03924
737.15788,0.08611
735.66809,0.00000
734.17831,0.08373
732.68852,0.10716
731.19873,0.13062
729.70894,0.09586
728.21915,0.11784
726.72936,0.04498
725.23958,0.00000
723.74979,0.01634
722.26000,0.03270
720.77021,0.06354
719.28042,0.03769
717.79063,0.01909
716.30084,0.01341
714.81106,0.00776
713.32127,0.00471
711.83148,0.02439
710.34169,0.01935
708.85190,0.03341
707.36211,0.04750
705.87233,0.04977
704.38254,0.02526
702.89275,0.02346
701.40296,0.03304
699.91317,0.04265
698.42338,0.08219
696.93360,0.15167
695.44381,0.19230
693.95402,0.17728
692.46423,0.16230
690.97444,0.16178
689.48465,0.25925
687.99486,0.31447
686.50508,0.31662
685.01529,0.31880
683.52550,0.36999
682.03571,0.26860
680.54592,0.28480
679.05613,0.27524
677.56635,0.26572
676.07656,0.28613
674.58677,0.22098
673.09698,0.21155
671.60719,0.19081
670.11740,0.17009
668.62761,0.12879
667.13783,0.09267
665.64804,0.09834
664.15825,0.10404
662.66846,0.06492
661.17867,0.09595
659.68888,0.11051
658.19910,0.14314
656.70931,0.17581
655.21952,0.14509
653.72973,0.11646
652.23994,0.16108
650.75015,0.12272
649.26037,0.08439
647.77058,0.10641
646.28079,0.06350
644.79100,0.00000
643.30121,0.02838
641.81142,0.05679
640.32163,0.11461
638.83185,0.04873
637.34206,0.03547
635.85227,0.03462
634.36248,0.03379
632.87269,0.00000
631.38290,0.04287
629.89312,0.07546
628.40333,0.05033
626.91354,0.02524
625.42375,0.01667
623.93396,0.07929
622.44417,0.06408
620.95438,0.04891
619.46460,0.09305
617.97481,0.09701
616.48502,0.11338
614.99523,0.08441
613.50544,0.05546
612.01565,0.05233
610.52587,0.06366
609.03608,0.10183
607.54629,0.11529
606.05650,0.12878
604.56671,0.11445
603.07692,0.13728
601.58714,0.13591
600.09735,0.13457
598.60756,0.11830
597.11777,0.06495
595.62798,0.08381
594.13819,0.11455
592.64840,0.14533
591.15862,0.12613
589.66883,0.12036
588.17904,0.09812
586.68925,0.07953
585.19946,0.06096
583.70967,0.13575
582.21989,0.16519
580.73010,0.19209
579.24031,0.21902
577.75052,0.12688
576.26073,0.11417
574.77094,0.08293
573.28115,0.13008
571.79137,0.17727
570.30158,0.21521
568.81179,0.24596
567.32200,0.25354
565.83221,0.26115
564.34242,0.22600
562.85264,0.29090
561.36285,0.48473
559.87306,0.48834
558.38327,0.49198
556.89348,0.46626
555.40369,0.48595
553.91391,0.51803
552.42412,0.55015
550.93433,0.51734
549.44454,0.54952
547.95475,0.60648
546.46496,0.57582
544.97517,0.54519
543.48539,0.64761
541.99560,0.65005
540.50581,0.65972
539.01602,0.66943
537.52623,0.64721
536.03644,0.59408
534.54666,0.56057
533.05687,0.60701
531.56708,0.65348
530.07729,0.57676
528.58750,0.60008
527.09771,0.61107
525.60792,0.62209
524.11814,0.58158
522.62835,0.57719
521.13856,0.45940
519.64877,0.44786
518.15898,0.43634
516.66919,0.52385
515.17941,0.50105
513.68962,0.53654
512.19983,0.57207
510.71004,0.44728
509.22025,0.40089
507.73046,0.46589
506.24068,0.52731
504.75089,0.58877
503.26110,0.63427
501.77131,0.57876
500.28152,0.57483
498.79173,0.57093
497.30194,0.50828
495.81216,0.58281
494.32237,0.60994
492.83258,0.63710
491.34279,0.61376
489.85300,0.55848
488.36321,0.50737
486.87343,0.49237
485.38364,0.47740
483.89385,0.44288
482.40406,0.38569
480.91427,0.33318
479.42448,0.28070
477.93469,0.20196
476.44491,0.19336
474.95512,0.19769
473.46533,0.20204
471.97554,0.13992
470.48575,0.14072
468.99596,0.13228
467.50618,0.06613
466.01639,0.00000
464.52660,0.10798
463.03681,0.08092
461.54702,0.05027
460.05723,0.01966
458.56745,0.04631
457.07766,0.02968
455.58787,0.04916
454.09808,0.06868
452.60829,0.16557
451.11850,0.23361
449.62871,0.22384
448.13893,0.21409
446.64914,0.32347
445.15935,0.37618
443.66956,0.41344
442.17977,0.46775
440.68998,0.52209
439.20020,0.55635
437.71041,0.57517
436.22062,0.61517
434.73083,0.65519
433.24104,0.86900
431.75125,1.03334
430.26146,1.09768
428.77168,1.16206
427.28189,1.25741
425.79210,1.24245
424.30231,1.27135
422.81252,1.30028
421.32273,1.26376
419.83295,1.09838
418.34316,1.03201
416.85337,0.96568
415.36358,0.82411
413.87379,0.76300
412.38400,0.70861
410.89422,0.65426
409.40443,0.61490
407.91464,0.62299
406.42485,0.56616
404.93506,0.50832
403.44527,0.45051
401.95548,0.52060
400.46570,0.54947
398.97591,0.52475
397.48612,0.50007
395.99633,0.45479
394.50654,0.51059
393.01675,0.50817
391.52697,0.50577
390.03718,0.43484
388.54739,0.41137
387.05760,0.39978
385.56781,0.38823
384.07802,0.42672
382.58824,0.37140
381.09845,0.35273
379.60866,0.33408
378.11887,0.39950
376.62908,0.21851
375.13929,0.21490
373.64950,0.21133
372.15972,0.17273
370.66993,0.22902
369.18014,0.18429
367.69035,0.13959
366.20056,0.12277
364.71077,0.16578
363.22099,0.15263
361.73120,0.13950
360.24141,0.19085
358.75162,0.03910
357.26183,0.08963
355.77204,0.14019
354.28225,0.08148
352.79247,0.03723
351.30268,0.06262
349.81289,0.08803
348.32310,0.05007
346.83331,0.05047
345.34352,0.10607
343.85374,0.16169
342.36395,0.17971
340.87416,0.18230
339.38437,0.13697
337.89458,0.09166
336.40479,0.13043
334.91501,0.09086
333.42522,0.04720
331.93543,0.00357
330.44564,0.04609
328.95585,0.12268
327.46606,0.09721
325.97627,0.07178
324.48649,0.07119
322.99670,0.08301
321.50691,0.10310
320.01712,0.12323
318.52733,0.16917
317.03754,0.16873
315.54776,0.11728
314.05797,0.06587
312.56818,0.02016
311.07839,0.07596
309.58860,0.03797
308.09881,0.00000
306.60902,0.05646
305.11924,0.10780
303.62945,0.08698
302.13966,0.06620
300.64987,0.01039
299.16008,0.00000
