1778.52000,0.02904
1777.03021,0.02854
1775.54042,0.00142
1774.05063,0.02767
1772.56085,0.08442
1771.07106,0.09169
1769.58127,0.06980
1768.09148,0.04922
1766.60169,0.08708
1765.11190,0.06785
1763.62212,0.06770
1762.13233,0.08410
1760.64254,0.07640
1759.15275,0.06875
1757.66296,0.02686
1756.17317,0.09419
1754.68339,0.02064
1753.19360,0.04742
1751.70381,0.01965
1750.21402,0.05539
1748.72423,0.04547
1747.23444,0.01782
1745.74465,0.09179
1744.25487,0.11882
1742.76508,0.06464
1741.27529,0.09049
1739.78550,0.05670
1738.29571,0.03564
1736.80592,0.02478
1735.31614,0.02158
1733.82635,0.05047
1732.33656,0.03242
1730.84677,0.03092
1729.35698,0.06754
1727.86719,0.05341
1726.37740,0.04187
1724.88762,0.02909
1723.39783,0.01128
1721.90804,0.03865
1720.41825,0.05844
1718.92846,0.03129
1717.43867,0.02323
1715.94889,0.03298
1714.45910,0.06689
1712.96931,0.06148
1711.47952,0.10817
1709.98973,0.08253
1708.49994,0.09628
1707.01016,0.10816
1705.52037,0.12009
1704.03058,0.13904
1702.54079,0.16564
1701.05100,0.15419
1699.56121,0.17199
1698.07142,0.12761
1696.58164,0.20642
1695.09185,0.19132
1693.60206,0.17498
1692.11227,0.23487
1690.62248,0.21607
1689.13269,0.22144
1687.64291,0.31191
1686.15312,0.22721
1684.66333,0.19080
1683.17354,0.29281
1681.68375,0.19553
1680.19396,0.24430
1678.70417,0.27406
1677.21439,0.28989
1675.72460,0.28672
1674.23481,0.28105
1672.74502,0.23224
1671.25523,0.24442
1669.76544,0.28584
1668.27566,0.31968
1666.78587,0.24564
1665.29608,0.19957
1663.80629,0.25638
1662.31650,0.29672
1660.82671,0.22919
1659.33693,0.24421
1657.84714,0.26436
1656.35735,0.16774
1654.86756,0.18669
1653.37777,0.16886
1651.88798,0.14853
1650.39819,0.17902
1648.90841,0.22225
1647.41862,0.16776
1645.92883,0.18821
1644.43904,0.20871
1642.94925,0.19242
1641.45946,0.24980
1639.96968,0.16376
1638.47989,0.21869
1636.99010,0.18732
1635.50031,0.16742
1634.01052,0.16152
1632.52073,0.17089
1631.03094,0.14475
1629.54116,0.15294
1628.05137,0.18528
1626.56158,0.23797
1625.07179,0.23865
1623.58200,0.30539
1622.09221,0.29726
1620.60243,0.28282
1619.11264,0.16558
1617.62285,0.24390
1616.13306,0.14071
1614.64327,0.17721
1613.15348,0.21374
1611.66370,0.24524
1610.17391,0.19806
1608.68412,0.17504
1607.19433,0.20412
1605.70454,0.12024
1604.21475,0.12654
1602.72496,0.13287
1601.23518,0.17226
1599.74539,0.18756
1598.25560,0.19655
1596.76581,0.19035
1595.27602,0.18419
1593.78623,0.13743
1592.29645,0.12499
1590.80666,0.11641
1589.31687,0.10278
1587.82708,0.05491
1586.33729,0.10611
1584.84750,0.10910
1583.35771,0.10959
1581.86793,0.08346
1580.37814,0.10307
1578.88835,0.10368
1577.39856,0.07259
1575.90877,0.04534
1574.41898,0.09431
1572.92920,0.06206
1571.43941,0.03112
1569.94962,0.04275
1568.45983,0.05442
1566.97004,0.05026
1565.48025,0.05375
1563.99047,0.00142
1562.50068,0.06306
1561.01089,0.10189
1559.52110,0.05442
1558.03131,0.08824
1556.54152,0.09671
1555.05173,0.09252
1553.56195,0.09091
1552.07216,0.06014
1550.58237,0.06114
1549.09258,0.05330
1547.60279,0.03280
1546.11300,0.10756
1544.62322,0.14427
1543.13343,0.03629
1541.64364,0.08069
1540.15385,0.06800
1538.66406,0.05535
1537.17427,0.05543
1535.68448,0.02636
1534.19470,0.08873
1532.70491,0.01656
1531.21512,0.02569
1529.72533,0.01200
1528.23554,0.04406
1526.74575,0.05203
1525.25597,0.00037
1523.76618,0.05031
1522.27639,0.00000
1520.78660,0.04703
1519.29681,0.00142
1517.80702,0.06502
1516.31724,0.07660
1514.82745,0.07044
1513.33766,0.05163
1511.84787,0.03286
1510.35808,0.00142
1508.86829,0.00449
1507.37850,0.02156
1505.88872,0.01582
1504.39893,0.05201
1502.90914,0.06793
1501.41935,0.04579
1499.92956,0.03766
1498.43977,0.17558
1496.94999,0.15356
1495.46020,0.27378
1493.97041,0.33310
1492.48062,0.38483
1490.99083,0.42899
1489.50104,0.47191
1488.01125,0.53138
1486.52147,0.59089
1485.03168,0.75455
1483.54189,0.84460
1482.05210,0.91819
1480.56231,1.17337
1479.07252,1.39305
1477.58274,1.52515
1476.09295,1.59255
1474.60316,1.61047
1473.11337,1.69953
1471.62358,1.81655
1470.13379,1.75080
1468.64401,1.61525
1467.15422,1.51148
1465.66443,1.50297
1464.17464,1.49450
1462.68485,1.35657
1461.19506,1.37610
1459.70527,1.32585
1458.21549,1.24644
1456.72570,1.10231
1455.23591,1.07757
1453.74612,0.99954
1452.25633,0.92662
1450.76654,0.79916
1449.27676,0.86725
1447.78697,0.75129
1446.29718,0.59220
1444.80739,0.57470
1443.31760,0.55725
1441.82781,0.46303
1440.33802,0.40820
1438.84824,0.35976
1437.35845,0.36087
1435.86866,0.37598
1434.37887,0.40383
1432.88908,0.43172
1431.39929,0.32888
1429.90951,0.30987
1428.41972,0.35184
1426.92993,0.37100
1425.44014,0.46129
1423.95035,0.46402
1422.46056,0.46679
1420.97078,0.45309
1419.48099,0.41149
1417.99120,0.40930
1416.50141,0.42619
1415.01162,0.41899
1413.52183,0.41564
1412.03204,0.47708
1410.54226,0.49666
1409.05247,0.50612
1407.56268,0.48007
1406.07289,0.46676
1404.58310,0.45095
1403.09331,0.43517
1401.60353,0.39532
1400.11374,0.39993
1398.62395,0.53155
1397.13416,0.57052
1395.64437,0.56890
1394.15458,0.63334
1392.66479,0.67497
1391.17501,0.66205
1389.68522,0.68598
1388.19543,0.61980
1386.70564,0.58414
1385.21585,0.54851
1383.72606,0.54086
1382.23628,0.54848
1380.74649,0.50281
1379.25670,0.55494
1377.76691,0.53094
1376.27712,0.58188
1374.78733,0.70014
1373.29755,0.78671
1371.80776,0.89744
1370.31797,0.93330
1368.82818,0.98760
1367.33839,1.04195
1365.84860,1.26583
1364.35881,1.37040
1362.86903,1.54484
1361.37924,1.59616
1359.88945,1.71482
1358.39966,1.74464
1356.90987,1.88622
1355.42008,1.86914
1353.93030,1.86607
1352.44051,1.81669
1350.95072,1.76735
1349.46093,1.71107
1347.97114,1.48470
1346.48135,1.24821
1344.99156,1.09302
1343.50178,1.00261
1342.01199,0.94906
1340.52220,0.86127
1339.03241,0.86112
1337.54262,0.89910
1336.05283,0.85079
1334.56305,0.80251
1333.07326,0.75046
1331.58347,0.66290
1330.09368,0.63886
1328.60389,0.60598
1327.11410,0.54012
1325.62432,0.52381
1324.13453,0.53040
1322.64474,0.53702
1321.15495,0.62240
1319.66516,0.54785
1318.17537,0.47333
1316.68558,0.51693
1315.19580,0.53898
1313.70601,0.46839
1312.21622,0.45878
1310.72643,0.36288
1309.23664,0.42825
1307.74685,0.47335
1306.25707,0.41311
1304.76728,0.43035
1303.27749,0.44764
1301.78770,0.43195
1300.29791,0.41122
1298.80812,0.43751
1297.31834,0.45241
1295.82855,0.51432
1294.33876,0.39472
1292.84897,0.49352
1291.35918,0.47303
1289.86939,0.43924
1288.37960,0.40549
1286.88982,0.51842
1285.40003,0.58695
1283.91024,0.57553
1282.42045,0.54257
1280.93066,0.56044
1279.44087,0.56437
1277.95109,0.61532
1276.46130,0.61426
1274.97151,0.61831
1273.48172,0.62240
1271.99193,0.63922
1270.50214,0.61165
1269.01235,0.71488
1267.52257,0.71278
1266.03278,0.75388
1264.54299,0.73789
1263.05320,0.81970
1261.56341,0.79743
1260.07362,0.77521
1258.58384,0.84698
1257.09405,0.90735
1255.60426,0.85858
1254.11447,0.93427
1252.62468,0.93509
1251.13489,0.86232
1249.64511,0.79593
1248.15532,0.63182
1246.66553,0.62454
1245.17574,0.61730
1243.68595,0.60566
1242.19616,0.58009
1240.70637,0.52282
1239.21659,0.48336
1237.72680,0.47822
1236.23701,0.37155
1234.74722,0.39442
1233.25743,0.41288
1231.76764,0.43139
1230.27786,0.35280
1228.78807,0.38090
1227.29828,0.35318
1225.80849,0.28233
1224.31870,0.21406
1222.82891,0.24866
1221.33912,0.25791
1219.84934,0.25958
1218.35955,0.26129
1216.86976,0.34811
1215.37997,0.36005
1213.89018,0.31998
1212.40039,0.27106
1210.91061,0.21837
1209.42082,0.24190
1207.93103,0.20833
1206.44124,0.17480
1204.95145,0.18701
1203.46166,0.10532
1201.97188,0.17220
1200.48209,0.16168
1198.99230,0.15246
1197.50251,0.13440
1196.01272,0.09225
1194.52293,0.10220
1193.03314,0.11218
1191.54336,0.10697
1190.05357,0.08402
1188.56378,0.09793
1187.07399,0.00142
1185.58420,0.03487
1184.09441,0.05184
1182.60463,0.10187
1181.11484,0.15193
1179.62505,0.09793
1178.13526,0.07697
1176.64547,0.05732
1175.15568,0.11515
1173.66589,0.14002
1172.17611,0.12937
1170.68632,0.08068
1169.19653,0.03202
1167.70674,0.06339
1166.21695,0.02242
1164.72716,0.04752
1163.23738,0.00537
1161.74759,0.03943
1160.25780,0.09765
1158.76801,0.07783
1157.27822,0.05804
1155.78843,0.05925
1154.29865,0.01352
1152.80886,0.06812
1151.31907,0.06818
1149.82928,0.10255
1148.33949,0.08744
1146.84970,0.12189
1145.35991,0.15637
1143.87013,0.11726
1142.38034,0.18356
1140.89055,0.20927
1139.40076,0.22487
1137.91097,0.26844
1136.42118,0.32474
1134.93140,0.37346
1133.44161,0.42222
1131.95182,0.47102
1130.46203,0.47796
1128.97224,0.46081
1127.48245,0.58336
1125.99266,0.58661
1124.50288,0.59370
1123.01309,0.62052
1121.52330,0.64737
1120.03351,0.72441
1118.54372,0.77355
1117.05393,0.74275
1115.56415,0.73611
1114.07436,0.71174
1112.58457,0.71025
1111.09478,0.70881
1109.60499,0.81659
1108.11520,0.76063
1106.62542,0.79612
1105.13563,0.90147
1103.64584,1.03353
1102.15605,1.24434
1100.66626,1.21397
1099.17647,1.18363
1097.68668,1.19904
1096.19690,1.20813
1094.70711,1.27694
1093.21732,1.34833
1091.72753,1.39309
1090.23774,1.34712
1088.74795,1.30118
1087.25817,1.42477
1085.76838,1.47096
1084.27859,1.55020
1082.78880,1.63582
1081.29901,1.64657
1079.80922,1.67387
1078.31943,1.71517
1076.82965,1.75651
1075.33986,1.81947
1073.85007,1.78852
1072.36028,1.77793
1070.87049,1.80038
1069.38070,1.88635
1067.89092,1.94315
1066.40113,2.00000
1064.91134,1.81820
1063.42155,1.77355
1061.93176,1.72260
1060.44197,1.62725
1058.95219,1.51543
1057.46240,1.46522
1055.97261,1.41506
1054.48282,1.27415
1052.99303,1.28691
1051.50324,1.12196
1050.01345,0.97991
1048.52367,0.95596
1047.03388,0.94031
1045.54409,0.92469
1044.05430,0.87801
1042.56451,0.72218
1041.07472,0.72509
1039.58494,0.61631
1038.09515,0.51011
1036.60536,0.49536
1035.11557,0.48065
1033.62578,0.45201
1032.13599,0.35486
1030.64620,0.37581
1029.15642,0.48440
1027.66663,0.45275
1026.17684,0.42113
1024.68705,0.48540
1023.19726,0.53067
1021.70747,0.67501
1020.21769,0.82828
1018.72790,0.87239
1017.23811,0.98955
1015.74832,1.10674
1014.25853,1.27540
1012.76874,1.40346
1011.27896,1.49729
1009.78917,1.64447
1008.29938,1.77011
1006.80959,1.68694
1005.31980,1.60381
1003.83001,1.60896
1002.34022,1.49607
1000.85044,1.54318
999.36065,1.32626
997.87086,1.32458
996.38107,1.32293
994.89128,1.19881
993.40149,1.36420
991.91171,1.44710
990.42192,1.40307
988.93213,1.44669
987.44234,1.46178
985.95255,1.47691
984.46276,1.33783
982.97297,1.29400
981.48319,1.33146
979.99340,1.28009
978.50361,1.32588
977.01382,1.37172
975.52403,1.27095
974.03424,1.13086
972.54446,1.09111
971.05467,1.19613
969.56488,1.15900
968.07509,1.12952
966.58530,1.10008
965.09551,0.93103
963.60573,0.96134
962.11594,0.92820
960.62615,0.83163
959.13636,0.80746
957.64657,0.78333
956.15678,0.77448
954.66699,0.72631
953.17721,0.71626
951.68742,0.69355
950.19763,0.69692
948.70784,0.70031
947.21805,0.67392
945.72826,0.68565
944.23848,0.66948
942.74869,0.75620
941.25890,0.76804
939.76911,0.81865
938.27932,0.86929
936.78953,1.08185
935.29974,1.03418
933.80996,0.87609
932.32017,0.95038
930.83038,0.98408
929.34059,1.01781
927.85080,0.98557
926.36101,0.98511
924.87123,0.95167
923.38144,0.92716
921.89165,0.98394
920.40186,1.04077
918.91207,0.96305
917.42228,1.06946
915.93250,1.06038
914.44271,1.09069
912.95292,1.08613
911.46313,1.08161
909.97334,1.18949
908.48355,1.25043
906.99376,1.19714
905.50398,1.12612
904.01419,1.05387
902.52440,0.98165
901.03461,1.14181
899.54482,1.18013
898.05503,1.24515
896.56525,1.22515
895.07546,1.23438
893.58567,1.24365
892.09588,1.18440
890.60609,1.19883
889.11630,1.12062
887.62651,1.08307
886.13673,1.10904
884.64694,1.13505
883.15715,1.15982
881.66736,1.24558
880.17757,1.18410
878.68778,1.23312
877.19800,1.28217
875.70821,1.26271
874.21842,1.34612
872.72863,1.36101
871.23884,1.33912
869.74905,1.36679
868.25927,1.39449
866.76948,1.33844
865.27969,1.45890
863.78990,1.58321
862.30011,1.52981
860.81032,1.50566
859.32053,1.48154
857.83075,1.42699
856.34096,1.31407
854.85117,1.17580
853.36138,1.10233
851.87159,1.04095
850.38180,0.97960
848.89202,0.84022
847.40223,0.71357
845.91244,0.59458
844.42265,0.62671
842.93286,0.65888
841.44307,0.62634
839.95329,0.53924
838.46350,0.38743
836.97371,0.46038
835.48392,0.48195
833.99413,0.50356
832.50434,0.47379
831.01455,0.50246
829.52477,0.42960
828.03498,0.48881
826.54519,0.42936
825.05540,0.36995
823.56561,0.35945
822.07582,0.32614
820.58604,0.34873
819.09625,0.30153
817.60646,0.25437
816.11667,0.18313
814.62688,0.19445
813.13709,0.04330
811.64730,0.00645
810.15752,0.00392
808.66773,0.00142
807.17794,0.02654
805.68815,0.08852
804.19836,0.06420
802.70857,0.08562
801.21879,0.10709
799.72900,0.19715
798.23921,0.27836
796.74942,0.40658
795.25963,0.43645
793.76984,0.46636
792.28006,0.47663
790.79027,0.66468
789.30048,0.72962
787.81069,0.74636
786.32090,0.75107
784.83111,0.75581
783.34132,0.71934
781.85154,0.66513
780.36175,0.73665
778.87196,0.71997
777.38217,0.70333
775.89238,0.84987
774.40259,0.76919
772.91281,0.86883
771.42302,0.87520
769.93323,0.88160
768.44344,0.97501
766.95365,0.90976
765.46386,0.92961
763.97407,0.90126
762.48429,0.79105
760.99450,0.68088
759.50471,0.68057
758.01492,0.59524
756.52513,0.55057
755.03534,0.44564
753.54556,0.34074
752.05577,0.21113
750.56598,0.19582
749.07619,0.16150
747.58640,0.12024
746.09661,0.07902
744.60683,0.06005
743.11704,0.14777
741.62725,0.04636
740.13746,0.04591
738.64767,0.04551
737.15788,0.07879
735.66809,0.00801
734.17831,0.03882
732.68852,0.02271
731.19873,0.00663
729.70894,0.00582
728.21915,0.00599
726.72936,0.06076
725.23958,0.07749
723.74979,0.07141
722.26000,0.06536
720.77021,0.07840
719.28042,0.06100
717.79063,0.02968
716.30084,0.01553
714.81106,0.00142
713.32127,0.00515
711.83148,0.03684
710.34169,0.06096
708.85190,0.07623
707.36211,0.09153
705.87233,0.14242
704.38254,0.00799
702.89275,0.07859
701.40296,0.10732
699.91317,0.13609
698.42338,0.12935
696.93360,0.19629
695.44381,0.14265
693.95402,0.17983
692.46423,0.21705
690.97444,0.29303
689.48465,0.27890
687.99486,0.29275
686.50508,0.31108
685.01529,0.32944
683.52550,0.41069
682.03571,0.36629
680.54592,0.36509
679.05613,0.33918
677.56635,0.31330
676.07656,0.28302
674.58677,0.23500
673.09698,0.17940
671.60719,0.17590
670.11740,0.17244
668.62761,0.06363
667.13783,0.19609
665.64804,0.13434
664.15825,0.07263
662.66846,0.13791
661.17867,0.09786
659.68888,0.12640
658.19910,0.14420
656.70931,0.16203
655.21952,0.11705
653.72973,0.07973
652.23994,0.09704
650.75015,0.12328
649.26037,0.14956
647.77058,0.06034
646.28079,0.04733
644.79100,0.04579
643.30121,0.03286
641.81142,0.01998
640.32163,0.07949
638.83185,0.06541
637.34206,0.01074
635.85227,0.00880
634.36248,0.00690
632.87269,0.07232
631.38290,0.07939
629.89312,0.00142
628.40333,0.04628
626.91354,0.09117
625.42375,0.15261
623.93396,0.03507
622.44417,0.04897
620.95438,0.06292
619.46460,0.01151
617.97481,0.00839
616.48502,0.09418
614.99523,0.09876
613.50544,0.10337
612.01565,0.05216
610.52587,0.02384
609.03608,0.01207
607.54629,0.03397
606.05650,0.05592
604.56671,0.19280
603.07692,0.09485
601.58714,0.06168
600.09735,0.02856
598.60756,0.03229
597.11777,0.07160
595.62798,0.01193
594.13819,0.01070
592.64840,0.00950
591.15862,0.11246
589.66883,0.13546
588.17904,0.11788
586.68925,0.09716
585.19946,0.07648
583.70967,0.15551
582.21989,0.11903
580.73010,0.14544
579.24031,0.17189
577.75052,0.12792
576.26073,0.08906
574.77094,0.11499
573.28115,0.15683
571.79137,0.19871
570.30158,0.26793
568.81179,0.31052
567.32200,0.30046
565.83221,0.29044
564.34242,0.35346
562.85264,0.40001
561.36285,0.45168
559.87306,0.47356
558.38327,0.49547
556.89348,0.53075
555.40369,0.57369
553.91391,0.57540
552.42412,0.57716
550.93433,0.67480
549.44454,0.66838
547.95475,0.71024
546.46496,0.74516
544.97517,0.78012
543.48539,0.72053
541.99560,0.82475
540.50581,0.80904
539.01602,0.79337
537.52623,0.70346
536.03644,0.81800
534.54666,0.70532
533.05687,0.75201
531.56708,0.79874
530.07729,0.73061
528.58750,0.67394
527.09771,0.67762
525.60792,0.68134
524.11814,0.65526
522.62835,0.70032
521.13856,0.64004
519.64877,0.62042
518.15898,0.60085
516.66919,0.63463
515.17941,0.56181
513.68962,0.56457
512.19983,0.56736
510.71004,0.55940
509.22025,0.59211
507.73046,0.69342
506.24068,0.66463
504.75089,0.63588
503.26110,0.60018
501.77131,0.62166
500.28152,0.59556
498.79173,0.56951
497.30194,0.59618
495.81216,0.72318
494.32237,0.76580
492.83258,0.80846
491.34279,0.70197
489.85300,0.69710
488.36321,0.56403
486.87343,0.59478
485.38364,0.62557
483.89385,0.48880
482.40406,0.41302
480.91427,0.37917
479.42448,0.34537
477.93469,0.28621
476.44491,0.22454
474.95512,0.23338
473.46533,0.24226
471.97554,0.18833
470.48575,0.14968
468.99596,0.12122
467.50618,0.11692
466.01639,0.11267
464.52660,0.01830
463.03681,0.00142
461.54702,0.05040
460.05723,0.09941
458.56745,0.13386
457.07766,0.10487
455.58787,0.16479
454.09808,0.22474
452.60829,0.21745
451.11850,0.25590
449.62871,0.30772
448.13893,0.35958
446.64914,0.57717
445.15935,0.53071
443.66956,0.59856
442.17977,0.67152
440.68998,0.74452
439.20020,0.72234
437.71041,0.91095
436.22062,1.03612
434.73083,1.16133
433.24104,1.29801
431.75125,1.60485
430.26146,1.63749
428.77168,1.67018
427.28189,1.75368
425.79210,1.82834
424.30231,1.76655
422.81252,1.70480
421.32273,1.61580
419.83295,1.49001
418.34316,1.43790
416.85337,1.38583
415.36358,1.20049
413.87379,1.13072
412.38400,1.12193
410.89422,1.11318
409.40443,1.07527
407.91464,0.97010
406.42485,0.73167
404.93506,0.74212
403.44527,0.75261
401.95548,0.77710
400.46570,0.87907
398.97591,0.82493
397.48612,0.77082
395.99633,0.78911
394.50654,0.81380
393.01675,0.79091
391.52697,0.76806
390.03718,0.61766
388.54739,0.64249
387.05760,0.63690
385.56781,0.63135
384.07802,0.77310
382.58824,0.61781
381.09845,0.58508
379.60866,0.55238
378.11887,0.48989
376.62908,0.44267
375.13929,0.37708
373.64950,0.31152
372.15972,0.40916
370.66993,0.34559
369.18014,0.31252
367.69035,0.27950
366.20056,0.22493
364.71077,0.25547
363.22099,0.24351
361.73120,0.23159
360.24141,0.27875
358.75162,0.25484
357.26183,0.24812
355.77204,0.24143
354.28225,0.17067
352.79247,0.04789
351.30268,0.10806
349.81289,0.16827
348.32310,0.17328
346.83331,0.11867
345.34352,0.13836
343.85374,0.15810
342.36395,0.27373
340.87416,0.25735
339.38437,0.20484
337.89458,0.15236
336.40479,0.19958
334.91501,0.11988
333.42522,0.12338
331.93543,0.12692
330.44564,0.16033
328.95585,0.20521
327.46606,0.17522
325.97627,0.14527
324.48649,0.08869
322.99670,0.16782
321.50691,0.18604
320.01712,0.20430
318.52733,0.26196
317.03754,0.22444
315.54776,0.19902
314.05797,0.17363
312.56818,0.03339
311.07839,0.07727
309.58860,0.04502
308.09881,0.01281
306.60902,0.00142
305.11924,0.11130
303.62945,0.08218
302.13966,0.05311
300.64987,0.07803
299.16008,0.00142
