1778.52000,0.06284
1777.03021,0.03633
1775.54042,0.05672
1774.05063,0.00060
1772.56085,0.07885
1771.07106,0.08373
1769.58127,0.10113
1768.09148,0.07015
1766.60169,0.01421
1765.11190,0.09888
1763.62212,0.05864
1762.13233,0.08715
1760.64254,0.06415
1759.15275,0.08805
1757.66296,0.11511
1756.17317,0.05161
1754.68339,0.09124
1753.19360,0.04342
1751.70381,0.05500
1750.21402,0.00258
1748.72423,0.04234
1747.23444,0.05559
1745.74465,0.05013
1744.25487,0.07595
1742.76508,0.08462
1741.27529,0.07770
1739.78550,0.06614
1738.29571,0.10459
1736.80592,0.02905
1735.31614,0.03321
1733.82635,0.06552
1732.33656,0.01195
1730.84677,0.00060
1729.35698,0.05766
1727.86719,0.01791
1726.37740,0.05630
1724.88762,0.04942
1723.39783,0.10350
1721.90804,0.07170
1720.41825,0.05711
1718.92846,0.02695
1717.43867,0.04524
1715.94889,0.04638
1714.45910,0.05538
1712.96931,0.07534
1711.47952,0.09221
1709.98973,0.08725
1708.49994,0.07295
1707.01016,0.07509
1705.52037,0.07726
1704.03058,0.13024
1702.54079,0.09733
1701.05100,0.16912
1699.56121,0.13942
1698.07142,0.15348
1696.58164,0.15977
1695.09185,0.10518
1693.60206,0.15216
1692.11227,0.13825
1690.62248,0.20560
1689.13269,0.28236
1687.64291,0.20139
1686.15312,0.24698
1684.66333,0.23325
1683.17354,0.17894
1681.68375,0.21057
1680.19396,0.21101
1678.70417,0.28020
1677.21439,0.18855
1675.72460,0.19065
1674.23481,0.26776
1672.74502,0.21526
1671.25523,0.23933
1669.76544,0.19628
1668.27566,0.26260
1666.78587,0.22117
1665.29608,0.20009
1663.80629,0.17592
1662.31650,0.16740
1660.82671,0.19329
1659.33693,0.17703
1657.84714,0.11708
1656.35735,0.13526
1654.86756,0.15035
1653.37777,0.15923
1651.88798,0.16814
1650.39819,0.16303
1648.90841,0.13453
1647.41862,0.07482
1645.92883,0.12527
1644.43904,0.17576
1642.94925,0.20675
1641.45946,0.16749
1639.96968,0.14076
1638.47989,0.17811
1636.99010,0.17176
1635.50031,0.12483
1634.01052,0.12323
1632.52073,0.10605
1631.03094,0.18576
1629.54116,0.20145
1628.05137,0.19687
1626.56158,0.15015
1625.07179,0.18939
1623.58200,0.16929
1622.09221,0.18829
1620.60243,0.16514
1619.11264,0.13735
1617.62285,0.18769
1616.13306,0.23963
1614.64327,0.16976
1613.15348,0.12493
1611.66370,0.21602
1610.17391,0.14001
1608.68412,0.15620
1607.19433,0.18492
1605.70454,0.07622
1604.21475,0.12376
1602.72496,0.17133
1601.23518,0.14239
1599.74539,0.15411
1598.25560,0.15961
1596.76581,0.08705
1595.27602,0.13948
1593.78623,0.10135
1592.29645,0.02733
1590.80666,0.09393
1589.31687,0.13089
1587.82708,0.11789
1586.33729,0.10181
1584.84750,0.08264
1583.35771,0.13223
1581.86793,0.06627
1580.37814,0.07063
1578.88835,0.11564
1577.39856,0.08103
1575.90877,0.06519
1574.41898,0.04158
1572.92920,0.07737
1571.43941,0.06945
1569.94962,0.04126
1568.45983,0.01310
1566.97004,0.00060
1565.48025,0.05721
1563.99047,0.03420
1562.50068,0.07682
1561.01089,0.08512
1559.52110,0.11844
1558.03131,0.10025
1556.54152,0.05398
1555.05173,0.10147
1553.56195,0.09120
1552.07216,0.07315
1550.58237,0.05826
1549.09258,0.10902
1547.60279,0.08795
1546.11300,0.13409
1544.62322,0.12716
1543.13343,0.07808
1541.64364,0.05716
1540.15385,0.06204
1538.66406,0.06696
1537.17427,0.10863
1535.68448,0.07222
1534.19470,0.07335
1532.70491,0.01515
1531.21512,0.07414
1529.72533,0.03944
1528.23554,0.03445
1526.74575,0.02638
1525.25597,0.08395
1523.76618,0.10094
1522.27639,0.07266
1520.78660,0.00069
1519.29681,0.00060
1517.80702,0.04924
1516.31724,0.07760
1514.82745,0.07007
1513.33766,0.06414
1511.84787,0.05824
1510.35808,0.08831
1508.86829,0.09342
1507.37850,0.05014
1505.88872,0.01002
1504.39893,0.01992
1502.90914,0.06423
1501.41935,0.03827
1499.92956,0.06859
1498.43977,0.03801
1496.94999,0.17931
1495.46020,0.19254
1493.97041,0.24956
1492.48062,0.25662
1490.99083,0.30589
1489.50104,0.46454
1488.01125,0.48654
1486.52147,0.50859
1485.03168,0.70015
1483.54189,0.70898
1482.05210,0.86625
1480.56231,0.99074
1479.07252,1.11372
1477.58274,1.26172
1476.09295,1.33009
1474.60316,1.36569
1473.11337,1.44506
1471.62358,1.47917
1470.13379,1.37898
1468.64401,1.33194
1467.15422,1.36615
1465.66443,1.29575
1464.17464,1.22538
1462.68485,1.24408
1461.19506,1.24720
1459.70527,1.15663
1458.21549,1.03798
1456.72570,1.00371
1455.23591,0.87264
1453.74612,0.82282
1452.25633,0.84021
1450.76654,0.77953
1449.27676,0.73138
1447.78697,0.65047
1446.29718,0.59770
1444.80739,0.53482
1443.31760,0.47198
1441.82781,0.48961
1440.33802,0.35889
1438.84824,0.31880
1437.35845,0.37403
1435.86866,0.30434
1434.37887,0.36901
1432.88908,0.29626
1431.39929,0.32352
1429.90951,0.31644
1428.41972,0.30003
1426.92993,0.26179
1425.44014,0.32824
1423.95035,0.34083
1422.46056,0.35346
1420.97078,0.37784
1419.48099,0.41319
1417.99120,0.38297
1416.50141,0.35434
1415.01162,0.42729
1413.52183,0.42216
1412.03204,0.43582
1410.54226,0.45108
1409.05247,0.48042
1407.56268,0.46763
1406.07289,0.46737
1404.58310,0.46090
1403.09331,0.45447
1401.60353,0.42620
1400.11374,0.40733
1398.62395,0.52597
1397.13416,0.53998
1395.64437,0.56027
1394.15458,0.62746
1392.66479,0.59316
1391.17501,0.54952
1389.68522,0.45592
1388.19543,0.54825
1386.70564,0.55001
1385.21585,0.55181
1383.72606,0.46461
1382.23628,0.51646
1380.74649,0.54336
1379.25670,0.55154
1377.76691,0.61132
1376.27712,0.58521
1374.78733,0.65598
1373.29755,0.61745
1371.80776,0.73672
1370.31797,0.89664
1368.82818,0.95194
1367.33839,1.00727
1365.84860,1.18760
1364.35881,1.28987
1362.86903,1.46402
1361.37924,1.61947
1359.88945,1.68904
1358.39966,1.54620
1356.90987,1.75017
1355.42008,1.73706
1353.93030,1.67712
1352.44051,1.65939
1350.95072,1.64169
1349.46093,1.53500
1347.97114,1.36273
1346.48135,1.07178
1344.99156,0.95113
1343.50178,0.95705
1342.01199,0.86302
1340.52220,0.95961
1339.03241,0.86253
1337.54262,0.78892
1336.05283,0.74190
1334.56305,0.69491
1333.07326,0.72763
1331.58347,0.54169
1330.09368,0.64790
1328.60389,0.57762
1327.11410,0.58236
1325.62432,0.45905
1324.13453,0.54352
1322.64474,0.55149
1321.15495,0.53451
1319.66516,0.52927
1318.17537,0.52407
1316.68558,0.42440
1315.19580,0.42942
1313.70601,0.44542
1312.21622,0.32867
1310.72643,0.37910
1309.23664,0.35458
1307.74685,0.36603
1306.25707,0.43219
1304.76728,0.40934
1303.27749,0.38653
1301.78770,0.38094
1300.29791,0.41599
1298.80812,0.34799
1297.31834,0.41123
1295.82855,0.37610
1294.33876,0.39099
1292.84897,0.37624
1291.35918,0.30841
1289.86939,0.39214
1288.37960,0.47590
1286.88982,0.48628
1285.40003,0.54981
1283.91024,0.53996
1282.42045,0.45672
1280.93066,0.50786
1279.44087,0.56840
1277.95109,0.53994
1276.46130,0.56932
1274.97151,0.53078
1273.48172,0.49227
1271.99193,0.49051
1270.50214,0.53252
1269.01235,0.58394
1267.52257,0.62915
1266.03278,0.65877
1264.54299,0.65875
1263.05320,0.72593
1261.56341,0.68380
1260.07362,0.64171
1258.58384,0.78710
1257.09405,0.79351
1255.60426,0.87961
1254.11447,0.80173
1252.62468,0.77388
1251.13489,0.77105
1249.64511,0.69640
1248.15532,0.55150
1246.66553,0.49254
1245.17574,0.43362
1243.68595,0.48096
1242.19616,0.52989
1240.70637,0.49919
1239.21659,0.38730
1237.72680,0.37074
1236.23701,0.41356
1234.74722,0.28460
1233.25743,0.32203
1231.76764,0.35949
1230.27786,0.39152
1228.78807,0.34237
1227.29828,0.33542
1225.80849,0.26602
1224.31870,0.25290
1222.82891,0.19763
1221.33912,0.26737
1219.84934,0.24419
1218.35955,0.22106
1216.86976,0.28465
1215.37997,0.31079
1213.89018,0.37445
1212.40039,0.26320
1210.91061,0.18010
1209.42082,0.17201
1207.93103,0.17099
1206.44124,0.17001
1204.95145,0.18234
1203.46166,0.14315
1201.97188,0.16961
1200.48209,0.17267
1198.99230,0.08048
1197.50251,0.07580
1196.01272,0.08053
1194.52293,0.10092
1193.03314,0.12134
1191.54336,0.11055
1190.05357,0.06388
1188.56378,0.07191
1187.07399,0.03311
1185.58420,0.00060
1184.09441,0.07145
1182.60463,0.06813
1181.11484,0.06485
1179.62505,0.04833
1178.13526,0.05371
1176.64547,0.04351
1175.15568,0.11769
1173.66589,0.11693
1172.17611,0.16932
1170.68632,0.10615
1169.19653,0.04301
1167.70674,0.05489
1166.21695,0.00901
1164.72716,0.05688
1163.23738,0.00951
1161.74759,0.03090
1160.25780,0.11481
1158.76801,0.08238
1157.27822,0.04999
1155.78843,0.03716
1154.29865,0.04623
1152.80886,0.15687
1151.31907,0.07698
1149.82928,0.14083
1148.33949,0.13442
1146.84970,0.13899
1145.35991,0.14359
1143.87013,0.11073
1142.38034,0.15289
1140.89055,0.11854
1139.40076,0.22638
1137.91097,0.34675
1136.42118,0.32032
1134.93140,0.36968
1133.44161,0.41908
1131.95182,0.52241
1130.46203,0.47113
1128.97224,0.46518
1127.48245,0.45927
1125.99266,0.59866
1124.50288,0.63968
1123.01309,0.64247
1121.52330,0.64529
1120.03351,0.62862
1118.54372,0.76507
1117.05393,0.72973
1115.56415,0.66943
1114.07436,0.68414
1112.58457,0.72310
1111.09478,0.76210
1109.60499,0.81129
1108.11520,0.86988
1106.62542,0.81604
1105.13563,0.97936
1103.64584,0.89591
1102.15605,1.12804
1100.66626,1.07746
1099.17647,1.02692
1097.68668,1.16387
1096.19690,1.16807
1094.70711,1.31290
1093.21732,1.27343
1091.72753,1.33398
1090.23774,1.36332
1088.74795,1.39269
1087.25817,1.38617
1085.76838,1.54995
1084.27859,1.52320
1082.78880,1.64488
1081.29901,1.75722
1079.80922,1.72120
1078.31943,1.72895
1076.82965,1.73674
1075.33986,1.73206
1073.85007,1.82584
1072.36028,1.79937
1070.87049,1.89477
1069.38070,1.90586
1067.89092,1.95291
1066.40113,2.00000
1064.91134,1.97839
1063.42155,1.87872
1061.93176,1.73534
1060.44197,1.60918
1058.95219,1.47525
1057.46240,1.45304
1055.97261,1.43086
1054.48282,1.28141
1052.99303,1.23041
1051.50324,1.15757
1050.01345,1.07071
1048.52367,0.92765
1047.03388,0.96583
1045.54409,1.00404
1044.05430,0.90014
1042.56451,0.81970
1041.07472,0.81116
1039.58494,0.63863
1038.09515,0.63328
1036.60536,0.61000
1035.11557,0.58676
1033.62578,0.56746
1032.13599,0.44197
1030.64620,0.50084
1029.15642,0.51913
1027.66663,0.51481
1026.17684,0.51053
1024.68705,0.51955
1023.19726,0.61297
1021.70747,0.65955
1020.21769,0.79990
1018.72790,0.93403
1017.23811,1.07054
1015.74832,1.20709
1014.25853,1.35851
1012.76874,1.47872
1011.27896,1.60366
1009.78917,1.67240
1008.29938,1.65526
1006.80959,1.65534
1005.31980,1.65545
1003.83001,1.58531
1002.34022,1.61986
1000.85044,1.55916
999.36065,1.37041
997.87086,1.36758
996.38107,1.36478
994.89128,1.26361
993.40149,1.38272
991.91171,1.25819
990.42192,1.41643
988.93213,1.39975
987.44234,1.40732
985.95255,1.41492
984.46276,1.40303
982.97297,1.32557
981.48319,1.30595
979.99340,1.29261
978.50361,1.25118
977.01382,1.20979
975.52403,1.20905
974.03424,1.11619
972.54446,1.02023
971.05467,1.15862
969.56488,1.03462
968.07509,1.00907
966.58530,0.98355
965.09551,0.90807
963.60573,0.90137
962.11594,0.90563
960.62615,0.78809
959.13636,0.75260
957.64657,0.71714
956.15678,0.67312
954.66699,0.63382
953.17721,0.77264
951.68742,0.62875
950.19763,0.66688
948.70784,0.70505
947.21805,0.77059
945.72826,0.69714
944.23848,0.68309
942.74869,0.87994
941.25890,0.83940
939.76911,0.91449
938.27932,0.98961
936.78953,0.96480
935.29974,0.96502
933.80996,1.00276
932.32017,0.96555
930.83038,1.01117
929.34059,1.05683
927.85080,0.97756
926.36101,0.88114
924.87123,0.97533
923.38144,1.03831
921.89165,1.10679
920.40186,1.17531
918.91207,1.18372
917.42228,1.19686
915.93250,1.17567
914.44271,1.23573
912.95292,1.26304
911.46313,1.29037
909.97334,1.21621
908.48355,1.21081
906.99376,1.21795
905.50398,1.25949
904.01419,1.21280
902.52440,1.16615
901.03461,1.29215
899.54482,1.41818
898.05503,1.33180
896.56525,1.41104
895.07546,1.38175
893.58567,1.35249
892.09588,1.41466
890.60609,1.37688
889.11630,1.27510
887.62651,1.20928
886.13673,1.23722
884.64694,1.26519
883.15715,1.36505
881.66736,1.31187
880.17757,1.27434
878.68778,1.29230
877.19800,1.31030
875.70821,1.47282
874.21842,1.47918
872.72863,1.32467
871.23884,1.40295
869.74905,1.48361
868.25927,1.56430
866.76948,1.43805
865.27969,1.50241
863.78990,1.54494
862.30011,1.49846
860.81032,1.46608
859.32053,1.43374
857.83075,1.35925
856.34096,1.39571
854.85117,1.31192
853.36138,1.21880
851.87159,1.11165
850.38180,1.00454
848.89202,0.88497
847.40223,0.64984
845.91244,0.66467
844.42265,0.61316
842.93286,0.56167
841.44307,0.47664
839.95329,0.48381
838.46350,0.44727
836.97371,0.45763
835.48392,0.46647
833.99413,0.47534
832.50434,0.39364
831.01455,0.52130
829.52477,0.49279
828.03498,0.38464
826.54519,0.38354
825.05540,0.38247
823.56561,0.28693
822.07582,0.29452
820.58604,0.29433
819.09625,0.25201
817.60646,0.20972
816.11667,0.03938
814.62688,0.02840
813.13709,0.08306
811.64730,0.04560
810.15752,0.03083
808.66773,0.01609
807.17794,0.00060
805.68815,0.04318
804.19836,0.06861
802.70857,0.05190
801.21879,0.03523
799.72900,0.14980
798.23921,0.21287
796.74942,0.35719
795.25963,0.36253
793.76984,0.36790
792.28006,0.54826
790.79027,0.70679
789.30048,0.70446
787.81069,0.73809
786.32090,0.71786
784.83111,0.69767
783.34132,0.73297
781.85154,0.73550
780.36175,0.63341
778.87196,0.67897
777.38217,0.72457
775.89238,0.82877
774.40259,0.95645
772.91281,0.92951
771.42302,0.93776
769.93323,0.94604
768.44344,0.91296
766.95365,0.88929
765.46386,0.96095
763.97407,0.92016
762.48429,0.85130
760.99450,0.78247
759.50471,0.69494
758.01492,0.61525
756.52513,0.51372
755.03534,0.43957
753.54556,0.36545
752.05577,0.26403
750.56598,0.19858
749.07619,0.20814
747.58640,0.16462
746.09661,0.12114
744.60683,0.09175
743.11704,0.04209
741.62725,0.08463
740.13746,0.05457
738.64767,0.02455
737.15788,0.01408
735.66809,0.06613
734.17831,0.00263
732.68852,0.01804
731.19873,0.03349
729.70894,0.06538
728.21915,0.08324
726.72936,0.12926
725.23958,0.07846
723.74979,0.11049
722.26000,0.14256
720.77021,0.11686
719.28042,0.00060
717.79063,0.07482
716.30084,0.03739
714.81106,0.00000
713.32127,0.03996
711.83148,0.03466
710.34169,0.12624
708.85190,0.14991
707.36211,0.17361
705.87233,0.16064
704.38254,0.08367
702.89275,0.16293
701.40296,0.14538
699.91317,0.12786
698.42338,0.16974
696.93360,0.19916
695.44381,0.24423
693.95402,0.29715
692.46423,0.35011
690.97444,0.37498
689.48465,0.29055
687.99486,0.33736
686.50508,0.33188
685.01529,0.32643
683.52550,0.37023
682.03571,0.39687
680.54592,0.36576
679.05613,0.35655
677.56635,0.34738
676.07656,0.32418
674.58677,0.29009
673.09698,0.30757
671.60719,0.29698
670.11740,0.28642
668.62761,0.14312
667.13783,0.11702
665.64804,0.11203
664.15825,0.10708
662.66846,0.18886
661.17867,0.14883
659.68888,0.10884
658.19910,0.13059
656.70931,0.15237
655.21952,0.08281
653.72973,0.18198
652.23994,0.17341
650.75015,0.20158
649.26037,0.22979
647.77058,0.19789
646.28079,0.17072
644.79100,0.24980
643.30121,0.23910
641.81142,0.22843
640.32163,0.18265
638.83185,0.13691
637.34206,0.00060
635.85227,0.03722
634.36248,0.07387
632.87269,0.13946
631.38290,0.08949
629.89312,0.13484
628.40333,0.11853
626.91354,0.10225
625.42375,0.12740
623.93396,0.10885
622.44417,0.15282
620.95438,0.19682
619.46460,0.13151
617.97481,0.08967
616.48502,0.14940
614.99523,0.12013
613.50544,0.09089
612.01565,0.10230
610.52587,0.11687
609.03608,0.12835
607.54629,0.20782
606.05650,0.28732
604.56671,0.23955
603.07692,0.25742
601.58714,0.21363
600.09735,0.16987
598.60756,0.12068
597.11777,0.11682
595.62798,0.12706
594.13819,0.09984
592.64840,0.07266
591.15862,0.14080
589.66883,0.14337
588.17904,0.14129
586.68925,0.16424
585.19946,0.18722
583.70967,0.26022
582.21989,0.17549
580.73010,0.16031
579.24031,0.14516
577.75052,0.18707
576.26073,0.17902
574.77094,0.26161
573.28115,0.24817
571.79137,0.23476
570.30158,0.34401
568.81179,0.27522
567.32200,0.30722
565.83221,0.33925
564.34242,0.47363
562.85264,0.53932
561.36285,0.57536
559.87306,0.51616
558.38327,0.45699
556.89348,0.53844
555.40369,0.61680
553.91391,0.64443
552.42412,0.67210
550.93433,0.69902
549.44454,0.77440
547.95475,0.82638
546.46496,0.81982
544.97517,0.81330
543.48539,0.87945
541.99560,0.82692
540.50581,0.81269
539.01602,0.79850
537.52623,0.83823
536.03644,0.85613
534.54666,0.86314
533.05687,0.90766
531.56708,0.95223
530.07729,0.81563
528.58750,0.81340
527.09771,0.75888
525.60792,0.70439
524.11814,0.78662
522.62835,0.82202
521.13856,0.76998
519.64877,0.68596
518.15898,0.60197
516.66919,0.60628
515.17941,0.65904
513.68962,0.61265
512.19983,0.56629
510.71004,0.59729
509.22025,0.57834
507.73046,0.67814
506.24068,0.68347
504.75089,0.68884
503.26110,0.75282
501.77131,0.67625
500.28152,0.67235
498.79173,0.66848
497.30194,0.63576
495.81216,0.74365
494.32237,0.78519
492.83258,0.82677
491.34279,0.77076
489.85300,0.74602
488.36321,0.64009
486.87343,0.60604
485.38364,0.57204
483.89385,0.52714
482.40406,0.36355
480.91427,0.35230
479.42448,0.34109
477.93469,0.24322
476.44491,0.15944
474.95512,0.16707
473.46533,0.17474
471.97554,0.18948
470.48575,0.15583
468.99596,0.08941
467.50618,0.09020
466.01639,0.09102
464.52660,0.09812
463.03681,0.00060
461.54702,0.05084
460.05723,0.10112
458.56745,0.05615
457.07766,0.19866
455.58787,0.20531
454.09808,0.21200
452.60829,0.32493
451.11850,0.32856
449.62871,0.33457
448.13893,0.34062
446.64914,0.37247
445.15935,0.50745
443.66956,0.55187
442.17977,0.59477
440.68998,0.63769
439.20020,0.79781
437.71041,0.83769
436.22062,0.95102
434.73083,1.06438
433.24104,1.29649
431.75125,1.36307
430.26146,1.39375
428.77168,1.42446
427.28189,1.53800
425.79210,1.55629
424.30231,1.51135
422.81252,1.46645
421.32273,1.68479
419.83295,1.41580
418.34316,1.35929
416.85337,1.30281
415.36358,1.13703
413.87379,1.12124
412.38400,0.97817
410.89422,0.83514
409.40443,0.88038
407.91464,0.74445
406.42485,0.76945
404.93506,0.78433
403.44527,0.79924
401.95548,0.70563
400.46570,0.73390
398.97591,0.71924
397.48612,0.70462
395.99633,0.59240
394.50654,0.68329
393.01675,0.60707
391.52697,0.53089
390.03718,0.59845
388.54739,0.51453
387.05760,0.53999
385.56781,0.56548
384.07802,0.50979
382.58824,0.51817
381.09845,0.51799
379.60866,0.51785
378.11887,0.46074
376.62908,0.33492
375.13929,0.30443
373.64950,0.27397
372.15972,0.28104
370.66993,0.37249
369.18014,0.30075
367.69035,0.22904
366.20056,0.21906
364.71077,0.20756
363.22099,0.21094
361.73120,0.21435
360.24141,0.18733
358.75162,0.26345
357.26183,0.20760
355.77204,0.15180
354.28225,0.14679
352.79247,0.08247
351.30268,0.13455
349.81289,0.18666
348.32310,0.03965
346.83331,0.00671
345.34352,0.02335
343.85374,0.04002
342.36395,0.13639
340.87416,0.25310
339.38437,0.19333
337.89458,0.13361
336.40479,0.11453
334.91501,0.12047
333.42522,0.09600
331.93543,0.07156
330.44564,0.18696
328.95585,0.11338
327.46606,0.11482
325.97627,0.11629
324.48649,0.02877
322.99670,0.04450
321.50691,0.08760
320.01712,0.13074
318.52733,0.13408
317.03754,0.11246
315.54776,0.05651
314.05797,0.00060
312.56818,0.09480
311.07839,0.02658
309.58860,0.07633
308.09881,0.12611
306.60902,0.07206
305.11924,0.08365
303.62945,0.04606
302.13966,0.00851
300.64987,0.07796
299.16008,0.00060
