1778.52000,0.06424
1777.03021,0.08332
1775.54042,0.05391
1774.05063,0.00462
1772.56085,0.07855
1771.07106,0.03929
1769.58127,0.04360
1768.09148,0.04298
1766.60169,0.04861
1765.11190,0.01696
1763.62212,0.03510
1762.13233,0.04830
1760.64254,0.07148
1759.15275,0.03623
1757.66296,0.08686
1756.17317,0.09273
1754.68339,0.07376
1753.19360,0.06103
1751.70381,0.05084
1750.21402,0.00833
1748.72423,0.01874
1747.23444,0.01676
1745.74465,0.10314
1744.25487,0.02906
1742.76508,0.02842
1741.27529,0.08380
1739.78550,0.05834
1738.29571,0.04910
1736.80592,0.04362
1735.31614,0.02449
1733.82635,0.04893
1732.33656,0.05351
1730.84677,0.04568
1729.35698,0.04659
1727.86719,0.01022
1726.37740,-0.00000
1724.88762,0.02785
1723.39783,0.04081
1721.90804,0.03017
1720.41825,0.00462
1718.92846,0.02315
1717.43867,0.02181
1715.94889,0.06156
1714.45910,0.05904
1712.96931,0.04038
1711.47952,0.05037
1709.98973,0.08901
1708.49994,0.07295
1707.01016,0.08118
1705.52037,0.08944
1704.03058,0.08219
1702.54079,0.13966
1701.05100,0.15114
1699.56121,0.11786
1698.07142,0.16424
1696.58164,0.12854
1695.09185,0.19863
1693.60206,0.22148
1692.11227,0.22321
1690.62248,0.21999
1689.13269,0.23050
1687.64291,0.19625
1686.15312,0.28272
1684.66333,0.26472
1683.17354,0.23057
1681.68375,0.26365
1680.19396,0.26192
1678.70417,0.27889
1677.21439,0.26354
1675.72460,0.25445
1674.23481,0.30760
1672.74502,0.25255
1671.25523,0.25103
1669.76544,0.30926
1668.27566,0.31900
1666.78587,0.25040
1665.29608,0.23284
1663.80629,0.26384
1662.31650,0.24635
1660.82671,0.21397
1659.33693,0.20028
1657.84714,0.22892
1656.35735,0.18420
1654.86756,0.14573
1653.37777,0.14711
1651.88798,0.15350
1650.39819,0.14749
1648.90841,0.17385
1647.41862,0.15297
1645.92883,0.16945
1644.43904,0.18597
1642.94925,0.17763
1641.45946,0.19048
1639.96968,0.17849
1638.47989,0.15035
1636.99010,0.09612
1635.50031,0.16261
1634.01052,0.15199
1632.52073,0.16878
1631.03094,0.14579
1629.54116,0.16016
1628.05137,0.21811
1626.56158,0.11933
1625.07179,0.21343
1623.58200,0.23540
1622.09221,0.21138
1620.60243,0.20978
1619.11264,0.20448
1617.62285,0.17932
1616.13306,0.12930
1614.64327,0.17014
1613.15348,0.19111
1611.66370,0.18599
1610.17391,0.16970
1608.68412,0.13603
1607.19433,0.13101
1605.70454,0.11109
1604.21475,0.13600
1602.72496,0.16094
1601.23518,0.12371
1599.74539,0.16614
1598.25560,0.17377
1596.76581,0.12295
1595.27602,0.13314
1593.78623,0.12967
1592.29645,0.09513
1590.80666,0.09547
1589.31687,0.12072
1587.82708,0.07633
1586.33729,0.04691
1584.84750,0.14940
1583.35771,0.08272
1581.86793,0.08202
1580.37814,0.07762
1578.88835,0.08071
1577.39856,0.05399
1575.90877,0.01236
1574.41898,0.07030
1572.92920,0.04119
1571.43941,0.03202
1569.94962,0.04030
1568.45983,0.04861
1566.97004,0.02337
1565.48025,0.04793
1563.99047,0.09242
1562.50068,0.02747
1561.01089,0.09070
1559.52110,0.10793
1558.03131,0.14136
1556.54152,0.08153
1555.05173,0.14738
1553.56195,0.13738
1552.07216,0.10252
1550.58237,0.09010
1549.09258,0.07647
1547.60279,0.07531
1546.11300,0.06548
1544.62322,0.04572
1543.13343,0.05587
1541.64364,0.04489
1540.15385,0.06630
1538.66406,0.08774
1537.17427,0.02338
1535.68448,0.03618
1534.19470,0.03284
1532.70491,0.05069
1531.21512,0.05862
1529.72533,0.05663
1528.23554,0.01859
1526.74575,0.01294
1525.25597,0.05709
1523.76618,0.07887
1522.27639,0.04720
1520.78660,0.06656
1519.29681,0.02625
1517.80702,0.00462
1516.31724,0.05893
1514.82745,0.04110
1513.33766,0.02891
1511.84787,0.01676
1510.35808,0.06249
1508.86829,0.06596
1507.37850,0.04457
1505.88872,0.03318
1504.39893,0.06039
1502.90914,0.05155
1501.41935,0.04647
1499.92956,0.08249
1498.43977,0.10237
1496.94999,0.15339
1495.46020,0.16587
1493.97041,0.23313
1492.48062,0.30043
1490.99083,0.28937
1489.50104,0.39282
1488.01125,0.41480
1486.52147,0.43682
1485.03168,0.54659
1483.54189,0.67630
1482.05210,0.70526
1480.56231,0.88356
1479.07252,1.07433
1477.58274,1.19547
1476.09295,1.24447
1474.60316,1.24127
1473.11337,1.39112
1471.62358,1.47756
1470.13379,1.44210
1468.64401,1.37060
1467.15422,1.30287
1465.66443,1.25757
1464.17464,1.21230
1462.68485,1.19692
1461.19506,1.23135
1459.70527,1.19987
1458.21549,1.11368
1456.72570,1.00389
1455.23591,0.96007
1453.74612,0.89513
1452.25633,0.91110
1450.76654,0.85121
1449.27676,0.87845
1447.78697,0.79499
1446.29718,0.69041
1444.80739,0.62195
1443.31760,0.55353
1441.82781,0.54361
1440.33802,0.45534
1438.84824,0.47660
1437.35845,0.30753
1435.86866,0.42714
1434.37887,0.38878
1432.88908,0.38405
1431.39929,0.41543
1429.90951,0.32616
1428.41972,0.37129
1426.92993,0.33061
1425.44014,0.42558
1423.95035,0.40861
1422.46056,0.39167
1420.97078,0.47430
1419.48099,0.40518
1417.99120,0.38462
1416.50141,0.37279
1415.01162,0.43068
1413.52183,0.45501
1412.03204,0.42089
1410.54226,0.45400
1409.05247,0.40627
1407.56268,0.41207
1406.07289,0.46145
1404.58310,0.46483
1403.09331,0.46825
1401.60353,0.38834
1400.11374,0.50878
1398.62395,0.48866
1397.13416,0.53202
1395.64437,0.52441
1394.15458,0.60144
1392.66479,0.65860
1391.17501,0.60008
1389.68522,0.60878
1388.19543,0.60632
1386.70564,0.59954
1385.21585,0.59280
1383.72606,0.61159
1382.23628,0.51471
1380.74649,0.56841
1379.25670,0.56865
1377.76691,0.61992
1376.27712,0.70234
1374.78733,0.73253
1373.29755,0.77147
1371.80776,0.84155
1370.31797,0.85443
1368.82818,0.96750
1367.33839,1.08060
1365.84860,1.18565
1364.35881,1.45248
1362.86903,1.54640
1361.37924,1.75481
1359.88945,1.80401
1358.39966,1.90053
1356.90987,1.86271
1355.42008,1.91824
1353.93030,1.96260
1352.44051,1.89751
1350.95072,1.83246
1349.46093,1.81099
1347.97114,1.59298
1346.48135,1.30533
1344.99156,1.24415
1343.50178,1.12826
1342.01199,1.02360
1340.52220,0.98865
1339.03241,0.85544
1337.54262,0.94995
1336.05283,0.87280
1334.56305,0.79569
1333.07326,0.85795
1331.58347,0.78090
1330.09368,0.71011
1328.60389,0.71276
1327.11410,0.67811
1325.62432,0.61489
1324.13453,0.58405
1322.64474,0.60301
1321.15495,0.71655
1319.66516,0.62485
1318.17537,0.53319
1316.68558,0.56721
1315.19580,0.53533
1313.70601,0.46616
1312.21622,0.45799
1310.72643,0.46229
1309.23664,0.43801
1307.74685,0.42746
1306.25707,0.47541
1304.76728,0.44501
1303.27749,0.41465
1301.78770,0.32710
1300.29791,0.39011
1298.80812,0.39967
1297.31834,0.48390
1295.82855,0.58310
1294.33876,0.52060
1292.84897,0.45938
1291.35918,0.47035
1289.86939,0.47513
1288.37960,0.47995
1286.88982,0.50098
1285.40003,0.58176
1283.91024,0.59290
1282.42045,0.60781
1280.93066,0.65261
1279.44087,0.58672
1277.95109,0.67763
1276.46130,0.69765
1274.97151,0.69220
1273.48172,0.68679
1271.99193,0.58623
1270.50214,0.65865
1269.01235,0.66516
1267.52257,0.72893
1266.03278,0.73302
1264.54299,0.74834
1263.05320,0.82217
1261.56341,0.79277
1260.07362,0.76341
1258.58384,0.80251
1257.09405,0.86901
1255.60426,0.91066
1254.11447,0.96728
1252.62468,0.91694
1251.13489,0.92137
1249.64511,0.82133
1248.15532,0.66037
1246.66553,0.64064
1245.17574,0.62095
1243.68595,0.55464
1242.19616,0.56426
1240.70637,0.52414
1239.21659,0.47536
1237.72680,0.50623
1236.23701,0.36046
1234.74722,0.39762
1233.25743,0.38567
1231.76764,0.37376
1230.27786,0.32144
1228.78807,0.30897
1227.29828,0.34133
1225.80849,0.25926
1224.31870,0.29541
1222.82891,0.22087
1221.33912,0.29815
1219.84934,0.26287
1218.35955,0.22763
1216.86976,0.25525
1215.37997,0.30654
1213.89018,0.30561
1212.40039,0.28854
1210.91061,0.25907
1209.42082,0.25202
1207.93103,0.21142
1206.44124,0.17085
1204.95145,0.15022
1203.46166,0.09728
1201.97188,0.09663
1200.48209,0.14080
1198.99230,0.12653
1197.50251,0.09736
1196.01272,0.06823
1194.52293,0.07646
1193.03314,0.08472
1191.54336,0.09178
1190.05357,0.02173
1188.56378,0.03631
1187.07399,0.01236
1185.58420,0.00462
1184.09441,0.05008
1182.60463,0.07877
1181.11484,0.10750
1179.62505,0.06970
1178.13526,0.09165
1176.64547,0.05765
1175.15568,0.02369
1173.66589,0.11790
1172.17611,0.04544
1170.68632,0.05886
1169.19653,0.07231
1167.70674,0.04598
1166.21695,0.04706
1164.72716,0.00462
1163.23738,0.07604
1161.74759,0.00939
1160.25780,0.07590
1158.76801,0.05722
1157.27822,0.03858
1155.78843,0.02557
1154.29865,0.07604
1152.80886,0.00462
1151.31907,0.05250
1149.82928,0.08921
1148.33949,0.10355
1146.84970,0.06942
1145.35991,0.03531
1143.87013,0.04106
1142.38034,0.09287
1140.89055,0.11236
1139.40076,0.14434
1137.91097,0.21989
1136.42118,0.26188
1134.93140,0.33750
1133.44161,0.41316
1131.95182,0.42540
1130.46203,0.44140
1128.97224,0.48730
1127.48245,0.50586
1125.99266,0.56303
1124.50288,0.46347
1123.01309,0.50204
1121.52330,0.54064
1120.03351,0.62034
1118.54372,0.77596
1117.05393,0.77983
1115.56415,0.73273
1114.07436,0.71553
1112.58457,0.72137
1111.09478,0.72724
1109.60499,0.73502
1108.11520,0.76274
1106.62542,0.84026
1105.13563,0.96882
1103.64584,1.02525
1102.15605,1.10661
1100.66626,1.09468
1099.17647,1.08280
1097.68668,1.05850
1096.19690,1.10889
1094.70711,1.12323
1093.21732,1.21101
1091.72753,1.31251
1090.23774,1.30456
1088.74795,1.29665
1087.25817,1.39203
1085.76838,1.44141
1084.27859,1.51944
1082.78880,1.60497
1081.29901,1.51761
1079.80922,1.62685
1078.31943,1.66334
1076.82965,1.69986
1075.33986,1.75198
1073.85007,1.68469
1072.36028,1.67342
1070.87049,1.78535
1069.38070,1.83636
1067.89092,1.87122
1066.40113,1.90612
1064.91134,1.88632
1063.42155,1.69237
1061.93176,1.60047
1060.44197,1.42898
1058.95219,1.44539
1057.46240,1.38221
1055.97261,1.31907
1054.48282,1.21241
1052.99303,1.20532
1051.50324,1.02658
1050.01345,1.13526
1048.52367,0.98769
1047.03388,0.94776
1045.54409,0.90788
1044.05430,0.86616
1042.56451,0.70255
1041.07472,0.59993
1039.58494,0.58320
1038.09515,0.62871
1036.60536,0.59587
1035.11557,0.56306
1033.62578,0.51536
1032.13599,0.47019
1030.64620,0.42255
1029.15642,0.44712
1027.66663,0.46736
1026.17684,0.48764
1024.68705,0.50732
1023.19726,0.59423
1021.70747,0.72223
1020.21769,0.78308
1018.72790,0.94349
1017.23811,1.08776
1015.74832,1.23207
1014.25853,1.47097
1012.76874,1.61037
1011.27896,1.94264
1009.78917,2.00000
1008.29938,1.96035
1006.80959,1.94375
1005.31980,1.92718
1003.83001,1.77193
1002.34022,1.69883
1000.85044,1.52871
999.36065,1.37854
997.87086,1.33353
996.38107,1.28856
994.89128,1.32884
993.40149,1.45625
991.91171,1.40702
990.42192,1.45736
988.93213,1.38705
987.44234,1.35535
985.95255,1.32368
984.46276,1.23356
982.97297,1.31891
981.48319,1.21767
979.99340,1.11398
978.50361,1.20254
977.01382,1.29113
975.52403,1.15893
974.03424,1.00561
972.54446,1.01655
971.05467,1.04245
969.56488,1.01862
968.07509,0.97181
966.58530,0.92504
965.09551,0.86399
963.60573,0.91494
962.11594,0.81913
960.62615,0.80422
959.13636,0.75823
957.64657,0.71229
956.15678,0.63527
954.66699,0.66528
953.17721,0.74012
951.68742,0.71297
950.19763,0.69083
948.70784,0.66873
947.21805,0.65910
945.72826,0.64702
944.23848,0.77805
942.74869,0.77226
941.25890,0.76899
939.76911,0.80495
938.27932,0.84094
936.78953,0.93854
935.29974,0.95159
933.80996,0.85518
932.32017,0.93050
930.83038,0.90570
929.34059,0.88093
927.85080,0.87299
926.36101,0.86260
924.87123,0.78506
923.38144,0.81953
921.89165,0.90566
920.40186,0.99183
918.91207,0.90821
917.42228,0.86319
915.93250,0.89036
914.44271,1.02954
912.95292,0.99271
911.46313,0.95592
909.97334,1.09645
908.48355,1.04541
906.99376,1.04293
905.50398,0.85760
904.01419,0.88878
902.52440,0.92000
901.03461,0.92015
899.54482,1.04723
898.05503,1.07481
896.56525,1.14100
895.07546,1.11267
893.58567,1.08438
892.09588,0.90184
890.60609,1.11249
889.11630,1.06066
887.62651,0.87698
886.13673,0.92724
884.64694,0.97753
883.15715,1.10872
881.66736,1.10185
880.17757,1.06764
878.68778,1.14295
877.19800,1.21830
875.70821,1.16553
874.21842,1.21979
872.72863,1.26041
871.23884,1.21645
869.74905,1.21359
868.25927,1.21076
866.76948,1.21045
865.27969,1.29478
863.78990,1.39532
862.30011,1.49713
860.81032,1.43351
859.32053,1.36993
857.83075,1.25288
856.34096,1.24286
854.85117,1.08980
853.36138,1.09104
851.87159,1.03012
850.38180,0.96923
848.89202,0.83621
847.40223,0.61987
845.91244,0.59641
844.42265,0.59600
842.93286,0.59562
841.44307,0.53244
839.95329,0.46557
838.46350,0.41118
836.97371,0.51607
835.48392,0.46236
833.99413,0.40869
832.50434,0.43654
831.01455,0.45697
829.52477,0.45876
828.03498,0.41705
826.54519,0.41270
825.05540,0.40837
823.56561,0.29834
822.07582,0.23437
820.58604,0.25752
819.09625,0.20793
817.60646,0.15836
816.11667,0.12439
814.62688,0.13400
813.13709,0.05779
811.64730,0.02267
810.15752,0.02616
808.66773,0.02968
807.17794,0.00462
805.68815,0.06289
804.19836,0.08138
802.70857,0.04641
801.21879,0.01147
799.72900,0.12338
798.23921,0.22785
796.74942,0.26642
795.25963,0.28014
793.76984,0.29390
792.28006,0.35372
790.79027,0.55541
789.30048,0.60783
787.81069,0.57320
786.32090,0.58215
784.83111,0.59114
783.34132,0.61011
781.85154,0.57189
780.36175,0.58471
778.87196,0.62804
777.38217,0.67141
775.89238,0.74779
774.40259,0.75328
772.91281,0.73766
771.42302,0.76126
769.93323,0.78489
768.44344,0.82412
766.95365,0.82854
765.46386,0.84543
763.97407,0.82131
762.48429,0.74745
760.99450,0.67363
759.50471,0.62099
758.01492,0.55221
756.52513,0.43122
755.03534,0.38615
753.54556,0.34111
752.05577,0.20529
750.56598,0.21880
749.07619,0.14650
747.58640,0.13892
746.09661,0.13138
744.60683,0.10646
743.11704,0.05047
741.62725,0.10399
740.13746,0.05678
738.64767,0.00960
737.15788,0.00973
735.66809,0.06090
734.17831,0.05737
732.68852,0.07440
731.19873,0.09147
729.70894,0.03827
728.21915,0.07842
726.72936,0.09621
725.23958,0.12399
723.74979,0.13438
722.26000,0.14481
720.77021,0.11919
719.28042,0.07495
717.79063,0.06308
716.30084,0.03384
714.81106,0.00462
713.32127,0.05502
711.83148,0.14028
710.34169,0.12356
708.85190,0.09755
707.36211,0.07156
705.87233,0.08729
704.38254,0.08191
702.89275,0.14125
701.40296,0.15398
699.91317,0.16673
698.42338,0.13536
696.93360,0.21972
695.44381,0.17597
693.95402,0.18887
692.46423,0.20180
690.97444,0.27759
689.48465,0.26260
687.99486,0.28745
686.50508,0.34281
685.01529,0.39822
683.52550,0.37589
682.03571,0.37102
680.54592,0.31145
679.05613,0.30913
677.56635,0.30685
676.07656,0.32327
674.58677,0.28374
673.09698,0.23180
671.60719,0.24894
670.11740,0.26612
668.62761,0.18069
667.13783,0.12391
665.64804,0.14119
664.15825,0.15850
662.66846,0.08814
661.17867,0.12356
659.68888,0.20132
658.19910,0.17896
656.70931,0.15664
655.21952,0.15861
653.72973,0.19545
652.23994,0.23356
650.75015,0.25678
649.26037,0.28004
647.77058,0.15279
646.28079,0.09525
644.79100,0.10244
643.30121,0.11899
641.81142,0.13557
640.32163,0.06697
638.83185,0.00462
637.34206,0.08789
635.85227,0.08347
634.36248,0.07910
632.87269,0.03681
631.38290,0.09532
629.89312,0.17254
628.40333,0.16021
626.91354,0.14792
625.42375,0.10207
623.93396,0.08984
622.44417,0.10378
620.95438,0.11775
619.46460,0.13175
617.97481,0.09602
616.48502,0.12876
614.99523,0.10554
613.50544,0.08236
612.01565,0.09281
610.52587,0.10204
609.03608,0.04786
607.54629,0.08889
606.05650,0.12995
604.56671,0.15301
603.07692,0.12011
601.58714,0.15070
600.09735,0.18133
598.60756,0.15476
597.11777,0.07223
595.62798,0.08555
594.13819,0.07961
592.64840,0.07370
591.15862,0.07965
589.66883,0.09683
588.17904,0.13271
586.68925,0.11699
585.19946,0.10130
583.70967,0.11115
582.21989,0.15214
580.73010,0.16891
579.24031,0.18571
577.75052,0.05138
576.26073,0.03652
574.77094,0.09261
573.28115,0.12883
571.79137,0.16509
570.30158,0.19266
568.81179,0.24641
567.32200,0.23549
565.83221,0.22460
564.34242,0.21873
562.85264,0.31988
561.36285,0.40117
559.87306,0.40473
558.38327,0.40832
556.89348,0.42999
555.40369,0.53256
553.91391,0.51075
552.42412,0.48898
550.93433,0.56428
549.44454,0.56497
547.95475,0.54952
546.46496,0.54904
544.97517,0.54859
543.48539,0.60043
541.99560,0.69957
540.50581,0.66501
539.01602,0.63048
537.52623,0.54187
536.03644,0.56527
534.54666,0.53395
533.05687,0.53813
531.56708,0.54234
530.07729,0.62435
528.58750,0.52723
527.09771,0.55270
525.60792,0.57820
524.11814,0.47621
522.62835,0.57332
521.13856,0.47638
519.64877,0.45411
518.15898,0.43189
516.66919,0.45573
515.17941,0.37510
513.68962,0.33182
512.19983,0.28858
510.71004,0.41085
509.22025,0.44854
507.73046,0.44771
506.24068,0.45375
504.75089,0.45983
503.26110,0.39066
501.77131,0.43724
500.28152,0.47204
498.79173,0.50686
497.30194,0.45650
495.81216,0.55423
494.32237,0.55868
492.83258,0.56316
491.34279,0.47437
489.85300,0.48763
488.36321,0.49222
486.87343,0.48129
485.38364,0.47040
483.89385,0.35689
482.40406,0.30314
480.91427,0.24321
479.42448,0.18331
477.93469,0.11100
476.44491,0.14448
474.95512,0.08903
473.46533,0.03362
471.97554,0.02864
470.48575,0.06474
468.99596,0.01379
467.50618,0.04348
466.01639,0.07321
464.52660,0.01837
463.03681,0.00462
461.54702,0.01771
460.05723,0.03083
458.56745,0.05269
457.07766,0.04846
455.58787,0.04551
454.09808,0.04260
452.60829,0.14920
451.11850,0.18118
449.62871,0.19081
448.13893,0.20047
446.64914,0.30597
445.15935,0.33312
443.66956,0.33542
442.17977,0.40929
440.68998,0.48320
439.20020,0.51297
437.71041,0.66843
436.22062,0.68210
434.73083,0.69581
433.24104,0.89865
431.75125,1.07043
430.26146,1.10788
428.77168,1.14535
427.28189,1.31226
425.79210,1.30129
424.30231,1.20450
422.81252,1.10775
421.32273,1.10933
419.83295,0.99771
418.34316,0.97447
416.85337,0.95127
415.36358,0.79621
413.87379,0.75317
412.38400,0.71265
410.89422,0.67216
409.40443,0.58567
407.91464,0.61741
406.42485,0.56956
404.93506,0.54725
403.44527,0.52498
401.95548,0.46852
400.46570,0.48675
398.97591,0.50003
397.48612,0.51335
395.99633,0.55780
394.50654,0.64335
393.01675,0.53547
391.52697,0.42762
390.03718,0.39135
388.54739,0.39492
387.05760,0.40786
385.56781,0.42083
384.07802,0.43197
382.58824,0.33117
381.09845,0.33367
379.60866,0.33621
378.11887,0.41093
376.62908,0.30530
375.13929,0.27123
373.64950,0.23720
372.15972,0.26977
370.66993,0.28122
369.18014,0.24480
367.69035,0.20842
366.20056,0.25854
364.71077,0.16437
363.22099,0.18533
361.73120,0.20631
360.24141,0.21302
358.75162,0.21355
357.26183,0.15626
355.77204,0.09900
354.28225,0.16604
352.79247,0.14726
351.30268,0.14096
349.81289,0.13469
348.32310,0.19440
346.83331,0.11231
345.34352,0.14445
343.85374,0.17663
342.36395,0.16655
340.87416,0.13908
339.38437,0.18380
337.89458,0.22856
336.40479,0.11037
334.91501,0.05069
333.42522,0.09928
331.93543,0.14791
330.44564,0.07962
328.95585,0.17062
327.46606,0.15901
325.97627,0.14743
324.48649,0.14202
322.99670,0.19513
321.50691,0.21530
320.01712,0.23550
318.52733,0.26133
317.03754,0.19638
315.54776,0.14453
314.05797,0.09271
312.56818,0.04030
311.07839,0.13869
309.58860,0.07164
308.09881,0.00462
306.60902,0.05202
305.11924,0.16788
303.62945,0.14568
302.13966,0.12351
300.64987,0.07151
299.16008,0.00462
