1778.52000,0.05431
1777.03021,0.00060
1775.54042,0.01121
1774.05063,0.04204
1772.56085,0.01966
1771.07106,0.03956
1769.58127,0.00623
1768.09148,0.02253
1766.60169,0.09211
1765.11190,0.05338
1763.62212,0.00000
1762.13233,0.08071
1760.64254,0.03842
1759.15275,0.08982
1757.66296,0.08617
1756.17317,0.11010
1754.68339,0.00000
1753.19360,0.09187
1751.70381,0.04420
1750.21402,0.07002
1748.72423,0.10323
1747.23444,0.08689
1745.74465,0.07610
1744.25487,0.04881
1742.76508,0.10971
1741.27529,0.09168
1739.78550,0.14898
1738.29571,0.08327
1736.80592,0.10208
1735.31614,0.03093
1733.82635,0.08654
1732.33656,0.03200
1730.84677,0.04544
1729.35698,0.02035
1727.86719,0.05039
1726.37740,0.05108
1724.88762,0.00957
1723.39783,0.04891
1721.90804,0.06256
1720.41825,0.03585
1718.92846,0.00000
1717.43867,0.07196
1715.94889,0.03929
1714.45910,0.03603
1712.96931,0.04015
1711.47952,0.02779
1709.98973,0.09442
1708.49994,0.04540
1707.01016,0.06987
1705.52037,0.09437
1704.03058,0.16850
1702.54079,0.10676
1701.05100,0.11118
1699.56121,0.17255
1698.07142,0.18622
1696.58164,0.15402
1695.09185,0.18979
1693.60206,0.21091
1692.11227,0.18983
1690.62248,0.22572
1689.13269,0.27450
1687.64291,0.20578
1686.15312,0.25095
1684.66333,0.23740
1683.17354,0.28999
1681.68375,0.24896
1680.19396,0.26490
1678.70417,0.30475
1677.21439,0.20507
1675.72460,0.23213
1674.23481,0.27759
1672.74502,0.24046
1671.25523,0.26579
1669.76544,0.24342
1668.27566,0.21924
1666.78587,0.18776
1665.29608,0.21875
1663.80629,0.26263
1662.31650,0.17249
1660.82671,0.17788
1659.33693,0.18697
1657.84714,0.12449
1656.35735,0.17406
1654.86756,0.16857
1653.37777,0.14292
1651.88798,0.14118
1650.39819,0.19457
1648.90841,0.24983
1647.41862,0.14536
1645.92883,0.14927
1644.43904,0.15322
1642.94925,0.12232
1641.45946,0.17409
1639.96968,0.12856
1638.47989,0.19693
1636.99010,0.16984
1635.50031,0.21257
1634.01052,0.17821
1632.52073,0.11817
1631.03094,0.14816
1629.54116,0.13961
1628.05137,0.20640
1626.56158,0.15018
1625.07179,0.22438
1623.58200,0.23802
1622.09221,0.20578
1620.60243,0.18277
1619.11264,0.17264
1617.62285,0.14969
1616.13306,0.25349
1614.64327,0.23613
1613.15348,0.29409
1611.66370,0.20518
1610.17391,0.17507
1608.68412,0.18172
1607.19433,0.21963
1605.70454,0.21350
1604.21475,0.17160
1602.72496,0.12973
1601.23518,0.22104
1599.74539,0.23709
1598.25560,0.13381
1596.76581,0.15361
1595.27602,0.12753
1593.78623,0.17127
1592.29645,0.20036
1590.80666,0.08441
1589.31687,0.10622
1587.82708,0.12256
1586.33729,0.18301
1584.84750,0.13699
1583.35771,0.15895
1581.86793,0.15340
1580.37814,0.12768
1578.88835,0.08915
1577.39856,0.11676
1575.90877,0.08013
1574.41898,0.09496
1572.92920,0.15941
1571.43941,0.03474
1569.94962,0.08366
1568.45983,0.13260
1566.97004,0.05763
1565.48025,0.08553
1563.99047,0.08041
1562.50068,0.07900
1561.01089,0.07763
1559.52110,0.09466
1558.03131,0.13743
1556.54152,0.11597
1555.05173,0.12025
1553.56195,0.12824
1552.07216,0.16197
1550.58237,0.16269
1549.09258,0.00000
1547.60279,0.02123
1546.11300,0.16738
1544.62322,0.20889
1543.13343,0.17881
1541.64364,0.09001
1540.15385,0.09765
1538.66406,0.10533
1537.17427,0.08274
1535.68448,0.03632
1534.19470,0.05053
1532.70491,0.09417
1531.21512,0.02581
1529.72533,0.04564
1528.23554,0.04898
1526.74575,0.02298
1525.25597,0.09434
1523.76618,0.10881
1522.27639,0.02965
1520.78660,0.05521
1519.29681,0.00000
1517.80702,0.07635
1516.31724,0.02785
1514.82745,0.00694
1513.33766,0.01820
1511.84787,0.02950
1510.35808,0.02523
1508.86829,0.03751
1507.37850,0.00576
1505.88872,0.04751
1504.39893,0.00848
1502.90914,0.01357
1501.41935,0.10133
1499.92956,0.05875
1498.43977,0.13556
1496.94999,0.21793
1495.46020,0.24707
1493.97041,0.29094
1492.48062,0.22282
1490.99083,0.26676
1489.50104,0.40072
1488.01125,0.46586
1486.52147,0.53103
1485.03168,0.65408
1483.54189,0.80655
1482.05210,0.80663
1480.56231,1.04916
1479.07252,1.16685
1477.58274,1.27539
1476.09295,1.31970
1474.60316,1.42280
1473.11337,1.43596
1471.62358,1.39773
1470.13379,1.44401
1468.64401,1.30669
1467.15422,1.32182
1465.66443,1.28741
1464.17464,1.25304
1462.68485,1.31420
1461.19506,1.23398
1459.70527,1.18870
1458.21549,1.03510
1456.72570,0.90174
1455.23591,0.89512
1453.74612,0.78571
1452.25633,0.86732
1450.76654,0.79287
1449.27676,0.76804
1447.78697,0.66060
1446.29718,0.60279
1444.80739,0.54501
1443.31760,0.48727
1441.82781,0.47547
1440.33802,0.37556
1438.84824,0.30875
1437.35845,0.33011
1435.86866,0.27990
1434.37887,0.34174
1432.88908,0.27690
1431.39929,0.29291
1429.90951,0.34200
1428.41972,0.32319
1426.92993,0.40357
1425.44014,0.47298
1423.95035,0.43866
1422.46056,0.40438
1420.97078,0.31596
1419.48099,0.44060
1417.99120,0.42939
1416.50141,0.41453
1415.01162,0.46950
1413.52183,0.54654
1412.03204,0.42344
1410.54226,0.51892
1409.05247,0.51710
1407.56268,0.51899
1406.07289,0.43277
1404.58310,0.45126
1403.09331,0.46978
1401.60353,0.44243
1400.11374,0.52531
1398.62395,0.62842
1397.13416,0.56261
1395.64437,0.53541
1394.15458,0.65332
1392.66479,0.61517
1391.17501,0.61195
1389.68522,0.63080
1388.19543,0.49727
1386.70564,0.54098
1385.21585,0.58473
1383.72606,0.57986
1382.23628,0.51441
1380.74649,0.47839
1379.25670,0.65543
1377.76691,0.65620
1376.27712,0.60927
1374.78733,0.69276
1373.29755,0.76343
1371.80776,0.85800
1370.31797,1.02057
1368.82818,1.08584
1367.33839,1.15114
1365.84860,1.33769
1364.35881,1.54447
1362.86903,1.66497
1361.37924,1.73960
1359.88945,1.78856
1358.39966,1.86326
1356.90987,1.75987
1355.42008,1.83465
1353.93030,1.92048
1352.44051,1.89432
1350.95072,1.86820
1349.46093,1.76866
1347.97114,1.46898
1346.48135,1.21526
1344.99156,1.13235
1343.50178,1.04765
1342.01199,1.04378
1340.52220,0.90222
1339.03241,0.93515
1337.54262,0.81754
1336.05283,0.76974
1334.56305,0.72198
1333.07326,0.69446
1331.58347,0.67799
1330.09368,0.65605
1328.60389,0.72229
1327.11410,0.53515
1325.62432,0.59595
1324.13453,0.55028
1322.64474,0.51383
1321.15495,0.51598
1319.66516,0.51908
1318.17537,0.52222
1316.68558,0.51714
1315.19580,0.37619
1313.70601,0.45565
1312.21622,0.32395
1310.72643,0.35941
1309.23664,0.29390
1307.74685,0.40473
1306.25707,0.44580
1304.76728,0.38683
1303.27749,0.32789
1301.78770,0.41315
1300.29791,0.42682
1298.80812,0.43135
1297.31834,0.42306
1295.82855,0.43500
1294.33876,0.36251
1292.84897,0.49573
1291.35918,0.38842
1289.86939,0.42805
1288.37960,0.46773
1286.88982,0.43582
1285.40003,0.46821
1283.91024,0.48045
1282.42045,0.50007
1280.93066,0.45728
1279.44087,0.57430
1277.95109,0.57566
1276.46130,0.50176
1274.97151,0.53258
1273.48172,0.56343
1271.99193,0.62737
1270.50214,0.63993
1269.01235,0.59560
1267.52257,0.65047
1266.03278,0.63559
1264.54299,0.68503
1263.05320,0.72715
1261.56341,0.73533
1260.07362,0.74356
1258.58384,0.77477
1257.09405,0.72705
1255.60426,0.77119
1254.11447,0.74558
1252.62468,0.73838
1251.13489,0.75324
1249.64511,0.64878
1248.15532,0.57373
1246.66553,0.57218
1245.17574,0.57066
1243.68595,0.54347
1242.19616,0.51264
1240.70637,0.47817
1239.21659,0.47864
1237.72680,0.33590
1236.23701,0.45396
1234.74722,0.34251
1233.25743,0.35873
1231.76764,0.37498
1230.27786,0.31506
1228.78807,0.30843
1227.29828,0.26511
1225.80849,0.30263
1224.31870,0.20612
1222.82891,0.26759
1221.33912,0.26114
1219.84934,0.21249
1218.35955,0.16387
1216.86976,0.31730
1215.37997,0.30916
1213.89018,0.26249
1212.40039,0.24524
1210.91061,0.20966
1209.42082,0.17412
1207.93103,0.18269
1206.44124,0.19129
1204.95145,0.09709
1203.46166,0.10209
1201.97188,0.09795
1200.48209,0.13976
1198.99230,0.12283
1197.50251,0.12614
1196.01272,0.00278
1194.52293,0.02177
1193.03314,0.04080
1191.54336,0.04976
1190.05357,0.00000
1188.56378,0.04030
1187.07399,0.04758
1185.58420,0.01266
1184.09441,0.04389
1182.60463,0.02465
1181.11484,0.00545
1179.62505,0.00189
1178.13526,0.01562
1176.64547,0.06243
1175.15568,0.07623
1173.66589,0.06435
1172.17611,0.07822
1170.68632,0.06917
1169.19653,0.06016
1167.70674,0.15861
1166.21695,0.00000
1164.72716,0.10510
1163.23738,0.12026
1161.74759,0.00323
1160.25780,0.04783
1158.76801,0.03922
1157.27822,0.03065
1155.78843,0.09740
1154.29865,0.02646
1152.80886,0.04187
1151.31907,0.09772
1149.82928,0.14258
1148.33949,0.13422
1146.84970,0.17273
1145.35991,0.21127
1143.87013,0.11855
1142.38034,0.06442
1140.89055,0.19765
1139.40076,0.28500
1137.91097,0.27873
1136.42118,0.34779
1134.93140,0.36547
1133.44161,0.38319
1131.95182,0.53867
1130.46203,0.51238
1128.97224,0.59631
1127.48245,0.39563
1125.99266,0.61554
1124.50288,0.62428
1123.01309,0.64500
1121.52330,0.66576
1120.03351,0.80684
1118.54372,0.76248
1117.05393,0.69060
1115.56415,0.77302
1114.07436,0.83345
1112.58457,0.79106
1111.09478,0.74872
1109.60499,0.84781
1108.11520,0.79635
1106.62542,0.76881
1105.13563,0.89923
1103.64584,1.09029
1102.15605,1.05918
1100.66626,1.09238
1099.17647,1.12561
1097.68668,1.21398
1096.19690,1.18668
1094.70711,1.31369
1093.21732,1.31401
1091.72753,1.29784
1090.23774,1.30742
1088.74795,1.31704
1087.25817,1.46809
1085.76838,1.55308
1084.27859,1.48567
1082.78880,1.66254
1081.29901,1.66499
1079.80922,1.68768
1078.31943,1.69112
1076.82965,1.69460
1075.33986,1.84962
1073.85007,1.79348
1072.36028,1.75942
1070.87049,1.74192
1069.38070,1.86770
1067.89092,1.93383
1066.40113,2.00000
1064.91134,1.94592
1063.42155,1.73027
1061.93176,1.76624
1060.44197,1.66819
1058.95219,1.56651
1057.46240,1.52914
1055.97261,1.49180
1054.48282,1.40124
1052.99303,1.39152
1051.50324,1.19269
1050.01345,1.06551
1048.52367,0.97142
1047.03388,0.94716
1045.54409,0.92293
1044.05430,0.87119
1042.56451,0.67441
1041.07472,0.68885
1039.58494,0.70884
1038.09515,0.67561
1036.60536,0.59559
1035.11557,0.51560
1033.62578,0.41453
1032.13599,0.43102
1030.64620,0.45307
1029.15642,0.52840
1027.66663,0.53674
1026.17684,0.54512
1024.68705,0.53058
1023.19726,0.63361
1021.70747,0.71463
1020.21769,0.82324
1018.72790,0.98514
1017.23811,1.08188
1015.74832,1.17866
1014.25853,1.33149
1012.76874,1.52659
1011.27896,1.66663
1009.78917,1.69469
1008.29938,1.60893
1006.80959,1.61227
1005.31980,1.61564
1003.83001,1.58324
1002.34022,1.62801
1000.85044,1.51304
999.36065,1.40913
997.87086,1.39983
996.38107,1.39056
994.89128,1.28859
993.40149,1.36663
991.91171,1.44287
990.42192,1.24735
988.93213,1.37509
987.44234,1.31646
985.95255,1.25786
984.46276,1.32693
982.97297,1.22342
981.48319,1.34031
979.99340,1.19463
978.50361,1.16744
977.01382,1.14028
975.52403,1.13795
974.03424,1.00343
972.54446,0.96811
971.05467,1.11464
969.56488,1.00227
968.07509,0.99277
966.58530,0.98332
965.09551,0.90962
963.60573,0.88370
962.11594,0.74947
960.62615,0.81545
959.13636,0.74465
957.64657,0.67389
956.15678,0.72896
954.66699,0.57471
953.17721,0.60598
951.68742,0.60422
950.19763,0.65944
948.70784,0.71469
947.21805,0.74059
945.72826,0.74082
944.23848,0.67130
942.74869,0.71934
941.25890,0.77110
939.76911,0.85962
938.27932,0.94818
936.78953,0.99454
935.29974,0.96380
933.80996,0.91840
932.32017,1.07322
930.83038,1.08024
929.34059,1.08729
927.85080,0.95940
926.36101,1.00417
924.87123,1.06918
923.38144,1.05893
921.89165,1.10014
920.40186,1.14139
918.91207,1.09268
917.42228,1.08074
915.93250,1.07802
914.44271,1.11573
912.95292,1.13053
911.46313,1.14536
909.97334,1.30439
908.48355,1.28716
906.99376,1.18549
905.50398,1.11691
904.01419,1.10621
902.52440,1.09555
901.03461,1.24561
899.54482,1.31674
898.05503,1.29425
896.56525,1.39484
895.07546,1.35957
893.58567,1.32434
892.09588,1.27628
890.60609,1.23928
889.11630,1.29414
887.62651,1.17824
886.13673,1.18451
884.64694,1.19081
883.15715,1.30090
881.66736,1.32840
880.17757,1.33205
878.68778,1.31738
877.19800,1.30274
875.70821,1.41301
874.21842,1.50129
872.72863,1.39678
871.23884,1.42085
869.74905,1.40455
868.25927,1.38830
866.76948,1.46022
865.27969,1.41833
863.78990,1.48482
862.30011,1.49442
860.81032,1.42784
859.32053,1.36129
857.83075,1.45180
856.34096,1.47440
854.85117,1.42725
853.36138,1.21118
851.87159,1.11911
850.38180,1.02708
848.89202,0.86805
847.40223,0.71456
845.91244,0.73190
844.42265,0.67674
842.93286,0.62161
841.44307,0.49031
839.95329,0.53534
838.46350,0.50328
836.97371,0.48962
835.48392,0.50537
833.99413,0.52117
832.50434,0.41579
831.01455,0.49777
829.52477,0.48061
828.03498,0.42677
826.54519,0.41152
825.05540,0.39631
823.56561,0.43072
822.07582,0.35498
820.58604,0.24622
819.09625,0.23759
817.60646,0.22898
816.11667,0.17726
814.62688,0.19720
813.13709,0.01883
811.64730,0.02599
810.15752,0.01297
808.66773,0.00000
807.17794,0.05034
805.68815,0.11173
804.19836,0.07216
802.70857,0.13271
801.21879,0.19329
799.72900,0.15934
798.23921,0.28335
796.74942,0.33027
795.25963,0.37172
793.76984,0.41320
792.28006,0.53001
790.79027,0.57891
789.30048,0.67560
787.81069,0.54827
786.32090,0.65054
784.83111,0.75284
783.34132,0.77988
781.85154,0.68760
780.36175,0.73859
778.87196,0.72534
777.38217,0.71212
775.89238,0.75588
774.40259,0.87312
772.91281,0.95735
771.42302,0.92959
769.93323,0.90187
768.44344,0.92376
766.95365,0.88509
765.46386,0.91991
763.97407,0.96763
762.48429,0.86847
760.99450,0.76934
759.50471,0.70330
758.01492,0.48855
756.52513,0.47033
755.03534,0.42185
753.54556,0.37341
752.05577,0.17900
750.56598,0.20500
749.07619,0.11167
747.58640,0.14142
746.09661,0.17121
744.60683,0.01922
743.11704,0.06744
741.62725,0.00000
740.13746,0.01581
738.64767,0.03165
737.15788,0.03560
735.66809,0.04876
734.17831,0.06563
732.68852,0.03846
731.19873,0.01133
729.70894,0.01362
728.21915,0.05267
726.72936,0.03850
725.23958,0.08314
723.74979,0.06721
722.26000,0.05131
720.77021,0.00240
719.28042,0.09953
717.79063,0.04061
716.30084,0.02029
714.81106,0.00000
713.32127,0.02785
711.83148,0.00983
710.34169,0.07448
708.85190,0.08683
707.36211,0.09921
705.87233,0.02441
704.38254,0.06900
702.89275,0.00345
701.40296,0.05179
699.91317,0.10016
698.42338,0.14490
696.93360,0.15295
695.44381,0.30244
693.95402,0.35004
692.46423,0.39768
690.97444,0.34711
689.48465,0.31677
687.99486,0.36911
686.50508,0.37557
685.01529,0.38207
683.52550,0.44921
682.03571,0.35111
680.54592,0.25671
679.05613,0.31845
677.56635,0.38022
676.07656,0.33368
674.58677,0.20087
673.09698,0.23337
671.60719,0.21907
670.11740,0.20482
668.62761,0.07031
667.13783,0.20028
665.64804,0.19532
664.15825,0.19039
662.66846,0.10928
661.17867,0.14390
659.68888,0.04450
658.19910,0.07461
656.70931,0.10475
655.21952,0.18910
653.72973,0.17616
652.23994,0.24590
650.75015,0.22109
649.26037,0.19632
647.77058,0.24412
646.28079,0.21116
644.79100,0.15253
643.30121,0.12055
641.81142,0.08862
640.32163,0.14028
638.83185,0.10566
637.34206,0.00680
635.85227,0.04398
634.36248,0.08120
632.87269,0.00000
631.38290,0.09042
629.89312,0.19925
628.40333,0.19334
626.91354,0.18746
625.42375,0.14948
623.93396,0.15010
622.44417,0.17463
620.95438,0.19919
619.46460,0.17972
617.97481,0.15661
616.48502,0.17945
614.99523,0.16376
613.50544,0.14810
612.01565,0.15820
610.52587,0.12609
609.03608,0.14911
607.54629,0.12258
606.05650,0.09608
604.56671,0.12288
603.07692,0.16625
601.58714,0.21608
600.09735,0.26594
598.60756,0.17168
597.11777,0.05175
595.62798,0.13569
594.13819,0.07919
592.64840,0.02272
591.15862,0.14534
589.66883,0.13210
588.17904,0.12073
586.68925,0.14062
585.19946,0.16054
583.70967,0.20254
582.21989,0.16377
580.73010,0.20125
579.24031,0.23877
577.75052,0.15236
576.26073,0.13761
574.77094,0.09351
573.28115,0.17800
571.79137,0.26252
570.30158,0.17813
568.81179,0.29945
567.32200,0.27115
565.83221,0.24287
564.34242,0.42491
562.85264,0.40498
561.36285,0.50261
559.87306,0.55161
558.38327,0.60065
556.89348,0.60841
555.40369,0.54825
553.91391,0.66259
552.42412,0.77697
550.93433,0.67835
549.44454,0.71567
547.95475,0.71814
546.46496,0.78124
544.97517,0.84437
543.48539,0.84327
541.99560,0.86792
540.50581,0.85679
539.01602,0.84569
537.52623,0.83923
536.03644,0.74098
534.54666,0.84660
533.05687,0.84208
531.56708,0.83760
530.07729,0.70827
528.58750,0.73324
527.09771,0.70775
525.60792,0.68229
524.11814,0.70553
522.62835,0.69024
521.13856,0.50604
519.64877,0.52663
518.15898,0.54726
516.66919,0.61476
515.17941,0.54640
513.68962,0.53684
512.19983,0.52731
510.71004,0.42417
509.22025,0.57632
507.73046,0.65321
506.24068,0.64475
504.75089,0.63633
503.26110,0.63804
501.77131,0.65631
500.28152,0.65075
498.79173,0.64522
497.30194,0.65259
495.81216,0.62877
494.32237,0.60406
492.83258,0.57940
491.34279,0.84952
489.85300,0.71015
488.36321,0.52674
486.87343,0.43244
485.38364,0.33817
483.89385,0.45972
482.40406,0.37378
480.91427,0.28054
479.42448,0.18734
477.93469,0.25577
476.44491,0.18651
474.95512,0.17422
473.46533,0.16196
471.97554,0.13321
470.48575,0.06225
468.99596,0.03358
467.50618,0.03248
466.01639,0.03142
464.52660,0.02305
463.03681,0.07349
461.54702,0.03673
460.05723,0.00000
458.56745,0.06414
457.07766,0.25137
455.58787,0.25957
454.09808,0.26781
452.60829,0.30455
451.11850,0.15769
449.62871,0.26153
448.13893,0.36541
446.64914,0.43168
445.15935,0.47227
443.66956,0.57718
442.17977,0.61234
440.68998,0.64753
439.20020,0.75255
437.71041,0.83373
436.22062,0.91586
434.73083,0.99803
433.24104,1.17481
431.75125,1.25613
430.26146,1.28423
428.77168,1.31237
427.28189,1.61601
425.79210,1.57627
424.30231,1.61186
422.81252,1.64749
421.32273,1.71621
419.83295,1.64539
418.34316,1.49841
416.85337,1.35145
415.36358,1.06221
413.87379,1.01726
412.38400,0.94387
410.89422,0.87052
409.40443,0.90647
407.91464,0.84697
406.42485,0.79301
404.93506,0.79693
403.44527,0.80089
401.95548,0.72684
400.46570,0.59773
398.97591,0.65322
397.48612,0.70874
395.99633,0.50812
394.50654,0.62524
393.01675,0.61568
391.52697,0.60615
390.03718,0.44057
388.54739,0.51008
387.05760,0.54841
385.56781,0.58678
384.07802,0.56091
382.58824,0.39918
381.09845,0.39174
379.60866,0.38435
378.11887,0.44126
376.62908,0.26682
375.13929,0.26228
373.64950,0.25778
372.15972,0.23771
370.66993,0.23053
369.18014,0.20502
367.69035,0.17954
366.20056,0.21470
364.71077,0.29582
363.22099,0.25117
361.73120,0.20656
360.24141,0.21616
358.75162,0.30659
357.26183,0.27219
355.77204,0.23782
354.28225,0.14473
352.79247,0.03146
351.30268,0.08506
349.81289,0.13870
348.32310,0.08035
346.83331,0.06794
345.34352,0.08129
343.85374,0.09467
342.36395,0.10441
340.87416,0.14357
339.38437,0.13777
337.89458,0.13201
336.40479,0.08497
334.91501,0.07469
333.42522,0.08281
331.93543,0.09097
330.44564,0.00000
328.95585,0.06376
327.46606,0.11653
325.97627,0.16934
324.48649,0.04589
322.99670,0.03152
321.50691,0.07962
320.01712,0.12777
318.52733,0.01985
317.03754,0.02399
315.54776,0.01806
314.05797,0.01218
312.56818,0.02561
311.07839,0.05928
309.58860,0.08655
308.09881,0.11386
306.60902,0.08520
305.11924,0.08229
303.62945,0.04359
302.13966,0.00494
300.64987,0.02082
299.16008,0.00000
