1778.52000,0.03799
1777.03021,0.05898
1775.54042,0.06201
1774.05063,0.05307
1772.56085,0.01617
1771.07106,0.00130
1769.58127,0.05244
1768.09148,0.07762
1766.60169,0.03086
1765.11190,0.08210
1763.62212,0.02140
1762.13233,0.07670
1760.64254,0.05605
1759.15275,0.06743
1757.66296,0.13482
1756.17317,0.08628
1754.68339,0.05176
1753.19360,0.01928
1751.70381,0.03082
1750.21402,0.04238
1748.72423,0.00000
1747.23444,0.00963
1745.74465,0.00130
1744.25487,0.03818
1742.76508,0.11507
1741.27529,0.09203
1739.78550,0.07701
1738.29571,0.07603
1736.80592,0.10306
1735.31614,0.06815
1733.82635,0.07126
1732.33656,0.04241
1730.84677,0.12756
1729.35698,0.06078
1727.86719,0.04002
1726.37740,0.02530
1724.88762,0.00261
1723.39783,0.09791
1721.90804,0.00130
1720.41825,0.01777
1718.92846,0.05027
1717.43867,0.03681
1715.94889,0.05338
1714.45910,0.07797
1712.96931,0.10460
1711.47952,0.07728
1709.98973,0.08197
1708.49994,0.14268
1707.01016,0.15444
1705.52037,0.16623
1704.03058,0.11708
1702.54079,0.10394
1701.05100,0.11882
1699.56121,0.12174
1698.07142,0.18068
1696.58164,0.16367
1695.09185,0.22267
1693.60206,0.17773
1692.11227,0.17882
1690.62248,0.22991
1689.13269,0.23306
1687.64291,0.16426
1686.15312,0.27343
1684.66333,0.25868
1683.17354,0.28594
1681.68375,0.24126
1680.19396,0.30658
1678.70417,0.27795
1677.21439,0.26736
1675.72460,0.21681
1674.23481,0.25026
1672.74502,0.22177
1671.25523,0.25129
1669.76544,0.28084
1668.27566,0.25844
1666.78587,0.23007
1665.29608,0.18174
1663.80629,0.24341
1662.31650,0.22713
1660.82671,0.24488
1659.33693,0.21667
1657.84714,0.22449
1656.35735,0.17435
1654.86756,0.22021
1653.37777,0.19813
1651.88798,0.19408
1650.39819,0.25003
1648.90841,0.16607
1647.41862,0.15611
1645.92883,0.15918
1644.43904,0.16228
1642.94925,0.15242
1641.45946,0.09460
1639.96968,0.14878
1638.47989,0.14702
1636.99010,0.10729
1635.50031,0.19756
1634.01052,0.16389
1632.52073,0.20424
1631.03094,0.10866
1629.54116,0.16106
1628.05137,0.17351
1626.56158,0.18400
1625.07179,0.22050
1623.58200,0.19106
1622.09221,0.24563
1620.60243,0.22625
1619.11264,0.20690
1617.62285,0.18158
1616.13306,0.17629
1614.64327,0.13905
1613.15348,0.20380
1611.66370,0.27058
1610.17391,0.17345
1608.68412,0.17632
1607.19433,0.27519
1605.70454,0.17615
1604.21475,0.16312
1602.72496,0.15012
1601.23518,0.19314
1599.74539,0.19820
1598.25560,0.15730
1596.76581,0.18642
1595.27602,0.20956
1593.78623,0.11678
1592.29645,0.16798
1590.80666,0.14724
1589.31687,0.07055
1587.82708,0.14984
1586.33729,0.15319
1584.84750,0.11858
1583.35771,0.07800
1581.86793,0.13943
1580.37814,0.04693
1578.88835,0.06243
1577.39856,0.06997
1575.90877,0.16551
1574.41898,0.10713
1572.92920,0.07078
1571.43941,0.05045
1569.94962,0.05515
1568.45983,0.05987
1566.97004,0.09163
1565.48025,0.12141
1563.99047,0.15323
1562.50068,0.12709
1561.01089,0.09499
1559.52110,0.13890
1558.03131,0.15485
1556.54152,0.08286
1555.05173,0.11287
1553.56195,0.12691
1552.07216,0.13899
1550.58237,0.12911
1549.09258,0.08927
1547.60279,0.17342
1546.11300,0.13964
1544.62322,0.08390
1543.13343,0.13215
1541.64364,0.12046
1540.15385,0.10680
1538.66406,0.09318
1537.17427,0.10357
1535.68448,0.11000
1534.19470,0.06448
1532.70491,0.09297
1531.21512,0.09550
1529.72533,0.06207
1528.23554,0.05066
1526.74575,0.00130
1525.25597,0.10292
1523.76618,0.10860
1522.27639,0.06233
1520.78660,0.13805
1519.29681,0.07185
1517.80702,0.02567
1516.31724,0.11549
1514.82745,0.14735
1513.33766,0.11926
1511.84787,0.09121
1510.35808,0.14316
1508.86829,0.13916
1507.37850,0.05322
1505.88872,0.00130
1504.39893,0.08349
1502.90914,0.12772
1501.41935,0.10001
1499.92956,0.06233
1498.43977,0.18663
1496.94999,0.15101
1495.46020,0.19940
1493.97041,0.21984
1492.48062,0.28029
1490.99083,0.31078
1489.50104,0.39128
1488.01125,0.43684
1486.52147,0.48242
1485.03168,0.59301
1483.54189,0.65765
1482.05210,0.77431
1480.56231,0.75904
1479.07252,0.99972
1477.58274,1.09448
1476.09295,1.24325
1474.60316,1.21611
1473.11337,1.31897
1471.62358,1.41185
1470.13379,1.16887
1468.64401,1.16985
1467.15422,1.17886
1465.66443,1.20590
1464.17464,1.23296
1462.68485,1.08411
1461.19506,1.09525
1459.70527,1.01645
1458.21549,0.96566
1456.72570,0.87093
1455.23591,0.81621
1453.74612,0.82551
1452.25633,0.85083
1450.76654,0.77821
1449.27676,0.71762
1447.78697,0.68706
1446.29718,0.61454
1444.80739,0.53905
1443.31760,0.46360
1441.82781,0.44716
1440.33802,0.37476
1438.84824,0.39638
1437.35845,0.34204
1435.86866,0.36372
1434.37887,0.36143
1432.88908,0.35918
1431.39929,0.33896
1429.90951,0.29078
1428.41972,0.33461
1426.92993,0.33048
1425.44014,0.39037
1423.95035,0.41030
1422.46056,0.43026
1420.97078,0.32630
1419.48099,0.37231
1417.99120,0.43236
1416.50141,0.41846
1415.01162,0.42459
1413.52183,0.40875
1412.03204,0.35896
1410.54226,0.44516
1409.05247,0.36744
1407.56268,0.45970
1406.07289,0.51200
1404.58310,0.49536
1403.09331,0.47875
1401.60353,0.47316
1400.11374,0.45162
1398.62395,0.51408
1397.13416,0.47060
1395.64437,0.59111
1394.15458,0.63567
1392.66479,0.67027
1391.17501,0.61492
1389.68522,0.62159
1388.19543,0.62229
1386.70564,0.65602
1385.21585,0.68977
1383.72606,0.49863
1382.23628,0.54145
1380.74649,0.44834
1379.25670,0.54720
1377.76691,0.62810
1376.27712,0.68104
1374.78733,0.66404
1373.29755,0.73904
1371.80776,0.90804
1370.31797,1.01509
1368.82818,1.03221
1367.33839,1.04935
1365.84860,1.19249
1364.35881,1.53160
1362.86903,1.58083
1361.37924,1.70807
1359.88945,1.85333
1358.39966,1.86067
1356.90987,2.00000
1355.42008,1.81346
1353.93030,1.93286
1352.44051,1.89534
1350.95072,1.85785
1349.46093,1.63945
1347.97114,1.50906
1346.48135,1.24273
1344.99156,1.07441
1343.50178,1.15405
1342.01199,0.98579
1340.52220,1.00151
1339.03241,0.89530
1337.54262,0.88709
1336.05283,0.79394
1334.56305,0.70082
1333.07326,0.77268
1331.58347,0.61264
1330.09368,0.64058
1328.60389,0.65856
1327.11410,0.58659
1325.62432,0.54664
1324.13453,0.56471
1322.64474,0.60281
1321.15495,0.64294
1319.66516,0.59712
1318.17537,0.55134
1316.68558,0.57956
1315.19580,0.48186
1313.70601,0.51215
1312.21622,0.44050
1310.72643,0.42687
1309.23664,0.42926
1307.74685,0.37570
1306.25707,0.49812
1304.76728,0.44963
1303.27749,0.40116
1301.78770,0.40772
1300.29791,0.35632
1298.80812,0.34894
1297.31834,0.40957
1295.82855,0.44424
1294.33876,0.36298
1292.84897,0.45170
1291.35918,0.41848
1289.86939,0.43928
1288.37960,0.46012
1286.88982,0.44100
1285.40003,0.47989
1283.91024,0.49282
1282.42045,0.54178
1280.93066,0.64875
1279.44087,0.53981
1277.95109,0.70083
1276.46130,0.56596
1274.97151,0.54410
1273.48172,0.52226
1271.99193,0.62543
1270.50214,0.53268
1269.01235,0.65590
1267.52257,0.62919
1266.03278,0.67050
1264.54299,0.76582
1263.05320,0.72722
1261.56341,0.71264
1260.07362,0.69809
1258.58384,0.72756
1257.09405,0.78705
1255.60426,0.84658
1254.11447,0.89814
1252.62468,0.83976
1251.13489,0.71544
1249.64511,0.64113
1248.15532,0.47888
1246.66553,0.51860
1245.17574,0.55836
1243.68595,0.54616
1242.19616,0.52800
1240.70637,0.57584
1239.21659,0.50776
1237.72680,0.40972
1236.23701,0.42567
1234.74722,0.46365
1233.25743,0.39169
1231.76764,0.31977
1230.27786,0.43782
1228.78807,0.36596
1227.29828,0.28813
1225.80849,0.26632
1224.31870,0.25053
1222.82891,0.30676
1221.33912,0.22506
1219.84934,0.22637
1218.35955,0.22771
1216.86976,0.29207
1215.37997,0.41243
1213.89018,0.42087
1212.40039,0.26738
1210.91061,0.21390
1209.42082,0.19244
1207.93103,0.16201
1206.44124,0.13162
1204.95145,0.20222
1203.46166,0.12091
1201.97188,0.21557
1200.48209,0.07834
1198.99230,0.12708
1197.50251,0.08788
1196.01272,0.06870
1194.52293,0.06456
1193.03314,0.06044
1191.54336,0.08935
1190.05357,0.05831
1188.56378,0.00130
1187.07399,0.11983
1185.58420,0.03646
1184.09441,0.10507
1182.60463,0.07374
1181.11484,0.04245
1179.62505,0.09116
1178.13526,0.01595
1176.64547,0.05673
1175.15568,0.10953
1173.66589,0.19636
1172.17611,0.23324
1170.68632,0.18017
1169.19653,0.12714
1167.70674,0.04815
1166.21695,0.06916
1164.72716,0.10019
1163.23738,0.00130
1161.74759,0.09074
1160.25780,0.08624
1158.76801,0.11276
1157.27822,0.13931
1155.78843,0.11891
1154.29865,0.10054
1152.80886,0.05421
1151.31907,0.07789
1149.82928,0.09161
1148.33949,0.09936
1146.84970,0.10315
1145.35991,0.10696
1143.87013,0.02283
1142.38034,0.09669
1140.89055,0.13459
1139.40076,0.21451
1137.91097,0.26247
1136.42118,0.36045
1134.93140,0.37649
1133.44161,0.39255
1131.95182,0.43065
1130.46203,0.50076
1128.97224,0.48493
1127.48245,0.60509
1125.99266,0.53535
1124.50288,0.48363
1123.01309,0.50491
1121.52330,0.52624
1120.03351,0.63456
1118.54372,0.62296
1117.05393,0.61938
1115.56415,0.61184
1114.07436,0.70229
1112.58457,0.69082
1111.09478,0.67937
1109.60499,0.67995
1108.11520,0.77854
1106.62542,0.71720
1105.13563,0.81985
1103.64584,0.98251
1102.15605,1.00324
1100.66626,1.00702
1099.17647,1.01082
1097.68668,0.94368
1096.19690,1.11250
1094.70711,1.12140
1093.21732,1.25629
1091.72753,1.25126
1090.23774,1.26525
1088.74795,1.27927
1087.25817,1.26834
1085.76838,1.35940
1084.27859,1.45650
1082.78880,1.48965
1081.29901,1.60480
1079.80922,1.61602
1078.31943,1.59927
1076.82965,1.58256
1075.33986,1.62787
1073.85007,1.67920
1072.36028,1.72256
1070.87049,1.68999
1069.38070,1.70943
1067.89092,1.77288
1066.40113,1.83637
1064.91134,1.73394
1063.42155,1.72352
1061.93176,1.43321
1060.44197,1.54681
1058.95219,1.32654
1057.46240,1.26726
1055.97261,1.20801
1054.48282,1.26975
1052.99303,1.08560
1051.50324,0.99146
1050.01345,1.07329
1048.52367,0.86925
1047.03388,0.86717
1045.54409,0.86513
1044.05430,0.86511
1042.56451,0.77116
1041.07472,0.61926
1039.58494,0.72731
1038.09515,0.58146
1036.60536,0.57161
1035.11557,0.56179
1033.62578,0.47803
1032.13599,0.46228
1030.64620,0.44056
1029.15642,0.50284
1027.66663,0.47319
1026.17684,0.44357
1024.68705,0.55394
1023.19726,0.56836
1021.70747,0.80276
1020.21769,0.88123
1018.72790,1.04971
1017.23811,1.20223
1015.74832,1.35477
1014.25853,1.58133
1012.76874,1.71394
1011.27896,1.85659
1009.78917,1.89530
1008.29938,1.79208
1006.80959,1.77587
1005.31980,1.75969
1003.83001,1.74455
1002.34022,1.53549
1000.85044,1.60438
999.36065,1.47136
997.87086,1.42735
996.38107,1.38338
994.89128,1.41041
993.40149,1.49545
991.91171,1.39259
990.42192,1.21578
988.93213,1.34890
987.44234,1.30012
985.95255,1.25136
984.46276,1.28262
982.97297,1.07198
981.48319,1.08930
979.99340,1.07866
978.50361,1.07005
977.01382,1.06148
975.52403,1.07293
974.03424,0.96445
972.54446,0.89399
971.05467,0.93153
969.56488,0.91712
968.07509,0.87674
966.58530,0.83640
965.09551,0.73611
963.60573,0.67984
962.11594,0.63759
960.62615,0.70734
959.13636,0.66816
957.64657,0.62901
956.15678,0.63288
954.66699,0.60079
953.17721,0.52875
951.68742,0.57870
950.19763,0.61368
948.70784,0.64870
947.21805,0.58678
945.72826,0.64086
944.23848,0.61499
942.74869,0.73111
941.25890,0.60734
939.76911,0.72452
938.27932,0.84174
936.78953,0.85802
935.29974,0.76236
933.80996,0.74672
932.32017,0.90905
930.83038,0.84948
929.34059,0.78994
927.85080,0.83040
926.36101,0.73494
924.87123,0.80346
923.38144,0.81403
921.89165,0.86861
920.40186,0.92323
918.91207,0.92190
917.42228,0.91660
915.93250,0.89734
914.44271,1.04406
912.95292,0.98987
911.46313,0.93571
909.97334,1.04854
908.48355,1.11541
906.99376,1.08434
905.50398,1.09529
904.01419,1.04229
902.52440,0.98933
901.03461,1.00037
899.54482,1.13542
898.05503,1.18052
896.56525,1.29163
895.07546,1.25082
893.58567,1.21004
892.09588,1.10331
890.60609,1.13858
889.11630,1.02592
887.62651,1.03525
886.13673,1.08961
884.64694,1.14399
883.15715,1.11943
881.66736,1.10490
880.17757,1.11240
878.68778,1.16791
877.19800,1.22345
875.70821,1.21305
874.21842,1.20468
872.72863,1.25232
871.23884,1.21602
869.74905,1.22374
868.25927,1.23149
866.76948,1.32324
865.27969,1.43302
863.78990,1.32491
862.30011,1.38277
860.81032,1.29271
859.32053,1.20268
857.83075,1.18666
856.34096,1.14268
854.85117,1.04675
853.36138,0.98084
851.87159,0.96395
850.38180,0.94709
848.89202,0.73332
847.40223,0.57357
845.91244,0.63178
844.42265,0.55407
842.93286,0.47639
841.44307,0.47472
839.95329,0.43109
838.46350,0.45747
836.97371,0.45590
835.48392,0.43636
833.99413,0.41685
832.50434,0.41537
831.01455,0.51389
829.52477,0.45449
828.03498,0.40912
826.54519,0.33778
825.05540,0.26648
823.56561,0.39316
822.07582,0.20595
820.58604,0.28270
819.09625,0.21153
817.60646,0.14039
816.11667,0.00130
814.62688,0.10597
813.13709,0.07472
811.64730,0.03349
810.15752,0.03529
808.66773,0.03712
807.17794,0.03798
805.68815,0.04487
804.19836,0.14776
802.70857,0.10773
801.21879,0.06773
799.72900,0.14673
798.23921,0.30773
796.74942,0.24884
795.25963,0.29694
793.76984,0.34507
792.28006,0.43823
790.79027,0.59939
789.30048,0.61463
787.81069,0.57392
786.32090,0.60222
784.83111,0.63055
783.34132,0.67391
781.85154,0.56134
780.36175,0.76072
778.87196,0.71320
777.38217,0.66571
775.89238,0.85119
774.40259,0.83876
772.91281,0.94032
771.42302,0.87397
769.93323,0.80765
768.44344,0.90731
766.95365,0.89303
765.46386,0.99076
763.97407,0.84259
762.48429,0.79343
760.99450,0.74429
759.50471,0.62621
758.01492,0.61413
756.52513,0.47212
755.03534,0.43810
753.54556,0.40412
752.05577,0.23022
750.56598,0.27428
749.07619,0.12443
747.58640,0.12857
746.09661,0.13274
744.60683,0.25490
743.11704,0.17316
741.62725,0.11944
740.13746,0.13174
738.64767,0.14406
737.15788,0.07844
735.66809,0.17081
734.17831,0.13724
732.68852,0.08771
731.19873,0.03822
729.70894,0.04074
728.21915,0.00130
726.72936,0.12362
725.23958,0.14000
723.74979,0.15041
722.26000,0.16086
720.77021,0.09336
719.28042,0.03190
717.79063,0.05244
716.30084,0.03702
714.81106,0.02163
713.32127,0.00228
711.83148,0.03494
710.34169,0.13362
708.85190,0.14735
707.36211,0.16111
705.87233,0.06794
704.38254,0.09677
702.89275,0.13162
701.40296,0.16651
699.91317,0.20143
698.42338,0.15840
696.93360,0.19538
695.44381,0.25239
693.95402,0.18047
692.46423,0.10858
690.97444,0.32963
689.48465,0.29679
687.99486,0.28998
686.50508,0.30019
685.01529,0.31043
683.52550,0.34970
682.03571,0.31102
680.54592,0.30437
679.05613,0.29875
677.56635,0.29315
676.07656,0.30059
674.58677,0.30206
673.09698,0.24958
671.60719,0.23012
670.11740,0.21069
668.62761,0.14231
667.13783,0.08396
665.64804,0.12861
664.15825,0.17329
662.66846,0.12903
661.17867,0.20477
659.68888,0.26454
658.19910,0.19438
656.70931,0.12426
655.21952,0.19012
653.72973,0.14606
652.23994,0.18599
650.75015,0.20697
649.26037,0.22798
647.77058,0.17004
646.28079,0.07215
644.79100,0.12824
643.30121,0.10939
641.81142,0.09056
640.32163,0.07277
638.83185,0.06501
637.34206,0.00130
635.85227,0.04868
634.36248,0.09610
632.87269,0.09256
631.38290,0.08705
629.89312,0.15755
628.40333,0.15611
626.91354,0.15469
625.42375,0.14332
623.93396,0.09598
622.44417,0.10766
620.95438,0.11937
619.46460,0.05414
617.97481,0.08091
616.48502,0.15170
614.99523,0.13454
613.50544,0.11742
612.01565,0.18031
610.52587,0.00130
609.03608,0.08057
607.54629,0.08390
606.05650,0.08726
604.56671,0.29059
603.07692,0.20404
601.58714,0.22049
600.09735,0.23697
598.60756,0.15651
597.11777,0.14207
595.62798,0.10766
594.13819,0.10927
592.64840,0.11092
591.15862,0.13459
589.66883,0.12231
588.17904,0.13204
586.68925,0.11282
585.19946,0.09364
583.70967,0.14746
582.21989,0.14933
580.73010,0.16722
579.24031,0.18515
577.75052,0.20511
576.26073,0.06915
574.77094,0.09117
573.28115,0.13522
571.79137,0.17930
570.30158,0.26140
568.81179,0.20358
567.32200,0.22476
565.83221,0.24597
564.34242,0.32820
562.85264,0.42645
561.36285,0.43277
559.87306,0.45311
558.38327,0.47349
556.89348,0.43791
555.40369,0.53233
553.91391,0.52081
552.42412,0.50932
550.93433,0.51186
549.44454,0.54442
547.95475,0.62700
546.46496,0.61164
544.97517,0.59631
543.48539,0.79695
541.99560,0.75569
540.50581,0.65549
539.01602,0.55531
537.52623,0.59413
536.03644,0.59898
534.54666,0.58388
533.05687,0.62879
531.56708,0.67373
530.07729,0.71071
528.58750,0.61775
527.09771,0.58781
525.60792,0.55791
524.11814,0.59301
522.62835,0.56816
521.13856,0.49736
519.64877,0.53456
518.15898,0.57179
516.66919,0.42311
515.17941,0.48240
513.68962,0.51073
512.19983,0.53909
510.71004,0.46652
509.22025,0.45195
507.73046,0.46941
506.24068,0.50090
504.75089,0.53242
503.26110,0.52998
501.77131,0.43560
500.28152,0.50021
498.79173,0.56485
497.30194,0.49856
495.81216,0.56026
494.32237,0.61400
492.83258,0.66776
491.34279,0.68757
489.85300,0.55546
488.36321,0.52135
486.87343,0.48328
485.38364,0.44523
483.89385,0.47520
482.40406,0.31126
480.91427,0.29930
479.42448,0.28738
477.93469,0.29148
476.44491,0.10567
474.95512,0.13183
473.46533,0.15803
471.97554,0.08828
470.48575,0.01256
468.99596,0.06418
467.50618,0.08585
466.01639,0.10754
464.52660,0.00130
463.03681,0.11638
461.54702,0.13353
460.05723,0.15070
458.56745,0.09793
457.07766,0.09517
455.58787,0.14143
454.09808,0.18773
452.60829,0.18706
451.11850,0.21243
449.62871,0.24482
448.13893,0.27724
446.64914,0.26671
445.15935,0.31020
443.66956,0.41570
442.17977,0.46325
440.68998,0.51083
439.20020,0.56843
437.71041,0.67606
436.22062,0.75373
434.73083,0.83142
433.24104,0.79119
431.75125,0.93693
430.26146,0.96374
428.77168,0.99058
427.28189,1.12442
425.79210,1.16033
424.30231,1.14128
422.81252,1.12226
421.32273,1.13027
419.83295,1.01434
418.34316,0.87946
416.85337,0.74460
415.36358,0.70075
413.87379,0.64294
412.38400,0.64414
410.89422,0.64537
409.40443,0.64164
407.91464,0.49598
406.42485,0.42633
404.93506,0.46068
403.44527,0.49506
401.95548,0.49149
400.46570,0.46595
398.97591,0.52342
397.48612,0.58092
395.99633,0.50350
394.50654,0.54007
393.01675,0.52369
391.52697,0.50734
390.03718,0.38206
388.54739,0.39477
387.05760,0.43050
385.56781,0.46626
384.07802,0.49506
382.58824,0.42992
381.09845,0.42179
379.60866,0.41370
378.11887,0.25868
376.62908,0.18767
375.13929,0.16468
373.64950,0.14171
372.15972,0.19476
370.66993,0.22384
369.18014,0.25896
367.69035,0.29411
366.20056,0.17533
364.71077,0.23054
363.22099,0.21680
361.73120,0.20309
360.24141,0.20440
358.75162,0.15377
357.26183,0.17015
355.77204,0.18655
354.28225,0.10202
352.79247,0.11950
351.30268,0.13800
349.81289,0.15654
348.32310,0.06214
346.83331,0.09573
345.34352,0.08437
343.85374,0.07304
342.36395,0.01476
340.87416,0.17526
339.38437,0.14486
337.89458,0.11448
336.40479,0.12312
334.91501,0.03183
333.42522,0.04253
331.93543,0.05327
330.44564,0.15002
328.95585,0.13083
327.46606,0.12267
325.97627,0.11454
324.48649,0.02947
322.99670,0.15080
321.50691,0.11121
320.01712,0.07165
318.52733,0.12110
317.03754,0.05661
315.54776,0.06813
314.05797,0.07969
312.56818,0.00130
311.07839,0.04268
309.58860,0.05710
308.09881,0.07156
306.60902,0.01506
305.11924,0.10456
303.62945,0.06412
302.13966,0.02372
300.64987,0.00130
299.16008,0.00130
