1778.52000,0.05608
1777.03021,0.08803
1775.54042,0.05851
1774.05063,0.09239
1772.56085,0.00517
1771.07106,0.00372
1769.58127,0.02839
1768.09148,0.06801
1766.60169,0.06294
1765.11190,0.04859
1763.62212,0.03613
1762.13233,0.08708
1760.64254,0.11384
1759.15275,0.10336
1757.66296,0.10410
1756.17317,0.11233
1754.68339,0.15600
1753.19360,0.00030
1751.70381,0.06927
1750.21402,0.11218
1748.72423,0.04703
1747.23444,0.03970
1745.74465,0.08458
1744.25487,0.00650
1742.76508,0.13346
1741.27529,0.08154
1739.78550,0.06507
1738.29571,0.10827
1736.80592,0.03969
1735.31614,0.12024
1733.82635,0.07037
1732.33656,0.00936
1730.84677,0.03038
1729.35698,0.05330
1727.86719,0.08558
1726.37740,0.03962
1724.88762,0.01419
1723.39783,0.00372
1721.90804,0.02738
1720.41825,0.06227
1718.92846,0.08042
1717.43867,0.08556
1715.94889,0.05346
1714.45910,0.02699
1712.96931,0.05274
1711.47952,0.11021
1709.98973,0.06335
1708.49994,0.06312
1707.01016,0.09461
1705.52037,0.12613
1704.03058,0.13906
1702.54079,0.12965
1701.05100,0.13147
1699.56121,0.13518
1698.07142,0.14639
1696.58164,0.12222
1695.09185,0.13350
1693.60206,0.19514
1692.11227,0.14126
1690.62248,0.23093
1689.13269,0.17153
1687.64291,0.23704
1686.15312,0.28768
1684.66333,0.22467
1683.17354,0.14865
1681.68375,0.23667
1680.19396,0.22595
1678.70417,0.28049
1677.21439,0.24189
1675.72460,0.24992
1674.23481,0.32135
1672.74502,0.29032
1671.25523,0.23322
1669.76544,0.39049
1668.27566,0.31670
1666.78587,0.24108
1665.29608,0.25123
1663.80629,0.22787
1662.31650,0.24555
1660.82671,0.14025
1659.33693,0.22137
1657.84714,0.21306
1656.35735,0.16938
1654.86756,0.19283
1653.37777,0.16227
1651.88798,0.08888
1650.39819,0.17022
1648.90841,0.21804
1647.41862,0.16526
1645.92883,0.16191
1644.43904,0.15859
1642.94925,0.15438
1641.45946,0.25643
1639.96968,0.13860
1638.47989,0.18296
1636.99010,0.18075
1635.50031,0.15436
1634.01052,0.10750
1632.52073,0.12405
1631.03094,0.12944
1629.54116,0.15165
1628.05137,0.19440
1626.56158,0.19618
1625.07179,0.19800
1623.58200,0.22594
1622.09221,0.22410
1620.60243,0.28008
1619.11264,0.14413
1617.62285,0.19645
1616.13306,0.08666
1614.64327,0.10737
1613.15348,0.15048
1611.66370,0.16568
1610.17391,0.16413
1608.68412,0.09367
1607.19433,0.17420
1605.70454,0.11499
1604.21475,0.13782
1602.72496,0.16069
1601.23518,0.19104
1599.74539,0.21212
1598.25560,0.15123
1596.76581,0.19847
1595.27602,0.18238
1593.78623,0.14210
1592.29645,0.11304
1590.80666,0.07284
1589.31687,0.13517
1587.82708,0.07267
1586.33729,0.15558
1584.84750,0.09129
1583.35771,0.12209
1581.86793,0.08397
1580.37814,0.06824
1578.88835,0.11779
1577.39856,0.04250
1575.90877,0.06416
1574.41898,0.05790
1572.92920,0.08150
1571.43941,0.00822
1569.94962,0.01140
1568.45983,0.01460
1566.97004,0.04767
1565.48025,0.07704
1563.99047,0.05240
1562.50068,0.02034
1561.01089,0.11133
1559.52110,0.11103
1558.03131,0.11449
1556.54152,0.13663
1555.05173,0.14203
1553.56195,0.11951
1552.07216,0.05975
1550.58237,0.13049
1549.09258,0.00372
1547.60279,0.17782
1546.11300,0.12085
1544.62322,0.26334
1543.13343,0.09835
1541.64364,0.10300
1540.15385,0.09650
1538.66406,0.09004
1537.17427,0.12462
1535.68448,0.14619
1534.19470,0.07647
1532.70491,0.07015
1531.21512,0.10488
1529.72533,0.06323
1528.23554,0.09243
1526.74575,0.03408
1525.25597,0.00372
1523.76618,0.11052
1522.27639,0.11486
1520.78660,0.12483
1519.29681,0.09756
1517.80702,0.06287
1516.31724,0.08040
1514.82745,0.06256
1513.33766,0.10905
1511.84787,0.15558
1510.35808,0.09498
1508.86829,0.10711
1507.37850,0.00372
1505.88872,0.04886
1504.39893,0.07354
1502.90914,0.13367
1501.41935,0.10065
1499.92956,0.06207
1498.43977,0.08131
1496.94999,0.24036
1495.46020,0.23171
1493.97041,0.28833
1492.48062,0.42513
1490.99083,0.36441
1489.50104,0.40623
1488.01125,0.45181
1486.52147,0.49743
1485.03168,0.61577
1483.54189,0.74719
1482.05210,0.81156
1480.56231,0.96729
1479.07252,1.10254
1477.58274,1.26580
1476.09295,1.21103
1474.60316,1.32404
1473.11337,1.50418
1471.62358,1.53525
1470.13379,1.48809
1468.64401,1.40742
1467.15422,1.33237
1465.66443,1.31235
1464.17464,1.29235
1462.68485,1.26215
1461.19506,1.27857
1459.70527,1.21116
1458.21549,1.06552
1456.72570,1.10255
1455.23591,0.96443
1453.74612,0.88785
1452.25633,0.92686
1450.76654,0.93422
1449.27676,0.80557
1447.78697,0.85214
1446.29718,0.83166
1444.80739,0.75530
1443.31760,0.67897
1441.82781,0.49646
1440.33802,0.44071
1438.84824,0.44463
1437.35845,0.33864
1435.86866,0.34636
1434.37887,0.45290
1432.88908,0.56880
1431.39929,0.44058
1429.90951,0.38136
1428.41972,0.41536
1426.92993,0.36554
1425.44014,0.34743
1423.95035,0.43931
1422.46056,0.53123
1420.97078,0.49087
1419.48099,0.44682
1417.99120,0.55562
1416.50141,0.43150
1415.01162,0.58883
1413.52183,0.54679
1412.03204,0.48615
1410.54226,0.60259
1409.05247,0.43765
1407.56268,0.50012
1406.07289,0.48994
1404.58310,0.51987
1403.09331,0.54983
1401.60353,0.57704
1400.11374,0.45891
1398.62395,0.57751
1397.13416,0.61787
1395.64437,0.61913
1394.15458,0.66515
1392.66479,0.59007
1391.17501,0.66599
1389.68522,0.61708
1388.19543,0.61479
1386.70564,0.56316
1385.21585,0.51156
1383.72606,0.51124
1382.23628,0.43456
1380.74649,0.55360
1379.25670,0.53103
1377.76691,0.54950
1376.27712,0.54937
1374.78733,0.59960
1373.29755,0.63496
1371.80776,0.81199
1370.31797,0.81014
1368.82818,0.86145
1367.33839,0.91279
1365.84860,1.11792
1364.35881,1.25973
1362.86903,1.43139
1361.37924,1.53599
1359.88945,1.65182
1358.39966,1.64467
1356.90987,1.62079
1355.42008,1.48326
1353.93030,1.63091
1352.44051,1.63230
1350.95072,1.63373
1349.46093,1.60444
1347.97114,1.43914
1346.48135,1.16205
1344.99156,1.14405
1343.50178,1.06086
1342.01199,1.03176
1340.52220,0.88155
1339.03241,0.87488
1337.54262,0.88875
1336.05283,0.88774
1334.56305,0.88677
1333.07326,0.71252
1331.58347,0.80294
1330.09368,0.69213
1328.60389,0.74535
1327.11410,0.67375
1325.62432,0.66555
1324.13453,0.61824
1322.64474,0.60825
1321.15495,0.69520
1319.66516,0.60887
1318.17537,0.52257
1316.68558,0.55000
1315.19580,0.51783
1313.70601,0.55651
1312.21622,0.48154
1310.72643,0.48116
1309.23664,0.55723
1307.74685,0.57742
1306.25707,0.43737
1304.76728,0.42502
1303.27749,0.41270
1301.78770,0.42745
1300.29791,0.47951
1298.80812,0.36573
1297.31834,0.49241
1295.82855,0.43275
1294.33876,0.45514
1292.84897,0.58938
1291.35918,0.47765
1289.86939,0.51785
1288.37960,0.55809
1286.88982,0.50797
1285.40003,0.52871
1283.91024,0.68554
1282.42045,0.64298
1280.93066,0.66011
1279.44087,0.66236
1277.95109,0.67955
1276.46130,0.54955
1274.97151,0.57894
1273.48172,0.60835
1271.99193,0.67974
1270.50214,0.59276
1269.01235,0.62694
1267.52257,0.65558
1266.03278,0.73084
1264.54299,0.77446
1263.05320,0.83675
1261.56341,0.80216
1260.07362,0.76761
1258.58384,0.91388
1257.09405,0.87754
1255.60426,0.85987
1254.11447,0.95220
1252.62468,1.05389
1251.13489,1.05683
1249.64511,0.89022
1248.15532,0.65468
1246.66553,0.66799
1245.17574,0.68133
1243.68595,0.55027
1242.19616,0.50498
1240.70637,0.61441
1239.21659,0.59715
1237.72680,0.46064
1236.23701,0.46209
1234.74722,0.48594
1233.25743,0.40545
1231.76764,0.32501
1230.27786,0.40301
1228.78807,0.32078
1227.29828,0.44917
1225.80849,0.35024
1224.31870,0.27370
1222.82891,0.25684
1221.33912,0.22138
1219.84934,0.23814
1218.35955,0.25493
1216.86976,0.28295
1215.37997,0.29982
1213.89018,0.38754
1212.40039,0.38026
1210.91061,0.26305
1209.42082,0.28193
1207.93103,0.24866
1206.44124,0.21543
1204.95145,0.27728
1203.46166,0.14162
1201.97188,0.18491
1200.48209,0.11641
1198.99230,0.18773
1197.50251,0.13608
1196.01272,0.13665
1194.52293,0.07017
1193.03314,0.00372
1191.54336,0.15662
1190.05357,0.11761
1188.56378,0.06744
1187.07399,0.00613
1185.58420,0.12377
1184.09441,0.08863
1182.60463,0.10477
1181.11484,0.12095
1179.62505,0.07287
1178.13526,0.05092
1176.64547,0.05882
1175.15568,0.06117
1173.66589,0.12133
1172.17611,0.26540
1170.68632,0.19797
1169.19653,0.13057
1167.70674,0.17783
1166.21695,0.13567
1164.72716,0.06000
1163.23738,0.07383
1161.74759,0.08396
1160.25780,0.10158
1158.76801,0.09875
1157.27822,0.09594
1155.78843,0.00372
1154.29865,0.11608
1152.80886,0.09988
1151.31907,0.08931
1149.82928,0.07133
1148.33949,0.18756
1146.84970,0.20879
1145.35991,0.23005
1143.87013,0.11902
1142.38034,0.07885
1140.89055,0.17477
1139.40076,0.24091
1137.91097,0.22135
1136.42118,0.38074
1134.93140,0.36871
1133.44161,0.35672
1131.95182,0.56468
1130.46203,0.51735
1128.97224,0.53901
1127.48245,0.62035
1125.99266,0.69986
1124.50288,0.60609
1123.01309,0.56266
1121.52330,0.51928
1120.03351,0.68653
1118.54372,0.77368
1117.05393,0.79004
1115.56415,0.75613
1114.07436,0.80238
1112.58457,0.84961
1111.09478,0.89687
1109.60499,0.96187
1108.11520,0.87223
1106.62542,0.79939
1105.13563,0.98751
1103.64584,1.09552
1102.15605,1.23526
1100.66626,1.18213
1099.17647,1.12905
1097.68668,1.08066
1096.19690,1.19445
1094.70711,1.31200
1093.21732,1.28422
1091.72753,1.38880
1090.23774,1.38812
1088.74795,1.38748
1087.25817,1.46235
1085.76838,1.46084
1084.27859,1.73707
1082.78880,1.70582
1081.29901,1.82370
1079.80922,1.77389
1078.31943,1.76977
1076.82965,1.76569
1075.33986,1.80171
1073.85007,1.81541
1072.36028,1.68191
1070.87049,1.70687
1069.38070,1.84927
1067.89092,1.92462
1066.40113,2.00000
1064.91134,1.90210
1063.42155,1.78000
1061.93176,1.65794
1060.44197,1.65706
1058.95219,1.53135
1057.46240,1.44854
1055.97261,1.36576
1054.48282,1.30725
1052.99303,1.30096
1051.50324,1.15866
1050.01345,1.05925
1048.52367,1.05494
1047.03388,1.01804
1045.54409,0.98118
1044.05430,0.98070
1042.56451,0.88708
1041.07472,0.73757
1039.58494,0.69993
1038.09515,0.65301
1036.60536,0.67134
1035.11557,0.68972
1033.62578,0.73050
1032.13599,0.53276
1030.64620,0.47111
1029.15642,0.59400
1027.66663,0.55106
1026.17684,0.50815
1024.68705,0.56965
1023.19726,0.67032
1021.70747,0.77103
1020.21769,0.89227
1018.72790,0.99865
1017.23811,1.00908
1015.74832,1.01954
1014.25853,1.24717
1012.76874,1.46551
1011.27896,1.74911
1009.78917,1.76438
1008.29938,1.89151
1006.80959,1.87331
1005.31980,1.85515
1003.83001,1.71588
1002.34022,1.70524
1000.85044,1.65923
999.36065,1.41757
997.87086,1.37722
996.38107,1.33691
994.89128,1.37864
993.40149,1.55459
991.91171,1.46221
990.42192,1.63637
988.93213,1.48628
987.44234,1.53285
985.95255,1.57946
984.46276,1.39594
982.97297,1.44728
981.48319,1.50238
979.99340,1.29288
978.50361,1.34526
977.01382,1.39768
975.52403,1.31874
974.03424,1.31066
972.54446,1.14794
971.05467,1.14739
969.56488,1.05369
968.07509,1.07091
966.58530,1.08818
965.09551,1.05982
963.60573,0.97186
962.11594,1.03862
960.62615,0.85755
959.13636,0.88897
957.64657,0.92043
956.15678,0.91466
954.66699,0.85860
953.17721,0.90321
951.68742,0.74659
950.19763,0.80805
948.70784,0.86955
947.21805,0.67576
945.72826,0.73734
944.23848,0.70203
942.74869,0.81214
941.25890,0.93905
939.76911,0.95231
938.27932,0.96561
936.78953,1.01622
935.29974,0.97182
933.80996,0.96659
932.32017,0.97259
930.83038,1.02893
929.34059,1.08532
927.85080,0.96842
926.36101,0.98574
924.87123,0.97886
923.38144,1.02980
921.89165,1.00530
920.40186,0.98083
918.91207,0.94615
917.42228,1.05315
915.93250,1.12105
914.44271,1.14239
912.95292,1.08922
911.46313,1.03608
909.97334,1.13022
908.48355,1.25607
906.99376,1.17882
905.50398,1.22274
904.01419,1.14463
902.52440,1.06656
901.03461,1.08450
899.54482,1.28512
898.05503,1.30686
896.56525,1.22055
895.07546,1.20788
893.58567,1.19526
892.09588,1.20969
890.60609,1.26889
889.11630,1.21071
887.62651,1.17867
886.13673,1.17834
884.64694,1.17805
883.15715,1.27284
881.66736,1.12911
880.17757,1.15130
878.68778,1.20613
877.19800,1.26100
875.70821,1.11556
874.21842,1.35035
872.72863,1.37644
871.23884,1.32056
869.74905,1.35325
868.25927,1.38598
866.76948,1.40476
865.27969,1.42731
863.78990,1.31384
862.30011,1.35324
860.81032,1.46815
859.32053,1.58309
857.83075,1.35609
856.34096,1.26703
854.85117,1.16124
853.36138,1.15240
851.87159,1.10353
850.38180,1.05469
848.89202,0.91177
847.40223,0.58624
845.91244,0.56081
844.42265,0.59785
842.93286,0.63492
841.44307,0.60587
839.95329,0.55263
838.46350,0.43979
836.97371,0.48912
835.48392,0.46953
833.99413,0.44998
832.50434,0.48452
831.01455,0.49673
829.52477,0.49406
828.03498,0.43738
826.54519,0.37795
825.05540,0.31855
823.56561,0.25080
822.07582,0.30236
820.58604,0.34837
819.09625,0.30589
817.60646,0.26345
816.11667,0.09525
814.62688,0.22340
813.13709,0.08509
811.64730,0.04745
810.15752,0.09931
808.66773,0.15120
807.17794,0.00372
805.68815,0.07397
804.19836,0.03804
802.70857,0.08414
801.21879,0.13028
799.72900,0.18391
798.23921,0.29348
796.74942,0.37701
795.25963,0.41118
793.76984,0.44538
792.28006,0.43956
790.79027,0.59964
789.30048,0.66098
787.81069,0.71676
786.32090,0.69990
784.83111,0.68308
783.34132,0.71288
781.85154,0.79118
780.36175,0.72228
778.87196,0.72237
777.38217,0.72250
775.89238,0.72267
774.40259,0.72288
772.91281,0.74548
771.42302,0.83988
769.93323,0.93431
768.44344,0.88247
766.95365,0.85677
765.46386,0.91870
763.97407,0.76261
762.48429,0.75006
760.99450,0.73755
759.50471,0.72321
758.01492,0.60454
756.52513,0.54927
755.03534,0.47540
753.54556,0.40157
752.05577,0.17495
750.56598,0.30247
749.07619,0.18216
747.58640,0.16625
746.09661,0.15038
744.60683,0.12708
743.11704,0.14856
741.62725,0.13838
740.13746,0.09377
738.64767,0.04919
737.15788,0.00372
735.66809,0.04783
734.17831,0.09383
732.68852,0.12217
731.19873,0.15055
729.70894,0.12212
728.21915,0.08627
726.72936,0.06164
725.23958,0.06873
723.74979,0.10008
722.26000,0.13147
720.77021,0.24490
719.28042,0.07695
717.79063,0.01526
716.30084,0.03003
714.81106,0.04483
713.32127,0.00934
711.83148,0.10249
710.34169,0.00372
708.85190,0.07777
707.36211,0.15186
705.87233,0.13560
704.38254,0.05041
702.89275,0.12368
701.40296,0.16065
699.91317,0.19764
698.42338,0.22816
696.93360,0.25684
695.44381,0.22406
693.95402,0.26773
692.46423,0.31144
690.97444,0.30486
689.48465,0.22936
687.99486,0.26013
686.50508,0.26391
685.01529,0.26773
683.52550,0.46820
682.03571,0.35375
680.54592,0.28965
679.05613,0.27312
677.56635,0.25662
676.07656,0.38273
674.58677,0.24796
673.09698,0.21759
671.60719,0.23758
670.11740,0.25760
668.62761,0.17703
667.13783,0.14308
665.64804,0.15017
664.15825,0.15729
662.66846,0.12532
661.17867,0.07847
659.68888,0.15839
658.19910,0.19362
656.70931,0.22888
655.21952,0.14118
653.72973,0.28648
652.23994,0.20630
650.75015,0.21003
649.26037,0.21379
647.77058,0.12628
646.28079,0.09470
644.79100,0.06317
643.30121,0.12019
641.81142,0.17725
640.32163,0.10856
638.83185,0.03057
637.34206,0.05700
635.85227,0.03034
634.36248,0.00372
632.87269,0.02453
631.38290,0.02114
629.89312,0.09607
628.40333,0.11606
626.91354,0.13608
625.42375,0.17198
623.93396,0.13896
622.44417,0.11157
620.95438,0.08422
619.46460,0.06808
617.97481,0.07621
616.48502,0.13656
614.99523,0.13731
613.50544,0.13809
612.01565,0.11468
610.52587,0.00372
609.03608,0.11291
607.54629,0.11404
606.05650,0.11521
604.56671,0.20588
603.07692,0.08225
601.58714,0.11615
600.09735,0.15008
598.60756,0.11975
597.11777,0.00000
595.62798,0.15052
594.13819,0.16224
592.64840,0.17399
591.15862,0.18298
589.66883,0.06154
588.17904,0.13584
586.68925,0.11978
585.19946,0.10376
583.70967,0.13530
582.21989,0.20973
580.73010,0.19196
579.24031,0.17422
577.75052,0.15186
576.26073,0.08666
574.77094,0.17433
573.28115,0.16699
571.79137,0.15968
570.30158,0.30337
568.81179,0.38746
567.32200,0.34392
565.83221,0.30042
564.34242,0.28025
562.85264,0.38498
561.36285,0.37607
559.87306,0.42963
558.38327,0.48322
556.89348,0.56574
555.40369,0.48056
553.91391,0.51283
552.42412,0.54513
550.93433,0.60170
549.44454,0.71795
547.95475,0.58636
546.46496,0.56570
544.97517,0.54507
543.48539,0.72483
541.99560,0.78721
540.50581,0.78161
539.01602,0.77604
537.52623,0.67080
536.03644,0.63455
534.54666,0.62816
533.05687,0.66467
531.56708,0.70121
530.07729,0.69120
528.58750,0.65141
527.09771,0.64241
525.60792,0.63344
524.11814,0.59376
522.62835,0.55784
521.13856,0.54246
519.64877,0.53736
518.15898,0.53230
516.66919,0.50771
515.17941,0.43657
513.68962,0.46144
512.19983,0.48635
510.71004,0.32772
509.22025,0.41886
507.73046,0.58645
506.24068,0.52484
504.75089,0.46327
503.26110,0.48188
501.77131,0.53406
500.28152,0.57045
498.79173,0.60686
497.30194,0.46720
495.81216,0.62577
494.32237,0.63900
492.83258,0.65227
491.34279,0.60407
489.85300,0.54846
488.36321,0.46679
486.87343,0.47182
485.38364,0.47688
483.89385,0.49037
482.40406,0.35107
480.91427,0.32550
479.42448,0.29996
477.93469,0.30241
476.44491,0.20985
474.95512,0.18163
473.46533,0.15344
471.97554,0.13740
470.48575,0.08040
468.99596,0.01971
467.50618,0.02987
466.01639,0.04007
464.52660,0.00372
463.03681,0.08021
461.54702,0.08033
460.05723,0.08049
458.56745,0.02663
457.07766,0.04177
455.58787,0.07558
454.09808,0.10943
452.60829,0.19736
451.11850,0.10642
449.62871,0.17858
448.13893,0.25078
446.64914,0.40409
445.15935,0.43443
443.66956,0.50208
442.17977,0.53808
440.68998,0.57413
439.20020,0.49093
437.71041,0.61091
436.22062,0.71136
434.73083,0.81184
433.24104,0.79215
431.75125,1.12847
430.26146,1.17409
428.77168,1.21974
427.28189,1.24306
425.79210,1.21797
424.30231,1.21062
422.81252,1.20330
421.32273,1.20627
419.83295,1.28942
418.34316,1.14430
416.85337,0.99921
415.36358,0.97810
413.87379,0.76320
412.38400,0.69837
410.89422,0.63357
409.40443,0.53806
407.91464,0.58422
406.42485,0.54283
404.93506,0.58441
403.44527,0.62602
401.95548,0.51206
400.46570,0.37203
398.97591,0.35971
397.48612,0.34743
395.99633,0.53180
394.50654,0.60625
393.01675,0.59500
391.52697,0.58380
390.03718,0.38812
388.54739,0.26889
387.05760,0.28482
385.56781,0.30078
384.07802,0.50035
382.58824,0.26013
381.09845,0.21097
379.60866,0.16185
378.11887,0.28516
376.62908,0.31532
375.13929,0.26444
373.64950,0.21361
372.15972,0.24760
370.66993,0.18845
369.18014,0.14984
367.69035,0.11126
366.20056,0.07272
364.71077,0.10876
363.22099,0.09173
361.73120,0.07473
360.24141,0.17052
358.75162,0.22908
357.26183,0.20194
355.77204,0.17483
354.28225,0.19250
352.79247,0.04246
351.30268,0.05554
349.81289,0.06865
348.32310,0.08833
346.83331,0.06703
345.34352,0.04857
343.85374,0.03015
342.36395,0.13384
340.87416,0.22451
339.38437,0.16333
337.89458,0.10219
336.40479,0.18552
334.91501,0.08811
333.42522,0.11654
331.93543,0.14500
330.44564,0.25643
328.95585,0.28963
327.46606,0.20451
325.97627,0.11943
324.48649,0.03905
322.99670,0.12001
321.50691,0.17583
320.01712,0.23170
318.52733,0.26244
317.03754,0.30627
315.54776,0.22340
314.05797,0.14056
312.56818,0.00372
311.07839,0.04726
309.58860,0.04238
308.09881,0.03755
306.60902,0.07188
305.11924,0.25162
303.62945,0.13321
302.13966,0.01483
300.64987,0.03535
299.16008,0.00372
