1778.52000,0.03491
1777.03021,0.00291
1775.54042,0.03377
1774.05063,0.00541
1772.56085,0.00434
1771.07106,0.00925
1769.58127,0.05805
1768.09148,0.00614
1766.60169,0.03487
1765.11190,0.00794
1763.62212,0.01897
1762.13233,0.04664
1760.64254,0.07198
1759.15275,0.07246
1757.66296,0.10143
1756.17317,0.13637
1754.68339,0.05283
1753.19360,0.05585
1751.70381,0.00794
1750.21402,0.05942
1748.72423,0.06827
1747.23444,0.05701
1745.74465,0.05409
1744.25487,0.13655
1742.76508,0.07800
1741.27529,0.12379
1739.78550,0.04873
1738.29571,0.09935
1736.80592,0.05993
1735.31614,0.06677
1733.82635,0.04284
1732.33656,0.07228
1730.84677,0.08754
1729.35698,0.05543
1727.86719,0.04470
1726.37740,0.02215
1724.88762,0.00794
1723.39783,0.04247
1721.90804,0.02134
1720.41825,0.02277
1718.92846,0.06454
1717.43867,0.08856
1715.94889,0.03441
1714.45910,0.09644
1712.96931,0.05066
1711.47952,0.09145
1709.98973,0.09197
1708.49994,0.11980
1707.01016,0.11625
1705.52037,0.11275
1704.03058,0.13122
1702.54079,0.12364
1701.05100,0.15878
1699.56121,0.20108
1698.07142,0.14859
1696.58164,0.17081
1695.09185,0.21085
1693.60206,0.25567
1692.11227,0.22586
1690.62248,0.27669
1689.13269,0.23274
1687.64291,0.25758
1686.15312,0.20541
1684.66333,0.26114
1683.17354,0.25291
1681.68375,0.28146
1680.19396,0.25316
1678.70417,0.29601
1677.21439,0.28794
1675.72460,0.32495
1674.23481,0.25059
1672.74502,0.24856
1671.25523,0.29755
1669.76544,0.27308
1668.27566,0.28303
1666.78587,0.27880
1665.29608,0.28646
1663.80629,0.23490
1662.31650,0.26634
1660.82671,0.26464
1659.33693,0.28550
1657.84714,0.18432
1656.35735,0.15666
1654.86756,0.20135
1653.37777,0.20696
1651.88798,0.20550
1650.39819,0.16378
1648.90841,0.18729
1647.41862,0.14091
1645.92883,0.15562
1644.43904,0.17036
1642.94925,0.20826
1641.45946,0.20471
1639.96968,0.20357
1638.47989,0.14558
1636.99010,0.18364
1635.50031,0.14944
1634.01052,0.13187
1632.52073,0.14752
1631.03094,0.16796
1629.54116,0.18963
1628.05137,0.23267
1626.56158,0.20226
1625.07179,0.21101
1623.58200,0.17476
1622.09221,0.23455
1620.60243,0.20194
1619.11264,0.18714
1617.62285,0.15342
1616.13306,0.17308
1614.64327,0.17026
1613.15348,0.21370
1611.66370,0.17659
1610.17391,0.17151
1608.68412,0.12974
1607.19433,0.17216
1605.70454,0.12691
1604.21475,0.13385
1602.72496,0.14083
1601.23518,0.20000
1599.74539,0.16914
1598.25560,0.16083
1596.76581,0.10160
1595.27602,0.14908
1593.78623,0.14920
1592.29645,0.06638
1590.80666,0.09976
1589.31687,0.08340
1587.82708,0.09790
1586.33729,0.10769
1584.84750,0.07960
1583.35771,0.04681
1581.86793,0.06383
1580.37814,0.12002
1578.88835,0.09683
1577.39856,0.07842
1575.90877,0.07190
1574.41898,0.01090
1572.92920,0.02343
1571.43941,0.06208
1569.94962,0.05869
1568.45983,0.05533
1566.97004,0.01469
1565.48025,0.03690
1563.99047,0.07456
1562.50068,0.03285
1561.01089,0.04452
1559.52110,0.07993
1558.03131,0.12131
1556.54152,0.10346
1555.05173,0.17692
1553.56195,0.07975
1552.07216,0.08454
1550.58237,0.05382
1549.09258,0.06225
1547.60279,0.03991
1546.11300,0.09465
1544.62322,0.03564
1543.13343,0.08454
1541.64364,0.02798
1540.15385,0.05028
1538.66406,0.07263
1537.17427,0.11457
1535.68448,0.08425
1534.19470,0.09428
1532.70491,0.08182
1531.21512,0.01488
1529.72533,0.11036
1528.23554,0.00794
1526.74575,0.10114
1525.25597,0.07705
1523.76618,0.07433
1522.27639,0.04912
1520.78660,0.09626
1519.29681,0.05929
1517.80702,0.06147
1516.31724,0.04710
1514.82745,0.04818
1513.33766,0.05226
1511.84787,0.05638
1510.35808,0.04572
1508.86829,0.05881
1507.37850,0.00794
1505.88872,0.10647
1504.39893,0.02250
1502.90914,0.12348
1501.41935,0.08938
1499.92956,0.08258
1498.43977,0.12679
1496.94999,0.19948
1495.46020,0.28999
1493.97041,0.28217
1492.48062,0.33720
1490.99083,0.37568
1489.50104,0.44858
1488.01125,0.50848
1486.52147,0.56841
1485.03168,0.66869
1483.54189,0.71093
1482.05210,0.78639
1480.56231,0.93657
1479.07252,1.19347
1477.58274,1.26668
1476.09295,1.33164
1474.60316,1.51991
1473.11337,1.63947
1471.62358,1.54454
1470.13379,1.53499
1468.64401,1.44726
1467.15422,1.34652
1465.66443,1.34361
1464.17464,1.34074
1462.68485,1.24131
1461.19506,1.24979
1459.70527,1.20733
1458.21549,1.11039
1456.72570,0.98861
1455.23591,0.93205
1453.74612,0.92650
1452.25633,0.85461
1450.76654,0.81003
1449.27676,0.87927
1447.78697,0.78025
1446.29718,0.70852
1444.80739,0.65639
1443.31760,0.60431
1441.82781,0.50781
1440.33802,0.39240
1438.84824,0.33273
1437.35845,0.38214
1435.86866,0.35455
1434.37887,0.38390
1432.88908,0.35876
1431.39929,0.36567
1429.90951,0.29439
1428.41972,0.30849
1426.92993,0.40678
1425.44014,0.50867
1423.95035,0.49326
1422.46056,0.47788
1420.97078,0.46374
1419.48099,0.39629
1417.99120,0.38223
1416.50141,0.42035
1415.01162,0.41230
1413.52183,0.47184
1412.03204,0.41052
1410.54226,0.40614
1409.05247,0.42906
1407.56268,0.46150
1406.07289,0.40509
1404.58310,0.40027
1403.09331,0.39550
1401.60353,0.43759
1400.11374,0.42045
1398.62395,0.47565
1397.13416,0.49415
1395.64437,0.48899
1394.15458,0.51231
1392.66479,0.55464
1391.17501,0.43344
1389.68522,0.44503
1388.19543,0.40569
1386.70564,0.42092
1385.21585,0.43618
1383.72606,0.45623
1382.23628,0.34594
1380.74649,0.36251
1379.25670,0.38743
1377.76691,0.41830
1376.27712,0.43618
1374.78733,0.46714
1373.29755,0.46613
1371.80776,0.53155
1370.31797,0.71197
1368.82818,0.73657
1367.33839,0.76121
1365.84860,0.82559
1364.35881,0.91847
1362.86903,1.03983
1361.37924,1.23234
1359.88945,1.10725
1358.39966,1.24769
1356.90987,1.26728
1355.42008,1.18261
1353.93030,1.20583
1352.44051,1.23443
1350.95072,1.26307
1349.46093,1.26982
1347.97114,1.13083
1346.48135,0.89824
1344.99156,0.91222
1343.50178,0.79824
1342.01199,0.80875
1340.52220,0.66995
1339.03241,0.71136
1337.54262,0.65562
1336.05283,0.66806
1334.56305,0.68055
1333.07326,0.58345
1331.58347,0.59661
1330.09368,0.54225
1328.60389,0.48912
1327.11410,0.47158
1325.62432,0.49202
1324.13453,0.45916
1322.64474,0.48678
1321.15495,0.54171
1319.66516,0.50186
1318.17537,0.46205
1316.68558,0.43057
1315.19580,0.47618
1313.70601,0.35826
1312.21622,0.32335
1310.72643,0.33826
1309.23664,0.34492
1307.74685,0.35161
1306.25707,0.36427
1304.76728,0.36749
1303.27749,0.37075
1301.78770,0.33139
1300.29791,0.36199
1298.80812,0.31322
1297.31834,0.30953
1295.82855,0.32603
1294.33876,0.46228
1292.84897,0.35678
1291.35918,0.33665
1289.86939,0.33139
1288.37960,0.32616
1286.88982,0.41046
1285.40003,0.34072
1283.91024,0.41917
1282.42045,0.54982
1280.93066,0.46953
1279.44087,0.53270
1277.95109,0.48450
1276.46130,0.51100
1274.97151,0.53162
1273.48172,0.55228
1271.99193,0.53624
1270.50214,0.55935
1269.01235,0.53153
1267.52257,0.53102
1266.03278,0.63485
1264.54299,0.63323
1263.05320,0.70040
1261.56341,0.69886
1260.07362,0.69736
1258.58384,0.79191
1257.09405,0.68027
1255.60426,0.65637
1254.11447,0.73919
1252.62468,0.71537
1251.13489,0.77101
1249.64511,0.70342
1248.15532,0.54579
1246.66553,0.51798
1245.17574,0.49022
1243.68595,0.40146
1242.19616,0.46445
1240.70637,0.53696
1239.21659,0.39972
1237.72680,0.34312
1236.23701,0.28656
1234.74722,0.28101
1233.25743,0.29387
1231.76764,0.30677
1230.27786,0.22785
1228.78807,0.26157
1227.29828,0.24792
1225.80849,0.19401
1224.31870,0.15792
1222.82891,0.24870
1221.33912,0.19965
1219.84934,0.19213
1218.35955,0.18465
1216.86976,0.20329
1215.37997,0.25515
1213.89018,0.35565
1212.40039,0.26773
1210.91061,0.21186
1209.42082,0.24610
1207.93103,0.19209
1206.44124,0.13811
1204.95145,0.21159
1203.46166,0.10969
1201.97188,0.12636
1200.48209,0.08380
1198.99230,0.08514
1197.50251,0.00000
1196.01272,0.04053
1194.52293,0.05503
1193.03314,0.06957
1191.54336,0.06637
1190.05357,0.09877
1188.56378,0.01031
1187.07399,0.00486
1185.58420,0.03886
1184.09441,0.01126
1182.60463,0.06015
1181.11484,0.10908
1179.62505,0.04723
1178.13526,0.00794
1176.64547,0.01940
1175.15568,0.10794
1173.66589,0.01399
1172.17611,0.09551
1170.68632,0.08046
1169.19653,0.06545
1167.70674,0.02856
1166.21695,0.10549
1164.72716,0.06749
1163.23738,0.07339
1161.74759,0.00821
1160.25780,0.07701
1158.76801,0.05991
1157.27822,0.04286
1155.78843,0.09400
1154.29865,0.02902
1152.80886,0.00794
1151.31907,0.03478
1149.82928,0.10078
1148.33949,0.12414
1146.84970,0.08651
1145.35991,0.04892
1143.87013,0.09729
1142.38034,0.07815
1140.89055,0.14439
1139.40076,0.17274
1137.91097,0.17742
1136.42118,0.23074
1134.93140,0.26040
1133.44161,0.29010
1131.95182,0.41940
1130.46203,0.41006
1128.97224,0.47543
1127.48245,0.40928
1125.99266,0.39651
1124.50288,0.51890
1123.01309,0.52102
1121.52330,0.52319
1120.03351,0.64451
1118.54372,0.62720
1117.05393,0.60282
1115.56415,0.71123
1114.07436,0.68218
1112.58457,0.66088
1111.09478,0.63963
1109.60499,0.71856
1108.11520,0.68612
1106.62542,0.70706
1105.13563,0.87502
1103.64584,1.00982
1102.15605,0.96095
1100.66626,0.98679
1099.17647,1.01267
1097.68668,1.16423
1096.19690,1.15938
1094.70711,1.14508
1093.21732,1.26239
1091.72753,1.33944
1090.23774,1.35490
1088.74795,1.37039
1087.25817,1.45349
1085.76838,1.49277
1084.27859,1.56291
1082.78880,1.56198
1081.29901,1.63931
1079.80922,1.53415
1078.31943,1.55289
1076.82965,1.57167
1075.33986,1.79732
1073.85007,1.80967
1072.36028,1.69286
1070.87049,1.77877
1069.38070,1.88487
1067.89092,1.94241
1066.40113,2.00000
1064.91134,1.78620
1063.42155,1.70875
1061.93176,1.66570
1060.44197,1.54922
1058.95219,1.49085
1057.46240,1.43370
1055.97261,1.37660
1054.48282,1.27331
1052.99303,1.27674
1051.50324,1.10005
1050.01345,1.01466
1048.52367,1.00161
1047.03388,0.96312
1045.54409,0.92467
1044.05430,0.87856
1042.56451,0.86093
1041.07472,0.74497
1039.58494,0.59704
1038.09515,0.61628
1036.60536,0.61837
1035.11557,0.62050
1033.62578,0.56637
1032.13599,0.46014
1030.64620,0.54595
1029.15642,0.52631
1027.66663,0.46109
1026.17684,0.39590
1024.68705,0.54825
1023.19726,0.59634
1021.70747,0.75588
1020.21769,0.80404
1018.72790,0.88899
1017.23811,0.98939
1015.74832,1.08983
1014.25853,1.21757
1012.76874,1.40462
1011.27896,1.57274
1009.78917,1.59156
1008.29938,1.70049
1006.80959,1.64176
1005.31980,1.58306
1003.83001,1.47285
1002.34022,1.41482
1000.85044,1.36751
999.36065,1.38068
997.87086,1.37434
996.38107,1.36804
994.89128,1.26636
993.40149,1.37926
991.91171,1.29070
990.42192,1.38827
988.93213,1.32942
987.44234,1.38618
985.95255,1.44298
984.46276,1.34632
982.97297,1.29594
981.48319,1.38545
979.99340,1.32448
978.50361,1.34770
977.01382,1.37096
975.52403,1.19987
974.03424,1.09046
972.54446,1.25963
971.05467,1.14082
969.56488,1.15243
968.07509,1.10541
966.58530,1.05843
965.09551,1.10572
963.60573,0.96103
962.11594,1.00603
960.62615,0.84365
959.13636,0.84309
957.64657,0.84258
956.15678,0.77039
954.66699,0.79189
953.17721,0.87387
951.68742,0.71884
950.19763,0.77898
948.70784,0.83915
947.21805,0.83122
945.72826,0.82451
944.23848,0.82613
942.74869,0.84321
941.25890,0.92907
939.76911,1.03571
938.27932,1.14240
936.78953,1.16911
935.29974,1.16624
933.80996,1.07451
932.32017,1.13098
930.83038,1.16261
929.34059,1.19427
927.85080,1.15130
926.36101,1.11548
924.87123,1.08681
923.38144,1.12812
921.89165,1.15464
920.40186,1.18121
918.91207,1.28664
917.42228,1.39804
915.93250,1.29613
914.44271,1.35901
912.95292,1.39052
911.46313,1.42207
909.97334,1.42700
908.48355,1.47581
906.99376,1.47608
905.50398,1.44912
904.01419,1.37657
902.52440,1.30406
901.03461,1.45146
899.54482,1.68424
898.05503,1.61481
896.56525,1.75877
895.07546,1.72558
893.58567,1.69242
892.09588,1.56864
890.60609,1.51719
889.11630,1.41008
887.62651,1.43220
886.13673,1.44962
884.64694,1.46709
883.15715,1.46325
881.66736,1.45116
880.17757,1.41304
878.68778,1.43303
877.19800,1.45307
875.70821,1.41743
874.21842,1.48022
872.72863,1.59282
871.23884,1.58338
869.74905,1.55324
868.25927,1.52315
866.76948,1.47353
865.27969,1.57567
863.78990,1.58777
862.30011,1.61295
860.81032,1.55520
859.32053,1.49749
857.83075,1.57020
856.34096,1.61924
854.85117,1.40994
853.36138,1.31327
851.87159,1.23325
850.38180,1.15326
848.89202,0.95241
847.40223,0.67694
845.91244,0.72152
844.42265,0.70748
842.93286,0.69347
841.44307,0.77848
839.95329,0.60987
838.46350,0.54680
836.97371,0.43636
835.48392,0.45278
833.99413,0.46924
832.50434,0.56041
831.01455,0.67059
829.52477,0.58880
828.03498,0.44659
826.54519,0.43363
825.05540,0.42070
823.56561,0.49078
822.07582,0.41274
820.58604,0.37623
819.09625,0.27338
817.60646,0.17057
816.11667,0.29775
814.62688,0.30643
813.13709,0.18360
811.64730,0.11414
810.15752,0.08502
808.66773,0.05594
807.17794,0.00794
805.68815,0.11858
804.19836,0.12377
802.70857,0.14974
801.21879,0.17576
799.72900,0.24744
798.23921,0.37488
796.74942,0.47035
795.25963,0.47400
793.76984,0.47770
792.28006,0.55670
790.79027,0.62507
789.30048,0.68163
787.81069,0.76431
786.32090,0.82036
784.83111,0.87645
783.34132,0.89405
781.85154,0.84533
780.36175,0.82509
778.87196,0.81378
777.38217,0.80251
775.89238,0.79661
774.40259,0.99581
772.91281,0.92243
771.42302,0.95992
769.93323,0.99744
768.44344,1.01901
766.95365,0.99321
765.46386,0.94611
763.97407,0.99387
762.48429,0.92434
760.99450,0.85484
759.50471,0.79249
758.01492,0.75034
756.52513,0.62051
755.03534,0.54584
753.54556,0.47121
752.05577,0.34270
750.56598,0.22014
749.07619,0.16756
747.58640,0.14880
746.09661,0.13008
744.60683,0.05510
743.11704,0.12121
741.62725,0.12691
740.13746,0.10657
738.64767,0.08627
737.15788,0.00794
735.66809,0.12016
734.17831,0.08782
732.68852,0.09820
731.19873,0.10861
729.70894,0.13091
728.21915,0.03473
726.72936,0.10097
725.23958,0.08902
723.74979,0.11801
722.26000,0.14703
720.77021,0.11624
719.28042,0.03097
717.79063,0.03938
716.30084,0.04545
714.81106,0.05156
713.32127,0.00794
711.83148,0.10675
710.34169,0.08234
708.85190,0.09826
707.36211,0.11422
705.87233,0.11363
704.38254,0.14983
702.89275,0.20740
701.40296,0.17315
699.91317,0.13894
698.42338,0.16700
696.93360,0.13821
695.44381,0.19242
693.95402,0.24372
692.46423,0.29505
690.97444,0.24389
689.48465,0.36939
687.99486,0.34202
686.50508,0.35262
685.01529,0.36326
683.52550,0.44981
682.03571,0.38823
680.54592,0.29350
679.05613,0.33038
677.56635,0.36730
676.07656,0.29522
674.58677,0.24095
673.09698,0.22940
671.60719,0.22796
670.11740,0.22656
668.62761,0.12741
667.13783,0.09943
665.64804,0.10822
664.15825,0.11706
662.66846,0.10341
661.17867,0.14789
659.68888,0.16751
658.19910,0.17770
656.70931,0.18792
655.21952,0.10692
653.72973,0.13144
652.23994,0.14534
650.75015,0.16047
649.26037,0.17563
647.77058,0.07468
646.28079,0.05793
644.79100,0.03291
643.30121,0.06661
641.81142,0.10035
640.32163,0.10035
638.83185,0.00794
637.34206,0.02154
635.85227,0.04408
634.36248,0.06665
632.87269,0.03059
631.38290,0.03132
629.89312,0.09965
628.40333,0.07615
626.91354,0.05270
625.42375,0.07848
623.93396,0.04267
622.44417,0.03652
620.95438,0.03042
619.46460,0.02673
617.97481,0.05152
616.48502,0.08110
614.99523,0.10479
613.50544,0.12852
612.01565,0.01243
610.52587,0.01728
609.03608,0.00794
607.54629,0.08034
606.05650,0.15278
604.56671,0.16481
603.07692,0.14962
601.58714,0.16825
600.09735,0.18692
598.60756,0.05925
597.11777,0.05134
595.62798,0.05768
594.13819,0.03503
592.64840,0.01242
591.15862,0.07104
589.66883,0.07992
588.17904,0.07817
586.68925,0.08476
585.19946,0.09139
583.70967,0.17629
582.21989,0.25174
580.73010,0.21819
579.24031,0.18468
577.75052,0.11684
576.26073,0.09408
574.77094,0.14840
573.28115,0.19921
571.79137,0.25006
570.30158,0.19545
568.81179,0.24046
567.32200,0.25349
565.83221,0.26657
564.34242,0.23821
562.85264,0.41375
561.36285,0.50873
559.87306,0.49116
558.38327,0.47362
556.89348,0.56754
555.40369,0.62002
553.91391,0.59667
552.42412,0.57337
550.93433,0.67694
549.44454,0.58971
547.95475,0.76210
546.46496,0.75259
544.97517,0.74312
543.48539,0.88837
541.99560,0.94832
540.50581,0.90282
539.01602,0.85736
537.52623,0.74557
536.03644,0.70849
534.54666,0.74019
533.05687,0.75356
531.56708,0.76698
530.07729,0.79643
528.58750,0.73348
527.09771,0.74108
525.60792,0.74873
524.11814,0.70605
522.62835,0.81038
521.13856,0.66584
519.64877,0.66417
518.15898,0.66253
516.66919,0.69117
515.17941,0.71628
513.68962,0.66084
512.19983,0.60544
510.71004,0.61764
509.22025,0.62158
507.73046,0.72039
506.24068,0.68708
504.75089,0.65381
503.26110,0.69228
501.77131,0.65613
500.28152,0.58564
498.79173,0.51520
497.30194,0.59176
495.81216,0.62451
494.32237,0.69701
492.83258,0.76955
491.34279,0.69457
489.85300,0.63266
488.36321,0.57909
486.87343,0.55282
485.38364,0.52659
483.89385,0.44588
482.40406,0.29528
480.91427,0.25258
479.42448,0.20992
477.93469,0.26804
476.44491,0.17331
474.95512,0.22915
473.46533,0.28502
471.97554,0.13471
470.48575,0.09703
468.99596,0.06887
467.50618,0.03838
466.01639,0.00794
464.52660,0.01491
463.03681,0.09897
461.54702,0.07699
460.05723,0.05505
458.56745,0.03848
457.07766,0.02195
455.58787,0.07362
454.09808,0.12533
452.60829,0.27248
451.11850,0.25019
449.62871,0.28009
448.13893,0.31003
446.64914,0.49528
445.15935,0.48500
443.66956,0.52454
442.17977,0.56294
440.68998,0.60138
439.20020,0.60074
437.71041,0.72934
436.22062,0.79990
434.73083,0.87050
433.24104,1.15094
431.75125,1.28088
430.26146,1.36938
428.77168,1.45792
427.28189,1.61644
425.79210,1.59127
424.30231,1.55667
422.81252,1.52210
421.32273,1.42476
419.83295,1.32627
418.34316,1.20412
416.85337,1.08200
415.36358,0.93978
413.87379,0.85094
412.38400,0.86703
410.89422,0.88316
409.40443,0.84659
407.91464,0.71642
406.42485,0.73563
404.93506,0.70274
403.44527,0.66988
401.95548,0.66196
400.46570,0.68252
398.97591,0.67645
397.48612,0.67043
395.99633,0.62710
394.50654,0.62886
393.01675,0.61466
391.52697,0.60050
390.03718,0.54667
388.54739,0.52252
387.05760,0.52744
385.56781,0.53240
384.07802,0.60437
382.58824,0.60527
381.09845,0.58428
379.60866,0.56333
378.11887,0.51101
376.62908,0.33546
375.13929,0.32885
373.64950,0.32229
372.15972,0.33650
370.66993,0.40765
369.18014,0.32179
367.69035,0.23597
366.20056,0.24680
364.71077,0.19839
363.22099,0.28337
361.73120,0.36840
360.24141,0.28693
358.75162,0.31217
357.26183,0.21478
355.77204,0.11744
354.28225,0.17480
352.79247,0.11843
351.30268,0.12432
349.81289,0.13025
348.32310,0.10481
346.83331,0.06519
345.34352,0.07775
343.85374,0.09034
342.36395,0.13617
340.87416,0.28752
339.38437,0.24156
337.89458,0.19565
336.40479,0.10652
334.91501,0.00794
333.42522,0.04253
331.93543,0.07716
330.44564,0.14561
328.95585,0.12639
327.46606,0.10247
325.97627,0.07859
324.48649,0.06541
322.99670,0.12814
321.50691,0.13757
320.01712,0.14703
318.52733,0.23833
317.03754,0.24195
315.54776,0.14783
314.05797,0.05375
312.56818,0.01719
311.07839,0.00794
309.58860,0.01194
308.09881,0.01598
306.60902,0.02185
305.11924,0.13798
303.62945,0.07991
302.13966,0.02189
300.64987,0.06823
299.16008,0.00794
