1778.52000,0.00234
1777.03021,0.00256
1775.54042,0.01035
1774.05063,0.01061
1772.56085,0.01953
1771.07106,0.02659
1769.58127,0.02396
1768.09148,0.02405
1766.60169,0.03064
1765.11190,0.02404
1763.62212,0.02555
1762.13233,0.04273
1760.64254,0.02972
1759.15275,0.03427
1757.66296,0.03399
1756.17317,0.02484
1754.68339,0.03890
1753.19360,0.03788
1751.70381,0.02907
1750.21402,0.04797
1748.72423,0.03211
1747.23444,0.03056
1745.74465,0.02985
1744.25487,0.03995
1742.76508,0.02850
1741.27529,0.04027
1739.78550,0.03264
1738.29571,0.02989
1736.80592,0.03040
1735.31614,0.03094
1733.82635,0.02502
1732.33656,0.01589
1730.84677,0.01542
1729.35698,0.02306
1727.86719,0.01671
1726.37740,0.03195
1724.88762,0.03373
1723.39783,0.01666
1721.90804,0.01902
1720.41825,0.02007
1718.92846,0.01520
1717.43867,0.00793
1715.94889,0.01121
1714.45910,0.02421
1712.96931,0.00703
1711.47952,0.01119
1709.98973,0.00970
1708.49994,0.01013
1707.01016,0.01247
1705.52037,0.01483
1704.03058,0.00130
1702.54079,0.00852
1701.05100,0.00606
1699.56121,0.01792
1698.07142,0.00256
1696.58164,0.00863
1695.09185,0.01770
1693.60206,0.01682
1692.11227,0.01839
1690.62248,0.01728
1689.13269,0.01754
1687.64291,0.00273
1686.15312,0.02408
1684.66333,0.01336
1683.17354,0.00590
1681.68375,0.01653
1680.19396,0.01263
1678.70417,0.02439
1677.21439,0.01567
1675.72460,0.02290
1674.23481,0.01828
1672.74502,0.02150
1671.25523,0.03150
1669.76544,0.04448
1668.27566,0.04049
1666.78587,0.03357
1665.29608,0.04500
1663.80629,0.05296
1662.31650,0.05959
1660.82671,0.06112
1659.33693,0.06483
1657.84714,0.06290
1656.35735,0.04616
1654.86756,0.05264
1653.37777,0.06157
1651.88798,0.06513
1650.39819,0.06224
1648.90841,0.06828
1647.41862,0.06598
1645.92883,0.05979
1644.43904,0.05362
1642.94925,0.06272
1641.45946,0.07130
1639.96968,0.06103
1638.47989,0.06292
1636.99010,0.07346
1635.50031,0.07648
1634.01052,0.07223
1632.52073,0.07637
1631.03094,0.06975
1629.54116,0.07718
1628.05137,0.09245
1626.56158,0.07969
1625.07179,0.07964
1623.58200,0.08986
1622.09221,0.08284
1620.60243,0.08393
1619.11264,0.09503
1617.62285,0.07568
1616.13306,0.07388
1614.64327,0.06482
1613.15348,0.06523
1611.66370,0.08994
1610.17391,0.10010
1608.68412,0.08736
1607.19433,0.08705
1605.70454,0.08731
1604.21475,0.08746
1602.72496,0.08763
1601.23518,0.09227
1599.74539,0.07159
1598.25560,0.06846
1596.76581,0.08747
1595.27602,0.08438
1593.78623,0.08483
1592.29645,0.08288
1590.80666,0.06611
1589.31687,0.08146
1587.82708,0.07257
1586.33729,0.07718
1584.84750,0.07400
1583.35771,0.08270
1581.86793,0.08874
1580.37814,0.07376
1578.88835,0.06150
1577.39856,0.07165
1575.90877,0.06915
1574.41898,0.05912
1572.92920,0.05127
1571.43941,0.05531
1569.94962,0.05264
1568.45983,0.04998
1566.97004,0.03711
1565.48025,0.01562
1563.99047,0.03894
1562.50068,0.02236
1561.01089,0.02765
1559.52110,0.00896
1558.03131,0.01942
1556.54152,0.01345
1555.05173,0.02504
1553.56195,0.01022
1552.07216,0.01349
1550.58237,0.00951
1549.09258,0.01095
1547.60279,0.00000
1546.11300,0.00391
1544.62322,0.00380
1543.13343,0.00560
1541.64364,0.01740
1540.15385,0.01709
1538.66406,0.01681
1537.17427,0.00684
1535.68448,0.00256
1534.19470,0.01767
1532.70491,0.01824
1531.21512,0.02018
1529.72533,0.01351
1528.23554,0.03169
1526.74575,0.03235
1525.25597,0.03169
1523.76618,0.04832
1522.27639,0.04582
1520.78660,0.03957
1519.29681,0.04575
1517.80702,0.04710
1516.31724,0.03714
1514.82745,0.03314
1513.33766,0.03915
1511.84787,0.04518
1510.35808,0.04961
1508.86829,0.04706
1507.37850,0.03401
1505.88872,0.04985
1504.39893,0.06355
1502.90914,0.06405
1501.41935,0.07241
1499.92956,0.08322
1498.43977,0.07112
1496.94999,0.07280
1495.46020,0.08233
1493.97041,0.10213
1492.48062,0.10659
1490.99083,0.11052
1489.50104,0.11529
1488.01125,0.12292
1486.52147,0.13057
1485.03168,0.14215
1483.54189,0.16131
1482.05210,0.16243
1480.56231,0.18217
1479.07252,0.19358
1477.58274,0.21850
1476.09295,0.22484
1474.60316,0.20287
1473.11337,0.22814
1471.62358,0.24479
1470.13379,0.22020
1468.64401,0.23178
1467.15422,0.24662
1465.66443,0.27011
1464.17464,0.29363
1462.68485,0.31501
1461.19506,0.33291
1459.70527,0.39992
1458.21549,0.44619
1456.72570,0.50651
1455.23591,0.56361
1453.74612,0.62074
1452.25633,0.67816
1450.76654,0.70135
1449.27676,0.72133
1447.78697,0.71328
1446.29718,0.68584
1444.80739,0.67758
1443.31760,0.66933
1441.82781,0.62497
1440.33802,0.56041
1438.84824,0.51906
1437.35845,0.46183
1435.86866,0.44453
1434.37887,0.49415
1432.88908,0.54406
1431.39929,0.60559
1429.90951,0.65933
1428.41972,0.74275
1426.92993,0.81811
1425.44014,0.86113
1423.95035,0.87666
1422.46056,0.89222
1420.97078,0.93288
1419.48099,0.95765
1417.99120,1.00052
1416.50141,1.00754
1415.01162,0.96199
1413.52183,0.94020
1412.03204,0.85236
1410.54226,0.79124
1409.05247,0.70210
1407.56268,0.61243
1406.07289,0.59724
1404.58310,0.56561
1403.09331,0.53401
1401.60353,0.49839
1400.11374,0.44310
1398.62395,0.37705
1397.13416,0.31533
1395.64437,0.27980
1394.15458,0.24053
1392.66479,0.21287
1391.17501,0.19656
1389.68522,0.16032
1388.19543,0.11601
1386.70564,0.10126
1385.21585,0.08653
1383.72606,0.05848
1382.23628,0.04258
1380.74649,0.03588
1379.25670,0.04647
1377.76691,0.02984
1376.27712,0.01755
1374.78733,0.01607
1373.29755,0.02054
1371.80776,0.00617
1370.31797,0.02040
1368.82818,0.01147
1367.33839,0.00256
1365.84860,0.01591
1364.35881,0.03549
1362.86903,0.04350
1361.37924,0.06152
1359.88945,0.08576
1358.39966,0.09033
1356.90987,0.14267
1355.42008,0.18991
1353.93030,0.24472
1352.44051,0.27812
1350.95072,0.31153
1349.46093,0.35536
1347.97114,0.45882
1346.48135,0.54099
1344.99156,0.66122
1343.50178,0.71296
1342.01199,0.72805
1340.52220,0.77606
1339.03241,0.84487
1337.54262,0.90426
1336.05283,0.92362
1334.56305,0.94301
1333.07326,1.00571
1331.58347,0.99669
1330.09368,0.96990
1328.60389,0.97981
1327.11410,0.94443
1325.62432,0.93739
1324.13453,0.91851
1322.64474,0.90344
1321.15495,0.81071
1319.66516,0.77086
1318.17537,0.73104
1316.68558,0.68262
1315.19580,0.61156
1313.70601,0.57774
1312.21622,0.55582
1310.72643,0.52556
1309.23664,0.47914
1307.74685,0.45109
1306.25707,0.41820
1304.76728,0.39734
1303.27749,0.37650
1301.78770,0.32940
1300.29791,0.28231
1298.80812,0.23795
1297.31834,0.20736
1295.82855,0.17626
1294.33876,0.14006
1292.84897,0.12223
1291.35918,0.09740
1289.86939,0.10227
1288.37960,0.10716
1286.88982,0.12556
1285.40003,0.09085
1283.91024,0.08206
1282.42045,0.06897
1280.93066,0.07749
1279.44087,0.06553
1277.95109,0.05414
1276.46130,0.03818
1274.97151,0.03655
1273.48172,0.03493
1271.99193,0.03254
1270.50214,0.02747
1269.01235,0.02350
1267.52257,0.03762
1266.03278,0.01428
1264.54299,0.02927
1263.05320,0.04023
1261.56341,0.03476
1260.07362,0.02932
1258.58384,0.01904
1257.09405,0.01958
1255.60426,0.01313
1254.11447,0.00671
1252.62468,0.00893
1251.13489,0.00256
1249.64511,0.01931
1248.15532,0.01154
1246.66553,0.01324
1245.17574,0.01496
1243.68595,0.02318
1242.19616,0.01686
1240.70637,0.01191
1239.21659,0.00590
1237.72680,0.01826
1236.23701,0.02066
1234.74722,0.01446
1233.25743,0.01489
1231.76764,0.01534
1230.27786,0.00921
1228.78807,0.01875
1227.29828,0.02966
1225.80849,0.02198
1224.31870,0.01109
1222.82891,0.01830
1221.33912,0.02040
1219.84934,0.03035
1218.35955,0.04032
1216.86976,0.02443
1215.37997,0.03445
1213.89018,0.06769
1212.40039,0.05753
1210.91061,0.06546
1209.42082,0.07936
1207.93103,0.07709
1206.44124,0.07485
1204.95145,0.07344
1203.46166,0.07907
1201.97188,0.08688
1200.48209,0.06990
1198.99230,0.06076
1197.50251,0.06190
1196.01272,0.04041
1194.52293,0.04901
1193.03314,0.05764
1191.54336,0.04754
1190.05357,0.05150
1188.56378,0.04172
1187.07399,0.04788
1185.58420,0.02952
1184.09441,0.00256
1182.60463,0.01253
1181.11484,0.02252
1179.62505,0.03106
1178.13526,0.04016
1176.64547,0.05899
1175.15568,0.03280
1173.66589,0.03011
1172.17611,0.02825
1170.68632,0.01831
1169.19653,0.00841
1167.70674,0.02442
1166.21695,0.02966
1164.72716,0.03871
1163.23738,0.04427
1161.74759,0.03799
1160.25780,0.05358
1158.76801,0.06272
1157.27822,0.07188
1155.78843,0.08862
1154.29865,0.09460
1152.80886,0.10303
1151.31907,0.11579
1149.82928,0.11806
1148.33949,0.14463
1146.84970,0.15262
1145.35991,0.16062
1143.87013,0.17648
1142.38034,0.16268
1140.89055,0.17724
1139.40076,0.18534
1137.91097,0.20803
1136.42118,0.23964
1134.93140,0.24256
1133.44161,0.24550
1131.95182,0.24401
1130.46203,0.26062
1128.97224,0.27509
1127.48245,0.25938
1125.99266,0.28658
1124.50288,0.27604
1123.01309,0.27996
1121.52330,0.28390
1120.03351,0.26211
1118.54372,0.26677
1117.05393,0.25581
1115.56415,0.27913
1114.07436,0.27200
1112.58457,0.26421
1111.09478,0.25645
1109.60499,0.26315
1108.11520,0.26582
1106.62542,0.25557
1105.13563,0.23617
1103.64584,0.25375
1102.15605,0.23710
1100.66626,0.23530
1099.17647,0.23353
1097.68668,0.23098
1096.19690,0.22845
1094.70711,0.23106
1093.21732,0.20835
1091.72753,0.21156
1090.23774,0.20710
1088.74795,0.20266
1087.25817,0.19974
1085.76838,0.19225
1084.27859,0.18532
1082.78880,0.18220
1081.29901,0.16669
1079.80922,0.18411
1078.31943,0.19036
1076.82965,0.19664
1075.33986,0.17907
1073.85007,0.21735
1072.36028,0.20684
1070.87049,0.22684
1069.38070,0.24011
1067.89092,0.24383
1066.40113,0.24758
1064.91134,0.32107
1063.42155,0.44609
1061.93176,0.50129
1060.44197,0.60155
1058.95219,0.70346
1057.46240,0.73809
1055.97261,0.77275
1054.48282,0.84964
1052.99303,0.86884
1051.50324,0.87512
1050.01345,0.90543
1048.52367,0.95275
1047.03388,0.94359
1045.54409,0.93446
1044.05430,0.89230
1042.56451,0.78410
1041.07472,0.72743
1039.58494,0.64328
1038.09515,0.63197
1036.60536,0.60640
1035.11557,0.58084
1033.62578,0.48842
1032.13599,0.43190
1030.64620,0.39374
1029.15642,0.33565
1027.66663,0.31075
1026.17684,0.28588
1024.68705,0.22624
1023.19726,0.17283
1021.70747,0.17797
1020.21769,0.15994
1018.72790,0.14220
1017.23811,0.12691
1015.74832,0.11164
1014.25853,0.10369
1012.76874,0.10654
1011.27896,0.08110
1009.78917,0.06863
1008.29938,0.06724
1006.80959,0.06857
1005.31980,0.06992
1003.83001,0.02195
1002.34022,0.00986
1000.85044,0.02532
999.36065,0.04403
997.87086,0.04793
996.38107,0.05186
994.89128,0.04826
993.40149,0.06383
991.91171,0.09399
990.42192,0.09234
988.93213,0.11527
987.44234,0.11921
985.95255,0.12316
984.46276,0.12162
982.97297,0.10364
981.48319,0.09783
979.99340,0.07343
978.50361,0.07292
977.01382,0.07244
975.52403,0.03544
974.03424,0.02920
972.54446,0.03028
971.05467,0.02193
969.56488,0.00256
968.07509,0.00339
966.58530,0.00426
965.09551,0.00933
963.60573,0.02116
962.11594,0.00524
960.62615,0.00202
959.13636,0.01111
957.64657,0.02022
956.15678,0.02477
954.66699,0.01936
953.17721,0.02315
951.68742,0.04854
950.19763,0.06236
948.70784,0.07620
947.21805,0.08737
945.72826,0.07860
944.23848,0.07255
942.74869,0.10968
941.25890,0.11501
939.76911,0.12468
938.27932,0.13437
936.78953,0.16513
935.29974,0.18997
933.80996,0.21349
932.32017,0.25052
930.83038,0.25467
929.34059,0.25884
927.85080,0.26438
926.36101,0.28559
924.87123,0.32409
923.38144,0.37771
921.89165,0.39954
920.40186,0.42138
918.91207,0.54305
917.42228,0.65718
915.93250,0.82069
914.44271,1.02226
912.95292,1.11718
911.46313,1.21213
909.97334,1.46204
908.48355,1.68070
906.99376,1.88805
905.50398,1.97891
904.01419,1.97836
902.52440,1.97784
901.03461,2.00000
899.54482,1.97309
898.05503,1.87501
896.56525,1.68984
895.07546,1.57481
893.58567,1.45980
892.09588,1.15144
890.60609,0.94398
889.11630,0.70282
887.62651,0.52400
886.13673,0.45456
884.64694,0.38514
883.15715,0.26275
881.66736,0.18732
880.17757,0.13537
878.68778,0.12256
877.19800,0.10977
875.70821,0.06787
874.21842,0.04919
872.72863,0.03998
871.23884,0.02863
869.74905,0.02446
868.25927,0.02030
866.76948,0.00256
865.27969,0.01068
863.78990,0.02234
862.30011,0.04427
860.81032,0.04235
859.32053,0.04046
857.83075,0.06435
856.34096,0.07423
854.85117,0.10491
853.36138,0.10730
851.87159,0.11078
850.38180,0.11429
848.89202,0.10057
847.40223,0.11653
845.91244,0.16111
844.42265,0.16782
842.93286,0.17455
841.44307,0.18333
839.95329,0.20939
838.46350,0.22064
836.97371,0.22680
835.48392,0.22313
833.99413,0.21949
832.50434,0.21465
831.01455,0.21065
829.52477,0.21045
828.03498,0.18519
826.54519,0.16144
825.05540,0.13771
823.56561,0.14678
822.07582,0.11838
820.58604,0.13235
819.09625,0.12395
817.60646,0.11558
816.11667,0.11101
814.62688,0.11051
813.13709,0.10356
811.64730,0.09475
810.15752,0.09324
808.66773,0.09176
807.17794,0.12293
805.68815,0.11934
804.19836,0.15056
802.70857,0.14189
801.21879,0.13325
799.72900,0.12921
798.23921,0.11414
796.74942,0.11527
795.25963,0.11347
793.76984,0.11168
792.28006,0.12422
790.79027,0.14945
789.30048,0.15961
787.81069,0.16736
786.32090,0.18322
784.83111,0.19912
783.34132,0.20964
781.85154,0.23313
780.36175,0.30195
778.87196,0.31726
777.38217,0.33260
775.89238,0.34728
774.40259,0.34905
772.91281,0.35623
771.42302,0.34887
769.93323,0.34154
768.44344,0.25844
766.95365,0.22526
765.46386,0.17592
763.97407,0.15736
762.48429,0.13908
760.99450,0.12083
759.50471,0.10207
758.01492,0.10706
756.52513,0.08052
755.03534,0.07356
753.54556,0.06663
752.05577,0.05041
750.56598,0.05525
749.07619,0.06336
747.58640,0.04236
746.09661,0.02138
744.60683,0.03468
743.11704,0.02022
741.62725,0.00579
740.13746,0.01067
738.64767,0.01557
737.15788,0.00256
735.66809,0.00230
734.17831,0.01611
732.68852,0.00958
731.19873,0.00307
729.70894,0.02234
728.21915,0.00631
726.72936,0.02320
725.23958,0.00560
723.74979,0.00406
722.26000,0.00256
720.77021,0.00585
719.28042,0.01564
717.79063,0.00145
716.30084,0.00464
714.81106,0.00786
713.32127,0.02607
711.83148,0.02299
710.34169,0.02776
708.85190,0.02298
707.36211,0.01823
705.87233,0.03278
704.38254,0.03387
702.89275,0.05252
701.40296,0.04880
699.91317,0.04511
698.42338,0.05655
696.93360,0.05020
695.44381,0.08623
693.95402,0.09639
692.46423,0.10657
690.97444,0.13080
689.48465,0.14697
687.99486,0.17502
686.50508,0.18261
685.01529,0.19021
683.52550,0.22184
682.03571,0.25107
680.54592,0.28923
679.05613,0.28263
677.56635,0.27607
676.07656,0.25253
674.58677,0.24628
673.09698,0.25947
671.60719,0.23843
670.11740,0.21742
668.62761,0.18348
667.13783,0.16845
665.64804,0.14643
664.15825,0.12443
662.66846,0.12079
661.17867,0.09669
659.68888,0.09418
658.19910,0.07457
656.70931,0.05499
655.21952,0.04905
653.72973,0.03720
652.23994,0.02078
650.75015,0.02071
649.26037,0.02067
647.77058,0.02887
646.28079,0.02307
644.79100,0.03240
643.30121,0.03164
641.81142,0.03091
640.32163,0.04220
638.83185,0.03086
637.34206,0.01657
635.85227,0.01647
634.36248,0.01639
632.87269,0.01998
631.38290,0.00256
629.89312,0.04041
628.40333,0.03501
626.91354,0.02962
625.42375,0.02440
623.93396,0.02567
622.44417,0.01982
620.95438,0.01399
619.46460,0.02019
617.97481,0.04718
616.48502,0.06772
614.99523,0.08519
613.50544,0.10268
612.01565,0.11628
610.52587,0.15013
609.03608,0.18212
607.54629,0.21211
606.05650,0.24212
604.56671,0.28443
603.07692,0.35832
601.58714,0.37236
600.09735,0.38642
598.60756,0.43368
597.11777,0.44725
595.62798,0.45842
594.13819,0.44709
592.64840,0.43578
591.15862,0.39820
589.66883,0.33772
588.17904,0.28293
586.68925,0.23585
585.19946,0.18879
583.70967,0.16563
582.21989,0.12846
580.73010,0.10710
579.24031,0.08576
577.75052,0.08616
576.26073,0.07201
574.77094,0.06059
573.28115,0.04825
571.79137,0.03593
570.30158,0.04319
568.81179,0.05910
567.32200,0.07396
565.83221,0.08884
564.34242,0.07542
562.85264,0.10761
561.36285,0.12554
559.87306,0.13296
558.38327,0.14041
556.89348,0.13683
555.40369,0.16320
553.91391,0.16128
552.42412,0.15939
550.93433,0.18341
549.44454,0.18777
547.95475,0.18514
546.46496,0.19804
544.97517,0.21096
543.48539,0.22998
541.99560,0.27572
540.50581,0.27739
539.01602,0.27908
537.52623,0.34350
536.03644,0.38341
534.54666,0.40526
533.05687,0.43726
531.56708,0.46928
530.07729,0.50064
528.58750,0.57330
527.09771,0.60890
525.60792,0.64452
524.11814,0.72966
522.62835,0.80052
521.13856,0.85550
519.64877,0.87314
518.15898,0.89081
516.66919,0.93642
515.17941,0.91274
513.68962,0.91457
512.19983,0.91642
510.71004,0.79464
509.22025,0.81663
507.73046,0.79172
506.24068,0.72719
504.75089,0.66268
503.26110,0.55989
501.77131,0.41155
500.28152,0.36316
498.79173,0.31479
497.30194,0.24015
495.81216,0.21867
494.32237,0.19087
492.83258,0.16310
491.34279,0.14573
489.85300,0.07688
488.36321,0.08653
486.87343,0.10079
485.38364,0.11508
483.89385,0.10889
482.40406,0.09571
480.91427,0.09578
479.42448,0.09586
477.93469,0.12294
476.44491,0.14681
474.95512,0.16733
473.46533,0.18788
471.97554,0.19402
470.48575,0.20639
468.99596,0.18075
467.50618,0.16930
466.01639,0.15787
464.52660,0.13149
463.03681,0.07709
461.54702,0.06249
460.05723,0.04792
458.56745,0.02785
457.07766,0.03315
455.58787,0.01784
454.09808,0.00256
452.60829,0.00188
451.11850,0.01940
449.62871,0.01536
448.13893,0.01135
446.64914,0.02409
445.15935,0.00960
443.66956,0.00566
442.17977,0.01712
440.68998,0.02860
439.20020,0.01232
437.71041,0.02790
436.22062,0.02934
434.73083,0.03080
433.24104,0.02541
431.75125,0.04485
430.26146,0.03587
428.77168,0.02691
427.28189,0.06315
425.79210,0.02821
424.30231,0.04225
422.81252,0.05631
421.32273,0.04922
419.83295,0.03514
418.34316,0.03174
416.85337,0.02837
415.36358,0.03028
413.87379,0.01684
412.38400,0.00976
410.89422,0.00270
409.40443,0.00434
407.91464,0.02489
406.42485,0.02496
404.93506,0.01616
403.44527,0.00738
401.95548,0.02262
400.46570,0.01335
398.97591,0.00869
397.48612,0.00405
395.99633,0.02371
394.50654,0.00374
393.01675,0.01698
391.52697,0.02809
390.03718,0.05999
388.54739,0.02449
387.05760,0.01747
385.56781,0.01047
384.07802,0.00256
382.58824,0.01836
381.09845,0.02300
379.60866,0.02767
378.11887,0.02386
376.62908,0.01009
375.13929,0.00809
373.64950,0.00610
372.15972,0.05687
370.66993,0.06316
369.18014,0.04210
367.69035,0.02106
366.20056,0.04695
364.71077,0.05479
363.22099,0.04458
361.73120,0.03440
360.24141,0.06793
358.75162,0.05213
357.26183,0.04755
355.77204,0.04299
354.28225,0.01566
352.79247,0.01830
351.30268,0.04941
349.81289,0.08055
348.32310,0.06600
346.83331,0.05956
345.34352,0.04101
343.85374,0.02248
342.36395,0.01666
340.87416,0.03540
339.38437,0.01896
337.89458,0.00256
336.40479,0.04428
334.91501,0.04180
333.42522,0.03597
331.93543,0.03016
330.44564,0.00779
328.95585,0.03831
327.46606,0.02987
325.97627,0.02147
324.48649,0.02346
322.99670,0.03653
321.50691,0.06028
320.01712,0.08405
318.52733,0.10205
317.03754,0.07234
315.54776,0.07474
314.05797,0.07717
312.56818,0.04941
311.07839,0.04973
309.58860,0.05088
308.09881,0.05206
306.60902,0.02494
305.11924,0.03937
303.62945,0.02808
302.13966,0.01241
300.64987,0.00256
299.16008,0.00256
