1778.52000,0.00931
1777.03021,0.00125
1775.54042,0.01255
1774.05063,0.02166
1772.56085,0.01347
1771.07106,0.02101
1769.58127,0.02677
1768.09148,0.03395
1766.60169,0.03130
1765.11190,0.03491
1763.62212,0.03794
1762.13233,0.04180
1760.64254,0.04427
1759.15275,0.04596
1757.66296,0.06017
1756.17317,0.04378
1754.68339,0.05296
1753.19360,0.04665
1751.70381,0.05627
1750.21402,0.04376
1748.72423,0.04900
1747.23444,0.04339
1745.74465,0.05392
1744.25487,0.04715
1742.76508,0.04926
1741.27529,0.04878
1739.78550,0.04168
1738.29571,0.04306
1736.80592,0.04648
1735.31614,0.04408
1733.82635,0.03808
1732.33656,0.02646
1730.84677,0.03924
1729.35698,0.03331
1727.86719,0.04050
1726.37740,0.03079
1724.88762,0.04366
1723.39783,0.03864
1721.90804,0.02960
1720.41825,0.02583
1718.92846,0.03377
1717.43867,0.02460
1715.94889,0.03127
1714.45910,0.03978
1712.96931,0.03563
1711.47952,0.03935
1709.98973,0.02960
1708.49994,0.02894
1707.01016,0.02458
1705.52037,0.02024
1704.03058,0.03213
1702.54079,0.02835
1701.05100,0.03022
1699.56121,0.02285
1698.07142,0.03364
1696.58164,0.03418
1695.09185,0.03312
1693.60206,0.03572
1692.11227,0.03190
1690.62248,0.03273
1689.13269,0.03158
1687.64291,0.03669
1686.15312,0.03095
1684.66333,0.04114
1683.17354,0.03122
1681.68375,0.03562
1680.19396,0.04487
1678.70417,0.04650
1677.21439,0.04634
1675.72460,0.04721
1674.23481,0.04428
1672.74502,0.05869
1671.25523,0.06326
1669.76544,0.06523
1668.27566,0.06199
1666.78587,0.05817
1665.29608,0.06706
1663.80629,0.08706
1662.31650,0.08713
1660.82671,0.09408
1659.33693,0.09220
1657.84714,0.08731
1656.35735,0.08446
1654.86756,0.07842
1653.37777,0.08750
1651.88798,0.09076
1650.39819,0.08801
1648.90841,0.08488
1647.41862,0.06506
1645.92883,0.07245
1644.43904,0.07986
1642.94925,0.08266
1641.45946,0.08892
1639.96968,0.07384
1638.47989,0.09807
1636.99010,0.09936
1635.50031,0.09422
1634.01052,0.08972
1632.52073,0.10135
1631.03094,0.09810
1629.54116,0.09911
1628.05137,0.10054
1626.56158,0.09716
1625.07179,0.09904
1623.58200,0.10397
1622.09221,0.09664
1620.60243,0.09799
1619.11264,0.09533
1617.62285,0.08505
1616.13306,0.08103
1614.64327,0.09073
1613.15348,0.09039
1611.66370,0.11565
1610.17391,0.11112
1608.68412,0.09514
1607.19433,0.09429
1605.70454,0.09326
1604.21475,0.09588
1602.72496,0.09852
1601.23518,0.09293
1599.74539,0.09804
1598.25560,0.10075
1596.76581,0.10611
1595.27602,0.09839
1593.78623,0.08446
1592.29645,0.08465
1590.80666,0.08487
1589.31687,0.08873
1587.82708,0.09584
1586.33729,0.09754
1584.84750,0.08577
1583.35771,0.08368
1581.86793,0.07619
1580.37814,0.08060
1578.88835,0.08322
1577.39856,0.08224
1575.90877,0.07141
1574.41898,0.05860
1572.92920,0.05266
1571.43941,0.06023
1569.94962,0.05987
1568.45983,0.05954
1566.97004,0.05369
1565.48025,0.03316
1563.99047,0.04065
1562.50068,0.03709
1561.01089,0.02872
1559.52110,0.03125
1558.03131,0.02575
1556.54152,0.02329
1555.05173,0.01481
1553.56195,0.01965
1552.07216,0.01102
1550.58237,0.01409
1549.09258,0.01558
1547.60279,0.00541
1546.11300,0.00553
1544.62322,0.00125
1543.13343,0.00854
1541.64364,0.01363
1540.15385,0.01250
1538.66406,0.01140
1537.17427,0.01334
1535.68448,0.01410
1534.19470,0.00924
1532.70491,0.01327
1531.21512,0.01148
1529.72533,0.00992
1528.23554,0.00576
1526.74575,0.02257
1525.25597,0.01142
1523.76618,0.01679
1522.27639,0.02744
1520.78660,0.03206
1519.29681,0.02563
1517.80702,0.03130
1516.31724,0.02149
1514.82745,0.03366
1513.33766,0.03679
1511.84787,0.03995
1510.35808,0.04574
1508.86829,0.04572
1507.37850,0.03283
1505.88872,0.05421
1504.39893,0.05788
1502.90914,0.05333
1501.41935,0.05040
1499.92956,0.04489
1498.43977,0.05188
1496.94999,0.06292
1495.46020,0.05486
1493.97041,0.06978
1492.48062,0.09520
1490.99083,0.10352
1489.50104,0.09676
1488.01125,0.10573
1486.52147,0.11473
1485.03168,0.12516
1483.54189,0.13722
1482.05210,0.16039
1480.56231,0.17834
1479.07252,0.21384
1477.58274,0.21573
1476.09295,0.23678
1474.60316,0.23912
1473.11337,0.23866
1471.62358,0.24649
1470.13379,0.25675
1468.64401,0.25637
1467.15422,0.27132
1465.66443,0.28518
1464.17464,0.29906
1462.68485,0.33684
1461.19506,0.35309
1459.70527,0.41589
1458.21549,0.46562
1456.72570,0.51336
1455.23591,0.55267
1453.74612,0.60347
1452.25633,0.64424
1450.76654,0.68422
1449.27676,0.69703
1447.78697,0.68651
1446.29718,0.70985
1444.80739,0.68044
1443.31760,0.65105
1441.82781,0.59772
1440.33802,0.55651
1438.84824,0.50463
1437.35845,0.47716
1435.86866,0.46119
1434.37887,0.52076
1432.88908,0.54492
1431.39929,0.58722
1429.90951,0.64506
1428.41972,0.73575
1426.92993,0.79666
1425.44014,0.83906
1423.95035,0.85762
1422.46056,0.87620
1420.97078,0.87738
1419.48099,0.93377
1417.99120,0.99361
1416.50141,0.99427
1415.01162,0.96231
1413.52183,0.88467
1412.03204,0.82819
1410.54226,0.76952
1409.05247,0.69637
1407.56268,0.64964
1406.07289,0.59104
1404.58310,0.57627
1403.09331,0.56153
1401.60353,0.47078
1400.11374,0.42416
1398.62395,0.34212
1397.13416,0.31871
1395.64437,0.26471
1394.15458,0.23128
1392.66479,0.19767
1391.17501,0.15824
1389.68522,0.12811
1388.19543,0.10444
1386.70564,0.09409
1385.21585,0.08376
1383.72606,0.06157
1382.23628,0.04766
1380.74649,0.04365
1379.25670,0.03503
1377.76691,0.03086
1376.27712,0.00416
1374.78733,0.00125
1373.29755,0.00238
1371.80776,0.00535
1370.31797,0.01137
1368.82818,0.00724
1367.33839,0.00313
1365.84860,0.01307
1364.35881,0.02202
1362.86903,0.03423
1361.37924,0.04907
1359.88945,0.06011
1358.39966,0.08286
1356.90987,0.13725
1355.42008,0.19267
1353.93030,0.25497
1352.44051,0.26522
1350.95072,0.27550
1349.46093,0.35599
1347.97114,0.46954
1346.48135,0.54927
1344.99156,0.60144
1343.50178,0.67196
1342.01199,0.71309
1340.52220,0.75385
1339.03241,0.82444
1337.54262,0.90250
1336.05283,0.93024
1334.56305,0.95800
1333.07326,0.95598
1331.58347,0.91712
1330.09368,0.91897
1328.60389,0.93575
1327.11410,0.92657
1325.62432,0.90231
1324.13453,0.87747
1322.64474,0.81640
1321.15495,0.77187
1319.66516,0.75576
1318.17537,0.73967
1316.68558,0.65896
1315.19580,0.58190
1313.70601,0.56508
1312.21622,0.53801
1310.72643,0.50472
1309.23664,0.45736
1307.74685,0.44084
1306.25707,0.38789
1304.76728,0.35953
1303.27749,0.33120
1301.78770,0.29906
1300.29791,0.27823
1298.80812,0.23164
1297.31834,0.18729
1295.82855,0.15545
1294.33876,0.12464
1292.84897,0.09848
1291.35918,0.08706
1289.86939,0.08653
1288.37960,0.08603
1286.88982,0.08354
1285.40003,0.07261
1283.91024,0.05828
1282.42045,0.05868
1280.93066,0.06111
1279.44087,0.05149
1277.95109,0.03907
1276.46130,0.03493
1274.97151,0.03746
1273.48172,0.04002
1271.99193,0.01621
1270.50214,0.01499
1269.01235,0.02003
1267.52257,0.03658
1266.03278,0.02073
1264.54299,0.02564
1263.05320,0.02816
1261.56341,0.01983
1260.07362,0.01152
1258.58384,0.00143
1257.09405,0.00324
1255.60426,0.00990
1254.11447,0.00391
1252.62468,0.00559
1251.13489,0.00125
1249.64511,0.00989
1248.15532,0.00948
1246.66553,0.01062
1245.17574,0.01177
1243.68595,0.00842
1242.19616,0.00892
1240.70637,0.00642
1239.21659,0.00374
1237.72680,0.02647
1236.23701,0.01558
1234.74722,0.00935
1233.25743,0.00818
1231.76764,0.00703
1230.27786,0.00249
1228.78807,0.00300
1227.29828,0.01844
1225.80849,0.01134
1224.31870,0.00125
1222.82891,0.01047
1221.33912,0.02053
1219.84934,0.02315
1218.35955,0.02580
1216.86976,0.02927
1215.37997,0.04144
1213.89018,0.06671
1212.40039,0.07147
1210.91061,0.07665
1209.42082,0.07260
1207.93103,0.07289
1206.44124,0.07321
1204.95145,0.07507
1203.46166,0.05802
1201.97188,0.05448
1200.48209,0.05399
1198.99230,0.05574
1197.50251,0.03234
1196.01272,0.03454
1194.52293,0.03314
1193.03314,0.03176
1191.54336,0.02799
1190.05357,0.03068
1188.56378,0.02958
1187.07399,0.02850
1185.58420,0.02301
1184.09441,0.01352
1182.60463,0.00737
1181.11484,0.00125
1179.62505,0.01702
1178.13526,0.03100
1176.64547,0.02144
1175.15568,0.00969
1173.66589,0.01911
1172.17611,0.01445
1170.68632,0.01475
1169.19653,0.01508
1167.70674,0.01654
1166.21695,0.02165
1164.72716,0.02698
1163.23738,0.03818
1161.74759,0.04577
1160.25780,0.05158
1158.76801,0.05872
1157.27822,0.06589
1155.78843,0.06834
1154.29865,0.07767
1152.80886,0.09507
1151.31907,0.10002
1149.82928,0.11969
1148.33949,0.13837
1146.84970,0.14943
1145.35991,0.16051
1143.87013,0.15893
1142.38034,0.16482
1140.89055,0.14918
1139.40076,0.16419
1137.91097,0.19633
1136.42118,0.20071
1134.93140,0.20763
1133.44161,0.21457
1131.95182,0.22264
1130.46203,0.22893
1128.97224,0.23463
1127.48245,0.23290
1125.99266,0.23463
1124.50288,0.26659
1123.01309,0.26846
1121.52330,0.27035
1120.03351,0.25465
1118.54372,0.24038
1117.05393,0.23580
1115.56415,0.21896
1114.07436,0.23316
1112.58457,0.22946
1111.09478,0.22578
1109.60499,0.23119
1108.11520,0.23823
1106.62542,0.23785
1105.13563,0.22057
1103.64584,0.22003
1102.15605,0.21227
1100.66626,0.20463
1099.17647,0.19701
1097.68668,0.19698
1096.19690,0.20763
1094.70711,0.20019
1093.21732,0.20566
1091.72753,0.19967
1090.23774,0.19482
1088.74795,0.18999
1087.25817,0.17199
1085.76838,0.16106
1084.27859,0.15943
1082.78880,0.17131
1081.29901,0.17697
1079.80922,0.17037
1078.31943,0.17175
1076.82965,0.17315
1075.33986,0.17971
1073.85007,0.18348
1072.36028,0.20741
1070.87049,0.20478
1069.38070,0.23339
1067.89092,0.25014
1066.40113,0.26691
1064.91134,0.33467
1063.42155,0.41272
1061.93176,0.49381
1060.44197,0.55902
1058.95219,0.63614
1057.46240,0.70411
1055.97261,0.77211
1054.48282,0.87366
1052.99303,0.87736
1051.50324,0.87625
1050.01345,0.86992
1048.52367,0.88598
1047.03388,0.88393
1045.54409,0.88190
1044.05430,0.86862
1042.56451,0.78729
1041.07472,0.72069
1039.58494,0.67284
1038.09515,0.61233
1036.60536,0.56553
1035.11557,0.51876
1033.62578,0.44019
1032.13599,0.39367
1030.64620,0.35784
1029.15642,0.30714
1027.66663,0.27821
1026.17684,0.24931
1024.68705,0.21197
1023.19726,0.18371
1021.70747,0.16556
1020.21769,0.13735
1018.72790,0.13132
1017.23811,0.12462
1015.74832,0.11793
1014.25853,0.08982
1012.76874,0.08591
1011.27896,0.08947
1009.78917,0.07875
1008.29938,0.05617
1006.80959,0.05809
1005.31980,0.06003
1003.83001,0.01578
1002.34022,0.00981
1000.85044,0.00125
999.36065,0.03051
997.87086,0.03492
996.38107,0.03935
994.89128,0.04633
993.40149,0.03440
991.91171,0.06519
990.42192,0.07244
988.93213,0.07487
987.44234,0.08670
985.95255,0.09855
984.46276,0.09260
982.97297,0.08064
981.48319,0.06346
979.99340,0.04147
978.50361,0.03793
977.01382,0.03442
975.52403,0.02398
974.03424,0.02142
972.54446,0.00216
971.05467,0.00549
969.56488,0.00341
968.07509,0.00245
966.58530,0.00152
965.09551,0.01587
963.60573,0.01413
962.11594,0.00999
960.62615,0.00125
959.13636,0.00684
957.64657,0.01245
956.15678,0.03248
954.66699,0.03905
953.17721,0.03496
951.68742,0.05366
950.19763,0.05738
948.70784,0.06112
947.21805,0.07102
945.72826,0.07129
944.23848,0.08165
942.74869,0.10673
941.25890,0.12177
939.76911,0.13763
938.27932,0.15352
936.78953,0.17749
935.29974,0.17672
933.80996,0.20214
932.32017,0.20141
930.83038,0.21511
929.34059,0.22882
927.85080,0.22917
926.36101,0.26519
924.87123,0.29056
923.38144,0.34516
921.89165,0.38437
920.40186,0.42361
918.91207,0.48130
917.42228,0.61877
915.93250,0.75748
914.44271,0.95199
912.95292,1.06335
911.46313,1.17474
909.97334,1.40719
908.48355,1.64289
906.99376,1.80046
905.50398,1.87790
904.01419,1.89857
902.52440,1.91926
901.03461,2.00000
899.54482,1.99979
898.05503,1.90978
896.56525,1.69271
895.07546,1.56005
893.58567,1.42742
892.09588,1.16590
890.60609,0.91328
889.11630,0.70337
887.62651,0.53539
886.13673,0.45534
884.64694,0.37531
883.15715,0.24103
881.66736,0.17726
880.17757,0.12641
878.68778,0.11616
877.19800,0.10594
875.70821,0.06402
874.21842,0.02233
872.72863,0.01329
871.23884,0.00125
869.74905,0.00625
868.25927,0.01126
866.76948,0.01540
865.27969,0.01473
863.78990,0.02777
862.30011,0.02715
860.81032,0.03218
859.32053,0.03724
857.83075,0.03729
856.34096,0.05892
854.85117,0.08197
853.36138,0.08653
851.87159,0.09040
850.38180,0.09429
848.89202,0.13013
847.40223,0.15089
845.91244,0.16241
844.42265,0.16580
842.93286,0.16921
841.44307,0.17596
839.95329,0.20530
838.46350,0.21392
836.97371,0.22236
835.48392,0.22186
833.99413,0.22139
832.50434,0.22808
831.01455,0.21607
829.52477,0.20610
828.03498,0.16595
826.54519,0.14666
825.05540,0.12739
823.56561,0.12558
822.07582,0.10787
820.58604,0.09421
819.09625,0.09428
817.60646,0.09437
816.11667,0.09730
814.62688,0.10570
813.13709,0.09397
811.64730,0.10161
810.15752,0.10917
808.66773,0.11675
807.17794,0.11600
805.68815,0.10057
804.19836,0.10913
802.70857,0.11097
801.21879,0.11283
799.72900,0.11401
798.23921,0.11804
796.74942,0.13518
795.25963,0.12364
793.76984,0.11213
792.28006,0.10799
790.79027,0.12200
789.30048,0.12436
787.81069,0.16178
786.32090,0.16720
784.83111,0.17265
783.34132,0.21719
781.85154,0.26055
780.36175,0.32307
778.87196,0.33284
777.38217,0.34264
775.89238,0.36313
774.40259,0.37781
772.91281,0.35444
771.42302,0.33151
769.93323,0.30859
768.44344,0.26717
766.95365,0.22779
765.46386,0.20293
763.97407,0.15534
762.48429,0.14816
760.99450,0.14099
759.50471,0.10798
758.01492,0.10378
756.52513,0.08048
755.03534,0.07442
753.54556,0.06838
752.05577,0.06287
750.56598,0.04531
749.07619,0.02152
747.58640,0.02061
746.09661,0.01973
744.60683,0.02199
743.11704,0.01441
741.62725,0.00645
740.13746,0.00798
738.64767,0.00954
737.15788,0.01534
735.66809,0.01030
734.17831,0.00125
732.68852,0.00334
731.19873,0.00545
729.70894,0.02168
728.21915,0.00793
726.72936,0.00951
725.23958,0.00185
723.74979,0.00164
722.26000,0.00125
720.77021,0.00604
719.28042,0.01185
717.79063,0.01810
716.30084,0.01550
714.81106,0.01293
713.32127,0.01038
711.83148,0.01552
710.34169,0.02792
708.85190,0.02625
707.36211,0.02460
705.87233,0.02560
704.38254,0.02823
702.89275,0.04398
701.40296,0.05240
699.91317,0.06084
698.42338,0.06880
696.93360,0.07740
695.44381,0.09729
693.95402,0.10271
692.46423,0.10815
690.97444,0.13335
689.48465,0.15716
687.99486,0.17073
686.50508,0.17576
685.01529,0.18082
683.52550,0.22346
682.03571,0.25606
680.54592,0.28767
679.05613,0.26765
677.56635,0.24765
676.07656,0.23985
674.58677,0.24759
673.09698,0.23622
671.60719,0.22589
670.11740,0.21557
668.62761,0.18373
667.13783,0.16400
665.64804,0.14550
664.15825,0.12702
662.66846,0.11924
661.17867,0.07846
659.68888,0.07355
658.19910,0.06886
656.70931,0.06420
655.21952,0.05029
653.72973,0.04125
652.23994,0.03404
650.75015,0.04146
649.26037,0.04890
647.77058,0.02706
646.28079,0.02720
644.79100,0.03884
643.30121,0.04224
641.81142,0.04568
640.32163,0.04671
638.83185,0.01716
637.34206,0.00939
635.85227,0.01080
634.36248,0.01223
632.87269,0.00372
631.38290,0.01329
629.89312,0.02953
628.40333,0.01991
626.91354,0.01032
625.42375,0.00125
623.93396,0.01608
622.44417,0.02116
620.95438,0.02626
619.46460,0.02364
617.97481,0.06877
616.48502,0.06740
614.99523,0.08962
613.50544,0.11187
612.01565,0.13293
610.52587,0.16287
609.03608,0.18418
607.54629,0.20098
606.05650,0.21780
604.56671,0.25872
603.07692,0.32947
601.58714,0.35291
600.09735,0.37637
598.60756,0.40631
597.11777,0.43747
595.62798,0.43664
594.13819,0.42475
592.64840,0.41289
591.15862,0.36943
589.66883,0.31190
588.17904,0.25700
586.68925,0.23184
585.19946,0.20670
583.70967,0.15752
582.21989,0.14281
580.73010,0.12106
579.24031,0.09934
577.75052,0.07946
576.26073,0.05618
574.77094,0.05991
573.28115,0.05259
571.79137,0.04529
570.30158,0.04284
568.81179,0.06520
567.32200,0.06935
565.83221,0.07353
564.34242,0.09857
562.85264,0.08416
561.36285,0.10382
559.87306,0.11363
558.38327,0.12346
556.89348,0.15527
555.40369,0.15206
553.91391,0.15562
552.42412,0.15920
550.93433,0.15203
549.44454,0.15637
547.95475,0.16657
546.46496,0.17579
544.97517,0.18503
543.48539,0.20981
541.99560,0.22071
540.50581,0.25056
539.01602,0.28044
537.52623,0.31659
536.03644,0.36364
534.54666,0.39923
533.05687,0.41501
531.56708,0.43081
530.07729,0.46607
528.58750,0.53962
527.09771,0.57714
525.60792,0.61469
524.11814,0.70523
522.62835,0.71483
521.13856,0.77924
519.64877,0.79160
518.15898,0.80399
516.66919,0.85256
515.17941,0.88322
513.68962,0.88330
512.19983,0.88340
510.71004,0.81685
509.22025,0.75315
507.73046,0.69874
506.24068,0.63167
504.75089,0.56462
503.26110,0.47483
501.77131,0.38587
500.28152,0.33944
498.79173,0.29302
497.30194,0.24240
495.81216,0.19926
494.32237,0.17870
492.83258,0.15816
491.34279,0.10986
489.85300,0.08534
488.36321,0.08924
486.87343,0.09055
485.38364,0.09188
483.89385,0.06807
482.40406,0.09160
480.91427,0.09220
479.42448,0.09282
477.93469,0.10858
476.44491,0.16806
474.95512,0.17560
473.46533,0.18317
471.97554,0.17384
470.48575,0.19374
468.99596,0.17761
467.50618,0.15959
466.01639,0.14160
464.52660,0.11507
463.03681,0.07447
461.54702,0.07074
460.05723,0.06704
458.56745,0.05854
457.07766,0.04804
455.58787,0.03645
454.09808,0.02489
452.60829,0.02393
451.11850,0.01433
449.62871,0.00778
448.13893,0.00125
446.64914,0.01155
445.15935,0.01886
443.66956,0.00000
442.17977,0.00191
440.68998,0.00385
439.20020,0.02354
437.71041,0.03841
436.22062,0.03881
434.73083,0.03923
433.24104,0.03665
431.75125,0.02101
430.26146,0.02613
428.77168,0.03128
427.28189,0.04028
425.79210,0.03521
424.30231,0.03439
422.81252,0.03359
421.32273,0.03342
419.83295,0.01837
418.34316,0.01432
416.85337,0.01029
415.36358,0.01666
413.87379,0.03373
412.38400,0.03058
410.89422,0.02746
409.40443,0.02909
407.91464,0.03498
406.42485,0.02397
404.93506,0.02225
403.44527,0.02055
401.95548,0.01465
400.46570,0.00454
398.97591,0.01873
397.48612,0.03294
395.99633,0.02189
394.50654,0.03464
393.01675,0.03895
391.52697,0.04329
390.03718,0.05127
388.54739,0.01759
387.05760,0.00941
385.56781,0.00125
384.07802,0.03234
382.58824,0.01955
381.09845,0.01676
379.60866,0.01399
378.11887,0.01899
376.62908,0.01335
375.13929,0.00803
373.64950,0.00274
372.15972,0.01690
370.66993,0.02182
369.18014,0.01932
367.69035,0.01684
366.20056,0.02244
364.71077,0.01215
363.22099,0.02586
361.73120,0.03958
360.24141,0.01164
358.75162,0.00125
357.26183,0.01080
355.77204,0.02038
354.28225,0.01528
352.79247,0.02954
351.30268,0.04181
349.81289,0.05410
348.32310,0.05917
346.83331,0.03223
345.34352,0.03231
343.85374,0.03241
342.36395,0.04583
340.87416,0.04416
339.38437,0.05340
337.89458,0.06266
336.40479,0.02643
334.91501,0.02425
333.42522,0.01274
331.93543,0.00125
330.44564,0.03177
328.95585,0.02605
327.46606,0.01462
325.97627,0.00321
324.48649,0.01532
322.99670,0.05384
321.50691,0.07687
320.01712,0.09992
318.52733,0.06520
317.03754,0.05064
315.54776,0.04074
314.05797,0.03086
312.56818,0.01456
311.07839,0.04481
309.58860,0.05222
308.09881,0.05965
306.60902,0.04023
305.11924,0.03653
303.62945,0.02511
302.13966,0.01371
300.64987,0.03224
299.16008,0.00125
