1778.52000,0.00422
1777.03021,0.00739
1775.54042,0.00925
1774.05063,0.00890
1772.56085,0.01327
1771.07106,0.01408
1769.58127,0.00555
1768.09148,0.00909
1766.60169,0.01891
1765.11190,0.00420
1763.62212,0.01407
1762.13233,0.01615
1760.64254,0.00709
1759.15275,0.01547
1757.66296,0.00869
1756.17317,0.01444
1754.68339,0.01307
1753.19360,0.01284
1751.70381,0.00996
1750.21402,0.00911
1748.72423,0.01074
1747.23444,0.01641
1745.74465,0.00581
1744.25487,0.01667
1742.76508,0.01349
1741.27529,0.01167
1739.78550,0.00876
1738.29571,0.01949
1736.80592,0.02577
1735.31614,0.01400
1733.82635,0.01430
1732.33656,0.01486
1730.84677,0.00293
1729.35698,0.01023
1727.86719,0.00506
1726.37740,0.01665
1724.88762,0.01219
1723.39783,0.01133
1721.90804,0.01853
1720.41825,0.01526
1718.92846,0.00733
1717.43867,0.00187
1715.94889,0.01021
1714.45910,0.01590
1712.96931,0.00420
1711.47952,0.00711
1709.98973,0.00624
1708.49994,0.02438
1707.01016,0.01877
1705.52037,0.01318
1704.03058,0.01599
1702.54079,0.00990
1701.05100,0.00181
1699.56121,0.00537
1698.07142,0.01631
1696.58164,0.00384
1695.09185,0.01751
1693.60206,0.00620
1692.11227,0.01903
1690.62248,0.00420
1689.13269,0.02056
1687.64291,0.01395
1686.15312,0.02634
1684.66333,0.01487
1683.17354,0.02351
1681.68375,0.01410
1680.19396,0.01766
1678.70417,0.03375
1677.21439,0.03334
1675.72460,0.03139
1674.23481,0.03259
1672.74502,0.03873
1671.25523,0.03328
1669.76544,0.04438
1668.27566,0.05327
1666.78587,0.04678
1665.29608,0.05930
1663.80629,0.05933
1662.31650,0.05760
1660.82671,0.06438
1659.33693,0.07632
1657.84714,0.08137
1656.35735,0.06790
1654.86756,0.06518
1653.37777,0.07186
1651.88798,0.06562
1650.39819,0.08686
1648.90841,0.07977
1647.41862,0.07137
1645.92883,0.06913
1644.43904,0.06691
1642.94925,0.09140
1641.45946,0.07662
1639.96968,0.06834
1638.47989,0.06969
1636.99010,0.08311
1635.50031,0.08205
1634.01052,0.08726
1632.52073,0.08602
1631.03094,0.08101
1629.54116,0.08764
1628.05137,0.09340
1626.56158,0.09248
1625.07179,0.08891
1623.58200,0.10188
1622.09221,0.10260
1620.60243,0.10089
1619.11264,0.09787
1617.62285,0.09509
1616.13306,0.08519
1614.64327,0.08536
1613.15348,0.09025
1611.66370,0.09828
1610.17391,0.10367
1608.68412,0.07960
1607.19433,0.08660
1605.70454,0.09562
1604.21475,0.08916
1602.72496,0.08272
1601.23518,0.10119
1599.74539,0.09335
1598.25560,0.09290
1596.76581,0.09270
1595.27602,0.11105
1593.78623,0.09929
1592.29645,0.09179
1590.80666,0.09771
1589.31687,0.07419
1587.82708,0.08374
1586.33729,0.08438
1584.84750,0.08392
1583.35771,0.08126
1581.86793,0.08711
1580.37814,0.09588
1578.88835,0.08995
1577.39856,0.07042
1575.90877,0.07100
1574.41898,0.06469
1572.92920,0.06109
1571.43941,0.06376
1569.94962,0.05674
1568.45983,0.04975
1566.97004,0.04334
1565.48025,0.03070
1563.99047,0.02970
1562.50068,0.02894
1561.01089,0.02799
1559.52110,0.02192
1558.03131,0.01678
1556.54152,0.01679
1555.05173,0.03156
1553.56195,0.01332
1552.07216,0.01184
1550.58237,0.01396
1549.09258,0.02302
1547.60279,0.02006
1546.11300,0.02091
1544.62322,0.00505
1543.13343,0.00729
1541.64364,0.00420
1540.15385,0.00507
1538.66406,0.00596
1537.17427,0.00755
1535.68448,0.01452
1534.19470,0.01996
1532.70491,0.02452
1531.21512,0.02375
1529.72533,0.01363
1528.23554,0.02363
1526.74575,0.03119
1525.25597,0.02405
1523.76618,0.01961
1522.27639,0.03550
1520.78660,0.04116
1519.29681,0.02942
1517.80702,0.03401
1516.31724,0.03840
1514.82745,0.03723
1513.33766,0.03854
1511.84787,0.03988
1510.35808,0.04860
1508.86829,0.04642
1507.37850,0.03979
1505.88872,0.04814
1504.39893,0.05384
1502.90914,0.06359
1501.41935,0.05572
1499.92956,0.07712
1498.43977,0.06506
1496.94999,0.08494
1495.46020,0.08275
1493.97041,0.09063
1492.48062,0.10859
1490.99083,0.12165
1489.50104,0.14814
1488.01125,0.14685
1486.52147,0.14559
1485.03168,0.17572
1483.54189,0.19984
1482.05210,0.19966
1480.56231,0.21870
1479.07252,0.23598
1477.58274,0.27047
1476.09295,0.26749
1474.60316,0.28216
1473.11337,0.27587
1471.62358,0.29863
1470.13379,0.28279
1468.64401,0.28417
1467.15422,0.29540
1465.66443,0.31903
1464.17464,0.34270
1462.68485,0.37788
1461.19506,0.39702
1459.70527,0.45525
1458.21549,0.51529
1456.72570,0.58339
1455.23591,0.61111
1453.74612,0.66876
1452.25633,0.75257
1450.76654,0.77254
1449.27676,0.75370
1447.78697,0.74158
1446.29718,0.70917
1444.80739,0.69575
1443.31760,0.68237
1441.82781,0.66275
1440.33802,0.61972
1438.84824,0.56064
1437.35845,0.50761
1435.86866,0.52270
1434.37887,0.53536
1432.88908,0.54781
1431.39929,0.61923
1429.90951,0.70765
1428.41972,0.77733
1426.92993,0.83945
1425.44014,0.88663
1423.95035,0.91296
1422.46056,0.93932
1420.97078,0.97252
1419.48099,0.97738
1417.99120,0.97423
1416.50141,0.98629
1415.01162,0.94702
1413.52183,0.88948
1412.03204,0.87214
1410.54226,0.77044
1409.05247,0.70693
1407.56268,0.60640
1406.07289,0.57375
1404.58310,0.53957
1403.09331,0.50541
1401.60353,0.43735
1400.11374,0.38560
1398.62395,0.36111
1397.13416,0.29513
1395.64437,0.25239
1394.15458,0.22619
1392.66479,0.19042
1391.17501,0.16807
1389.68522,0.12430
1388.19543,0.09977
1386.70564,0.08240
1385.21585,0.06506
1383.72606,0.06537
1382.23628,0.04295
1380.74649,0.03349
1379.25670,0.02852
1377.76691,0.02648
1376.27712,0.00973
1374.78733,0.00194
1373.29755,0.00555
1371.80776,0.01277
1370.31797,0.01822
1368.82818,0.01120
1367.33839,0.00420
1365.84860,0.02872
1364.35881,0.03250
1362.86903,0.02917
1361.37924,0.04282
1359.88945,0.06611
1358.39966,0.08963
1356.90987,0.13127
1355.42008,0.17918
1353.93030,0.23225
1352.44051,0.25834
1350.95072,0.28444
1349.46093,0.36706
1347.97114,0.47246
1346.48135,0.59174
1344.99156,0.65478
1343.50178,0.70713
1342.01199,0.77178
1340.52220,0.78087
1339.03241,0.84088
1337.54262,0.88061
1336.05283,0.90528
1334.56305,0.92999
1333.07326,0.99769
1331.58347,0.99085
1330.09368,0.95658
1328.60389,0.97032
1327.11410,0.93409
1325.62432,0.90681
1324.13453,0.85857
1322.64474,0.85523
1321.15495,0.77980
1319.66516,0.75998
1318.17537,0.74019
1316.68558,0.67109
1315.19580,0.65246
1313.70601,0.59926
1312.21622,0.53559
1310.72643,0.51034
1309.23664,0.47485
1307.74685,0.45366
1306.25707,0.41509
1304.76728,0.39497
1303.27749,0.37486
1301.78770,0.33726
1300.29791,0.30414
1298.80812,0.24605
1297.31834,0.22571
1295.82855,0.18218
1294.33876,0.16791
1292.84897,0.12599
1291.35918,0.10352
1289.86939,0.10987
1288.37960,0.11624
1286.88982,0.11639
1285.40003,0.09691
1283.91024,0.10068
1282.42045,0.08505
1280.93066,0.09624
1279.44087,0.08289
1277.95109,0.07090
1276.46130,0.07189
1274.97151,0.06331
1273.48172,0.05474
1271.99193,0.04576
1270.50214,0.04551
1269.01235,0.04416
1267.52257,0.04418
1266.03278,0.03529
1264.54299,0.01951
1263.05320,0.02072
1261.56341,0.02195
1260.07362,0.02321
1258.58384,0.03209
1257.09405,0.02937
1255.60426,0.01753
1254.11447,0.00884
1252.62468,0.00420
1251.13489,0.01370
1249.64511,0.02345
1248.15532,0.01448
1246.66553,0.01490
1245.17574,0.01535
1243.68595,0.02051
1242.19616,0.04289
1240.70637,0.03247
1239.21659,0.04463
1237.72680,0.02421
1236.23701,0.02124
1234.74722,0.01271
1233.25743,0.00844
1231.76764,0.00420
1230.27786,0.00695
1228.78807,0.02200
1227.29828,0.03418
1225.80849,0.03142
1224.31870,0.02601
1222.82891,0.02777
1221.33912,0.04852
1219.84934,0.04933
1218.35955,0.05015
1216.86976,0.04442
1215.37997,0.04540
1213.89018,0.07499
1212.40039,0.06977
1210.91061,0.07976
1209.42082,0.08330
1207.93103,0.07314
1206.44124,0.06300
1204.95145,0.06594
1203.46166,0.06824
1201.97188,0.07793
1200.48209,0.07090
1198.99230,0.06234
1197.50251,0.05134
1196.01272,0.04550
1194.52293,0.03701
1193.03314,0.02854
1191.54336,0.03438
1190.05357,0.03154
1188.56378,0.02605
1187.07399,0.02616
1185.58420,0.01581
1184.09441,0.00503
1182.60463,0.00756
1181.11484,0.01011
1179.62505,0.01057
1178.13526,0.01239
1176.64547,0.01692
1175.15568,0.00696
1173.66589,0.02113
1172.17611,0.01725
1170.68632,0.01071
1169.19653,0.00420
1167.70674,0.01836
1166.21695,0.02294
1164.72716,0.01549
1163.23738,0.02258
1161.74759,0.04912
1160.25780,0.05223
1158.76801,0.06107
1157.27822,0.06993
1155.78843,0.08384
1154.29865,0.08281
1152.80886,0.09476
1151.31907,0.08999
1149.82928,0.11270
1148.33949,0.12941
1146.84970,0.14291
1145.35991,0.15643
1143.87013,0.14598
1142.38034,0.14783
1140.89055,0.13475
1139.40076,0.16835
1137.91097,0.19371
1136.42118,0.18673
1134.93140,0.19730
1133.44161,0.20789
1131.95182,0.21527
1130.46203,0.21151
1128.97224,0.21358
1127.48245,0.23867
1125.99266,0.25173
1124.50288,0.25365
1123.01309,0.25169
1121.52330,0.24976
1120.03351,0.23813
1118.54372,0.23814
1117.05393,0.24242
1115.56415,0.24761
1114.07436,0.24435
1112.58457,0.24635
1111.09478,0.24838
1109.60499,0.25345
1108.11520,0.27127
1106.62542,0.22638
1105.13563,0.23375
1103.64584,0.21101
1102.15605,0.22446
1100.66626,0.21427
1099.17647,0.20411
1097.68668,0.20022
1096.19690,0.18988
1094.70711,0.22355
1093.21732,0.23313
1091.72753,0.20545
1090.23774,0.19956
1088.74795,0.19370
1087.25817,0.18284
1085.76838,0.17669
1084.27859,0.18619
1082.78880,0.18969
1081.29901,0.17402
1079.80922,0.19141
1078.31943,0.20681
1076.82965,0.22224
1075.33986,0.22296
1073.85007,0.23554
1072.36028,0.26042
1070.87049,0.26836
1069.38070,0.29530
1067.89092,0.31199
1066.40113,0.32871
1064.91134,0.38050
1063.42155,0.49148
1061.93176,0.58328
1060.44197,0.66596
1058.95219,0.79152
1057.46240,0.84667
1055.97261,0.90185
1054.48282,0.98954
1052.99303,1.02992
1051.50324,1.03460
1050.01345,1.02524
1048.52367,1.01524
1047.03388,1.02514
1045.54409,1.03505
1044.05430,0.98115
1042.56451,0.83573
1041.07472,0.78589
1039.58494,0.73183
1038.09515,0.65704
1036.60536,0.61207
1035.11557,0.56713
1033.62578,0.50379
1032.13599,0.43490
1030.64620,0.39416
1029.15642,0.33849
1027.66663,0.30997
1026.17684,0.28147
1024.68705,0.23257
1023.19726,0.18749
1021.70747,0.16297
1020.21769,0.12932
1018.72790,0.10843
1017.23811,0.10921
1015.74832,0.11002
1014.25853,0.10460
1012.76874,0.09295
1011.27896,0.09607
1009.78917,0.10255
1008.29938,0.09768
1006.80959,0.07876
1005.31980,0.05987
1003.83001,0.02225
1002.34022,0.02708
1000.85044,0.03572
999.36065,0.06024
997.87086,0.05922
996.38107,0.05822
994.89128,0.09487
993.40149,0.11681
991.91171,0.14167
990.42192,0.16388
988.93213,0.16379
987.44234,0.16931
985.95255,0.17485
984.46276,0.16590
982.97297,0.16948
981.48319,0.13558
979.99340,0.10840
978.50361,0.09720
977.01382,0.08603
975.52403,0.07366
974.03424,0.06109
972.54446,0.04073
971.05467,0.03647
969.56488,0.00879
968.07509,0.01261
966.58530,0.01646
965.09551,0.01743
963.60573,0.01642
962.11594,0.01052
960.62615,0.00420
959.13636,0.00918
957.64657,0.01418
956.15678,0.02780
954.66699,0.00998
953.17721,0.00423
951.68742,0.02886
950.19763,0.04415
948.70784,0.05946
947.21805,0.07055
945.72826,0.07765
944.23848,0.09013
942.74869,0.10531
941.25890,0.11650
939.76911,0.12057
938.27932,0.12467
936.78953,0.16451
935.29974,0.17758
933.80996,0.20363
932.32017,0.23037
930.83038,0.23447
929.34059,0.23860
927.85080,0.26028
926.36101,0.26123
924.87123,0.31287
923.38144,0.36231
921.89165,0.40172
920.40186,0.44116
918.91207,0.51791
917.42228,0.62504
915.93250,0.77752
914.44271,1.01977
912.95292,1.14517
911.46313,1.27059
909.97334,1.52363
908.48355,1.72646
906.99376,1.93624
905.50398,1.95806
904.01419,1.97902
902.52440,2.00000
901.03461,1.96854
899.54482,1.92081
898.05503,1.74295
896.56525,1.59101
895.07546,1.47972
893.58567,1.36846
892.09588,1.07394
890.60609,0.85222
889.11630,0.63611
887.62651,0.46690
886.13673,0.40845
884.64694,0.35003
883.15715,0.24898
881.66736,0.19529
880.17757,0.14230
878.68778,0.12360
877.19800,0.10492
875.70821,0.07544
874.21842,0.03818
872.72863,0.02951
871.23884,0.01841
869.74905,0.01325
868.25927,0.00811
866.76948,0.01606
865.27969,0.01667
863.78990,0.03092
862.30011,0.03158
860.81032,0.04275
859.32053,0.05395
857.83075,0.05245
856.34096,0.07687
854.85117,0.11225
853.36138,0.13694
851.87159,0.14023
850.38180,0.14353
848.89202,0.15535
847.40223,0.16920
845.91244,0.20763
844.42265,0.22198
842.93286,0.23635
841.44307,0.23623
839.95329,0.25556
838.46350,0.24255
836.97371,0.26081
835.48392,0.25487
833.99413,0.24896
832.50434,0.26016
831.01455,0.24682
829.52477,0.25493
828.03498,0.22535
826.54519,0.19645
825.05540,0.16758
823.56561,0.13137
822.07582,0.13313
820.58604,0.12198
819.09625,0.12613
817.60646,0.13032
816.11667,0.13195
814.62688,0.14456
813.13709,0.13285
811.64730,0.13590
810.15752,0.14043
808.66773,0.14498
807.17794,0.15325
805.68815,0.12402
804.19836,0.16850
802.70857,0.17003
801.21879,0.17158
799.72900,0.16165
798.23921,0.13032
796.74942,0.13585
795.25963,0.12645
793.76984,0.11707
792.28006,0.12937
790.79027,0.19014
789.30048,0.19445
787.81069,0.22648
786.32090,0.23642
784.83111,0.24639
783.34132,0.27692
781.85154,0.31841
780.36175,0.38695
778.87196,0.41643
777.38217,0.44595
775.89238,0.45896
774.40259,0.45348
772.91281,0.42926
771.42302,0.41020
769.93323,0.39117
768.44344,0.32974
766.95365,0.28888
765.46386,0.24224
763.97407,0.20589
762.48429,0.18519
760.99450,0.16452
759.50471,0.12423
758.01492,0.11499
756.52513,0.11404
755.03534,0.10731
753.54556,0.10060
752.05577,0.08633
750.56598,0.07855
749.07619,0.06276
747.58640,0.05359
746.09661,0.04443
744.60683,0.04814
743.11704,0.04428
741.62725,0.01991
740.13746,0.01979
738.64767,0.01969
737.15788,0.02620
735.66809,0.01108
734.17831,0.00737
732.68852,0.00625
731.19873,0.00515
729.70894,0.00420
728.21915,0.02485
726.72936,0.02365
725.23958,0.02336
723.74979,0.02288
722.26000,0.02242
720.77021,0.02154
719.28042,0.01354
717.79063,0.00802
716.30084,0.00610
714.81106,0.00420
713.32127,0.03177
711.83148,0.02252
710.34169,0.04121
708.85190,0.03782
707.36211,0.03446
705.87233,0.04161
704.38254,0.06241
702.89275,0.06782
701.40296,0.06523
699.91317,0.06265
698.42338,0.06881
696.93360,0.07343
695.44381,0.09259
693.95402,0.10641
692.46423,0.12026
690.97444,0.13056
689.48465,0.15785
687.99486,0.16396
686.50508,0.18606
685.01529,0.20817
683.52550,0.22552
682.03571,0.27816
680.54592,0.28238
679.05613,0.28261
677.56635,0.28286
676.07656,0.22732
674.58677,0.23231
673.09698,0.23196
671.60719,0.21936
670.11740,0.20679
668.62761,0.18732
667.13783,0.16452
665.64804,0.14823
664.15825,0.13196
662.66846,0.11526
661.17867,0.09591
659.68888,0.07547
658.19910,0.06254
656.70931,0.04962
655.21952,0.03484
653.72973,0.05803
652.23994,0.03347
650.75015,0.03282
649.26037,0.03220
647.77058,0.02535
646.28079,0.04755
644.79100,0.05169
643.30121,0.04536
641.81142,0.03905
640.32163,0.04371
638.83185,0.04170
637.34206,0.01939
635.85227,0.01676
634.36248,0.01415
632.87269,0.00420
631.38290,0.02086
629.89312,0.01478
628.40333,0.01318
626.91354,0.01161
625.42375,0.02391
623.93396,0.00833
622.44417,0.00415
620.95438,0.00000
619.46460,0.01959
617.97481,0.04635
616.48502,0.07090
614.99523,0.09034
613.50544,0.10981
612.01565,0.11457
610.52587,0.13855
609.03608,0.16679
607.54629,0.19171
606.05650,0.21666
604.56671,0.27356
603.07692,0.33025
601.58714,0.35338
600.09735,0.37652
598.60756,0.42347
597.11777,0.43338
595.62798,0.41474
594.13819,0.41879
592.64840,0.42286
591.15862,0.37237
589.66883,0.30494
588.17904,0.25003
586.68925,0.22495
585.19946,0.19990
583.70967,0.18012
582.21989,0.13156
580.73010,0.10881
579.24031,0.08609
577.75052,0.04921
576.26073,0.06215
574.77094,0.07823
573.28115,0.06934
571.79137,0.06047
570.30158,0.06569
568.81179,0.07495
567.32200,0.07575
565.83221,0.07658
564.34242,0.10132
562.85264,0.13390
561.36285,0.13502
559.87306,0.14711
558.38327,0.15922
556.89348,0.18297
555.40369,0.18263
553.91391,0.19448
552.42412,0.20635
550.93433,0.21546
549.44454,0.20182
547.95475,0.23130
546.46496,0.23535
544.97517,0.23942
543.48539,0.27589
541.99560,0.30166
540.50581,0.30492
539.01602,0.30820
537.52623,0.36686
536.03644,0.38604
534.54666,0.42601
533.05687,0.43641
531.56708,0.44685
530.07729,0.49671
528.58750,0.55463
527.09771,0.57864
525.60792,0.60268
524.11814,0.66804
522.62835,0.72182
521.13856,0.81849
519.64877,0.83124
518.15898,0.84401
516.66919,0.87779
515.17941,0.86986
513.68962,0.85625
512.19983,0.84266
510.71004,0.80689
509.22025,0.79436
507.73046,0.72627
506.24068,0.67628
504.75089,0.62632
503.26110,0.52303
501.77131,0.39900
500.28152,0.35670
498.79173,0.31442
497.30194,0.24405
495.81216,0.21209
494.32237,0.18797
492.83258,0.16388
491.34279,0.13289
489.85300,0.09188
488.36321,0.08014
486.87343,0.08540
485.38364,0.09067
483.89385,0.10468
482.40406,0.11067
480.91427,0.11580
479.42448,0.12095
477.93469,0.14577
476.44491,0.18692
474.95512,0.19984
473.46533,0.21279
471.97554,0.21338
470.48575,0.23140
468.99596,0.21708
467.50618,0.20858
466.01639,0.20011
464.52660,0.16890
463.03681,0.12409
461.54702,0.09962
460.05723,0.07517
458.56745,0.04651
457.07766,0.03818
455.58787,0.02118
454.09808,0.00420
452.60829,0.01850
451.11850,0.01943
449.62871,0.02853
448.13893,0.03766
446.64914,0.03576
445.15935,0.01938
443.66956,0.00636
442.17977,0.01302
440.68998,0.01971
439.20020,0.04584
437.71041,0.05837
436.22062,0.05832
434.73083,0.05829
433.24104,0.04835
431.75125,0.04447
430.26146,0.05568
428.77168,0.06691
427.28189,0.07225
425.79210,0.05819
424.30231,0.05811
422.81252,0.05806
421.32273,0.03715
419.83295,0.06003
418.34316,0.05648
416.85337,0.05295
415.36358,0.05737
413.87379,0.07119
412.38400,0.06327
410.89422,0.05537
409.40443,0.04493
407.91464,0.04680
406.42485,0.04534
404.93506,0.04770
403.44527,0.05008
401.95548,0.06075
400.46570,0.04331
398.97591,0.03573
397.48612,0.02816
395.99633,0.04875
394.50654,0.02695
393.01675,0.02950
391.52697,0.02783
390.03718,0.04717
388.54739,0.05358
387.05760,0.04127
385.56781,0.02898
384.07802,0.03502
382.58824,0.02836
381.09845,0.03400
379.60866,0.03967
378.11887,0.02214
376.62908,0.00420
375.13929,0.01349
373.64950,0.02280
372.15972,0.03191
370.66993,0.04418
369.18014,0.04720
367.69035,0.05024
366.20056,0.03656
364.71077,0.04233
363.22099,0.03406
361.73120,0.02582
360.24141,0.05086
358.75162,0.04825
357.26183,0.05559
355.77204,0.06296
354.28225,0.04747
352.79247,0.05880
351.30268,0.06836
349.81289,0.07795
348.32310,0.07573
346.83331,0.05366
345.34352,0.05317
343.85374,0.05270
342.36395,0.02557
340.87416,0.02855
339.38437,0.03971
337.89458,0.05089
336.40479,0.04457
334.91501,0.05033
333.42522,0.03603
331.93543,0.02175
330.44564,0.03964
328.95585,0.03322
327.46606,0.02570
325.97627,0.01822
324.48649,0.02141
322.99670,0.04294
321.50691,0.05511
320.01712,0.06731
318.52733,0.11816
317.03754,0.11701
315.54776,0.09769
314.05797,0.07840
312.56818,0.07085
311.07839,0.05886
309.58860,0.04589
308.09881,0.03295
306.60902,0.01099
305.11924,0.00580
303.62945,0.01224
302.13966,0.00887
300.64987,0.00420
299.16008,0.00420
