1778.52000,0.01201
1777.03021,0.01632
1775.54042,0.01724
1774.05063,0.01328
1772.56085,0.01375
1771.07106,0.01277
1769.58127,0.01868
1768.09148,0.01188
1766.60169,0.00437
1765.11190,0.01353
1763.62212,0.01488
1762.13233,0.02042
1760.64254,0.02402
1759.15275,0.01272
1757.66296,0.02322
1756.17317,0.00390
1754.68339,0.00858
1753.19360,0.00545
1751.70381,0.01409
1750.21402,0.01150
1748.72423,0.01310
1747.23444,0.00787
1745.74465,0.00437
1744.25487,0.01348
1742.76508,0.01724
1741.27529,0.00731
1739.78550,0.01845
1738.29571,0.00930
1736.80592,0.01784
1735.31614,0.01195
1733.82635,0.01655
1732.33656,0.00550
1730.84677,0.00794
1729.35698,0.00502
1727.86719,0.01142
1726.37740,0.01614
1724.88762,0.01011
1723.39783,0.01121
1721.90804,0.00033
1720.41825,0.00661
1718.92846,0.00607
1717.43867,0.01117
1715.94889,0.01019
1714.45910,0.01999
1712.96931,0.00437
1711.47952,0.01744
1709.98973,0.01830
1708.49994,0.01037
1707.01016,0.00858
1705.52037,0.00682
1704.03058,0.00777
1702.54079,0.00435
1701.05100,0.00437
1699.56121,0.01114
1698.07142,0.01695
1696.58164,0.01520
1695.09185,0.01984
1693.60206,0.01764
1692.11227,0.02013
1690.62248,0.01823
1689.13269,0.02957
1687.64291,0.02356
1686.15312,0.04132
1684.66333,0.03071
1683.17354,0.03725
1681.68375,0.01445
1680.19396,0.02888
1678.70417,0.02767
1677.21439,0.04239
1675.72460,0.03192
1674.23481,0.04375
1672.74502,0.04753
1671.25523,0.04375
1669.76544,0.06177
1668.27566,0.05829
1666.78587,0.05482
1665.29608,0.05774
1663.80629,0.06656
1662.31650,0.06880
1660.82671,0.08575
1659.33693,0.07629
1657.84714,0.07835
1656.35735,0.07188
1654.86756,0.07008
1653.37777,0.08470
1651.88798,0.07463
1650.39819,0.08783
1648.90841,0.08221
1647.41862,0.07417
1645.92883,0.07496
1644.43904,0.07578
1642.94925,0.08054
1641.45946,0.06770
1639.96968,0.05978
1638.47989,0.08174
1636.99010,0.08513
1635.50031,0.08707
1634.01052,0.07093
1632.52073,0.08002
1631.03094,0.08326
1629.54116,0.07747
1628.05137,0.08933
1626.56158,0.09631
1625.07179,0.08178
1623.58200,0.09787
1622.09221,0.08829
1620.60243,0.09170
1619.11264,0.09832
1617.62285,0.07730
1616.13306,0.07761
1614.64327,0.07573
1613.15348,0.07486
1611.66370,0.08870
1610.17391,0.09497
1608.68412,0.09564
1607.19433,0.09462
1605.70454,0.10073
1604.21475,0.09596
1602.72496,0.09123
1601.23518,0.09618
1599.74539,0.08133
1598.25560,0.07557
1596.76581,0.08720
1595.27602,0.10595
1593.78623,0.08974
1592.29645,0.09557
1590.80666,0.07696
1589.31687,0.07550
1587.82708,0.08165
1586.33729,0.07828
1584.84750,0.09158
1583.35771,0.08753
1581.86793,0.08521
1580.37814,0.09099
1578.88835,0.07600
1577.39856,0.06837
1575.90877,0.07790
1574.41898,0.06641
1572.92920,0.05665
1571.43941,0.05377
1569.94962,0.04945
1568.45983,0.04515
1566.97004,0.03819
1565.48025,0.03883
1563.99047,0.03852
1562.50068,0.03726
1561.01089,0.03455
1559.52110,0.03602
1558.03131,0.03410
1556.54152,0.02902
1555.05173,0.02959
1553.56195,0.00742
1552.07216,0.02860
1550.58237,0.02460
1549.09258,0.01499
1547.60279,0.02082
1546.11300,0.00000
1544.62322,0.01824
1543.13343,0.00494
1541.64364,0.01858
1540.15385,0.01658
1538.66406,0.01461
1537.17427,0.01584
1535.68448,0.00437
1534.19470,0.01280
1532.70491,0.02908
1531.21512,0.02018
1529.72533,0.00861
1528.23554,0.01885
1526.74575,0.02005
1525.25597,0.03205
1523.76618,0.03330
1522.27639,0.04266
1520.78660,0.04763
1519.29681,0.04505
1517.80702,0.04004
1516.31724,0.03554
1514.82745,0.05407
1513.33766,0.05342
1511.84787,0.05279
1510.35808,0.04521
1508.86829,0.03839
1507.37850,0.03869
1505.88872,0.04757
1504.39893,0.05331
1502.90914,0.07155
1501.41935,0.07023
1499.92956,0.08313
1498.43977,0.07722
1496.94999,0.07842
1495.46020,0.08112
1493.97041,0.08605
1492.48062,0.09907
1490.99083,0.12142
1489.50104,0.12838
1488.01125,0.12642
1486.52147,0.12450
1485.03168,0.13862
1483.54189,0.16599
1482.05210,0.18384
1480.56231,0.19950
1479.07252,0.23355
1477.58274,0.24437
1476.09295,0.25889
1474.60316,0.24945
1473.11337,0.28727
1471.62358,0.28106
1470.13379,0.26924
1468.64401,0.27629
1467.15422,0.29512
1465.66443,0.31556
1464.17464,0.33602
1462.68485,0.38331
1461.19506,0.39465
1459.70527,0.44614
1458.21549,0.50158
1456.72570,0.57368
1455.23591,0.60738
1453.74612,0.67317
1452.25633,0.72038
1450.76654,0.75343
1449.27676,0.76447
1447.78697,0.74323
1446.29718,0.68237
1444.80739,0.68884
1443.31760,0.69533
1441.82781,0.63185
1440.33802,0.59507
1438.84824,0.52895
1437.35845,0.50813
1435.86866,0.50202
1434.37887,0.50865
1432.88908,0.57062
1431.39929,0.61451
1429.90951,0.69561
1428.41972,0.75545
1426.92993,0.84689
1425.44014,0.87276
1423.95035,0.88948
1422.46056,0.90622
1420.97078,0.92997
1419.48099,0.98457
1417.99120,1.01644
1416.50141,0.99669
1415.01162,0.97648
1413.52183,0.93182
1412.03204,0.86247
1410.54226,0.78605
1409.05247,0.71258
1407.56268,0.63817
1406.07289,0.59608
1404.58310,0.57384
1403.09331,0.55162
1401.60353,0.49051
1400.11374,0.43824
1398.62395,0.38429
1397.13416,0.34577
1395.64437,0.28550
1394.15458,0.25780
1392.66479,0.21054
1391.17501,0.18656
1389.68522,0.14744
1388.19543,0.09732
1386.70564,0.08504
1385.21585,0.07278
1383.72606,0.05626
1382.23628,0.03708
1380.74649,0.03872
1379.25670,0.05214
1377.76691,0.03352
1376.27712,0.01737
1374.78733,0.01471
1373.29755,0.01378
1371.80776,0.02071
1370.31797,0.01322
1368.82818,0.01641
1367.33839,0.01962
1365.84860,0.00437
1364.35881,0.03043
1362.86903,0.04404
1361.37924,0.06085
1359.88945,0.09041
1358.39966,0.10359
1356.90987,0.14960
1355.42008,0.20395
1353.93030,0.26199
1352.44051,0.27822
1350.95072,0.29446
1349.46093,0.40226
1347.97114,0.47509
1346.48135,0.58685
1344.99156,0.63770
1343.50178,0.69959
1342.01199,0.74241
1340.52220,0.77180
1339.03241,0.83964
1337.54262,0.90236
1336.05283,0.92631
1334.56305,0.95029
1333.07326,0.98788
1331.58347,0.95549
1330.09368,0.91237
1328.60389,0.96178
1327.11410,0.95174
1325.62432,0.94417
1324.13453,0.91999
1322.64474,0.87576
1321.15495,0.77968
1319.66516,0.76438
1318.17537,0.74910
1316.68558,0.67683
1315.19580,0.61853
1313.70601,0.58963
1312.21622,0.55242
1310.72643,0.51574
1309.23664,0.46488
1307.74685,0.45124
1306.25707,0.42760
1304.76728,0.40165
1303.27749,0.37573
1301.78770,0.32793
1300.29791,0.30242
1298.80812,0.26202
1297.31834,0.21062
1295.82855,0.18886
1294.33876,0.14412
1292.84897,0.12510
1291.35918,0.10243
1289.86939,0.10940
1288.37960,0.11639
1286.88982,0.09918
1285.40003,0.10182
1283.91024,0.06508
1282.42045,0.08148
1280.93066,0.07929
1279.44087,0.08007
1277.95109,0.05787
1276.46130,0.05723
1274.97151,0.05000
1273.48172,0.04280
1271.99193,0.04223
1270.50214,0.04242
1269.01235,0.04802
1267.52257,0.04361
1266.03278,0.02699
1264.54299,0.02141
1263.05320,0.04056
1261.56341,0.03246
1260.07362,0.02437
1258.58384,0.01375
1257.09405,0.00755
1255.60426,0.02096
1254.11447,0.03194
1252.62468,0.03120
1251.13489,0.01825
1249.64511,0.01046
1248.15532,0.00588
1246.66553,0.00511
1245.17574,0.00437
1243.68595,0.02218
1242.19616,0.04418
1240.70637,0.04760
1239.21659,0.03367
1237.72680,0.03053
1236.23701,0.02399
1234.74722,0.01846
1233.25743,0.02555
1231.76764,0.03267
1230.27786,0.01717
1228.78807,0.02152
1227.29828,0.02859
1225.80849,0.04718
1224.31870,0.00437
1222.82891,0.03547
1221.33912,0.03845
1219.84934,0.04072
1218.35955,0.04301
1216.86976,0.03016
1215.37997,0.04498
1213.89018,0.07231
1212.40039,0.06809
1210.91061,0.07442
1209.42082,0.08053
1207.93103,0.07688
1206.44124,0.07325
1204.95145,0.07748
1203.46166,0.08932
1201.97188,0.08136
1200.48209,0.07122
1198.99230,0.06379
1197.50251,0.02923
1196.01272,0.04339
1194.52293,0.04143
1193.03314,0.03949
1191.54336,0.03537
1190.05357,0.03372
1188.56378,0.02476
1187.07399,0.03123
1185.58420,0.01033
1184.09441,0.00437
1182.60463,0.01140
1181.11484,0.01846
1179.62505,0.01869
1178.13526,0.03657
1176.64547,0.03097
1175.15568,0.01537
1173.66589,0.01202
1172.17611,0.00625
1170.68632,0.00651
1169.19653,0.00679
1167.70674,0.01333
1166.21695,0.01158
1164.72716,0.03163
1163.23738,0.03335
1161.74759,0.03191
1160.25780,0.03246
1158.76801,0.04135
1157.27822,0.05027
1155.78843,0.06998
1154.29865,0.05912
1152.80886,0.08157
1151.31907,0.07517
1149.82928,0.10427
1148.33949,0.11774
1146.84970,0.12610
1145.35991,0.13447
1143.87013,0.14386
1142.38034,0.15913
1140.89055,0.14703
1139.40076,0.15208
1137.91097,0.18725
1136.42118,0.20655
1134.93140,0.21412
1133.44161,0.22171
1131.95182,0.24034
1130.46203,0.23624
1128.97224,0.25688
1127.48245,0.25894
1125.99266,0.25222
1124.50288,0.24772
1123.01309,0.25047
1121.52330,0.25324
1120.03351,0.22802
1118.54372,0.23537
1117.05393,0.24739
1115.56415,0.23375
1114.07436,0.24068
1112.58457,0.24115
1111.09478,0.24165
1109.60499,0.22834
1108.11520,0.25593
1106.62542,0.24169
1105.13563,0.21696
1103.64584,0.22260
1102.15605,0.23535
1100.66626,0.23003
1099.17647,0.22472
1097.68668,0.21504
1096.19690,0.20489
1094.70711,0.20945
1093.21732,0.20914
1091.72753,0.20861
1090.23774,0.19794
1088.74795,0.18730
1087.25817,0.19003
1085.76838,0.18152
1084.27859,0.18184
1082.78880,0.18831
1081.29901,0.18281
1079.80922,0.17269
1078.31943,0.17470
1076.82965,0.17674
1075.33986,0.20242
1073.85007,0.19998
1072.36028,0.20735
1070.87049,0.20569
1069.38070,0.23122
1067.89092,0.24785
1066.40113,0.26449
1064.91134,0.34247
1063.42155,0.42732
1061.93176,0.50633
1060.44197,0.60151
1058.95219,0.70724
1057.46240,0.75340
1055.97261,0.79958
1054.48282,0.86574
1052.99303,0.93461
1051.50324,0.94795
1050.01345,0.93807
1048.52367,0.93923
1047.03388,0.94567
1045.54409,0.95214
1044.05430,0.87236
1042.56451,0.77622
1041.07472,0.71191
1039.58494,0.68629
1038.09515,0.58948
1036.60536,0.56734
1035.11557,0.54522
1033.62578,0.47737
1032.13599,0.41834
1030.64620,0.38553
1029.15642,0.32974
1027.66663,0.30481
1026.17684,0.27990
1024.68705,0.22149
1023.19726,0.19810
1021.70747,0.17106
1020.21769,0.15310
1018.72790,0.13688
1017.23811,0.12876
1015.74832,0.12067
1014.25853,0.10256
1012.76874,0.11312
1011.27896,0.10559
1009.78917,0.09049
1008.29938,0.06979
1006.80959,0.07016
1005.31980,0.07056
1003.83001,0.02326
1002.34022,0.00437
1000.85044,0.03448
999.36065,0.03207
997.87086,0.03519
996.38107,0.03833
994.89128,0.05435
993.40149,0.05595
991.91171,0.08572
990.42192,0.09667
988.93213,0.09663
987.44234,0.10640
985.95255,0.11620
984.46276,0.10914
982.97297,0.11654
981.48319,0.08848
979.99340,0.07929
978.50361,0.06364
977.01382,0.04801
975.52403,0.04378
974.03424,0.03518
972.54446,0.02170
971.05467,0.02465
969.56488,0.00437
968.07509,0.00660
966.58530,0.00886
965.09551,0.01016
963.60573,0.02372
962.11594,0.01014
960.62615,0.00760
959.13636,0.00973
957.64657,0.01188
956.15678,0.00599
954.66699,0.02141
953.17721,0.03832
951.68742,0.04596
950.19763,0.05852
948.70784,0.07110
947.21805,0.07318
945.72826,0.07039
944.23848,0.06543
942.74869,0.09842
941.25890,0.13046
939.76911,0.12826
938.27932,0.12608
936.78953,0.13396
935.29974,0.16536
933.80996,0.19777
932.32017,0.23093
930.83038,0.23732
929.34059,0.24374
927.85080,0.25005
926.36101,0.26129
924.87123,0.30191
923.38144,0.32666
921.89165,0.36244
920.40186,0.39824
918.91207,0.48498
917.42228,0.61897
915.93250,0.74906
914.44271,0.92446
912.95292,1.04201
911.46313,1.15957
909.97334,1.41066
908.48355,1.67377
906.99376,1.89457
905.50398,1.92719
904.01419,1.94662
902.52440,1.96608
901.03461,2.00000
899.54482,1.97472
898.05503,1.86577
896.56525,1.69419
895.07546,1.54919
893.58567,1.40422
892.09588,1.14339
890.60609,0.91465
889.11630,0.70404
887.62651,0.53187
886.13673,0.45089
884.64694,0.36994
883.15715,0.26711
881.66736,0.18975
880.17757,0.14815
878.68778,0.12394
877.19800,0.09977
875.70821,0.05359
874.21842,0.02652
872.72863,0.01906
871.23884,0.01309
869.74905,0.00971
868.25927,0.00636
866.76948,0.00952
865.27969,0.01563
863.78990,0.02643
862.30011,0.04875
860.81032,0.05029
859.32053,0.05186
857.83075,0.05761
856.34096,0.08321
854.85117,0.08950
853.36138,0.11123
851.87159,0.11622
850.38180,0.12124
848.89202,0.12396
847.40223,0.16145
845.91244,0.17645
844.42265,0.18585
842.93286,0.19527
841.44307,0.22307
839.95329,0.23768
838.46350,0.25843
836.97371,0.24935
835.48392,0.24054
833.99413,0.23176
832.50434,0.23572
831.01455,0.24240
829.52477,0.23638
828.03498,0.18805
826.54519,0.17180
825.05540,0.15557
823.56561,0.15895
822.07582,0.12980
820.58604,0.13298
819.09625,0.13252
817.60646,0.13208
816.11667,0.12481
814.62688,0.12882
813.13709,0.12797
811.64730,0.10413
810.15752,0.10968
808.66773,0.11526
807.17794,0.11450
805.68815,0.13163
804.19836,0.14316
802.70857,0.14957
801.21879,0.15600
799.72900,0.13359
798.23921,0.12123
796.74942,0.10473
795.25963,0.10833
793.76984,0.11195
792.28006,0.12538
790.79027,0.15769
789.30048,0.19638
787.81069,0.20450
786.32090,0.20506
784.83111,0.20565
783.34132,0.23514
781.85154,0.28643
780.36175,0.33359
778.87196,0.35691
777.38217,0.38025
775.89238,0.38123
774.40259,0.39129
772.91281,0.39745
771.42302,0.39275
769.93323,0.38808
768.44344,0.32800
766.95365,0.25448
765.46386,0.25098
763.97407,0.21030
762.48429,0.18678
760.99450,0.16329
759.50471,0.11755
758.01492,0.10609
756.52513,0.08438
755.03534,0.08827
753.54556,0.09218
752.05577,0.08034
750.56598,0.07512
749.07619,0.04546
747.58640,0.04800
746.09661,0.05057
744.60683,0.04888
743.11704,0.03596
741.62725,0.02453
740.13746,0.02499
738.64767,0.02547
737.15788,0.01191
735.66809,0.02383
734.17831,0.01570
732.68852,0.01311
731.19873,0.01053
729.70894,0.00664
728.21915,0.04046
726.72936,0.00627
725.23958,0.00539
723.74979,0.01513
722.26000,0.02490
720.77021,0.01193
719.28042,0.00437
717.79063,0.00864
716.30084,0.01366
714.81106,0.01871
713.32127,0.02770
711.83148,0.04063
710.34169,0.04257
708.85190,0.03732
707.36211,0.03209
705.87233,0.04756
704.38254,0.06526
702.89275,0.06341
701.40296,0.05583
699.91317,0.04828
698.42338,0.05286
696.93360,0.09247
695.44381,0.10126
693.95402,0.11093
692.46423,0.12063
690.97444,0.15373
689.48465,0.17510
687.99486,0.19429
686.50508,0.20238
685.01529,0.21048
683.52550,0.23587
682.03571,0.29016
680.54592,0.30776
679.05613,0.30055
677.56635,0.29336
676.07656,0.27433
674.58677,0.23623
673.09698,0.23413
671.60719,0.21640
670.11740,0.19868
668.62761,0.18932
667.13783,0.17508
665.64804,0.15781
664.15825,0.14056
662.66846,0.13448
661.17867,0.11471
659.68888,0.09081
658.19910,0.08602
656.70931,0.08125
655.21952,0.07162
653.72973,0.07130
652.23994,0.04752
650.75015,0.03392
649.26037,0.02035
647.77058,0.03555
646.28079,0.02582
644.79100,0.04499
643.30121,0.04472
641.81142,0.04448
640.32163,0.06911
638.83185,0.06757
637.34206,0.04257
635.85227,0.03472
634.36248,0.02689
632.87269,0.02203
631.38290,0.01646
629.89312,0.03024
628.40333,0.02888
626.91354,0.02754
625.42375,0.00664
623.93396,0.00437
622.44417,0.02233
620.95438,0.04032
619.46460,0.02603
617.97481,0.05262
616.48502,0.08390
614.99523,0.09819
613.50544,0.11250
612.01565,0.13504
610.52587,0.15736
609.03608,0.20858
607.54629,0.23266
606.05650,0.25676
604.56671,0.29973
603.07692,0.36182
601.58714,0.38208
600.09735,0.40236
598.60756,0.46575
597.11777,0.45916
595.62798,0.47291
594.13819,0.46197
592.64840,0.45105
591.15862,0.42768
589.66883,0.34780
588.17904,0.29413
586.68925,0.25259
585.19946,0.21109
583.70967,0.16312
582.21989,0.14503
580.73010,0.12476
579.24031,0.10452
577.75052,0.08112
576.26073,0.07145
574.77094,0.08188
573.28115,0.07005
571.79137,0.05825
570.30158,0.06434
568.81179,0.09273
567.32200,0.09067
565.83221,0.08864
564.34242,0.11416
562.85264,0.12062
561.36285,0.13836
559.87306,0.13789
558.38327,0.13744
556.89348,0.17092
555.40369,0.18093
553.91391,0.19328
552.42412,0.20566
550.93433,0.18686
549.44454,0.20504
547.95475,0.21346
546.46496,0.22361
544.97517,0.23379
543.48539,0.23591
541.99560,0.26572
540.50581,0.28037
539.01602,0.29505
537.52623,0.34573
536.03644,0.37319
534.54666,0.42905
533.05687,0.45497
531.56708,0.48090
530.07729,0.53195
528.58750,0.58131
527.09771,0.60304
525.60792,0.62479
524.11814,0.69282
522.62835,0.75647
521.13856,0.83898
519.64877,0.86451
518.15898,0.89005
516.66919,0.88185
515.17941,0.90573
513.68962,0.89562
512.19983,0.88553
510.71004,0.81698
509.22025,0.78516
507.73046,0.75312
506.24068,0.71303
504.75089,0.67296
503.26110,0.52818
501.77131,0.42355
500.28152,0.37328
498.79173,0.32304
497.30194,0.24051
495.81216,0.19007
494.32237,0.18872
492.83258,0.18739
491.34279,0.13433
489.85300,0.11066
488.36321,0.07625
486.87343,0.07673
485.38364,0.07724
483.89385,0.09405
482.40406,0.11235
480.91427,0.10767
479.42448,0.10301
477.93469,0.14268
476.44491,0.15471
474.95512,0.17510
473.46533,0.19550
471.97554,0.22523
470.48575,0.20384
468.99596,0.22113
467.50618,0.19624
466.01639,0.17137
464.52660,0.12364
463.03681,0.08255
461.54702,0.06656
460.05723,0.05060
458.56745,0.03111
457.07766,0.04224
455.58787,0.02329
454.09808,0.00437
452.60829,0.02001
451.11850,0.02098
449.62871,0.02321
448.13893,0.02546
446.64914,0.04241
445.15935,0.02538
443.66956,0.02501
442.17977,0.01952
440.68998,0.01406
439.20020,0.03359
437.71041,0.05069
436.22062,0.04837
434.73083,0.04606
433.24104,0.04097
431.75125,0.03443
430.26146,0.03930
428.77168,0.04419
427.28189,0.05192
425.79210,0.02957
424.30231,0.04457
422.81252,0.05959
421.32273,0.05812
419.83295,0.03857
418.34316,0.04889
416.85337,0.05924
415.36358,0.03315
413.87379,0.02690
412.38400,0.02264
410.89422,0.01840
409.40443,0.01615
407.91464,0.03545
406.42485,0.05454
404.93506,0.05003
403.44527,0.04555
401.95548,0.04219
400.46570,0.04009
398.97591,0.02222
397.48612,0.00437
395.99633,0.02476
394.50654,0.04125
393.01675,0.04896
391.52697,0.05669
390.03718,0.04560
388.54739,0.02084
387.05760,0.01481
385.56781,0.00882
384.07802,0.02095
382.58824,0.02332
381.09845,0.03183
379.60866,0.04037
378.11887,0.01638
376.62908,0.01762
375.13929,0.01767
373.64950,0.01774
372.15972,0.01587
370.66993,0.01623
369.18014,0.01029
367.69035,0.00437
366.20056,0.02333
364.71077,0.01343
363.22099,0.02901
361.73120,0.04461
360.24141,0.04433
358.75162,0.02523
357.26183,0.02928
355.77204,0.03336
354.28225,0.02510
352.79247,0.03596
351.30268,0.04647
349.81289,0.05701
348.32310,0.08286
346.83331,0.06445
345.34352,0.04716
343.85374,0.02990
342.36395,0.01156
340.87416,0.03925
339.38437,0.02206
337.89458,0.00489
336.40479,0.00525
334.91501,0.01811
333.42522,0.01056
331.93543,0.00303
330.44564,0.01940
328.95585,0.02526
327.46606,0.01976
325.97627,0.01430
324.48649,0.01754
322.99670,0.03818
321.50691,0.04625
320.01712,0.05434
318.52733,0.10320
317.03754,0.11880
315.54776,0.09918
314.05797,0.07959
312.56818,0.08817
311.07839,0.06423
309.58860,0.07004
308.09881,0.07588
306.60902,0.05470
305.11924,0.05165
303.62945,0.02954
302.13966,0.00745
300.64987,0.00437
299.16008,0.00437
