1778.52000,0.01961
1777.03021,0.00875
1775.54042,0.01888
1774.05063,0.01802
1772.56085,0.02282
1771.07106,0.02631
1769.58127,0.02256
1768.09148,0.01938
1766.60169,0.00519
1765.11190,0.02087
1763.62212,0.02045
1762.13233,0.01951
1760.64254,0.03070
1759.15275,0.01637
1757.66296,0.01954
1756.17317,0.01063
1754.68339,0.01143
1753.19360,0.01924
1751.70381,0.01902
1750.21402,0.01989
1748.72423,0.00519
1747.23444,0.01082
1745.74465,0.01057
1744.25487,0.01598
1742.76508,0.01443
1741.27529,0.01909
1739.78550,0.02189
1738.29571,0.01907
1736.80592,0.02111
1735.31614,0.01914
1733.82635,0.00887
1732.33656,0.00910
1730.84677,0.00774
1729.35698,0.01475
1727.86719,0.00000
1726.37740,0.01115
1724.88762,0.01292
1723.39783,0.01929
1721.90804,0.00820
1720.41825,0.01166
1718.92846,0.00519
1717.43867,0.00692
1715.94889,0.01001
1714.45910,0.02146
1712.96931,0.01788
1711.47952,0.01836
1709.98973,0.00892
1708.49994,0.01724
1707.01016,0.01201
1705.52037,0.00681
1704.03058,0.02139
1702.54079,0.00992
1701.05100,0.00519
1699.56121,0.01298
1698.07142,0.02860
1696.58164,0.02085
1695.09185,0.02468
1693.60206,0.03956
1692.11227,0.03296
1690.62248,0.03229
1689.13269,0.04053
1687.64291,0.03722
1686.15312,0.04336
1684.66333,0.05865
1683.17354,0.05032
1681.68375,0.04550
1680.19396,0.04313
1678.70417,0.05449
1677.21439,0.07394
1675.72460,0.05175
1674.23481,0.05888
1672.74502,0.06335
1671.25523,0.06516
1669.76544,0.08957
1668.27566,0.07234
1666.78587,0.06911
1665.29608,0.08661
1663.80629,0.09176
1662.31650,0.10313
1660.82671,0.09650
1659.33693,0.10469
1657.84714,0.09354
1656.35735,0.10232
1654.86756,0.09418
1653.37777,0.08794
1651.88798,0.10270
1650.39819,0.10055
1648.90841,0.10811
1647.41862,0.08907
1645.92883,0.09398
1644.43904,0.09891
1642.94925,0.10065
1641.45946,0.10295
1639.96968,0.08000
1638.47989,0.10063
1636.99010,0.10407
1635.50031,0.10002
1634.01052,0.09894
1632.52073,0.10811
1631.03094,0.08530
1629.54116,0.09479
1628.05137,0.10188
1626.56158,0.11222
1625.07179,0.11855
1623.58200,0.10608
1622.09221,0.10628
1620.60243,0.10139
1619.11264,0.12933
1617.62285,0.11267
1616.13306,0.09387
1614.64327,0.09634
1613.15348,0.10529
1611.66370,0.10055
1610.17391,0.10256
1608.68412,0.11937
1607.19433,0.10234
1605.70454,0.10066
1604.21475,0.09564
1602.72496,0.09064
1601.23518,0.10301
1599.74539,0.10922
1598.25560,0.10148
1596.76581,0.10935
1595.27602,0.09601
1593.78623,0.10098
1592.29645,0.10086
1590.80666,0.09216
1589.31687,0.07596
1587.82708,0.09339
1586.33729,0.09310
1584.84750,0.08638
1583.35771,0.08802
1581.86793,0.09722
1580.37814,0.08950
1578.88835,0.09202
1577.39856,0.08758
1575.90877,0.08423
1574.41898,0.06989
1572.92920,0.07090
1571.43941,0.06037
1569.94962,0.05753
1568.45983,0.05471
1566.97004,0.04667
1565.48025,0.04350
1563.99047,0.03767
1562.50068,0.03051
1561.01089,0.04462
1559.52110,0.04208
1558.03131,0.03097
1556.54152,0.03655
1555.05173,0.03919
1553.56195,0.02358
1552.07216,0.02896
1550.58237,0.02442
1549.09258,0.02555
1547.60279,0.02483
1546.11300,0.01902
1544.62322,0.00382
1543.13343,0.00732
1541.64364,0.00519
1540.15385,0.01246
1538.66406,0.01975
1537.17427,0.01994
1535.68448,0.01155
1534.19470,0.02738
1532.70491,0.01178
1531.21512,0.01664
1529.72533,0.02099
1528.23554,0.01810
1526.74575,0.02841
1525.25597,0.03121
1523.76618,0.03351
1522.27639,0.03367
1520.78660,0.04220
1519.29681,0.05048
1517.80702,0.04024
1516.31724,0.03190
1514.82745,0.03891
1513.33766,0.04272
1511.84787,0.04655
1510.35808,0.04369
1508.86829,0.03547
1507.37850,0.04045
1505.88872,0.03014
1504.39893,0.05668
1502.90914,0.04937
1501.41935,0.05982
1499.92956,0.05633
1498.43977,0.06683
1496.94999,0.07629
1495.46020,0.07421
1493.97041,0.09366
1492.48062,0.10427
1490.99083,0.11355
1489.50104,0.13012
1488.01125,0.13905
1486.52147,0.14801
1485.03168,0.16115
1483.54189,0.18535
1482.05210,0.19854
1480.56231,0.22709
1479.07252,0.24410
1477.58274,0.27619
1476.09295,0.27039
1474.60316,0.27565
1473.11337,0.30163
1471.62358,0.29537
1470.13379,0.30419
1468.64401,0.30309
1467.15422,0.31384
1465.66443,0.33040
1464.17464,0.34698
1462.68485,0.40539
1461.19506,0.43157
1459.70527,0.46664
1458.21549,0.53454
1456.72570,0.58418
1455.23591,0.65884
1453.74612,0.70503
1452.25633,0.76200
1450.76654,0.77975
1449.27676,0.79268
1447.78697,0.79273
1446.29718,0.77318
1444.80739,0.73429
1443.31760,0.69543
1441.82781,0.66198
1440.33802,0.62021
1438.84824,0.55131
1437.35845,0.50529
1435.86866,0.51576
1434.37887,0.50931
1432.88908,0.54563
1431.39929,0.61477
1429.90951,0.68770
1428.41972,0.77222
1426.92993,0.86751
1425.44014,0.89697
1423.95035,0.89311
1422.46056,0.88927
1420.97078,0.90724
1419.48099,0.96179
1417.99120,0.93975
1416.50141,0.97016
1415.01162,0.94736
1413.52183,0.93399
1412.03204,0.85935
1410.54226,0.77641
1409.05247,0.70881
1407.56268,0.63156
1406.07289,0.58175
1404.58310,0.53990
1403.09331,0.49808
1401.60353,0.44216
1400.11374,0.39622
1398.62395,0.36885
1397.13416,0.31543
1395.64437,0.25773
1394.15458,0.23957
1392.66479,0.20719
1391.17501,0.17027
1389.68522,0.13660
1388.19543,0.09972
1386.70564,0.08048
1385.21585,0.06126
1383.72606,0.05564
1382.23628,0.03123
1380.74649,0.03400
1379.25670,0.02308
1377.76691,0.02778
1376.27712,0.02256
1374.78733,0.00741
1373.29755,0.00519
1371.80776,0.01434
1370.31797,0.00604
1368.82818,0.00996
1367.33839,0.01391
1365.84860,0.01075
1364.35881,0.02080
1362.86903,0.03947
1361.37924,0.06166
1359.88945,0.08199
1358.39966,0.10584
1356.90987,0.13725
1355.42008,0.19449
1353.93030,0.23723
1352.44051,0.26602
1350.95072,0.29483
1349.46093,0.38363
1347.97114,0.48588
1346.48135,0.56639
1344.99156,0.64315
1343.50178,0.69709
1342.01199,0.75186
1340.52220,0.78058
1339.03241,0.83486
1337.54262,0.90261
1336.05283,0.92146
1334.56305,0.94032
1333.07326,0.98556
1331.58347,0.99426
1330.09368,0.97288
1328.60389,0.92813
1327.11410,0.94631
1325.62432,0.92796
1324.13453,0.91985
1322.64474,0.90961
1321.15495,0.82143
1319.66516,0.79215
1318.17537,0.76290
1316.68558,0.69200
1315.19580,0.64559
1313.70601,0.58683
1312.21622,0.54934
1310.72643,0.51564
1309.23664,0.49863
1307.74685,0.44885
1306.25707,0.42356
1304.76728,0.40743
1303.27749,0.39133
1301.78770,0.35428
1300.29791,0.31080
1298.80812,0.27461
1297.31834,0.21747
1295.82855,0.19853
1294.33876,0.16402
1292.84897,0.13331
1291.35918,0.11417
1289.86939,0.11630
1288.37960,0.11846
1286.88982,0.11472
1285.40003,0.11504
1283.91024,0.08850
1282.42045,0.08699
1280.93066,0.09115
1279.44087,0.08055
1277.95109,0.07427
1276.46130,0.06909
1274.97151,0.05601
1273.48172,0.04295
1271.99193,0.04753
1270.50214,0.03519
1269.01235,0.04331
1267.52257,0.05414
1266.03278,0.04349
1264.54299,0.03985
1263.05320,0.04135
1261.56341,0.03306
1260.07362,0.02479
1258.58384,0.03012
1257.09405,0.03064
1255.60426,0.02930
1254.11447,0.02826
1252.62468,0.00519
1251.13489,0.02001
1249.64511,0.02088
1248.15532,0.01908
1246.66553,0.01918
1245.17574,0.01932
1243.68595,0.03130
1242.19616,0.02449
1240.70637,0.02550
1239.21659,0.03783
1237.72680,0.03459
1236.23701,0.01229
1234.74722,0.00829
1233.25743,0.01225
1231.76764,0.01623
1230.27786,0.00801
1228.78807,0.01728
1227.29828,0.02953
1225.80849,0.02434
1224.31870,0.01218
1222.82891,0.02128
1221.33912,0.02692
1219.84934,0.03324
1218.35955,0.03960
1216.86976,0.02837
1215.37997,0.06528
1213.89018,0.09093
1212.40039,0.07843
1210.91061,0.07429
1209.42082,0.08415
1207.93103,0.08221
1206.44124,0.08029
1204.95145,0.07436
1203.46166,0.09669
1201.97188,0.07925
1200.48209,0.08335
1198.99230,0.07725
1197.50251,0.05639
1196.01272,0.04362
1194.52293,0.04015
1193.03314,0.03671
1191.54336,0.03208
1190.05357,0.02828
1188.56378,0.03445
1187.07399,0.01806
1185.58420,0.01031
1184.09441,0.00714
1182.60463,0.00615
1181.11484,0.00519
1179.62505,0.01892
1178.13526,0.03536
1176.64547,0.04187
1175.15568,0.01561
1173.66589,0.00954
1172.17611,0.01586
1170.68632,0.01052
1169.19653,0.00519
1167.70674,0.02048
1166.21695,0.01562
1164.72716,0.03015
1163.23738,0.04820
1161.74759,0.05229
1160.25780,0.06743
1158.76801,0.06471
1157.27822,0.06202
1155.78843,0.07159
1154.29865,0.07903
1152.80886,0.09725
1151.31907,0.10850
1149.82928,0.10446
1148.33949,0.12759
1146.84970,0.13717
1145.35991,0.14677
1143.87013,0.14094
1142.38034,0.14294
1140.89055,0.14576
1139.40076,0.17334
1137.91097,0.17272
1136.42118,0.21406
1134.93140,0.22141
1133.44161,0.22879
1131.95182,0.22047
1130.46203,0.23180
1128.97224,0.26493
1127.48245,0.26663
1125.99266,0.24335
1124.50288,0.26634
1123.01309,0.25494
1121.52330,0.24356
1120.03351,0.22952
1118.54372,0.22814
1117.05393,0.23700
1115.56415,0.25422
1114.07436,0.26071
1112.58457,0.25177
1111.09478,0.24285
1109.60499,0.22495
1108.11520,0.23234
1106.62542,0.23277
1105.13563,0.22919
1103.64584,0.22940
1102.15605,0.23233
1100.66626,0.22748
1099.17647,0.22265
1097.68668,0.21732
1096.19690,0.23055
1094.70711,0.21290
1093.21732,0.21946
1091.72753,0.22551
1090.23774,0.21600
1088.74795,0.20651
1087.25817,0.21075
1085.76838,0.18813
1084.27859,0.18705
1082.78880,0.18707
1081.29901,0.19598
1079.80922,0.20061
1078.31943,0.20312
1076.82965,0.20566
1075.33986,0.23241
1073.85007,0.23257
1072.36028,0.25561
1070.87049,0.27841
1069.38070,0.27112
1067.89092,0.28670
1066.40113,0.30231
1064.91134,0.36123
1063.42155,0.48980
1061.93176,0.58345
1060.44197,0.67981
1058.95219,0.81357
1057.46240,0.86804
1055.97261,0.92253
1054.48282,1.00340
1052.99303,1.03993
1051.50324,1.05068
1050.01345,1.04505
1048.52367,1.06095
1047.03388,1.07030
1045.54409,1.07966
1044.05430,1.00289
1042.56451,0.86592
1041.07472,0.79135
1039.58494,0.72567
1038.09515,0.68744
1036.60536,0.62396
1035.11557,0.56051
1033.62578,0.51913
1032.13599,0.43879
1030.64620,0.38025
1029.15642,0.32630
1027.66663,0.30169
1026.17684,0.27710
1024.68705,0.23102
1023.19726,0.18470
1021.70747,0.16529
1020.21769,0.14860
1018.72790,0.15182
1017.23811,0.14619
1015.74832,0.14059
1014.25853,0.13045
1012.76874,0.11387
1011.27896,0.12340
1009.78917,0.13806
1008.29938,0.10892
1006.80959,0.08909
1005.31980,0.06927
1003.83001,0.03484
1002.34022,0.01064
1000.85044,0.03862
999.36065,0.04458
997.87086,0.05715
996.38107,0.06975
994.89128,0.06046
993.40149,0.10093
991.91171,0.10620
990.42192,0.11903
988.93213,0.12490
987.44234,0.13616
985.95255,0.14745
984.46276,0.14989
982.97297,0.12736
981.48319,0.10700
979.99340,0.08720
978.50361,0.08100
977.01382,0.07483
975.52403,0.06209
974.03424,0.04831
972.54446,0.03535
971.05467,0.02054
969.56488,0.02296
968.07509,0.01707
966.58530,0.01120
965.09551,0.00886
963.60573,0.02535
962.11594,0.01526
960.62615,0.00519
959.13636,0.01489
957.64657,0.02462
956.15678,0.01892
954.66699,0.01619
953.17721,0.03124
951.68742,0.04846
950.19763,0.06046
948.70784,0.07249
947.21805,0.07150
945.72826,0.08371
944.23848,0.11073
942.74869,0.10659
941.25890,0.13312
939.76911,0.14099
938.27932,0.14889
936.78953,0.17254
935.29974,0.18384
933.80996,0.20351
932.32017,0.24954
930.83038,0.25756
929.34059,0.26561
927.85080,0.27300
926.36101,0.29198
924.87123,0.34056
923.38144,0.38271
921.89165,0.41454
920.40186,0.44639
918.91207,0.54776
917.42228,0.70399
915.93250,0.86725
914.44271,1.07892
912.95292,1.17702
911.46313,1.27515
909.97334,1.50222
908.48355,1.74007
906.99376,1.93600
905.50398,1.98866
904.01419,1.98905
902.52440,1.98947
901.03461,2.00000
899.54482,1.96189
898.05503,1.87514
896.56525,1.65992
895.07546,1.53679
893.58567,1.41369
892.09588,1.12461
890.60609,0.91593
889.11630,0.67743
887.62651,0.52930
886.13673,0.46560
884.64694,0.40192
883.15715,0.29526
881.66736,0.20099
880.17757,0.16696
878.68778,0.14761
877.19800,0.12829
875.70821,0.08788
874.21842,0.05610
872.72863,0.02973
871.23884,0.03913
869.74905,0.02974
868.25927,0.02038
866.76948,0.02340
865.27969,0.04850
863.78990,0.05695
862.30011,0.07645
860.81032,0.07661
859.32053,0.07680
857.83075,0.09154
856.34096,0.11839
854.85117,0.13721
853.36138,0.15255
851.87159,0.15058
850.38180,0.14863
848.89202,0.17077
847.40223,0.18675
845.91244,0.24147
844.42265,0.24366
842.93286,0.24586
841.44307,0.27377
839.95329,0.29391
838.46350,0.29767
836.97371,0.30629
835.48392,0.30338
833.99413,0.30050
832.50434,0.30919
831.01455,0.30797
829.52477,0.27128
828.03498,0.24376
826.54519,0.21304
825.05540,0.18234
823.56561,0.18392
822.07582,0.17774
820.58604,0.15357
819.09625,0.15791
817.60646,0.16229
816.11667,0.14894
814.62688,0.14745
813.13709,0.15378
811.64730,0.13621
810.15752,0.14178
808.66773,0.14737
807.17794,0.15810
805.68815,0.16294
804.19836,0.17184
802.70857,0.18049
801.21879,0.18916
799.72900,0.16748
798.23921,0.15981
796.74942,0.13173
795.25963,0.14131
793.76984,0.15091
792.28006,0.16699
790.79027,0.18767
789.30048,0.20085
787.81069,0.23636
786.32090,0.24299
784.83111,0.24965
783.34132,0.29573
781.85154,0.31494
780.36175,0.38902
778.87196,0.41701
777.38217,0.44503
775.89238,0.44337
774.40259,0.46002
772.91281,0.45034
771.42302,0.44150
769.93323,0.43268
768.44344,0.35425
766.95365,0.31617
765.46386,0.27463
763.97407,0.24144
762.48429,0.20371
760.99450,0.16600
759.50471,0.15493
758.01492,0.14361
756.52513,0.12077
755.03534,0.11918
753.54556,0.11762
752.05577,0.09511
750.56598,0.09575
749.07619,0.06577
747.58640,0.06551
746.09661,0.06528
744.60683,0.04397
743.11704,0.03076
741.62725,0.03477
740.13746,0.02724
738.64767,0.01974
737.15788,0.03405
735.66809,0.02229
734.17831,0.00519
732.68852,0.00497
731.19873,0.00478
729.70894,0.01994
728.21915,0.01147
726.72936,0.02588
725.23958,0.00751
723.74979,0.00634
722.26000,0.00519
720.77021,0.01391
719.28042,0.01001
717.79063,0.01340
716.30084,0.01144
714.81106,0.00950
713.32127,0.02210
711.83148,0.01618
710.34169,0.02373
708.85190,0.02148
707.36211,0.01926
705.87233,0.03360
704.38254,0.03990
702.89275,0.02902
701.40296,0.03442
699.91317,0.03986
698.42338,0.05163
696.93360,0.06128
695.44381,0.08950
693.95402,0.10094
692.46423,0.11241
690.97444,0.12726
689.48465,0.13219
687.99486,0.16565
686.50508,0.17829
685.01529,0.19096
683.52550,0.23954
682.03571,0.22900
680.54592,0.28193
679.05613,0.27063
677.56635,0.25936
676.07656,0.26129
674.58677,0.24307
673.09698,0.21736
671.60719,0.20968
670.11740,0.20202
668.62761,0.17665
667.13783,0.15291
665.64804,0.14157
664.15825,0.13025
662.66846,0.12433
661.17867,0.10284
659.68888,0.06122
658.19910,0.05335
656.70931,0.04552
655.21952,0.05612
653.72973,0.03986
652.23994,0.04057
650.75015,0.03955
649.26037,0.03856
647.77058,0.04633
646.28079,0.04740
644.79100,0.04177
643.30121,0.03429
641.81142,0.02684
640.32163,0.04656
638.83185,0.04641
637.34206,0.01859
635.85227,0.02333
634.36248,0.02809
632.87269,0.00519
631.38290,0.01335
629.89312,0.02341
628.40333,0.01737
626.91354,0.01135
625.42375,0.00670
623.93396,0.00154
622.44417,0.00620
620.95438,0.01089
619.46460,0.03483
617.97481,0.04132
616.48502,0.08117
614.99523,0.09066
613.50544,0.10018
612.01565,0.11967
610.52587,0.15962
609.03608,0.18991
607.54629,0.21136
606.05650,0.23283
604.56671,0.28470
603.07692,0.33848
601.58714,0.35855
600.09735,0.37864
598.60756,0.40991
597.11777,0.46379
595.62798,0.46876
594.13819,0.45091
592.64840,0.43308
591.15862,0.40721
589.66883,0.34830
588.17904,0.28618
586.68925,0.24681
585.19946,0.20746
583.70967,0.16048
582.21989,0.12992
580.73010,0.11928
579.24031,0.10866
577.75052,0.07010
576.26073,0.07352
574.77094,0.06190
573.28115,0.06213
571.79137,0.06239
570.30158,0.06160
568.81179,0.10599
567.32200,0.10391
565.83221,0.10184
564.34242,0.12266
562.85264,0.14592
561.36285,0.16651
559.87306,0.16992
558.38327,0.17336
556.89348,0.18058
555.40369,0.20154
553.91391,0.20962
552.42412,0.21773
550.93433,0.23150
549.44454,0.22998
547.95475,0.24596
546.46496,0.26532
544.97517,0.28470
543.48539,0.28166
541.99560,0.29935
540.50581,0.31814
539.01602,0.33695
537.52623,0.38240
536.03644,0.42976
534.54666,0.45482
533.05687,0.47172
531.56708,0.48863
530.07729,0.53394
528.58750,0.57174
527.09771,0.60446
525.60792,0.63720
524.11814,0.69820
522.62835,0.75519
521.13856,0.78881
519.64877,0.81305
518.15898,0.83731
516.66919,0.85756
515.17941,0.87569
513.68962,0.87341
512.19983,0.87116
510.71004,0.81516
509.22025,0.80247
507.73046,0.74302
506.24068,0.68576
504.75089,0.62851
503.26110,0.54064
501.77131,0.43022
500.28152,0.36874
498.79173,0.30730
497.30194,0.21361
495.81216,0.19254
494.32237,0.17754
492.83258,0.16256
491.34279,0.12597
489.85300,0.09129
488.36321,0.08378
486.87343,0.09122
485.38364,0.09868
483.89385,0.07834
482.40406,0.10669
480.91427,0.10871
479.42448,0.11076
477.93469,0.13434
476.44491,0.17462
474.95512,0.20282
473.46533,0.23104
471.97554,0.21224
470.48575,0.23649
468.99596,0.22500
467.50618,0.20412
466.01639,0.18327
464.52660,0.15411
463.03681,0.11341
461.54702,0.09022
460.05723,0.06705
458.56745,0.02831
457.07766,0.04605
455.58787,0.02994
454.09808,0.01385
452.60829,0.01393
451.11850,0.00838
449.62871,0.00957
448.13893,0.01079
446.64914,0.00908
445.15935,0.01196
443.66956,0.00519
442.17977,0.00612
440.68998,0.00707
439.20020,0.03225
437.71041,0.03755
436.22062,0.04073
434.73083,0.04393
433.24104,0.03586
431.75125,0.02056
430.26146,0.03137
428.77168,0.04220
427.28189,0.04337
425.79210,0.02306
424.30231,0.03087
422.81252,0.03870
421.32273,0.03272
419.83295,0.03832
418.34316,0.03507
416.85337,0.03184
415.36358,0.02622
413.87379,0.02170
412.38400,0.01694
410.89422,0.01220
409.40443,0.00614
407.91464,0.02000
406.42485,0.01291
404.93506,0.02413
403.44527,0.03538
401.95548,0.01707
400.46570,0.02756
398.97591,0.02584
397.48612,0.02415
395.99633,0.01831
394.50654,0.04099
393.01675,0.03251
391.52697,0.02406
390.03718,0.02934
388.54739,0.01771
387.05760,0.01144
385.56781,0.00519
384.07802,0.00442
382.58824,0.02672
381.09845,0.02444
379.60866,0.02219
378.11887,0.00639
376.62908,0.00083
375.13929,0.00402
373.64950,0.00723
372.15972,0.01181
370.66993,0.01911
369.18014,0.01735
367.69035,0.01562
366.20056,0.03529
364.71077,0.02031
363.22099,0.03545
361.73120,0.05062
360.24141,0.05319
358.75162,0.04475
357.26183,0.04306
355.77204,0.04139
354.28225,0.01098
352.79247,0.05587
351.30268,0.05804
349.81289,0.06024
348.32310,0.08450
346.83331,0.08514
345.34352,0.05971
343.85374,0.03432
342.36395,0.03825
340.87416,0.03736
339.38437,0.04013
337.89458,0.04293
336.40479,0.01040
334.91501,0.02404
333.42522,0.01835
331.93543,0.01268
330.44564,0.02613
328.95585,0.00519
327.46606,0.00967
325.97627,0.01417
324.48649,0.02737
322.99670,0.05538
321.50691,0.05666
320.01712,0.05797
318.52733,0.06051
317.03754,0.09749
315.54776,0.08852
314.05797,0.07957
312.56818,0.06151
311.07839,0.06902
309.58860,0.05168
308.09881,0.03436
306.60902,0.02796
305.11924,0.00545
303.62945,0.00622
302.13966,0.00639
300.64987,0.00645
299.16008,0.00519
