1778.52000,0.00440
1777.03021,0.01654
1775.54042,0.01730
1774.05063,0.01461
1772.56085,0.01641
1771.07106,0.01575
1769.58127,0.01239
1768.09148,0.01922
1766.60169,0.01219
1765.11190,0.01386
1763.62212,0.01829
1762.13233,0.02075
1760.64254,0.02026
1759.15275,0.01880
1757.66296,0.02679
1756.17317,0.01497
1754.68339,0.03615
1753.19360,0.02512
1751.70381,0.02775
1750.21402,0.02148
1748.72423,0.01399
1747.23444,0.02680
1745.74465,0.01931
1744.25487,0.02152
1742.76508,0.02895
1741.27529,0.01632
1739.78550,0.02132
1738.29571,0.02610
1736.80592,0.01826
1735.31614,0.02184
1733.82635,0.01405
1732.33656,0.01322
1730.84677,0.00919
1729.35698,0.00890
1727.86719,0.02501
1726.37740,0.00816
1724.88762,0.02009
1723.39783,0.01098
1721.90804,0.01081
1720.41825,0.00670
1718.92846,0.00956
1717.43867,0.00550
1715.94889,0.01475
1714.45910,0.01808
1712.96931,0.01845
1711.47952,0.00918
1709.98973,0.01208
1708.49994,0.01923
1707.01016,0.00978
1705.52037,0.00036
1704.03058,0.00087
1702.54079,0.00464
1701.05100,-0.00000
1699.56121,0.00381
1698.07142,0.01583
1696.58164,0.00755
1695.09185,0.00895
1693.60206,0.00889
1692.11227,0.00440
1690.62248,0.02066
1689.13269,0.00844
1687.64291,0.02004
1686.15312,0.00440
1684.66333,0.01731
1683.17354,0.01513
1681.68375,0.01768
1680.19396,0.01678
1678.70417,0.01962
1677.21439,0.01976
1675.72460,0.02290
1674.23481,0.03152
1672.74502,0.03521
1671.25523,0.05503
1669.76544,0.04488
1668.27566,0.03921
1666.78587,0.03878
1665.29608,0.03763
1663.80629,0.05137
1662.31650,0.07084
1660.82671,0.06282
1659.33693,0.06994
1657.84714,0.05750
1656.35735,0.06566
1654.86756,0.06567
1653.37777,0.06123
1651.88798,0.05806
1650.39819,0.05863
1648.90841,0.06890
1647.41862,0.06109
1645.92883,0.06112
1644.43904,0.06116
1642.94925,0.06359
1641.45946,0.07398
1639.96968,0.06728
1638.47989,0.07945
1636.99010,0.07652
1635.50031,0.07162
1634.01052,0.07246
1632.52073,0.07158
1631.03094,0.09181
1629.54116,0.08329
1628.05137,0.08993
1626.56158,0.08766
1625.07179,0.08418
1623.58200,0.08617
1622.09221,0.09216
1620.60243,0.09172
1619.11264,0.09825
1617.62285,0.08050
1616.13306,0.07469
1614.64327,0.07410
1613.15348,0.07576
1611.66370,0.09605
1610.17391,0.07867
1608.68412,0.08215
1607.19433,0.08688
1605.70454,0.07776
1604.21475,0.08800
1602.72496,0.09826
1601.23518,0.08227
1599.74539,0.07448
1598.25560,0.07292
1596.76581,0.08229
1595.27602,0.07383
1593.78623,0.07828
1592.29645,0.06987
1590.80666,0.06843
1589.31687,0.07643
1587.82708,0.06982
1586.33729,0.06721
1584.84750,0.06685
1583.35771,0.06949
1581.86793,0.07439
1580.37814,0.07311
1578.88835,0.06120
1577.39856,0.06939
1575.90877,0.04487
1574.41898,0.05783
1572.92920,0.03882
1571.43941,0.04289
1569.94962,0.04413
1568.45983,0.04540
1566.97004,0.04955
1565.48025,0.03735
1563.99047,0.03063
1562.50068,0.03460
1561.01089,0.03190
1559.52110,0.01335
1558.03131,0.01243
1556.54152,0.01798
1555.05173,0.01984
1553.56195,0.00189
1552.07216,0.01693
1550.58237,0.01613
1549.09258,0.00941
1547.60279,0.00345
1546.11300,0.00371
1544.62322,0.00226
1543.13343,0.00233
1541.64364,0.00969
1540.15385,0.00703
1538.66406,0.00440
1537.17427,0.01923
1535.68448,0.01698
1534.19470,0.01476
1532.70491,0.01727
1531.21512,0.01534
1529.72533,0.02558
1528.23554,0.01824
1526.74575,0.01490
1525.25597,0.02075
1523.76618,0.02712
1522.27639,0.03054
1520.78660,0.02630
1519.29681,0.03498
1517.80702,0.03004
1516.31724,0.02314
1514.82745,0.03214
1513.33766,0.03905
1511.84787,0.04598
1510.35808,0.05480
1508.86829,0.02224
1507.37850,0.03656
1505.88872,0.04719
1504.39893,0.03875
1502.90914,0.07546
1501.41935,0.06533
1499.92956,0.06663
1498.43977,0.06745
1496.94999,0.07327
1495.46020,0.07042
1493.97041,0.07579
1492.48062,0.10473
1490.99083,0.11039
1489.50104,0.11657
1488.01125,0.12339
1486.52147,0.13023
1485.03168,0.14640
1483.54189,0.18020
1482.05210,0.18005
1480.56231,0.18513
1479.07252,0.19966
1477.58274,0.24769
1476.09295,0.23747
1474.60316,0.22628
1473.11337,0.23843
1471.62358,0.25134
1470.13379,0.24444
1468.64401,0.24947
1467.15422,0.28055
1465.66443,0.30286
1464.17464,0.32519
1462.68485,0.34494
1461.19506,0.36967
1459.70527,0.41674
1458.21549,0.46409
1456.72570,0.53922
1455.23591,0.59926
1453.74612,0.62734
1452.25633,0.68618
1450.76654,0.71108
1449.27676,0.69311
1447.78697,0.69252
1446.29718,0.68204
1444.80739,0.67902
1443.31760,0.67602
1441.82781,0.61850
1440.33802,0.58258
1438.84824,0.50973
1437.35845,0.47584
1435.86866,0.46776
1434.37887,0.51449
1432.88908,0.55604
1431.39929,0.58597
1429.90951,0.65906
1428.41972,0.75200
1426.92993,0.81745
1425.44014,0.87028
1423.95035,0.88694
1422.46056,0.90361
1420.97078,0.93916
1419.48099,0.96779
1417.99120,0.98652
1416.50141,0.97577
1415.01162,0.92166
1413.52183,0.90054
1412.03204,0.82615
1410.54226,0.79219
1409.05247,0.72057
1407.56268,0.67996
1406.07289,0.60219
1404.58310,0.57105
1403.09331,0.53994
1401.60353,0.49844
1400.11374,0.45300
1398.62395,0.40956
1397.13416,0.34854
1395.64437,0.28755
1394.15458,0.27022
1392.66479,0.20679
1391.17501,0.19050
1389.68522,0.13828
1388.19543,0.12353
1386.70564,0.11301
1385.21585,0.10252
1383.72606,0.06081
1382.23628,0.05111
1380.74649,0.03969
1379.25670,0.03549
1377.76691,0.02686
1376.27712,0.00485
1374.78733,0.00172
1373.29755,0.01124
1371.80776,0.01656
1370.31797,0.00580
1368.82818,0.00498
1367.33839,0.00418
1365.84860,0.00440
1364.35881,0.03796
1362.86903,0.04525
1361.37924,0.05531
1359.88945,0.08274
1358.39966,0.11441
1356.90987,0.13271
1355.42008,0.17930
1353.93030,0.25865
1352.44051,0.28521
1350.95072,0.31179
1349.46093,0.39542
1347.97114,0.47388
1346.48135,0.57615
1344.99156,0.62267
1343.50178,0.69648
1342.01199,0.75395
1340.52220,0.81665
1339.03241,0.88037
1337.54262,0.95353
1336.05283,0.98729
1334.56305,1.02108
1333.07326,1.01721
1331.58347,1.00567
1330.09368,0.98002
1328.60389,0.98465
1327.11410,1.01881
1325.62432,1.01034
1324.13453,0.96173
1322.64474,0.87794
1321.15495,0.82814
1319.66516,0.80254
1318.17537,0.77696
1316.68558,0.69574
1315.19580,0.62868
1313.70601,0.58569
1312.21622,0.57273
1310.72643,0.55806
1309.23664,0.49184
1307.74685,0.45217
1306.25707,0.43236
1304.76728,0.41431
1303.27749,0.39629
1301.78770,0.33465
1300.29791,0.29461
1298.80812,0.25087
1297.31834,0.21286
1295.82855,0.18355
1294.33876,0.15054
1292.84897,0.12202
1291.35918,0.10394
1289.86939,0.09952
1288.37960,0.09512
1286.88982,0.10315
1285.40003,0.08095
1283.91024,0.08134
1282.42045,0.08051
1280.93066,0.07846
1279.44087,0.07371
1277.95109,0.03973
1276.46130,0.04569
1274.97151,0.04523
1273.48172,0.04479
1271.99193,0.03619
1270.50214,0.04101
1269.01235,0.02378
1267.52257,0.01972
1266.03278,0.03503
1264.54299,0.03101
1263.05320,0.01339
1261.56341,0.01909
1260.07362,0.02482
1258.58384,0.01842
1257.09405,0.01577
1255.60426,0.02479
1254.11447,0.02119
1252.62468,0.01191
1251.13489,0.00440
1249.64511,0.01308
1248.15532,0.01932
1246.66553,0.01838
1245.17574,0.01747
1243.68595,0.02005
1242.19616,0.02241
1240.70637,0.02604
1239.21659,0.01902
1237.72680,0.00931
1236.23701,0.01771
1234.74722,0.01523
1233.25743,0.00980
1231.76764,0.00440
1230.27786,0.02095
1228.78807,0.01793
1227.29828,0.02238
1225.80849,0.02858
1224.31870,0.02316
1222.82891,0.01454
1221.33912,0.03668
1219.84934,0.03765
1218.35955,0.03865
1216.86976,0.02739
1215.37997,0.04691
1213.89018,0.07091
1212.40039,0.06865
1210.91061,0.06344
1209.42082,0.06793
1207.93103,0.06860
1206.44124,0.06929
1204.95145,0.07608
1203.46166,0.07198
1201.97188,0.06741
1200.48209,0.06014
1198.99230,0.07050
1197.50251,0.05484
1196.01272,0.04194
1194.52293,0.03476
1193.03314,0.02761
1191.54336,0.04255
1190.05357,0.04040
1188.56378,0.02812
1187.07399,0.02552
1185.58420,0.01651
1184.09441,0.02066
1182.60463,0.01392
1181.11484,0.00721
1179.62505,0.03573
1178.13526,0.02534
1176.64547,0.00705
1175.15568,0.00440
1173.66589,0.00561
1172.17611,0.01776
1170.68632,0.01617
1169.19653,0.01460
1167.70674,0.02459
1166.21695,0.03560
1164.72716,0.04241
1163.23738,0.03759
1161.74759,0.03478
1160.25780,0.05059
1158.76801,0.05477
1157.27822,0.05898
1155.78843,0.07288
1154.29865,0.08308
1152.80886,0.10670
1151.31907,0.09786
1149.82928,0.12177
1148.33949,0.14273
1146.84970,0.13991
1145.35991,0.13712
1143.87013,0.15220
1142.38034,0.15615
1140.89055,0.16582
1139.40076,0.16932
1137.91097,0.18103
1136.42118,0.22325
1134.93140,0.22398
1133.44161,0.22472
1131.95182,0.21966
1130.46203,0.23967
1128.97224,0.24755
1127.48245,0.24901
1125.99266,0.25942
1124.50288,0.25449
1123.01309,0.24858
1121.52330,0.24270
1120.03351,0.22097
1118.54372,0.22134
1117.05393,0.22048
1115.56415,0.24048
1114.07436,0.23869
1112.58457,0.23543
1111.09478,0.23219
1109.60499,0.23444
1108.11520,0.23968
1106.62542,0.24941
1105.13563,0.21726
1103.64584,0.20596
1102.15605,0.20386
1100.66626,0.19931
1099.17647,0.19478
1097.68668,0.20812
1096.19690,0.19917
1094.70711,0.20810
1093.21732,0.21160
1091.72753,0.21513
1090.23774,0.19809
1088.74795,0.18108
1087.25817,0.17426
1085.76838,0.16648
1084.27859,0.17111
1082.78880,0.17602
1081.29901,0.18194
1079.80922,0.18069
1078.31943,0.18022
1076.82965,0.17976
1075.33986,0.20214
1073.85007,0.20620
1072.36028,0.20433
1070.87049,0.21786
1069.38070,0.24877
1067.89092,0.26048
1066.40113,0.27222
1064.91134,0.34634
1063.42155,0.44702
1061.93176,0.51449
1060.44197,0.58596
1058.95219,0.70208
1057.46240,0.75648
1055.97261,0.81091
1054.48282,0.90255
1052.99303,0.93075
1051.50324,0.96219
1050.01345,0.97085
1048.52367,0.98399
1047.03388,0.97137
1045.54409,0.95877
1044.05430,0.88323
1042.56451,0.78464
1041.07472,0.74881
1039.58494,0.68499
1038.09515,0.62367
1036.60536,0.58394
1035.11557,0.54424
1033.62578,0.45126
1032.13599,0.40689
1030.64620,0.36206
1029.15642,0.31204
1027.66663,0.27803
1026.17684,0.24406
1024.68705,0.19981
1023.19726,0.18460
1021.70747,0.15726
1020.21769,0.13069
1018.72790,0.12250
1017.23811,0.12238
1015.74832,0.12229
1014.25853,0.08937
1012.76874,0.09515
1011.27896,0.08311
1009.78917,0.07530
1008.29938,0.06479
1006.80959,0.05530
1005.31980,0.04583
1003.83001,0.03589
1002.34022,0.00440
1000.85044,0.01517
999.36065,0.03762
997.87086,0.04001
996.38107,0.04242
994.89128,0.06568
993.40149,0.07385
991.91171,0.09269
990.42192,0.11702
988.93213,0.12154
987.44234,0.11715
985.95255,0.11279
984.46276,0.13027
982.97297,0.12447
981.48319,0.08596
979.99340,0.08318
978.50361,0.07299
977.01382,0.06282
975.52403,0.04474
974.03424,0.02917
972.54446,0.02651
971.05467,0.02982
969.56488,0.01903
968.07509,0.02041
966.58530,0.02181
965.09551,0.00440
963.60573,0.02516
962.11594,0.01967
960.62615,0.01123
959.13636,0.01261
957.64657,0.01400
956.15678,0.01877
954.66699,0.03150
953.17721,0.05268
951.68742,0.05083
950.19763,0.05632
948.70784,0.06183
947.21805,0.07839
945.72826,0.07565
944.23848,0.07044
942.74869,0.10592
941.25890,0.11688
939.76911,0.12787
938.27932,0.13888
936.78953,0.17842
935.29974,0.19196
933.80996,0.20601
932.32017,0.22480
930.83038,0.23655
929.34059,0.24832
927.85080,0.24883
926.36101,0.25830
924.87123,0.30175
923.38144,0.32317
921.89165,0.35117
920.40186,0.37921
918.91207,0.48350
917.42228,0.61287
915.93250,0.73531
914.44271,0.94084
912.95292,1.05317
911.46313,1.16552
909.97334,1.41723
908.48355,1.68311
906.99376,1.82330
905.50398,1.91715
904.01419,1.92264
902.52440,1.92814
901.03461,2.00000
899.54482,1.98783
898.05503,1.89783
896.56525,1.70173
895.07546,1.55388
893.58567,1.40606
892.09588,1.14433
890.60609,0.93990
889.11630,0.70971
887.62651,0.55268
886.13673,0.47626
884.64694,0.39986
883.15715,0.26423
881.66736,0.19829
880.17757,0.15222
878.68778,0.13567
877.19800,0.11915
875.70821,0.06843
874.21842,0.04526
872.72863,0.02980
871.23884,0.02354
869.74905,0.02226
868.25927,0.02100
866.76948,0.02671
865.27969,0.02451
863.78990,0.04143
862.30011,0.06233
860.81032,0.06405
859.32053,0.06579
857.83075,0.06073
856.34096,0.07876
854.85117,0.10301
853.36138,0.14067
851.87159,0.14228
850.38180,0.14392
848.89202,0.15810
847.40223,0.19288
845.91244,0.20413
844.42265,0.21181
842.93286,0.21952
841.44307,0.23952
839.95329,0.25186
838.46350,0.26770
836.97371,0.28603
835.48392,0.27316
833.99413,0.26030
832.50434,0.27772
831.01455,0.27954
829.52477,0.25139
828.03498,0.22921
826.54519,0.20556
825.05540,0.18194
823.56561,0.18736
822.07582,0.16403
820.58604,0.16800
819.09625,0.15936
817.60646,0.15073
816.11667,0.15304
814.62688,0.16009
813.13709,0.13988
811.64730,0.15739
810.15752,0.14764
808.66773,0.13792
807.17794,0.16046
805.68815,0.17037
804.19836,0.15353
802.70857,0.15829
801.21879,0.16307
799.72900,0.14209
798.23921,0.16427
796.74942,0.15673
795.25963,0.15664
793.76984,0.15659
792.28006,0.18110
790.79027,0.18654
789.30048,0.19523
787.81069,0.23643
786.32090,0.23339
784.83111,0.23037
783.34132,0.26718
781.85154,0.34045
780.36175,0.36863
778.87196,0.38926
777.38217,0.40992
775.89238,0.42577
774.40259,0.42354
772.91281,0.43423
771.42302,0.41271
769.93323,0.39122
768.44344,0.35190
766.95365,0.26995
765.46386,0.25869
763.97407,0.20060
762.48429,0.18096
760.99450,0.16134
759.50471,0.13729
758.01492,0.11822
756.52513,0.10438
755.03534,0.10209
753.54556,0.09983
752.05577,0.07589
750.56598,0.07107
749.07619,0.04892
747.58640,0.04204
746.09661,0.03519
744.60683,0.03517
743.11704,0.02874
741.62725,0.02877
740.13746,0.02375
738.64767,0.01875
737.15788,0.01712
735.66809,0.01403
734.17831,0.00972
732.68852,0.00705
731.19873,0.00440
729.70894,0.01679
728.21915,0.01806
726.72936,0.00992
725.23958,0.00826
723.74979,0.01195
722.26000,0.01566
720.77021,0.00440
719.28042,0.01595
717.79063,0.01959
716.30084,0.02238
714.81106,0.02520
713.32127,0.02123
711.83148,0.03116
710.34169,0.03542
708.85190,0.04007
707.36211,0.04474
705.87233,0.04163
704.38254,0.03805
702.89275,0.05680
701.40296,0.05587
699.91317,0.05496
698.42338,0.07875
696.93360,0.08446
695.44381,0.09887
693.95402,0.11628
692.46423,0.13372
690.97444,0.13729
689.48465,0.17015
687.99486,0.19038
686.50508,0.20357
685.01529,0.21679
683.52550,0.26784
682.03571,0.26412
680.54592,0.28720
679.05613,0.28750
677.56635,0.28782
676.07656,0.26460
674.58677,0.24886
673.09698,0.22743
671.60719,0.22759
670.11740,0.22778
668.62761,0.20494
667.13783,0.17567
665.64804,0.16689
664.15825,0.15812
662.66846,0.12719
661.17867,0.10769
659.68888,0.09540
658.19910,0.08835
656.70931,0.08132
655.21952,0.04728
653.72973,0.04154
652.23994,0.04127
650.75015,0.04475
649.26037,0.04825
647.77058,0.04012
646.28079,0.04516
644.79100,0.05840
643.30121,0.06175
641.81142,0.06512
640.32163,0.08315
638.83185,0.06871
637.34206,0.03646
635.85227,0.02678
634.36248,0.01714
632.87269,0.00528
631.38290,0.00440
629.89312,0.01893
628.40333,0.01985
626.91354,0.02079
625.42375,0.00961
623.93396,0.01927
622.44417,0.02438
620.95438,0.02951
619.46460,0.04321
617.97481,0.06438
616.48502,0.07938
614.99523,0.09811
613.50544,0.11688
612.01565,0.12624
610.52587,0.16488
609.03608,0.21397
607.54629,0.23257
606.05650,0.25121
604.56671,0.32739
603.07692,0.35772
601.58714,0.38213
600.09735,0.40656
598.60756,0.42705
597.11777,0.46690
595.62798,0.43884
594.13819,0.42394
592.64840,0.40907
591.15862,0.40588
589.66883,0.36304
588.17904,0.27113
586.68925,0.24247
585.19946,0.21383
583.70967,0.16340
582.21989,0.15737
580.73010,0.12992
579.24031,0.10250
577.75052,0.08192
576.26073,0.07152
574.77094,0.04925
573.28115,0.05936
571.79137,0.06950
570.30158,0.07011
568.81179,0.10521
567.32200,0.10921
565.83221,0.11325
564.34242,0.09635
562.85264,0.12485
561.36285,0.14247
559.87306,0.14969
558.38327,0.15694
556.89348,0.17339
555.40369,0.18788
553.91391,0.18603
552.42412,0.18420
550.93433,0.19653
549.44454,0.19301
547.95475,0.22101
546.46496,0.21717
544.97517,0.21335
543.48539,0.22580
541.99560,0.25563
540.50581,0.28969
539.01602,0.32378
537.52623,0.35542
536.03644,0.39204
534.54666,0.41182
533.05687,0.43882
531.56708,0.46584
530.07729,0.51817
528.58750,0.52813
527.09771,0.56254
525.60792,0.59697
524.11814,0.67915
522.62835,0.70954
521.13856,0.76400
519.64877,0.80671
518.15898,0.84944
516.66919,0.87298
515.17941,0.89134
513.68962,0.87848
512.19983,0.86564
510.71004,0.80770
509.22025,0.75847
507.73046,0.69711
506.24068,0.65462
504.75089,0.61215
503.26110,0.52086
501.77131,0.40009
500.28152,0.35236
498.79173,0.30466
497.30194,0.24272
495.81216,0.20883
494.32237,0.18860
492.83258,0.16839
491.34279,0.11374
489.85300,0.09184
488.36321,0.10021
486.87343,0.10043
485.38364,0.10067
483.89385,0.09350
482.40406,0.10643
480.91427,0.11183
479.42448,0.11725
477.93469,0.15926
476.44491,0.18097
474.95512,0.18832
473.46533,0.19569
471.97554,0.22243
470.48575,0.19564
468.99596,0.20730
467.50618,0.20076
466.01639,0.19425
464.52660,0.11672
463.03681,0.09178
461.54702,0.08596
460.05723,0.08016
458.56745,0.04389
457.07766,0.03764
455.58787,0.02882
454.09808,0.02001
452.60829,0.04186
451.11850,0.04141
449.62871,0.03553
448.13893,0.02967
446.64914,0.03897
445.15935,0.00440
443.66956,0.02837
442.17977,0.02038
440.68998,0.01241
439.20020,0.03719
437.71041,0.04837
436.22062,0.05312
434.73083,0.05789
433.24104,0.05079
431.75125,0.04718
430.26146,0.04260
428.77168,0.03805
427.28189,0.03228
425.79210,0.04836
424.30231,0.05243
422.81252,0.05653
421.32273,0.05036
419.83295,0.03405
418.34316,0.04529
416.85337,0.05655
415.36358,0.03039
413.87379,0.02087
412.38400,0.01385
410.89422,0.00686
409.40443,0.03348
407.91464,0.01474
406.42485,0.02008
404.93506,0.02681
403.44527,0.03356
401.95548,0.01740
400.46570,0.02408
398.97591,0.01986
397.48612,0.01568
395.99633,0.02094
394.50654,0.01606
393.01675,0.01653
391.52697,0.01413
390.03718,0.02081
388.54739,0.01983
387.05760,0.01590
385.56781,0.01198
384.07802,0.01182
382.58824,0.01217
381.09845,0.01875
379.60866,0.02534
378.11887,0.02180
376.62908,0.00440
375.13929,0.00594
373.64950,0.00751
372.15972,0.03415
370.66993,0.02510
369.18014,0.02023
367.69035,0.01538
366.20056,0.04255
364.71077,0.02981
363.22099,0.04227
361.73120,0.05475
360.24141,0.03564
358.75162,0.04259
357.26183,0.04572
355.77204,0.04887
354.28225,0.03085
352.79247,0.06368
351.30268,0.07571
349.81289,0.08776
348.32310,0.07827
346.83331,0.05417
345.34352,0.04720
343.85374,0.04025
342.36395,0.05565
340.87416,0.06338
339.38437,0.04808
337.89458,0.03280
336.40479,0.04259
334.91501,0.03901
333.42522,0.02802
331.93543,0.01705
330.44564,0.02693
328.95585,0.04354
327.46606,0.02880
325.97627,0.01408
324.48649,0.00574
322.99670,0.05272
321.50691,0.05719
320.01712,0.06169
318.52733,0.07948
317.03754,0.07275
315.54776,0.06889
314.05797,0.06506
312.56818,0.08344
311.07839,0.07159
309.58860,0.07254
308.09881,0.07351
306.60902,0.07339
305.11924,0.05049
303.62945,0.03306
302.13966,0.01566
300.64987,0.00440
299.16008,0.00440
