1778.52000,0.00643
1777.03021,0.01252
1775.54042,0.00694
1774.05063,0.01225
1772.56085,0.00643
1771.07106,0.02266
1769.58127,0.00436
1768.09148,0.01311
1766.60169,0.01213
1765.11190,0.01786
1763.62212,0.02083
1762.13233,0.01993
1760.64254,0.01905
1759.15275,0.01708
1757.66296,0.01931
1756.17317,0.01488
1754.68339,0.01466
1753.19360,0.01334
1751.70381,0.02431
1750.21402,0.01385
1748.72423,0.01233
1747.23444,0.01559
1745.74465,0.02054
1744.25487,0.02189
1742.76508,0.03330
1741.27529,0.02161
1739.78550,0.02025
1738.29571,0.02115
1736.80592,0.02402
1735.31614,0.02524
1733.82635,0.01534
1732.33656,0.01215
1730.84677,0.00955
1729.35698,0.01756
1727.86719,0.02002
1726.37740,0.02250
1724.88762,0.03169
1723.39783,0.01277
1721.90804,0.01533
1720.41825,0.01373
1718.92846,0.00436
1717.43867,0.00898
1715.94889,0.02532
1714.45910,0.01829
1712.96931,0.00849
1711.47952,0.01850
1709.98973,0.00653
1708.49994,0.00711
1707.01016,0.00354
1705.52037,0.00000
1704.03058,0.01236
1702.54079,0.00859
1701.05100,0.01682
1699.56121,0.00502
1698.07142,0.00187
1696.58164,0.00321
1695.09185,0.01544
1693.60206,0.01154
1692.11227,0.00961
1690.62248,0.00436
1689.13269,0.01676
1687.64291,0.01804
1686.15312,0.01628
1684.66333,0.01900
1683.17354,0.01617
1681.68375,0.00724
1680.19396,0.00697
1678.70417,0.02456
1677.21439,0.02907
1675.72460,0.01327
1674.23481,0.01617
1672.74502,0.02716
1671.25523,0.02843
1669.76544,0.04895
1668.27566,0.04554
1666.78587,0.04660
1665.29608,0.04713
1663.80629,0.06524
1662.31650,0.06973
1660.82671,0.07423
1659.33693,0.06037
1657.84714,0.06855
1656.35735,0.05613
1654.86756,0.08247
1653.37777,0.06397
1651.88798,0.06640
1650.39819,0.07107
1648.90841,0.08497
1647.41862,0.06657
1645.92883,0.05934
1644.43904,0.05214
1642.94925,0.05889
1641.45946,0.07374
1639.96968,0.06215
1638.47989,0.09238
1636.99010,0.09449
1635.50031,0.09886
1634.01052,0.08764
1632.52073,0.07255
1631.03094,0.07922
1629.54116,0.07783
1628.05137,0.10767
1626.56158,0.09101
1625.07179,0.08440
1623.58200,0.09704
1622.09221,0.09354
1620.60243,0.08952
1619.11264,0.08635
1617.62285,0.07513
1616.13306,0.07730
1614.64327,0.08257
1613.15348,0.07950
1611.66370,0.09902
1610.17391,0.08848
1608.68412,0.09718
1607.19433,0.09505
1605.70454,0.09405
1604.21475,0.09308
1602.72496,0.09213
1601.23518,0.08647
1599.74539,0.08501
1598.25560,0.09472
1596.76581,0.08858
1595.27602,0.10085
1593.78623,0.08946
1592.29645,0.07893
1590.80666,0.07595
1589.31687,0.07411
1587.82708,0.08065
1586.33729,0.08025
1584.84750,0.06928
1583.35771,0.07478
1581.86793,0.06359
1580.37814,0.07582
1578.88835,0.08446
1577.39856,0.07501
1575.90877,0.07590
1574.41898,0.06371
1572.92920,0.05211
1571.43941,0.04387
1569.94962,0.03928
1568.45983,0.03472
1566.97004,0.02377
1565.48025,0.03068
1563.99047,0.02563
1562.50068,0.03119
1561.01089,0.01923
1559.52110,0.01704
1558.03131,0.02212
1556.54152,0.01106
1555.05173,0.02092
1553.56195,0.00964
1552.07216,0.01064
1550.58237,0.00107
1549.09258,0.00379
1547.60279,0.00653
1546.11300,0.00484
1544.62322,0.00206
1543.13343,0.01158
1541.64364,0.01751
1540.15385,0.01092
1538.66406,0.00436
1537.17427,0.00939
1535.68448,0.01585
1534.19470,0.01369
1532.70491,0.01685
1531.21512,0.01475
1529.72533,0.01907
1528.23554,0.02230
1526.74575,0.01693
1525.25597,0.03553
1523.76618,0.03383
1522.27639,0.03326
1520.78660,0.03940
1519.29681,0.03804
1517.80702,0.04758
1516.31724,0.04572
1514.82745,0.04806
1513.33766,0.05154
1511.84787,0.05504
1510.35808,0.05912
1508.86829,0.05850
1507.37850,0.04452
1505.88872,0.06345
1504.39893,0.07014
1502.90914,0.07629
1501.41935,0.06743
1499.92956,0.07531
1498.43977,0.08210
1496.94999,0.08417
1495.46020,0.08934
1493.97041,0.10540
1492.48062,0.12872
1490.99083,0.11195
1489.50104,0.12585
1488.01125,0.13170
1486.52147,0.13757
1485.03168,0.17550
1483.54189,0.19201
1482.05210,0.20631
1480.56231,0.22231
1479.07252,0.27539
1477.58274,0.28948
1476.09295,0.29720
1474.60316,0.28933
1473.11337,0.30684
1471.62358,0.29903
1470.13379,0.31241
1468.64401,0.32916
1467.15422,0.31780
1465.66443,0.33696
1464.17464,0.35616
1462.68485,0.41591
1461.19506,0.46789
1459.70527,0.48758
1458.21549,0.55410
1456.72570,0.60336
1455.23591,0.67690
1453.74612,0.75798
1452.25633,0.81930
1450.76654,0.86365
1449.27676,0.84004
1447.78697,0.81088
1446.29718,0.80459
1444.80739,0.78760
1443.31760,0.77064
1441.82781,0.72096
1440.33802,0.63564
1438.84824,0.58211
1437.35845,0.55284
1435.86866,0.57125
1434.37887,0.59274
1432.88908,0.63710
1431.39929,0.69598
1429.90951,0.77829
1428.41972,0.86034
1426.92993,0.93490
1425.44014,1.00948
1423.95035,1.01150
1422.46056,1.01354
1420.97078,1.05392
1419.48099,1.09043
1417.99120,1.13225
1416.50141,1.10361
1415.01162,1.08028
1413.52183,0.98370
1412.03204,0.91361
1410.54226,0.87587
1409.05247,0.80500
1407.56268,0.72997
1406.07289,0.64660
1404.58310,0.61509
1403.09331,0.58360
1401.60353,0.54238
1400.11374,0.46051
1398.62395,0.40541
1397.13416,0.35340
1395.64437,0.29584
1394.15458,0.25224
1392.66479,0.21841
1391.17501,0.18963
1389.68522,0.13300
1388.19543,0.12015
1386.70564,0.09812
1385.21585,0.07612
1383.72606,0.05108
1382.23628,0.04556
1380.74649,0.04174
1379.25670,0.03684
1377.76691,0.03335
1376.27712,0.01511
1374.78733,0.01725
1373.29755,0.00436
1371.80776,0.02580
1370.31797,0.00520
1368.82818,0.00553
1367.33839,0.00589
1365.84860,0.01932
1364.35881,0.02916
1362.86903,0.03011
1361.37924,0.06117
1359.88945,0.08557
1358.39966,0.11835
1356.90987,0.15812
1355.42008,0.20683
1353.93030,0.27730
1352.44051,0.30447
1350.95072,0.33166
1349.46093,0.42728
1347.97114,0.49618
1346.48135,0.58460
1344.99156,0.68336
1343.50178,0.73283
1342.01199,0.75613
1340.52220,0.81205
1339.03241,0.87496
1337.54262,0.95350
1336.05283,0.98456
1334.56305,1.01565
1333.07326,1.06556
1331.58347,1.00962
1330.09368,0.98798
1328.60389,0.97026
1327.11410,0.99882
1325.62432,0.96611
1324.13453,0.93147
1322.64474,0.88236
1321.15495,0.82353
1319.66516,0.78771
1318.17537,0.75191
1316.68558,0.68061
1315.19580,0.62300
1313.70601,0.59466
1312.21622,0.57581
1310.72643,0.54585
1309.23664,0.49112
1307.74685,0.47792
1306.25707,0.42574
1304.76728,0.40563
1303.27749,0.38554
1301.78770,0.34848
1300.29791,0.31562
1298.80812,0.24657
1297.31834,0.20123
1295.82855,0.16454
1294.33876,0.14321
1292.84897,0.13304
1291.35918,0.11204
1289.86939,0.10526
1288.37960,0.09852
1286.88982,0.11185
1285.40003,0.09457
1283.91024,0.06727
1282.42045,0.07567
1280.93066,0.08297
1279.44087,0.08027
1277.95109,0.05559
1276.46130,0.04374
1274.97151,0.04460
1273.48172,0.04548
1271.99193,0.01169
1270.50214,0.02195
1269.01235,0.02946
1267.52257,0.02612
1266.03278,0.02113
1264.54299,0.02759
1263.05320,0.03602
1261.56341,0.03153
1260.07362,0.02705
1258.58384,0.00714
1257.09405,0.02348
1255.60426,0.01253
1254.11447,0.01164
1252.62468,0.01328
1251.13489,0.00436
1249.64511,0.00485
1248.15532,0.01982
1246.66553,0.02172
1245.17574,0.02365
1243.68595,0.03395
1242.19616,0.02645
1240.70637,0.01591
1239.21659,0.01905
1237.72680,0.01441
1236.23701,0.02345
1234.74722,0.01273
1233.25743,0.01331
1231.76764,0.01392
1230.27786,0.01526
1228.78807,0.00436
1227.29828,0.02780
1225.80849,0.01421
1224.31870,0.01040
1222.82891,0.01720
1221.33912,0.00786
1219.84934,0.01610
1218.35955,0.02437
1216.86976,0.03934
1215.37997,0.03902
1213.89018,0.06129
1212.40039,0.09222
1210.91061,0.07219
1209.42082,0.07921
1207.93103,0.08040
1206.44124,0.08162
1204.95145,0.07450
1203.46166,0.06267
1201.97188,0.06118
1200.48209,0.07364
1198.99230,0.05993
1197.50251,0.04263
1196.01272,0.02507
1194.52293,0.02690
1193.03314,0.02876
1191.54336,0.02715
1190.05357,0.03254
1188.56378,0.03656
1187.07399,0.02138
1185.58420,0.00789
1184.09441,0.00446
1182.60463,0.00439
1181.11484,0.00436
1179.62505,0.01841
1178.13526,0.02135
1176.64547,0.02431
1175.15568,0.02228
1173.66589,0.01525
1172.17611,0.00436
1170.68632,0.00735
1169.19653,0.01038
1167.70674,0.01064
1166.21695,0.03237
1164.72716,0.04494
1163.23738,0.04778
1161.74759,0.03867
1160.25780,0.06998
1158.76801,0.06899
1157.27822,0.06803
1155.78843,0.09106
1154.29865,0.08736
1152.80886,0.10764
1151.31907,0.13046
1149.82928,0.14133
1148.33949,0.13410
1146.84970,0.14655
1145.35991,0.15902
1143.87013,0.17109
1142.38034,0.18403
1140.89055,0.17665
1139.40076,0.20273
1137.91097,0.22326
1136.42118,0.23657
1134.93140,0.24280
1133.44161,0.24906
1131.95182,0.25827
1130.46203,0.26694
1128.97224,0.27341
1127.48245,0.27544
1125.99266,0.27750
1124.50288,0.29101
1123.01309,0.28629
1121.52330,0.28160
1120.03351,0.27428
1118.54372,0.29680
1117.05393,0.29121
1115.56415,0.27728
1114.07436,0.26003
1112.58457,0.26858
1111.09478,0.27715
1109.60499,0.28673
1108.11520,0.28936
1106.62542,0.26443
1105.13563,0.27686
1103.64584,0.26842
1102.15605,0.26502
1100.66626,0.26401
1099.17647,0.26303
1097.68668,0.24800
1096.19690,0.24386
1094.70711,0.25953
1093.21732,0.24876
1091.72753,0.25611
1090.23774,0.25096
1088.74795,0.24583
1087.25817,0.24323
1085.76838,0.23536
1084.27859,0.22613
1082.78880,0.20828
1081.29901,0.23921
1079.80922,0.23506
1078.31943,0.22579
1076.82965,0.21653
1075.33986,0.27236
1073.85007,0.26441
1072.36028,0.26234
1070.87049,0.28453
1069.38070,0.29476
1067.89092,0.31393
1066.40113,0.33313
1064.91134,0.44542
1063.42155,0.55215
1061.93176,0.63189
1060.44197,0.74480
1058.95219,0.83963
1057.46240,0.89241
1055.97261,0.94522
1054.48282,1.05071
1052.99303,1.05814
1051.50324,1.08149
1050.01345,1.04467
1048.52367,1.08367
1047.03388,1.06334
1045.54409,1.04304
1044.05430,0.97511
1042.56451,0.89774
1041.07472,0.83070
1039.58494,0.74892
1038.09515,0.70701
1036.60536,0.66623
1035.11557,0.62548
1033.62578,0.54408
1032.13599,0.45155
1030.64620,0.42174
1029.15642,0.35629
1027.66663,0.32360
1026.17684,0.29094
1024.68705,0.25148
1023.19726,0.21259
1021.70747,0.19658
1020.21769,0.16026
1018.72790,0.16658
1017.23811,0.15650
1015.74832,0.14644
1014.25853,0.12748
1012.76874,0.11524
1011.27896,0.10860
1009.78917,0.08972
1008.29938,0.08368
1006.80959,0.07251
1005.31980,0.06136
1003.83001,0.04091
1002.34022,0.01686
1000.85044,0.05580
999.36065,0.07276
997.87086,0.07469
996.38107,0.07665
994.89128,0.09201
993.40149,0.12188
991.91171,0.13840
990.42192,0.14881
988.93213,0.16232
987.44234,0.16205
985.95255,0.16182
984.46276,0.19852
982.97297,0.15445
981.48319,0.15136
979.99340,0.11569
978.50361,0.11307
977.01382,0.11047
975.52403,0.09298
974.03424,0.08389
972.54446,0.04556
971.05467,0.03595
969.56488,0.00436
968.07509,0.00467
966.58530,0.00502
965.09551,0.02224
963.60573,0.02166
962.11594,0.02500
960.62615,0.01276
959.13636,0.00821
957.64657,0.00369
956.15678,0.02549
954.66699,0.04425
953.17721,0.04799
951.68742,0.04229
950.19763,0.05053
948.70784,0.05881
947.21805,0.08103
945.72826,0.05230
944.23848,0.06844
942.74869,0.07877
941.25890,0.11920
939.76911,0.12539
938.27932,0.13161
936.78953,0.17630
935.29974,0.20680
933.80996,0.21922
932.32017,0.24364
930.83038,0.24803
929.34059,0.25244
927.85080,0.27693
926.36101,0.30647
924.87123,0.33046
923.38144,0.43081
921.89165,0.47491
920.40186,0.51904
918.91207,0.61111
917.42228,0.74388
915.93250,0.87752
914.44271,1.09476
912.95292,1.20059
911.46313,1.30643
909.97334,1.53908
908.48355,1.80017
906.99376,1.95513
905.50398,1.97247
904.01419,1.96726
902.52440,1.96208
901.03461,1.98786
899.54482,2.00000
898.05503,1.91075
896.56525,1.68332
895.07546,1.53463
893.58567,1.38597
892.09588,1.13382
890.60609,0.87055
889.11630,0.68308
887.62651,0.52017
886.13673,0.45438
884.64694,0.38861
883.15715,0.26115
881.66736,0.16521
880.17757,0.13114
878.68778,0.11186
877.19800,0.09261
875.70821,0.06056
874.21842,0.03913
872.72863,0.02970
871.23884,0.01194
869.74905,0.00814
868.25927,0.00436
866.76948,0.00569
865.27969,0.03240
863.78990,0.04883
862.30011,0.04300
860.81032,0.04178
859.32053,0.04059
857.83075,0.05628
856.34096,0.08286
854.85117,0.10752
853.36138,0.12830
851.87159,0.12458
850.38180,0.12089
848.89202,0.15233
847.40223,0.19522
845.91244,0.20136
844.42265,0.20933
842.93286,0.21732
841.44307,0.20793
839.95329,0.23729
838.46350,0.25608
836.97371,0.25846
835.48392,0.25585
833.99413,0.25327
832.50434,0.25990
831.01455,0.25987
829.52477,0.24287
828.03498,0.20360
826.54519,0.18972
825.05540,0.17585
823.56561,0.15979
822.07582,0.14514
820.58604,0.12633
819.09625,0.12469
817.60646,0.12307
816.11667,0.13415
814.62688,0.11098
813.13709,0.12295
811.64730,0.11182
810.15752,0.12174
808.66773,0.13169
807.17794,0.14515
805.68815,0.13578
804.19836,0.14344
802.70857,0.13997
801.21879,0.13653
799.72900,0.14175
798.23921,0.13836
796.74942,0.13416
795.25963,0.13959
793.76984,0.14505
792.28006,0.15430
790.79027,0.14573
789.30048,0.18149
787.81069,0.19834
786.32090,0.20141
784.83111,0.20451
783.34132,0.24900
781.85154,0.30021
780.36175,0.34643
778.87196,0.37387
777.38217,0.40133
775.89238,0.42199
774.40259,0.42651
772.91281,0.39261
771.42302,0.38882
769.93323,0.38505
768.44344,0.32671
766.95365,0.27562
765.46386,0.22680
763.97407,0.19109
762.48429,0.17212
760.99450,0.15318
759.50471,0.12870
758.01492,0.11983
756.52513,0.10013
755.03534,0.09828
753.54556,0.09646
752.05577,0.08018
750.56598,0.05583
749.07619,0.03765
747.58640,0.03620
746.09661,0.03478
744.60683,0.03422
743.11704,0.02783
741.62725,0.01060
740.13746,0.00747
738.64767,0.00436
737.15788,0.00823
735.66809,0.00377
734.17831,0.00781
732.68852,0.00547
731.19873,0.00315
729.70894,0.01415
728.21915,0.00986
726.72936,0.00726
725.23958,0.01277
723.74979,0.00855
722.26000,0.00436
720.77021,0.00627
719.28042,0.01546
717.79063,0.02523
716.30084,0.02193
714.81106,0.01865
713.32127,0.02515
711.83148,0.04031
710.34169,0.02652
708.85190,0.02947
707.36211,0.03244
705.87233,0.03015
704.38254,0.02871
702.89275,0.05823
701.40296,0.05615
699.91317,0.05409
698.42338,0.08619
696.93360,0.08738
695.44381,0.11535
693.95402,0.11938
692.46423,0.12344
690.97444,0.15204
689.48465,0.15502
687.99486,0.19231
686.50508,0.20719
685.01529,0.22209
683.52550,0.23939
682.03571,0.27287
680.54592,0.29913
679.05613,0.29324
677.56635,0.28737
676.07656,0.26940
674.58677,0.26344
673.09698,0.25946
671.60719,0.24449
670.11740,0.22955
668.62761,0.18635
667.13783,0.17466
665.64804,0.15867
664.15825,0.14271
662.66846,0.13416
661.17867,0.10975
659.68888,0.09429
658.19910,0.08539
656.70931,0.07652
655.21952,0.06948
653.72973,0.04965
652.23994,0.03765
650.75015,0.03598
649.26037,0.03434
647.77058,0.04164
646.28079,0.05648
644.79100,0.04906
643.30121,0.05615
641.81142,0.06326
640.32163,0.06232
638.83185,0.06141
637.34206,0.03126
635.85227,0.02872
634.36248,0.02621
632.87269,0.00784
631.38290,0.02771
629.89312,0.03507
628.40333,0.02462
626.91354,0.01420
625.42375,0.00436
623.93396,0.01142
622.44417,0.02310
620.95438,0.03480
619.46460,0.04556
617.97481,0.07055
616.48502,0.08720
614.99523,0.10876
613.50544,0.13034
612.01565,0.13397
610.52587,0.17552
609.03608,0.21487
607.54629,0.23153
606.05650,0.24822
604.56671,0.31606
603.07692,0.36720
601.58714,0.39232
600.09735,0.41747
598.60756,0.45420
597.11777,0.47981
595.62798,0.49235
594.13819,0.47329
592.64840,0.45425
591.15862,0.41838
589.66883,0.36359
588.17904,0.29044
586.68925,0.25854
585.19946,0.22667
583.70967,0.18090
582.21989,0.18028
580.73010,0.15044
579.24031,0.12061
577.75052,0.10168
576.26073,0.07888
574.77094,0.08535
573.28115,0.07833
571.79137,0.07134
570.30158,0.07232
568.81179,0.10870
567.32200,0.11627
565.83221,0.12387
564.34242,0.13859
562.85264,0.14861
561.36285,0.15279
559.87306,0.15979
558.38327,0.16681
556.89348,0.18862
555.40369,0.19012
553.91391,0.20139
552.42412,0.21269
550.93433,0.21064
549.44454,0.23369
547.95475,0.25175
546.46496,0.25005
544.97517,0.24838
543.48539,0.24728
541.99560,0.28634
540.50581,0.31385
539.01602,0.34139
537.52623,0.37773
536.03644,0.43193
534.54666,0.48030
533.05687,0.48997
531.56708,0.49966
530.07729,0.51383
528.58750,0.56648
527.09771,0.59310
525.60792,0.61974
524.11814,0.70339
522.62835,0.75196
521.13856,0.78857
519.64877,0.81503
518.15898,0.84152
516.66919,0.83167
515.17941,0.88844
513.68962,0.87279
512.19983,0.85717
510.71004,0.83683
509.22025,0.79813
507.73046,0.70484
506.24068,0.64877
504.75089,0.59273
503.26110,0.49032
501.77131,0.38960
500.28152,0.34812
498.79173,0.30667
497.30194,0.24615
495.81216,0.20209
494.32237,0.18425
492.83258,0.16644
491.34279,0.12357
489.85300,0.09661
488.36321,0.09726
486.87343,0.09863
485.38364,0.10002
483.89385,0.10854
482.40406,0.11403
480.91427,0.10922
479.42448,0.10445
477.93469,0.15347
476.44491,0.18301
474.95512,0.20227
473.46533,0.22155
471.97554,0.22302
470.48575,0.20167
468.99596,0.20320
467.50618,0.19973
466.01639,0.19629
464.52660,0.14411
463.03681,0.09335
461.54702,0.07479
460.05723,0.05626
458.56745,0.05879
457.07766,0.04323
455.58787,0.04428
454.09808,0.04535
452.60829,0.04185
451.11850,0.01413
449.62871,0.01946
448.13893,0.02480
446.64914,0.03728
445.15935,0.00855
443.66956,0.00436
442.17977,0.01743
440.68998,0.03054
439.20020,0.02430
437.71041,0.03453
436.22062,0.04352
434.73083,0.05254
433.24104,0.05142
431.75125,0.05868
430.26146,0.04994
428.77168,0.04123
427.28189,0.04689
425.79210,0.04059
424.30231,0.04184
422.81252,0.04312
421.32273,0.05640
419.83295,0.06859
418.34316,0.05782
416.85337,0.04707
415.36358,0.01142
413.87379,0.02566
412.38400,0.01874
410.89422,0.01186
409.40443,0.03007
407.91464,0.02212
406.42485,0.04122
404.93506,0.03652
403.44527,0.03184
401.95548,0.03875
400.46570,0.00780
398.97591,0.01281
397.48612,0.01784
395.99633,0.01984
394.50654,0.03885
393.01675,0.03407
391.52697,0.02931
390.03718,0.03614
388.54739,0.02711
387.05760,0.02131
385.56781,0.01554
384.07802,0.00436
382.58824,0.03857
381.09845,0.03101
379.60866,0.02347
378.11887,0.02766
376.62908,0.01655
375.13929,0.01021
373.64950,0.00388
372.15972,0.03994
370.66993,0.01081
369.18014,0.00916
367.69035,0.00753
366.20056,0.02335
364.71077,0.01438
363.22099,0.02787
361.73120,0.04139
360.24141,0.02331
358.75162,0.06348
357.26183,0.05422
355.77204,0.04499
354.28225,0.02338
352.79247,0.04749
351.30268,0.05017
349.81289,0.05288
348.32310,0.07093
346.83331,0.04805
345.34352,0.03830
343.85374,0.02856
342.36395,0.03111
340.87416,0.02672
339.38437,0.01553
337.89458,0.00436
336.40479,0.02794
334.91501,0.00391
333.42522,0.00916
331.93543,0.01443
330.44564,0.02474
328.95585,0.03090
327.46606,0.03220
325.97627,0.03353
324.48649,0.00465
322.99670,0.09106
321.50691,0.08178
320.01712,0.07253
318.52733,0.07988
317.03754,0.11345
315.54776,0.08351
314.05797,0.05360
312.56818,0.06355
311.07839,0.06267
309.58860,0.06181
308.09881,0.06097
306.60902,0.05681
305.11924,0.04042
303.62945,0.03464
302.13966,0.02889
300.64987,0.04210
299.16008,0.00436
