1778.52000,0.01574
1777.03021,0.02261
1775.54042,0.02254
1774.05063,0.01702
1772.56085,0.02123
1771.07106,0.01850
1769.58127,0.01952
1768.09148,0.00813
1766.60169,0.01368
1765.11190,0.00508
1763.62212,0.00745
1762.13233,0.02054
1760.64254,0.02097
1759.15275,0.00401
1757.66296,0.01619
1756.17317,0.01495
1754.68339,0.01150
1753.19360,0.00161
1751.70381,0.00965
1750.21402,0.00404
1748.72423,0.01388
1747.23444,0.00359
1745.74465,0.01796
1744.25487,0.00299
1742.76508,0.00789
1741.27529,0.00460
1739.78550,0.01249
1738.29571,0.02538
1736.80592,0.00868
1735.31614,0.01540
1733.82635,0.00000
1732.33656,0.01175
1730.84677,0.00336
1729.35698,0.00968
1727.86719,0.00359
1726.37740,0.01220
1724.88762,0.01711
1723.39783,0.00363
1721.90804,0.01132
1720.41825,0.00286
1718.92846,0.00264
1717.43867,0.00693
1715.94889,0.01423
1714.45910,0.01956
1712.96931,0.00401
1711.47952,0.01828
1709.98973,0.02586
1708.49994,0.01753
1707.01016,0.02068
1705.52037,0.02386
1704.03058,0.01088
1702.54079,0.01983
1701.05100,0.02084
1699.56121,0.02113
1698.07142,0.02965
1696.58164,0.02800
1695.09185,0.03508
1693.60206,0.04045
1692.11227,0.04260
1690.62248,0.03682
1689.13269,0.04650
1687.64291,0.04500
1686.15312,0.05397
1684.66333,0.05402
1683.17354,0.05583
1681.68375,0.05617
1680.19396,0.05828
1678.70417,0.05445
1677.21439,0.06979
1675.72460,0.06476
1674.23481,0.07817
1672.74502,0.08414
1671.25523,0.07347
1669.76544,0.07725
1668.27566,0.09772
1666.78587,0.09061
1665.29608,0.08252
1663.80629,0.10879
1662.31650,0.10971
1660.82671,0.11514
1659.33693,0.11362
1657.84714,0.12880
1656.35735,0.12112
1654.86756,0.12217
1653.37777,0.12473
1651.88798,0.09572
1650.39819,0.10083
1648.90841,0.10795
1647.41862,0.10639
1645.92883,0.10261
1644.43904,0.09886
1642.94925,0.09737
1641.45946,0.09044
1639.96968,0.08850
1638.47989,0.08834
1636.99010,0.09093
1635.50031,0.09405
1634.01052,0.09645
1632.52073,0.10683
1631.03094,0.09734
1629.54116,0.10056
1628.05137,0.11152
1626.56158,0.13121
1625.07179,0.12555
1623.58200,0.12737
1622.09221,0.11728
1620.60243,0.11294
1619.11264,0.11684
1617.62285,0.11454
1616.13306,0.09534
1614.64327,0.08687
1613.15348,0.10057
1611.66370,0.10111
1610.17391,0.09545
1608.68412,0.09505
1607.19433,0.10238
1605.70454,0.11371
1604.21475,0.11027
1602.72496,0.10686
1601.23518,0.11081
1599.74539,0.09164
1598.25560,0.08942
1596.76581,0.09220
1595.27602,0.12163
1593.78623,0.09038
1592.29645,0.08627
1590.80666,0.08492
1589.31687,0.09206
1587.82708,0.08056
1586.33729,0.08277
1584.84750,0.07929
1583.35771,0.08603
1581.86793,0.07911
1580.37814,0.09536
1578.88835,0.09521
1577.39856,0.06796
1575.90877,0.06338
1574.41898,0.07003
1572.92920,0.06326
1571.43941,0.07095
1569.94962,0.06386
1568.45983,0.05680
1566.97004,0.04765
1565.48025,0.01886
1563.99047,0.03614
1562.50068,0.03004
1561.01089,0.03517
1559.52110,0.03486
1558.03131,0.03755
1556.54152,0.03007
1555.05173,0.02360
1553.56195,0.03209
1552.07216,0.02444
1550.58237,0.02104
1549.09258,0.01716
1547.60279,0.00884
1546.11300,0.00477
1544.62322,0.00122
1543.13343,0.01108
1541.64364,0.01102
1540.15385,0.00751
1538.66406,0.00401
1537.17427,0.01519
1535.68448,0.00699
1534.19470,0.01424
1532.70491,0.03048
1531.21512,0.01787
1529.72533,0.02520
1528.23554,0.01041
1526.74575,0.02873
1525.25597,0.01971
1523.76618,0.02689
1522.27639,0.03335
1520.78660,0.01396
1519.29681,0.04261
1517.80702,0.01630
1516.31724,0.02211
1514.82745,0.02198
1513.33766,0.03145
1511.84787,0.04094
1510.35808,0.03268
1508.86829,0.04210
1507.37850,0.04159
1505.88872,0.04186
1504.39893,0.04514
1502.90914,0.03152
1501.41935,0.05078
1499.92956,0.04940
1498.43977,0.05776
1496.94999,0.06290
1495.46020,0.06783
1493.97041,0.08671
1492.48062,0.10263
1490.99083,0.10987
1489.50104,0.12186
1488.01125,0.13138
1486.52147,0.14094
1485.03168,0.15226
1483.54189,0.17853
1482.05210,0.20110
1480.56231,0.22742
1479.07252,0.23586
1477.58274,0.26198
1476.09295,0.29062
1474.60316,0.28147
1473.11337,0.27881
1471.62358,0.30355
1470.13379,0.29521
1468.64401,0.30308
1467.15422,0.32142
1465.66443,0.33693
1464.17464,0.35246
1462.68485,0.39178
1461.19506,0.41768
1459.70527,0.46377
1458.21549,0.54198
1456.72570,0.58861
1455.23591,0.66089
1453.74612,0.70260
1452.25633,0.76101
1450.76654,0.79331
1449.27676,0.79230
1447.78697,0.77241
1446.29718,0.74781
1444.80739,0.72249
1443.31760,0.69720
1441.82781,0.66024
1440.33802,0.60837
1438.84824,0.56201
1437.35845,0.51219
1435.86866,0.47856
1434.37887,0.52209
1432.88908,0.56440
1431.39929,0.61794
1429.90951,0.69389
1428.41972,0.75170
1426.92993,0.80357
1425.44014,0.85795
1423.95035,0.88498
1422.46056,0.91205
1420.97078,0.95008
1419.48099,0.98118
1417.99120,0.97099
1416.50141,0.97527
1415.01162,0.92931
1413.52183,0.88487
1412.03204,0.83497
1410.54226,0.78387
1409.05247,0.70118
1407.56268,0.60260
1406.07289,0.55505
1404.58310,0.51313
1403.09331,0.47123
1401.60353,0.42898
1400.11374,0.40840
1398.62395,0.35799
1397.13416,0.31009
1395.64437,0.26247
1394.15458,0.21736
1392.66479,0.17552
1391.17501,0.16728
1389.68522,0.13767
1388.19543,0.10984
1386.70564,0.08662
1385.21585,0.06344
1383.72606,0.04015
1382.23628,0.02759
1380.74649,0.03397
1379.25670,0.03066
1377.76691,0.02987
1376.27712,0.01666
1374.78733,0.00771
1373.29755,0.00401
1371.80776,0.02680
1370.31797,0.01677
1368.82818,0.01298
1367.33839,0.00922
1365.84860,0.01295
1364.35881,0.02143
1362.86903,0.04859
1361.37924,0.04667
1359.88945,0.07638
1358.39966,0.09864
1356.90987,0.14432
1355.42008,0.19724
1353.93030,0.22854
1352.44051,0.26086
1350.95072,0.29321
1349.46093,0.38455
1347.97114,0.48437
1346.48135,0.57625
1344.99156,0.62910
1343.50178,0.71233
1342.01199,0.75503
1340.52220,0.78233
1339.03241,0.82930
1337.54262,0.88750
1336.05283,0.91488
1334.56305,0.94227
1333.07326,0.97890
1331.58347,0.96704
1330.09368,0.95247
1328.60389,0.93991
1327.11410,0.92713
1325.62432,0.92557
1324.13453,0.89741
1322.64474,0.86679
1321.15495,0.80883
1319.66516,0.79132
1318.17537,0.77384
1316.68558,0.69754
1315.19580,0.65361
1313.70601,0.58110
1312.21622,0.54792
1310.72643,0.51700
1309.23664,0.47591
1307.74685,0.46171
1306.25707,0.41545
1304.76728,0.39683
1303.27749,0.37823
1301.78770,0.35618
1300.29791,0.31051
1298.80812,0.26338
1297.31834,0.21104
1295.82855,0.18386
1294.33876,0.16716
1292.84897,0.13331
1291.35918,0.11368
1289.86939,0.11048
1288.37960,0.10732
1286.88982,0.10169
1285.40003,0.09957
1283.91024,0.09249
1282.42045,0.06903
1280.93066,0.07096
1279.44087,0.07392
1277.95109,0.07168
1276.46130,0.05005
1274.97151,0.05383
1273.48172,0.05763
1271.99193,0.03385
1270.50214,0.02974
1269.01235,0.03611
1267.52257,0.04101
1266.03278,0.03424
1264.54299,0.03173
1263.05320,0.02377
1261.56341,0.02168
1260.07362,0.01961
1258.58384,0.03586
1257.09405,0.03422
1255.60426,0.02639
1254.11447,0.02629
1252.62468,0.04090
1251.13489,0.01398
1249.64511,0.02018
1248.15532,0.00401
1246.66553,0.00762
1245.17574,0.01125
1243.68595,0.03307
1242.19616,0.05466
1240.70637,0.04021
1239.21659,0.02827
1237.72680,0.01386
1236.23701,0.02063
1234.74722,0.01921
1233.25743,0.01894
1231.76764,0.01869
1230.27786,0.01362
1228.78807,0.01255
1227.29828,0.02022
1225.80849,0.03239
1224.31870,0.01846
1222.82891,0.01426
1221.33912,0.02775
1219.84934,0.03293
1218.35955,0.03814
1216.86976,0.04822
1215.37997,0.04291
1213.89018,0.09459
1212.40039,0.09355
1210.91061,0.08358
1209.42082,0.07538
1207.93103,0.07629
1206.44124,0.07722
1204.95145,0.08153
1203.46166,0.08040
1201.97188,0.07207
1200.48209,0.08393
1198.99230,0.06919
1197.50251,0.04452
1196.01272,0.04152
1194.52293,0.03854
1193.03314,0.03560
1191.54336,0.03218
1190.05357,0.02306
1188.56378,0.05179
1187.07399,0.01884
1185.58420,0.02398
1184.09441,0.00401
1182.60463,0.00419
1181.11484,0.00432
1179.62505,0.01688
1178.13526,0.02822
1176.64547,0.04482
1175.15568,0.02934
1173.66589,0.04126
1172.17611,0.01688
1170.68632,0.01043
1169.19653,0.00401
1167.70674,0.01524
1166.21695,0.02351
1164.72716,0.04872
1163.23738,0.04658
1161.74759,0.04448
1160.25780,0.05334
1158.76801,0.05303
1157.27822,0.05274
1155.78843,0.07885
1154.29865,0.07811
1152.80886,0.09929
1151.31907,0.10408
1149.82928,0.10591
1148.33949,0.12567
1146.84970,0.13116
1145.35991,0.13667
1143.87013,0.12342
1142.38034,0.12886
1140.89055,0.13382
1139.40076,0.15872
1137.91097,0.18811
1136.42118,0.21206
1134.93140,0.21153
1133.44161,0.21103
1131.95182,0.22585
1130.46203,0.23348
1128.97224,0.26228
1127.48245,0.27618
1125.99266,0.25328
1124.50288,0.26076
1123.01309,0.26591
1121.52330,0.27108
1120.03351,0.23186
1118.54372,0.21282
1117.05393,0.24481
1115.56415,0.25220
1114.07436,0.26085
1112.58457,0.24478
1111.09478,0.22873
1109.60499,0.23124
1108.11520,0.22656
1106.62542,0.21991
1105.13563,0.19687
1103.64584,0.20769
1102.15605,0.23347
1100.66626,0.21759
1099.17647,0.20175
1097.68668,0.20744
1096.19690,0.21615
1094.70711,0.22389
1093.21732,0.20354
1091.72753,0.20188
1090.23774,0.19825
1088.74795,0.19464
1087.25817,0.19654
1085.76838,0.17482
1084.27859,0.18722
1082.78880,0.18521
1081.29901,0.18745
1079.80922,0.19893
1078.31943,0.20396
1076.82965,0.20902
1075.33986,0.20664
1073.85007,0.23364
1072.36028,0.24450
1070.87049,0.25563
1069.38070,0.26803
1067.89092,0.27635
1066.40113,0.28469
1064.91134,0.34170
1063.42155,0.47114
1061.93176,0.57473
1060.44197,0.65272
1058.95219,0.75785
1057.46240,0.82096
1055.97261,0.88410
1054.48282,0.95696
1052.99303,1.01069
1051.50324,1.01444
1050.01345,1.01025
1048.52367,1.04614
1047.03388,1.02583
1045.54409,1.00554
1044.05430,0.95169
1042.56451,0.84711
1041.07472,0.75897
1039.58494,0.69674
1038.09515,0.62308
1036.60536,0.59424
1035.11557,0.56542
1033.62578,0.48662
1032.13599,0.42800
1030.64620,0.37835
1029.15642,0.30983
1027.66663,0.27940
1026.17684,0.24899
1024.68705,0.23776
1023.19726,0.19820
1021.70747,0.16886
1020.21769,0.14503
1018.72790,0.14186
1017.23811,0.13214
1015.74832,0.12243
1014.25853,0.09521
1012.76874,0.12922
1011.27896,0.15182
1009.78917,0.12840
1008.29938,0.10402
1006.80959,0.09285
1005.31980,0.08171
1003.83001,0.03277
1002.34022,0.00401
1000.85044,0.03520
999.36065,0.05695
997.87086,0.06529
996.38107,0.07366
994.89128,0.08977
993.40149,0.07355
991.91171,0.11484
990.42192,0.14695
988.93213,0.13927
987.44234,0.14617
985.95255,0.15310
984.46276,0.15794
982.97297,0.14339
981.48319,0.13062
979.99340,0.10791
978.50361,0.09494
977.01382,0.08199
975.52403,0.07877
974.03424,0.03801
972.54446,0.03658
971.05467,0.02522
969.56488,0.03031
968.07509,0.01764
966.58530,0.00499
965.09551,0.01292
963.60573,0.01888
962.11594,0.01814
960.62615,0.02191
959.13636,0.01936
957.64657,0.01684
956.15678,0.00401
954.66699,0.01993
953.17721,0.04458
951.68742,0.04114
950.19763,0.05453
948.70784,0.06793
947.21805,0.09841
945.72826,0.09184
944.23848,0.08355
942.74869,0.11733
941.25890,0.14343
939.76911,0.14218
938.27932,0.14096
936.78953,0.17336
935.29974,0.18139
933.80996,0.20787
932.32017,0.25651
930.83038,0.25069
929.34059,0.24489
927.85080,0.26724
926.36101,0.27841
924.87123,0.30404
923.38144,0.37498
921.89165,0.39942
920.40186,0.42388
918.91207,0.52923
917.42228,0.70178
915.93250,0.85918
914.44271,1.06338
912.95292,1.16000
911.46313,1.25664
909.97334,1.48754
908.48355,1.75280
906.99376,1.91931
905.50398,1.98508
904.01419,1.99253
902.52440,2.00000
901.03461,1.99269
899.54482,1.93217
898.05503,1.82440
896.56525,1.63952
895.07546,1.52645
893.58567,1.41340
892.09588,1.06240
890.60609,0.88533
889.11630,0.68690
887.62651,0.51561
886.13673,0.45792
884.64694,0.40027
883.15715,0.28329
881.66736,0.20491
880.17757,0.18278
878.68778,0.17050
877.19800,0.15825
875.70821,0.10187
874.21842,0.07063
872.72863,0.05833
871.23884,0.04731
869.74905,0.04949
868.25927,0.05170
866.76948,0.04273
865.27969,0.05320
863.78990,0.05101
862.30011,0.07795
860.81032,0.08788
859.32053,0.09782
857.83075,0.10867
856.34096,0.12924
854.85117,0.15432
853.36138,0.17544
851.87159,0.16785
850.38180,0.16029
848.89202,0.17825
847.40223,0.21565
845.91244,0.24436
844.42265,0.25307
842.93286,0.26180
841.44307,0.29582
839.95329,0.31742
838.46350,0.31192
836.97371,0.31964
835.48392,0.30996
833.99413,0.30031
832.50434,0.31084
831.01455,0.29079
829.52477,0.27798
828.03498,0.25052
826.54519,0.23055
825.05540,0.21060
823.56561,0.18495
822.07582,0.16008
820.58604,0.15986
819.09625,0.17385
817.60646,0.18787
816.11667,0.15986
814.62688,0.16522
813.13709,0.14995
811.64730,0.13845
810.15752,0.14089
808.66773,0.14337
807.17794,0.17821
805.68815,0.19343
804.19836,0.18428
802.70857,0.18897
801.21879,0.19369
799.72900,0.17243
798.23921,0.15493
796.74942,0.13496
795.25963,0.13928
793.76984,0.14363
792.28006,0.17673
790.79027,0.20738
789.30048,0.22611
787.81069,0.24909
786.32090,0.25381
784.83111,0.25855
783.34132,0.28957
781.85154,0.34201
780.36175,0.38652
778.87196,0.41339
777.38217,0.44028
775.89238,0.47341
774.40259,0.46751
772.91281,0.47532
771.42302,0.46462
769.93323,0.45394
768.44344,0.37499
766.95365,0.30354
765.46386,0.27241
763.97407,0.24131
762.48429,0.21919
760.99450,0.19709
759.50471,0.14691
758.01492,0.15472
756.52513,0.13444
755.03534,0.13111
753.54556,0.12781
752.05577,0.11581
750.56598,0.10037
749.07619,0.07026
747.58640,0.07241
746.09661,0.07458
744.60683,0.05276
743.11704,0.06257
741.62725,0.03060
740.13746,0.02740
738.64767,0.02422
737.15788,0.04358
735.66809,0.03934
734.17831,0.00401
732.68852,0.00836
731.19873,0.01272
729.70894,0.02259
728.21915,0.02601
726.72936,0.03692
725.23958,0.03567
723.74979,0.02760
722.26000,0.01955
720.77021,0.01738
719.28042,0.00677
717.79063,0.00516
716.30084,0.00458
714.81106,0.00401
713.32127,0.02526
711.83148,0.03906
710.34169,0.04617
708.85190,0.03440
707.36211,0.02265
705.87233,0.03830
704.38254,0.06418
702.89275,0.05375
701.40296,0.06002
699.91317,0.06631
698.42338,0.06964
696.93360,0.07226
695.44381,0.10251
693.95402,0.10119
692.46423,0.09990
690.97444,0.12202
689.48465,0.15959
687.99486,0.16982
686.50508,0.17572
685.01529,0.18165
683.52550,0.21011
682.03571,0.25030
680.54592,0.27335
679.05613,0.26942
677.56635,0.26552
676.07656,0.25978
674.58677,0.23664
673.09698,0.22598
671.60719,0.20588
670.11740,0.18581
668.62761,0.16253
667.13783,0.17660
665.64804,0.14988
664.15825,0.12320
662.66846,0.12166
661.17867,0.09478
659.68888,0.09106
658.19910,0.07778
656.70931,0.06453
655.21952,0.03725
653.72973,0.08090
652.23994,0.05442
650.75015,0.04599
649.26037,0.03760
647.77058,0.04329
646.28079,0.05497
644.79100,0.03010
643.30121,0.03810
641.81142,0.04613
640.32163,0.05916
638.83185,0.05181
637.34206,0.03429
635.85227,0.02985
634.36248,0.02544
632.87269,0.00401
631.38290,0.01944
629.89312,0.03689
628.40333,0.03806
626.91354,0.03926
625.42375,0.00926
623.93396,0.00566
622.44417,0.00694
620.95438,0.00824
619.46460,0.00944
617.97481,0.02510
616.48502,0.05273
614.99523,0.07105
613.50544,0.08939
612.01565,0.09470
610.52587,0.13786
609.03608,0.15715
607.54629,0.18045
606.05650,0.20377
604.56671,0.26992
603.07692,0.33012
601.58714,0.34593
600.09735,0.36177
598.60756,0.41084
597.11777,0.42835
595.62798,0.42299
594.13819,0.41554
592.64840,0.40812
591.15862,0.36079
589.66883,0.32915
588.17904,0.26868
586.68925,0.22329
585.19946,0.17793
583.70967,0.14739
582.21989,0.11788
580.73010,0.09797
579.24031,0.07808
577.75052,0.04939
576.26073,0.04934
574.77094,0.07344
573.28115,0.06436
571.79137,0.05530
570.30158,0.06654
568.81179,0.06387
567.32200,0.07156
565.83221,0.07927
564.34242,0.10505
562.85264,0.12960
561.36285,0.14274
559.87306,0.14533
558.38327,0.14794
556.89348,0.17309
555.40369,0.20549
553.91391,0.21539
552.42412,0.22532
550.93433,0.21326
549.44454,0.20246
547.95475,0.23747
546.46496,0.24228
544.97517,0.24711
543.48539,0.26030
541.99560,0.30537
540.50581,0.31015
539.01602,0.31496
537.52623,0.34318
536.03644,0.39680
534.54666,0.42681
533.05687,0.45113
531.56708,0.47547
530.07729,0.52547
528.58750,0.55782
527.09771,0.57801
525.60792,0.59822
524.11814,0.71325
522.62835,0.72456
521.13856,0.79983
519.64877,0.81219
518.15898,0.82456
516.66919,0.86011
515.17941,0.87477
513.68962,0.87516
512.19983,0.87557
510.71004,0.81045
509.22025,0.75431
507.73046,0.72431
506.24068,0.68154
504.75089,0.63878
503.26110,0.55363
501.77131,0.39934
500.28152,0.35641
498.79173,0.31351
497.30194,0.21005
495.81216,0.18673
494.32237,0.16667
492.83258,0.14663
491.34279,0.13981
489.85300,0.10117
488.36321,0.08693
486.87343,0.08976
485.38364,0.09262
483.89385,0.08667
482.40406,0.08522
480.91427,0.09711
479.42448,0.10903
477.93469,0.13951
476.44491,0.16827
474.95512,0.19121
473.46533,0.21417
471.97554,0.23629
470.48575,0.24425
468.99596,0.22860
467.50618,0.21771
466.01639,0.20684
464.52660,0.15394
463.03681,0.14262
461.54702,0.09662
460.05723,0.05065
458.56745,0.02945
457.07766,0.03889
455.58787,0.02869
454.09808,0.01852
452.60829,0.01186
451.11850,0.01094
449.62871,0.02113
448.13893,0.03133
446.64914,0.03099
445.15935,0.00779
443.66956,0.00401
442.17977,0.01222
440.68998,0.02045
439.20020,0.02808
437.71041,0.04694
436.22062,0.04815
434.73083,0.04939
433.24104,0.03622
431.75125,0.04622
430.26146,0.05898
428.77168,0.07177
427.28189,0.06443
425.79210,0.03795
424.30231,0.04236
422.81252,0.04679
421.32273,0.04875
419.83295,0.05149
418.34316,0.04069
416.85337,0.02992
415.36358,0.05488
413.87379,0.03731
412.38400,0.02935
410.89422,0.02142
409.40443,0.00592
407.91464,0.03573
406.42485,0.02277
404.93506,0.02788
403.44527,0.03301
401.95548,0.03406
400.46570,0.03140
398.97591,0.03313
397.48612,0.03487
395.99633,0.01786
394.50654,0.01232
393.01675,0.02509
391.52697,0.03789
390.03718,0.03964
388.54739,0.02923
387.05760,0.02157
385.56781,0.01394
384.07802,0.01445
382.58824,0.02866
381.09845,0.02213
379.60866,0.01562
378.11887,0.03488
376.62908,0.00964
375.13929,0.00681
373.64950,0.00401
372.15972,0.01977
370.66993,0.05870
369.18014,0.05858
367.69035,0.05850
366.20056,0.02484
364.71077,0.01709
363.22099,0.03599
361.73120,0.05491
360.24141,0.05371
358.75162,0.07691
357.26183,0.06058
355.77204,0.04427
354.28225,0.02650
352.79247,0.06647
351.30268,0.07114
349.81289,0.07583
348.32310,0.07806
346.83331,0.08306
345.34352,0.07315
343.85374,0.06326
342.36395,0.03823
340.87416,0.06298
339.38437,0.06138
337.89458,0.05981
336.40479,0.03214
334.91501,0.05077
333.42522,0.03832
331.93543,0.02591
330.44564,0.04710
328.95585,0.03249
327.46606,0.02513
325.97627,0.01779
324.48649,0.03854
322.99670,0.04812
321.50691,0.05698
320.01712,0.06587
318.52733,0.09891
317.03754,0.11680
315.54776,0.10549
314.05797,0.09420
312.56818,0.09102
311.07839,0.08637
309.58860,0.07565
308.09881,0.06496
306.60902,0.02929
305.11924,0.02648
303.62945,0.02097
302.13966,0.00401
300.64987,0.00960
299.16008,0.00401
