1778.52000,0.01728
1777.03021,0.01988
1775.54042,0.02117
1774.05063,0.02148
1772.56085,0.01980
1771.07106,0.02786
1769.58127,0.02958
1768.09148,0.01592
1766.60169,0.01033
1765.11190,0.00341
1763.62212,0.00657
1762.13233,0.01844
1760.64254,0.01662
1759.15275,0.02889
1757.66296,0.01707
1756.17317,0.00059
1754.68339,0.01092
1753.19360,0.00855
1751.70381,0.01490
1750.21402,0.00756
1748.72423,0.00626
1747.23444,0.00365
1745.74465,0.02215
1744.25487,0.00720
1742.76508,0.01538
1741.27529,0.02056
1739.78550,0.01505
1738.29571,0.01727
1736.80592,0.01717
1735.31614,0.01073
1733.82635,0.01168
1732.33656,0.00329
1730.84677,0.00562
1729.35698,0.01200
1727.86719,0.02175
1726.37740,0.01043
1724.88762,0.01454
1723.39783,0.01766
1721.90804,0.01378
1720.41825,0.00892
1718.92846,0.00341
1717.43867,0.01425
1715.94889,0.01808
1714.45910,0.00587
1712.96931,0.01146
1711.47952,0.02845
1709.98973,0.01534
1708.49994,0.01397
1707.01016,0.00962
1705.52037,0.00528
1704.03058,0.00332
1702.54079,0.00539
1701.05100,0.01117
1699.56121,0.01094
1698.07142,0.01476
1696.58164,0.01726
1695.09185,0.01176
1693.60206,0.01565
1692.11227,0.01554
1690.62248,0.00341
1689.13269,0.02235
1687.64291,0.02223
1686.15312,0.02481
1684.66333,0.02206
1683.17354,0.01566
1681.68375,0.01028
1680.19396,0.00425
1678.70417,0.02202
1677.21439,0.01705
1675.72460,0.02247
1674.23481,0.01654
1672.74502,0.02938
1671.25523,0.03019
1669.76544,0.03270
1668.27566,0.04260
1666.78587,0.04181
1665.29608,0.04138
1663.80629,0.04599
1662.31650,0.06502
1660.82671,0.05529
1659.33693,0.08240
1657.84714,0.07941
1656.35735,0.04832
1654.86756,0.04772
1653.37777,0.05518
1651.88798,0.06467
1650.39819,0.07117
1648.90841,0.06799
1647.41862,0.06483
1645.92883,0.06839
1644.43904,0.07197
1642.94925,0.09198
1641.45946,0.06448
1639.96968,0.06914
1638.47989,0.07382
1636.99010,0.08689
1635.50031,0.06920
1634.01052,0.07328
1632.52073,0.09881
1631.03094,0.07616
1629.54116,0.09203
1628.05137,0.09755
1626.56158,0.10108
1625.07179,0.08757
1623.58200,0.08847
1622.09221,0.07836
1620.60243,0.08500
1619.11264,0.10706
1617.62285,0.07927
1616.13306,0.07929
1614.64327,0.06761
1613.15348,0.08609
1611.66370,0.10291
1610.17391,0.10637
1608.68412,0.08977
1607.19433,0.09931
1605.70454,0.09146
1604.21475,0.09150
1602.72496,0.09156
1601.23518,0.10119
1599.74539,0.08172
1598.25560,0.09976
1596.76581,0.08603
1595.27602,0.08471
1593.78623,0.08943
1592.29645,0.07611
1590.80666,0.07586
1589.31687,0.08936
1587.82708,0.07778
1586.33729,0.08195
1584.84750,0.07611
1583.35771,0.09974
1581.86793,0.08859
1580.37814,0.09654
1578.88835,0.07607
1577.39856,0.07804
1575.90877,0.07736
1574.41898,0.06466
1572.92920,0.04796
1571.43941,0.05873
1569.94962,0.05631
1568.45983,0.05390
1566.97004,0.04902
1565.48025,0.04014
1563.99047,0.03429
1562.50068,0.01508
1561.01089,0.03673
1559.52110,0.04334
1558.03131,0.02621
1556.54152,0.00341
1555.05173,0.02008
1553.56195,0.01568
1552.07216,0.00896
1550.58237,0.02001
1549.09258,0.02606
1547.60279,0.00000
1546.11300,0.00064
1544.62322,0.00423
1543.13343,0.01455
1541.64364,0.00548
1540.15385,0.00797
1538.66406,0.01050
1537.17427,0.00819
1535.68448,0.01193
1534.19470,0.00532
1532.70491,0.00341
1531.21512,0.01153
1529.72533,0.03272
1528.23554,0.00741
1526.74575,0.03869
1525.25597,0.03251
1523.76618,0.02601
1522.27639,0.02490
1520.78660,0.03385
1519.29681,0.03947
1517.80702,0.02069
1516.31724,0.04009
1514.82745,0.04411
1513.33766,0.04498
1511.84787,0.04587
1510.35808,0.06637
1508.86829,0.04070
1507.37850,0.04183
1505.88872,0.03863
1504.39893,0.06023
1502.90914,0.06009
1501.41935,0.06433
1499.92956,0.07796
1498.43977,0.07991
1496.94999,0.08957
1495.46020,0.08621
1493.97041,0.08922
1492.48062,0.10900
1490.99083,0.10805
1489.50104,0.11683
1488.01125,0.11860
1486.52147,0.12040
1485.03168,0.14297
1483.54189,0.16156
1482.05210,0.15506
1480.56231,0.18774
1479.07252,0.20171
1477.58274,0.22206
1476.09295,0.21766
1474.60316,0.21363
1473.11337,0.23170
1471.62358,0.22470
1470.13379,0.23178
1468.64401,0.23454
1467.15422,0.21288
1465.66443,0.24363
1464.17464,0.27440
1462.68485,0.30770
1461.19506,0.34873
1459.70527,0.39782
1458.21549,0.44759
1456.72570,0.49204
1455.23591,0.55961
1453.74612,0.59071
1452.25633,0.63824
1450.76654,0.68613
1449.27676,0.71530
1447.78697,0.71805
1446.29718,0.65656
1444.80739,0.64764
1443.31760,0.63875
1441.82781,0.61984
1440.33802,0.57752
1438.84824,0.51347
1437.35845,0.47355
1435.86866,0.45908
1434.37887,0.48146
1432.88908,0.53900
1431.39929,0.60795
1429.90951,0.65316
1428.41972,0.75831
1426.92993,0.82532
1425.44014,0.86625
1423.95035,0.86386
1422.46056,0.86149
1420.97078,0.93161
1419.48099,0.98234
1417.99120,0.97452
1416.50141,1.00287
1415.01162,0.95025
1413.52183,0.88493
1412.03204,0.80524
1410.54226,0.74934
1409.05247,0.70686
1407.56268,0.61720
1406.07289,0.56840
1404.58310,0.55243
1403.09331,0.53648
1401.60353,0.45997
1400.11374,0.42197
1398.62395,0.36660
1397.13416,0.32029
1395.64437,0.26396
1394.15458,0.23610
1392.66479,0.21329
1391.17501,0.17945
1389.68522,0.14899
1388.19543,0.11554
1386.70564,0.09684
1385.21585,0.07816
1383.72606,0.06821
1382.23628,0.06698
1380.74649,0.04302
1379.25670,0.05088
1377.76691,0.04739
1376.27712,0.00341
1374.78733,0.01910
1373.29755,0.01172
1371.80776,0.02746
1370.31797,0.01277
1368.82818,0.01199
1367.33839,0.01123
1365.84860,0.00598
1364.35881,0.01597
1362.86903,0.03502
1361.37924,0.05511
1359.88945,0.07722
1358.39966,0.07761
1356.90987,0.14730
1355.42008,0.16446
1353.93030,0.24759
1352.44051,0.26547
1350.95072,0.28338
1349.46093,0.38766
1347.97114,0.45315
1346.48135,0.53338
1344.99156,0.63104
1343.50178,0.65609
1342.01199,0.71598
1340.52220,0.75146
1339.03241,0.79801
1337.54262,0.86667
1336.05283,0.89954
1334.56305,0.93243
1333.07326,0.94694
1331.58347,0.88449
1330.09368,0.88734
1328.60389,0.88250
1327.11410,0.89108
1325.62432,0.87258
1324.13453,0.82464
1322.64474,0.81722
1321.15495,0.77134
1319.66516,0.73385
1318.17537,0.69638
1316.68558,0.63350
1315.19580,0.59173
1313.70601,0.53158
1312.21622,0.48483
1310.72643,0.46221
1309.23664,0.45200
1307.74685,0.40901
1306.25707,0.39416
1304.76728,0.36845
1303.27749,0.34277
1301.78770,0.29719
1300.29791,0.27240
1298.80812,0.22252
1297.31834,0.17702
1295.82855,0.15832
1294.33876,0.12926
1292.84897,0.10057
1291.35918,0.09733
1289.86939,0.09178
1288.37960,0.08625
1286.88982,0.07505
1285.40003,0.07125
1283.91024,0.07282
1282.42045,0.06370
1280.93066,0.04892
1279.44087,0.04320
1277.95109,0.05022
1276.46130,0.03885
1274.97151,0.03437
1273.48172,0.02992
1271.99193,0.02498
1270.50214,0.03079
1269.01235,0.02121
1267.52257,0.02606
1266.03278,0.02791
1264.54299,0.02277
1263.05320,0.01161
1261.56341,0.00752
1260.07362,0.00344
1258.58384,0.01713
1257.09405,0.00675
1255.60426,0.00341
1254.11447,0.01695
1252.62468,0.00775
1251.13489,0.00962
1249.64511,0.00716
1248.15532,0.01243
1246.66553,0.01721
1245.17574,0.02202
1243.68595,0.01531
1242.19616,0.01196
1240.70637,0.01567
1239.21659,0.02208
1237.72680,0.00341
1236.23701,0.02515
1234.74722,0.01177
1233.25743,0.01498
1231.76764,0.01822
1230.27786,0.01729
1228.78807,0.02543
1227.29828,0.01015
1225.80849,0.02202
1224.31870,0.02286
1222.82891,0.02139
1221.33912,0.02462
1219.84934,0.02704
1218.35955,0.02948
1216.86976,0.02710
1215.37997,0.02273
1213.89018,0.04081
1212.40039,0.05121
1210.91061,0.05528
1209.42082,0.04598
1207.93103,0.04290
1206.44124,0.03985
1204.95145,0.05138
1203.46166,0.05958
1201.97188,0.07551
1200.48209,0.06501
1198.99230,0.05722
1197.50251,0.03172
1196.01272,0.04272
1194.52293,0.03266
1193.03314,0.02262
1191.54336,0.01327
1190.05357,0.03843
1188.56378,0.02913
1187.07399,0.01149
1185.58420,0.00893
1184.09441,0.01376
1182.60463,0.00858
1181.11484,0.00341
1179.62505,0.01379
1178.13526,0.01916
1176.64547,0.01485
1175.15568,0.00789
1173.66589,0.01836
1172.17611,0.00341
1170.68632,0.00670
1169.19653,0.01000
1167.70674,0.01015
1166.21695,0.02706
1164.72716,0.02960
1163.23738,0.03819
1161.74759,0.03643
1160.25780,0.02665
1158.76801,0.03448
1157.27822,0.04232
1155.78843,0.07279
1154.29865,0.07817
1152.80886,0.07521
1151.31907,0.10106
1149.82928,0.10451
1148.33949,0.11266
1146.84970,0.11599
1145.35991,0.11934
1143.87013,0.13560
1142.38034,0.13582
1140.89055,0.14577
1139.40076,0.15909
1137.91097,0.14968
1136.42118,0.17877
1134.93140,0.19133
1133.44161,0.20391
1131.95182,0.21634
1130.46203,0.21140
1128.97224,0.26003
1127.48245,0.24442
1125.99266,0.24891
1124.50288,0.26481
1123.01309,0.25764
1121.52330,0.25050
1120.03351,0.24639
1118.54372,0.23996
1117.05393,0.23121
1115.56415,0.24223
1114.07436,0.23018
1112.58457,0.22502
1111.09478,0.21988
1109.60499,0.24338
1108.11520,0.24381
1106.62542,0.23021
1105.13563,0.22466
1103.64584,0.21311
1102.15605,0.23540
1100.66626,0.22306
1099.17647,0.21075
1097.68668,0.18892
1096.19690,0.19088
1094.70711,0.20759
1093.21732,0.18918
1091.72753,0.18016
1090.23774,0.17803
1088.74795,0.17593
1087.25817,0.16698
1085.76838,0.12961
1084.27859,0.16122
1082.78880,0.14264
1081.29901,0.16592
1079.80922,0.15743
1078.31943,0.15918
1076.82965,0.16094
1075.33986,0.18934
1073.85007,0.16555
1072.36028,0.17057
1070.87049,0.17092
1069.38070,0.20645
1067.89092,0.22007
1066.40113,0.23372
1064.91134,0.28538
1063.42155,0.37354
1061.93176,0.44634
1060.44197,0.50778
1058.95219,0.60740
1057.46240,0.63675
1055.97261,0.66613
1054.48282,0.74373
1052.99303,0.79424
1051.50324,0.79758
1050.01345,0.78823
1048.52367,0.82308
1047.03388,0.82431
1045.54409,0.82558
1044.05430,0.77314
1042.56451,0.66450
1041.07472,0.63755
1039.58494,0.60024
1038.09515,0.52983
1036.60536,0.50864
1035.11557,0.48747
1033.62578,0.43521
1032.13599,0.38564
1030.64620,0.33944
1029.15642,0.30097
1027.66663,0.28142
1026.17684,0.26191
1024.68705,0.20443
1023.19726,0.16103
1021.70747,0.15580
1020.21769,0.12383
1018.72790,0.10326
1017.23811,0.10046
1015.74832,0.09767
1014.25853,0.08186
1012.76874,0.07176
1011.27896,0.06571
1009.78917,0.05331
1008.29938,0.04563
1006.80959,0.03362
1005.31980,0.02163
1003.83001,0.00766
1002.34022,0.00341
1000.85044,0.00882
999.36065,0.02965
997.87086,0.03025
996.38107,0.03087
994.89128,0.02834
993.40149,0.04089
991.91171,0.07255
990.42192,0.08950
988.93213,0.10614
987.44234,0.09452
985.95255,0.08293
984.46276,0.09228
982.97297,0.09295
981.48319,0.07791
979.99340,0.05553
978.50361,0.05092
977.01382,0.04633
975.52403,0.02202
974.03424,0.02149
972.54446,0.01095
971.05467,0.00679
969.56488,0.00734
968.07509,0.01494
966.58530,0.02257
965.09551,0.00879
963.60573,0.02785
962.11594,0.00341
960.62615,0.00736
959.13636,0.00814
957.64657,0.00895
956.15678,0.02033
954.66699,0.02738
953.17721,0.02174
951.68742,0.05461
950.19763,0.05821
948.70784,0.06184
947.21805,0.08675
945.72826,0.07688
944.23848,0.08844
942.74869,0.09836
941.25890,0.11600
939.76911,0.13132
938.27932,0.14667
936.78953,0.15333
935.29974,0.18512
933.80996,0.20790
932.32017,0.24276
930.83038,0.24266
929.34059,0.24258
927.85080,0.25106
926.36101,0.27329
924.87123,0.29554
923.38144,0.33054
921.89165,0.35702
920.40186,0.38353
918.91207,0.47717
917.42228,0.62439
915.93250,0.76493
914.44271,0.92358
912.95292,1.03823
911.46313,1.15291
909.97334,1.41471
908.48355,1.66416
906.99376,1.84200
905.50398,1.90640
904.01419,1.91677
902.52440,1.92716
901.03461,2.00000
899.54482,1.97914
898.05503,1.84786
896.56525,1.66606
895.07546,1.52729
893.58567,1.38854
892.09588,1.10640
890.60609,0.92068
889.11630,0.66904
887.62651,0.52453
886.13673,0.45084
884.64694,0.37717
883.15715,0.26219
881.66736,0.17166
880.17757,0.13773
878.68778,0.12290
877.19800,0.10809
875.70821,0.06920
874.21842,0.04741
872.72863,0.04974
871.23884,0.03637
869.74905,0.03205
868.25927,0.02776
866.76948,0.00341
865.27969,0.02728
863.78990,0.01870
862.30011,0.03057
860.81032,0.04296
859.32053,0.05537
857.83075,0.04019
856.34096,0.07357
854.85117,0.09192
853.36138,0.08183
851.87159,0.09671
850.38180,0.11161
848.89202,0.11699
847.40223,0.15855
845.91244,0.18038
844.42265,0.17646
842.93286,0.17257
841.44307,0.17272
839.95329,0.20167
838.46350,0.20187
836.97371,0.20577
835.48392,0.20216
833.99413,0.19858
832.50434,0.20489
831.01455,0.19717
829.52477,0.17977
828.03498,0.15369
826.54519,0.14554
825.05540,0.13741
823.56561,0.13316
822.07582,0.14265
820.58604,0.10230
819.09625,0.10531
817.60646,0.10835
816.11667,0.11560
814.62688,0.10345
813.13709,0.09903
811.64730,0.09262
810.15752,0.09461
808.66773,0.09662
807.17794,0.13179
805.68815,0.12413
804.19836,0.12421
802.70857,0.13100
801.21879,0.13781
799.72900,0.12624
798.23921,0.10298
796.74942,0.09245
795.25963,0.09987
793.76984,0.10730
792.28006,0.12128
790.79027,0.14634
789.30048,0.15234
787.81069,0.16874
786.32090,0.15955
784.83111,0.15040
783.34132,0.18896
781.85154,0.24327
780.36175,0.26013
778.87196,0.28654
777.38217,0.31298
775.89238,0.31585
774.40259,0.33012
772.91281,0.32466
771.42302,0.31455
769.93323,0.30445
768.44344,0.25054
766.95365,0.22476
765.46386,0.19064
763.97407,0.16190
762.48429,0.14105
760.99450,0.12022
759.50471,0.12402
758.01492,0.10575
756.52513,0.06976
755.03534,0.07748
753.54556,0.08522
752.05577,0.05566
750.56598,0.08036
749.07619,0.04650
747.58640,0.03191
746.09661,0.01734
744.60683,0.01836
743.11704,0.03481
741.62725,0.02081
740.13746,0.01923
738.64767,0.01767
737.15788,0.00341
735.66809,0.02032
734.17831,0.01951
732.68852,0.01789
731.19873,0.01629
729.70894,0.02726
728.21915,0.01617
726.72936,0.01414
725.23958,0.00845
723.74979,0.01205
722.26000,0.01567
720.77021,0.01714
719.28042,0.02365
717.79063,0.00341
716.30084,0.01720
714.81106,0.03102
713.32127,0.04252
711.83148,0.04366
710.34169,0.05119
708.85190,0.03799
707.36211,0.02481
705.87233,0.05651
704.38254,0.06580
702.89275,0.05136
701.40296,0.05167
699.91317,0.05200
698.42338,0.06306
696.93360,0.07950
695.44381,0.10735
693.95402,0.11849
692.46423,0.12965
690.97444,0.13447
689.48465,0.16576
687.99486,0.19942
686.50508,0.21034
685.01529,0.22128
683.52550,0.25434
682.03571,0.26232
680.54592,0.28304
679.05613,0.29726
677.56635,0.31150
676.07656,0.26903
674.58677,0.24500
673.09698,0.22266
671.60719,0.21859
670.11740,0.21454
668.62761,0.16751
667.13783,0.16970
665.64804,0.16120
664.15825,0.15273
662.66846,0.12621
661.17867,0.13452
659.68888,0.10537
658.19910,0.09114
656.70931,0.07693
655.21952,0.06291
653.72973,0.05192
652.23994,0.03594
650.75015,0.03170
649.26037,0.02749
647.77058,0.03969
646.28079,0.03753
644.79100,0.03271
643.30121,0.04148
641.81142,0.05027
640.32163,0.05590
638.83185,0.04114
637.34206,0.04213
635.85227,0.03043
634.36248,0.01875
632.87269,0.00341
631.38290,0.00917
629.89312,0.02902
628.40333,0.02144
626.91354,0.01388
625.42375,0.01773
623.93396,0.01324
622.44417,0.01880
620.95438,0.02440
619.46460,0.02834
617.97481,0.04670
616.48502,0.08316
614.99523,0.08985
613.50544,0.09657
612.01565,0.12640
610.52587,0.15793
609.03608,0.20723
607.54629,0.23027
606.05650,0.25334
604.56671,0.31743
603.07692,0.36749
601.58714,0.38377
600.09735,0.40007
598.60756,0.43246
597.11777,0.46789
595.62798,0.45749
594.13819,0.44393
592.64840,0.43039
591.15862,0.39998
589.66883,0.35921
588.17904,0.28667
586.68925,0.24160
585.19946,0.19655
583.70967,0.16090
582.21989,0.12360
580.73010,0.11109
579.24031,0.09860
577.75052,0.08614
576.26073,0.08743
574.77094,0.04489
573.28115,0.04104
571.79137,0.03720
570.30158,0.07540
568.81179,0.09789
567.32200,0.08376
565.83221,0.06964
564.34242,0.08618
562.85264,0.10207
561.36285,0.12401
559.87306,0.12054
558.38327,0.11709
556.89348,0.15115
555.40369,0.14306
553.91391,0.14085
552.42412,0.13867
550.93433,0.14805
549.44454,0.16684
547.95475,0.18062
546.46496,0.19560
544.97517,0.21061
543.48539,0.21777
541.99560,0.22864
540.50581,0.25192
539.01602,0.27522
537.52623,0.33670
536.03644,0.38415
534.54666,0.39614
533.05687,0.44062
531.56708,0.48513
530.07729,0.51191
528.58750,0.57822
527.09771,0.60205
525.60792,0.62590
524.11814,0.74382
522.62835,0.78044
521.13856,0.86695
519.64877,0.89022
518.15898,0.91352
516.66919,0.97333
515.17941,0.91032
513.68962,0.93101
512.19983,0.95173
510.71004,0.85030
509.22025,0.78370
507.73046,0.76165
506.24068,0.72556
504.75089,0.68949
503.26110,0.57345
501.77131,0.44305
500.28152,0.38915
498.79173,0.33527
497.30194,0.23405
495.81216,0.19846
494.32237,0.18666
492.83258,0.17489
491.34279,0.14908
489.85300,0.07409
488.36321,0.08849
486.87343,0.09572
485.38364,0.10297
483.89385,0.09669
482.40406,0.10048
480.91427,0.10780
479.42448,0.11515
477.93469,0.13306
476.44491,0.16473
474.95512,0.16662
473.46533,0.16854
471.97554,0.18321
470.48575,0.20459
468.99596,0.17511
467.50618,0.16659
466.01639,0.15808
464.52660,0.09521
463.03681,0.07755
461.54702,0.05389
460.05723,0.03025
458.56745,0.02337
457.07766,0.03593
455.58787,0.02307
454.09808,0.01024
452.60829,0.01919
451.11850,0.02849
449.62871,0.02895
448.13893,0.02943
446.64914,0.01639
445.15935,0.00637
443.66956,0.00341
442.17977,0.00990
440.68998,0.01642
439.20020,0.02563
437.71041,0.05328
436.22062,0.04062
434.73083,0.02798
433.24104,0.04265
431.75125,0.02119
430.26146,0.03440
428.77168,0.04763
427.28189,0.03729
425.79210,0.01659
424.30231,0.03609
422.81252,0.05561
421.32273,0.06912
419.83295,0.04317
418.34316,0.03397
416.85337,0.02480
415.36358,0.02804
413.87379,0.01757
412.38400,0.01048
410.89422,0.00341
409.40443,0.02174
407.91464,0.03441
406.42485,0.02969
404.93506,0.04224
403.44527,0.05481
401.95548,0.02506
400.46570,0.01341
398.97591,0.01885
397.48612,0.02432
395.99633,0.01676
394.50654,0.04403
393.01675,0.04087
391.52697,0.03773
390.03718,0.04131
388.54739,0.00608
387.05760,0.00474
385.56781,0.00341
384.07802,0.01827
382.58824,0.01775
381.09845,0.02177
379.60866,0.02582
378.11887,0.00529
376.62908,0.00453
375.13929,0.00279
373.64950,0.00108
372.15972,0.06231
370.66993,0.02952
369.18014,0.02285
367.69035,0.01621
366.20056,0.00692
364.71077,0.03207
363.22099,0.04236
361.73120,0.05267
360.24141,0.04610
358.75162,0.05027
357.26183,0.05010
355.77204,0.04997
354.28225,0.01638
352.79247,0.03035
351.30268,0.06040
349.81289,0.09048
348.32310,0.06335
346.83331,0.06570
345.34352,0.05117
343.85374,0.03666
342.36395,0.03305
340.87416,0.03114
339.38437,0.02825
337.89458,0.02539
336.40479,0.04397
334.91501,0.03278
333.42522,0.02748
331.93543,0.02219
330.44564,0.05325
328.95585,0.04986
327.46606,0.05553
325.97627,0.06122
324.48649,0.05254
322.99670,0.03519
321.50691,0.05953
320.01712,0.08389
318.52733,0.11849
317.03754,0.12700
315.54776,0.13838
314.05797,0.14978
312.56818,0.12389
311.07839,0.07727
309.58860,0.09276
308.09881,0.10828
306.60902,0.08483
305.11924,0.03429
303.62945,0.02912
302.13966,0.00341
300.64987,0.01712
299.16008,0.00341
