1778.52000,0.01255
1777.03021,0.01796
1775.54042,0.01701
1774.05063,0.01904
1772.56085,0.01882
1771.07106,0.01519
1769.58127,0.01135
1768.09148,0.00800
1766.60169,0.01609
1765.11190,0.01918
1763.62212,0.01133
1762.13233,0.01607
1760.64254,0.00598
1759.15275,0.00963
1757.66296,0.01397
1756.17317,0.01058
1754.68339,0.01567
1753.19360,0.01620
1751.70381,0.01699
1750.21402,0.00707
1748.72423,0.00882
1747.23444,0.00969
1745.74465,0.01514
1744.25487,0.01536
1742.76508,0.01058
1741.27529,0.00651
1739.78550,0.01480
1738.29571,0.00598
1736.80592,0.01768
1735.31614,0.02095
1733.82635,0.00575
1732.33656,0.00176
1730.84677,0.00282
1729.35698,0.01236
1727.86719,0.01575
1726.37740,0.01711
1724.88762,0.01232
1723.39783,0.01327
1721.90804,0.00945
1720.41825,0.00542
1718.92846,0.00598
1717.43867,0.01760
1715.94889,0.01644
1714.45910,0.00938
1712.96931,0.01329
1711.47952,0.01518
1709.98973,0.01366
1708.49994,0.01331
1707.01016,0.01139
1705.52037,0.00949
1704.03058,0.01172
1702.54079,0.00598
1701.05100,0.00771
1699.56121,0.01585
1698.07142,0.02104
1696.58164,0.00936
1695.09185,0.01278
1693.60206,0.01622
1692.11227,0.02357
1690.62248,0.01609
1689.13269,0.02052
1687.64291,0.01743
1686.15312,0.03446
1684.66333,0.02000
1683.17354,0.01401
1681.68375,0.01719
1680.19396,0.01810
1678.70417,0.03411
1677.21439,0.03164
1675.72460,0.03902
1674.23481,0.03980
1672.74502,0.03968
1671.25523,0.03754
1669.76544,0.05300
1668.27566,0.04474
1666.78587,0.04724
1665.29608,0.05524
1663.80629,0.05961
1662.31650,0.08113
1660.82671,0.07024
1659.33693,0.07742
1657.84714,0.07960
1656.35735,0.07290
1654.86756,0.06736
1653.37777,0.06208
1651.88798,0.07166
1650.39819,0.07007
1648.90841,0.07468
1647.41862,0.07817
1645.92883,0.07426
1644.43904,0.07037
1642.94925,0.08671
1641.45946,0.07317
1639.96968,0.07244
1638.47989,0.08817
1636.99010,0.10118
1635.50031,0.08750
1634.01052,0.06403
1632.52073,0.07940
1631.03094,0.09159
1629.54116,0.07344
1628.05137,0.09162
1626.56158,0.07786
1625.07179,0.08215
1623.58200,0.09538
1622.09221,0.09036
1620.60243,0.08651
1619.11264,0.08679
1617.62285,0.08961
1616.13306,0.07259
1614.64327,0.07522
1613.15348,0.09455
1611.66370,0.09016
1610.17391,0.09332
1608.68412,0.08897
1607.19433,0.09972
1605.70454,0.08903
1604.21475,0.08646
1602.72496,0.08392
1601.23518,0.08426
1599.74539,0.08051
1598.25560,0.10350
1596.76581,0.08701
1595.27602,0.08127
1593.78623,0.08127
1592.29645,0.06668
1590.80666,0.08225
1589.31687,0.07730
1587.82708,0.08447
1586.33729,0.08299
1584.84750,0.08108
1583.35771,0.06046
1581.86793,0.06110
1580.37814,0.09214
1578.88835,0.07594
1577.39856,0.07163
1575.90877,0.07237
1574.41898,0.05851
1572.92920,0.05656
1571.43941,0.05074
1569.94962,0.05066
1568.45983,0.05061
1566.97004,0.04213
1565.48025,0.03960
1563.99047,0.02455
1562.50068,0.01545
1561.01089,0.02990
1559.52110,0.02450
1558.03131,0.02872
1556.54152,0.02589
1555.05173,0.02079
1553.56195,0.00338
1552.07216,0.01706
1550.58237,0.00998
1549.09258,0.01000
1547.60279,0.00000
1546.11300,0.00227
1544.62322,0.00890
1543.13343,0.01488
1541.64364,0.00488
1540.15385,0.01010
1538.66406,0.01535
1537.17427,0.01296
1535.68448,0.01951
1534.19470,0.00598
1532.70491,0.02898
1531.21512,0.01226
1529.72533,0.02092
1528.23554,0.02092
1526.74575,0.03031
1525.25597,0.01186
1523.76618,0.03271
1522.27639,0.03189
1520.78660,0.03133
1519.29681,0.03946
1517.80702,0.03072
1516.31724,0.03868
1514.82745,0.03136
1513.33766,0.03479
1511.84787,0.03825
1510.35808,0.04698
1508.86829,0.04364
1507.37850,0.04420
1505.88872,0.05095
1504.39893,0.05749
1502.90914,0.05744
1501.41935,0.05124
1499.92956,0.06014
1498.43977,0.07135
1496.94999,0.07413
1495.46020,0.07990
1493.97041,0.06880
1492.48062,0.09906
1490.99083,0.10034
1489.50104,0.09958
1488.01125,0.10798
1486.52147,0.11641
1485.03168,0.12874
1483.54189,0.14613
1482.05210,0.17267
1480.56231,0.18575
1479.07252,0.19247
1477.58274,0.20881
1476.09295,0.21945
1474.60316,0.20797
1473.11337,0.21250
1471.62358,0.22962
1470.13379,0.23328
1468.64401,0.23308
1467.15422,0.24981
1465.66443,0.26028
1464.17464,0.27078
1462.68485,0.31041
1461.19506,0.34939
1459.70527,0.36851
1458.21549,0.44362
1456.72570,0.50641
1455.23591,0.52561
1453.74612,0.57270
1452.25633,0.62803
1450.76654,0.64730
1449.27676,0.64079
1447.78697,0.64709
1446.29718,0.65752
1444.80739,0.63247
1443.31760,0.60744
1441.82781,0.56314
1440.33802,0.54033
1438.84824,0.46798
1437.35845,0.44339
1435.86866,0.46610
1434.37887,0.48152
1432.88908,0.53121
1431.39929,0.56198
1429.90951,0.61972
1428.41972,0.71083
1426.92993,0.76359
1425.44014,0.79811
1423.95035,0.81141
1422.46056,0.82474
1420.97078,0.83078
1419.48099,0.87795
1417.99120,0.92514
1416.50141,0.93057
1415.01162,0.91478
1413.52183,0.82503
1412.03204,0.77275
1410.54226,0.71090
1409.05247,0.63788
1407.56268,0.58316
1406.07289,0.55404
1404.58310,0.53545
1403.09331,0.51688
1401.60353,0.44810
1400.11374,0.40035
1398.62395,0.33298
1397.13416,0.29349
1395.64437,0.24262
1394.15458,0.22739
1392.66479,0.19391
1391.17501,0.14973
1389.68522,0.11995
1388.19543,0.09865
1386.70564,0.08525
1385.21585,0.07188
1383.72606,0.04974
1382.23628,0.03949
1380.74649,0.05257
1379.25670,0.03529
1377.76691,0.03128
1376.27712,0.00766
1374.78733,0.00598
1373.29755,0.02190
1371.80776,0.01090
1370.31797,0.00722
1368.82818,0.00920
1367.33839,0.01121
1365.84860,0.01438
1364.35881,0.01347
1362.86903,0.03358
1361.37924,0.04642
1359.88945,0.06590
1358.39966,0.09751
1356.90987,0.12823
1355.42008,0.17313
1353.93030,0.23221
1352.44051,0.25478
1350.95072,0.27737
1349.46093,0.36781
1347.97114,0.43270
1346.48135,0.51291
1344.99156,0.58195
1343.50178,0.62293
1342.01199,0.67033
1340.52220,0.71067
1339.03241,0.79899
1337.54262,0.84212
1336.05283,0.86038
1334.56305,0.87866
1333.07326,0.89720
1331.58347,0.87488
1330.09368,0.85807
1328.60389,0.85087
1327.11410,0.85054
1325.62432,0.83129
1324.13453,0.78922
1322.64474,0.76202
1321.15495,0.71588
1319.66516,0.69033
1318.17537,0.66480
1316.68558,0.60320
1315.19580,0.56584
1313.70601,0.52554
1312.21622,0.48526
1310.72643,0.46258
1309.23664,0.43948
1307.74685,0.39881
1306.25707,0.36250
1304.76728,0.34689
1303.27749,0.33130
1301.78770,0.28182
1300.29791,0.22917
1298.80812,0.22541
1297.31834,0.17326
1295.82855,0.14215
1294.33876,0.11996
1292.84897,0.09711
1291.35918,0.08023
1289.86939,0.09088
1288.37960,0.10157
1286.88982,0.08749
1285.40003,0.07709
1283.91024,0.06626
1282.42045,0.06391
1280.93066,0.05975
1279.44087,0.05927
1277.95109,0.03734
1276.46130,0.04010
1274.97151,0.03924
1273.48172,0.03839
1271.99193,0.01405
1270.50214,0.02216
1269.01235,0.02344
1267.52257,0.02794
1266.03278,0.01123
1264.54299,0.02057
1263.05320,0.03862
1261.56341,0.03203
1260.07362,0.02546
1258.58384,0.01800
1257.09405,0.02016
1255.60426,0.01754
1254.11447,0.01015
1252.62468,0.00598
1251.13489,0.01509
1249.64511,0.01806
1248.15532,0.01420
1246.66553,0.01858
1245.17574,0.02299
1243.68595,0.00778
1242.19616,0.02843
1240.70637,0.02283
1239.21659,0.01201
1237.72680,0.01537
1236.23701,0.01739
1234.74722,0.01120
1233.25743,0.00858
1231.76764,0.00598
1230.27786,0.01557
1228.78807,0.01969
1227.29828,0.02018
1225.80849,0.01248
1224.31870,0.00891
1222.82891,0.00742
1221.33912,0.01897
1219.84934,0.01889
1218.35955,0.01885
1216.86976,0.02864
1215.37997,0.02110
1213.89018,0.05949
1212.40039,0.05611
1210.91061,0.05709
1209.42082,0.06129
1207.93103,0.05593
1206.44124,0.05058
1204.95145,0.05303
1203.46166,0.04545
1201.97188,0.04247
1200.48209,0.04932
1198.99230,0.05095
1197.50251,0.02817
1196.01272,0.02482
1194.52293,0.03063
1193.03314,0.03646
1191.54336,0.02770
1190.05357,0.02033
1188.56378,0.02076
1187.07399,0.02326
1185.58420,0.01231
1184.09441,0.00961
1182.60463,0.00807
1181.11484,0.00655
1179.62505,0.01580
1178.13526,0.01684
1176.64547,0.02179
1175.15568,0.00598
1173.66589,0.01515
1172.17611,0.01566
1170.68632,0.01277
1169.19653,0.00991
1167.70674,0.01460
1166.21695,0.02800
1164.72716,0.03456
1163.23738,0.03042
1161.74759,0.02562
1160.25780,0.04619
1158.76801,0.05924
1157.27822,0.07232
1155.78843,0.07629
1154.29865,0.07549
1152.80886,0.08499
1151.31907,0.09519
1149.82928,0.11776
1148.33949,0.12550
1146.84970,0.14205
1145.35991,0.15863
1143.87013,0.16028
1142.38034,0.16949
1140.89055,0.16250
1139.40076,0.18386
1137.91097,0.19565
1136.42118,0.23783
1134.93140,0.22889
1133.44161,0.21997
1131.95182,0.23505
1130.46203,0.23051
1128.97224,0.24724
1127.48245,0.26102
1125.99266,0.28053
1124.50288,0.28614
1123.01309,0.27133
1121.52330,0.25655
1120.03351,0.26085
1118.54372,0.27455
1117.05393,0.27045
1115.56415,0.24240
1114.07436,0.26005
1112.58457,0.26174
1111.09478,0.26345
1109.60499,0.24737
1108.11520,0.27676
1106.62542,0.25273
1105.13563,0.23603
1103.64584,0.25156
1102.15605,0.22053
1100.66626,0.21761
1099.17647,0.21471
1097.68668,0.21412
1096.19690,0.21287
1094.70711,0.23699
1093.21732,0.22505
1091.72753,0.22227
1090.23774,0.22066
1088.74795,0.21907
1087.25817,0.20060
1085.76838,0.17850
1084.27859,0.18543
1082.78880,0.18188
1081.29901,0.17904
1079.80922,0.18970
1078.31943,0.19261
1076.82965,0.19555
1075.33986,0.19577
1073.85007,0.21382
1072.36028,0.21797
1070.87049,0.22466
1069.38070,0.23114
1067.89092,0.25329
1066.40113,0.27546
1064.91134,0.33226
1063.42155,0.43772
1061.93176,0.50780
1060.44197,0.58408
1058.95219,0.65307
1057.46240,0.71398
1055.97261,0.77491
1054.48282,0.84968
1052.99303,0.85209
1051.50324,0.86456
1050.01345,0.85856
1048.52367,0.89460
1047.03388,0.89870
1045.54409,0.90282
1044.05430,0.81561
1042.56451,0.76405
1041.07472,0.73947
1039.58494,0.66695
1038.09515,0.64104
1036.60536,0.59346
1035.11557,0.54591
1033.62578,0.47097
1032.13599,0.41455
1030.64620,0.38077
1029.15642,0.32189
1027.66663,0.29512
1026.17684,0.26837
1024.68705,0.21573
1023.19726,0.19257
1021.70747,0.18268
1020.21769,0.14038
1018.72790,0.15863
1017.23811,0.13922
1015.74832,0.11983
1014.25853,0.09567
1012.76874,0.08090
1011.27896,0.07802
1009.78917,0.07106
1008.29938,0.05796
1006.80959,0.06052
1005.31980,0.06311
1003.83001,0.01445
1002.34022,0.01537
1000.85044,0.03253
999.36065,0.04332
997.87086,0.04740
996.38107,0.05150
994.89128,0.06784
993.40149,0.07233
991.91171,0.09168
990.42192,0.09850
988.93213,0.10146
987.44234,0.10479
985.95255,0.10814
984.46276,0.10592
982.97297,0.10167
981.48319,0.09242
979.99340,0.05578
978.50361,0.05035
977.01382,0.04493
975.52403,0.03349
974.03424,0.03006
972.54446,0.02392
971.05467,0.00821
969.56488,0.01856
968.07509,0.01226
966.58530,0.00598
965.09551,0.00778
963.60573,0.02101
962.11594,0.02354
960.62615,0.01170
959.13636,0.00982
957.64657,0.00797
956.15678,0.02201
954.66699,0.02100
953.17721,0.04079
951.68742,0.04074
950.19763,0.05168
948.70784,0.06264
947.21805,0.06266
945.72826,0.05357
944.23848,0.06894
942.74869,0.10603
941.25890,0.10181
939.76911,0.12855
938.27932,0.15532
936.78953,0.17835
935.29974,0.17536
933.80996,0.20414
932.32017,0.22769
930.83038,0.23140
929.34059,0.23513
927.85080,0.26538
926.36101,0.27509
924.87123,0.29671
923.38144,0.36082
921.89165,0.38409
920.40186,0.40737
918.91207,0.51038
917.42228,0.60496
915.93250,0.72857
914.44271,0.94972
912.95292,1.05260
911.46313,1.15550
909.97334,1.40024
908.48355,1.67378
906.99376,1.83178
905.50398,1.87243
904.01419,1.89815
902.52440,1.92388
901.03461,2.00000
899.54482,1.98365
898.05503,1.87438
896.56525,1.68269
895.07546,1.53235
893.58567,1.38204
892.09588,1.11004
890.60609,0.88464
889.11630,0.66087
887.62651,0.50997
886.13673,0.44416
884.64694,0.37837
883.15715,0.24673
881.66736,0.16786
880.17757,0.12578
878.68778,0.10988
877.19800,0.09400
875.70821,0.04560
874.21842,0.01480
872.72863,0.02469
871.23884,0.01221
869.74905,0.00958
868.25927,0.00697
866.76948,0.00598
865.27969,0.02774
863.78990,0.03285
862.30011,0.03159
860.81032,0.03493
859.32053,0.03828
857.83075,0.03892
856.34096,0.05328
854.85117,0.07498
853.36138,0.07911
851.87159,0.08247
850.38180,0.08586
848.89202,0.11336
847.40223,0.13357
845.91244,0.16386
844.42265,0.17030
842.93286,0.17677
841.44307,0.17151
839.95329,0.18978
838.46350,0.20306
836.97371,0.19170
835.48392,0.19577
833.99413,0.19987
832.50434,0.19429
831.01455,0.19307
829.52477,0.17269
828.03498,0.15576
826.54519,0.14422
825.05540,0.13270
823.56561,0.11082
822.07582,0.09627
820.58604,0.09065
819.09625,0.08653
817.60646,0.08244
816.11667,0.08306
814.62688,0.07913
813.13709,0.08116
811.64730,0.07910
810.15752,0.08050
808.66773,0.08192
807.17794,0.10003
805.68815,0.10697
804.19836,0.09134
802.70857,0.09479
801.21879,0.09827
799.72900,0.10485
798.23921,0.10232
796.74942,0.11078
795.25963,0.10111
793.76984,0.09146
792.28006,0.10067
790.79027,0.10580
789.30048,0.12260
787.81069,0.13302
786.32090,0.13594
784.83111,0.13887
783.34132,0.18637
781.85154,0.21630
780.36175,0.25905
778.87196,0.28674
777.38217,0.31446
775.89238,0.33033
774.40259,0.34622
772.91281,0.31829
771.42302,0.30123
769.93323,0.28419
768.44344,0.24834
766.95365,0.19812
765.46386,0.16665
763.97407,0.13498
762.48429,0.12446
760.99450,0.11396
759.50471,0.09195
758.01492,0.09417
756.52513,0.07015
755.03534,0.06580
753.54556,0.06147
752.05577,0.05191
750.56598,0.04899
749.07619,0.03172
747.58640,0.02988
746.09661,0.02806
744.60683,0.02547
743.11704,0.01628
741.62725,0.01168
740.13746,0.00882
738.64767,0.00598
737.15788,0.00890
735.66809,0.01070
734.17831,0.00955
732.68852,0.01036
731.19873,0.01120
729.70894,0.01424
728.21915,0.00701
726.72936,0.00598
725.23958,0.01682
723.74979,0.01078
722.26000,0.00477
720.77021,0.01110
719.28042,0.01313
717.79063,0.02682
716.30084,0.02455
714.81106,0.02231
713.32127,0.01689
711.83148,0.03387
710.34169,0.03581
708.85190,0.03868
707.36211,0.04158
705.87233,0.04176
704.38254,0.04562
702.89275,0.05886
701.40296,0.05694
699.91317,0.05505
698.42338,0.07042
696.93360,0.08741
695.44381,0.10580
693.95402,0.11496
692.46423,0.12414
690.97444,0.14511
689.48465,0.15857
687.99486,0.17548
686.50508,0.18441
685.01529,0.19337
683.52550,0.22040
682.03571,0.23945
680.54592,0.28457
679.05613,0.28278
677.56635,0.28101
676.07656,0.25037
674.58677,0.22958
673.09698,0.23599
671.60719,0.22256
670.11740,0.20914
668.62761,0.18251
667.13783,0.15316
665.64804,0.14347
664.15825,0.13381
662.66846,0.12714
661.17867,0.10199
659.68888,0.08578
658.19910,0.07164
656.70931,0.05753
655.21952,0.06102
653.72973,0.04513
652.23994,0.05050
650.75015,0.04847
649.26037,0.04647
647.77058,0.05419
646.28079,0.04138
644.79100,0.05281
643.30121,0.05581
641.81142,0.05883
640.32163,0.05114
638.83185,0.03640
637.34206,0.04452
635.85227,0.03747
634.36248,0.03045
632.87269,0.00598
631.38290,0.02534
629.89312,0.03170
628.40333,0.02359
626.91354,0.01550
625.42375,0.00594
623.93396,0.02862
622.44417,0.03510
620.95438,0.04160
619.46460,0.03991
617.97481,0.06290
616.48502,0.06742
614.99523,0.08886
613.50544,0.11033
612.01565,0.13548
610.52587,0.14260
609.03608,0.19109
607.54629,0.20557
606.05650,0.22007
604.56671,0.26224
603.07692,0.32498
601.58714,0.35565
600.09735,0.38635
598.60756,0.41125
597.11777,0.43595
595.62798,0.43326
594.13819,0.41267
592.64840,0.39211
591.15862,0.38515
589.66883,0.33186
588.17904,0.28065
586.68925,0.24146
585.19946,0.20228
583.70967,0.16599
582.21989,0.14045
580.73010,0.12487
579.24031,0.10931
577.75052,0.08567
576.26073,0.07119
574.77094,0.07089
573.28115,0.06056
571.79137,0.05026
570.30158,0.06100
568.81179,0.09299
567.32200,0.09749
565.83221,0.10202
564.34242,0.10348
562.85264,0.10680
561.36285,0.12932
559.87306,0.13359
558.38327,0.13789
556.89348,0.13126
555.40369,0.17854
553.91391,0.16898
552.42412,0.15944
550.93433,0.16066
549.44454,0.15756
547.95475,0.17619
546.46496,0.17953
544.97517,0.18291
543.48539,0.22124
541.99560,0.25069
540.50581,0.27023
539.01602,0.28980
537.52623,0.33074
536.03644,0.36645
534.54666,0.41703
533.05687,0.42402
531.56708,0.43102
530.07729,0.49401
528.58750,0.53212
527.09771,0.58213
525.60792,0.63217
524.11814,0.71375
522.62835,0.76497
521.13856,0.82558
519.64877,0.85608
518.15898,0.88659
516.66919,0.90525
515.17941,0.94290
513.68962,0.93683
512.19983,0.93078
510.71004,0.87532
509.22025,0.83610
507.73046,0.72199
506.24068,0.67345
504.75089,0.62493
503.26110,0.49011
501.77131,0.40145
500.28152,0.35791
498.79173,0.31440
497.30194,0.28564
495.81216,0.23224
494.32237,0.20616
492.83258,0.18009
491.34279,0.12403
489.85300,0.09059
488.36321,0.10034
486.87343,0.10177
485.38364,0.10324
483.89385,0.11739
482.40406,0.09298
480.91427,0.09531
479.42448,0.09767
477.93469,0.13316
476.44491,0.17027
474.95512,0.17932
473.46533,0.18839
471.97554,0.21142
470.48575,0.20341
468.99596,0.19839
467.50618,0.18381
466.01639,0.16925
464.52660,0.10767
463.03681,0.09041
461.54702,0.07626
460.05723,0.06214
458.56745,0.05957
457.07766,0.05566
455.58787,0.04069
454.09808,0.02575
452.60829,0.01688
451.11850,0.00598
449.62871,0.01076
448.13893,0.01556
446.64914,0.02199
445.15935,0.03506
443.66956,0.03262
442.17977,0.02622
440.68998,0.01983
439.20020,0.01952
437.71041,0.03819
436.22062,0.04878
434.73083,0.05939
433.24104,0.04593
431.75125,0.04734
430.26146,0.04637
428.77168,0.04543
427.28189,0.04074
425.79210,0.04773
424.30231,0.04834
422.81252,0.04897
421.32273,0.03753
419.83295,0.03136
418.34316,0.03493
416.85337,0.03851
415.36358,0.03310
413.87379,0.02200
412.38400,0.01972
410.89422,0.01746
409.40443,0.02402
407.91464,0.03015
406.42485,0.03584
404.93506,0.03493
403.44527,0.03405
401.95548,0.01766
400.46570,0.02367
398.97591,0.01989
397.48612,0.01613
395.99633,0.03546
394.50654,0.04249
393.01675,0.03846
391.52697,0.03445
390.03718,0.03835
388.54739,0.02034
387.05760,0.02646
385.56781,0.03260
384.07802,0.00598
382.58824,0.04068
381.09845,0.03725
379.60866,0.03385
378.11887,0.03093
376.62908,0.02073
375.13929,0.01067
373.64950,0.00062
372.15972,0.01059
370.66993,0.01761
369.18014,0.01620
367.69035,0.01482
366.20056,0.01231
364.71077,0.02514
363.22099,0.01903
361.73120,0.01294
360.24141,0.01716
358.75162,0.01820
357.26183,0.02692
355.77204,0.03566
354.28225,0.01279
352.79247,0.02854
351.30268,0.04021
349.81289,0.05190
348.32310,0.06247
346.83331,0.04497
345.34352,0.03846
343.85374,0.03198
342.36395,0.03533
340.87416,0.04739
339.38437,0.04817
337.89458,0.04897
336.40479,0.03301
334.91501,0.03512
333.42522,0.03177
331.93543,0.02844
330.44564,0.04249
328.95585,0.04674
327.46606,0.04383
325.97627,0.04094
324.48649,0.00598
322.99670,0.07744
321.50691,0.08280
320.01712,0.08819
318.52733,0.08183
317.03754,0.09286
315.54776,0.07902
314.05797,0.06521
312.56818,0.03999
311.07839,0.06025
309.58860,0.04662
308.09881,0.03301
306.60902,0.06065
305.11924,0.06113
303.62945,0.03823
302.13966,0.01536
300.64987,0.03372
299.16008,0.00598
