1778.52000,0.01454
1777.03021,0.01651
1775.54042,0.01051
1774.05063,0.00923
1772.56085,0.01433
1771.07106,0.01498
1769.58127,0.01049
1768.09148,0.00860
1766.60169,0.00086
1765.11190,0.00420
1763.62212,0.00898
1762.13233,0.02131
1760.64254,0.01485
1759.15275,0.01405
1757.66296,0.00528
1756.17317,0.00619
1754.68339,0.01864
1753.19360,0.01347
1751.70381,0.00222
1750.21402,0.00039
1748.72423,0.00753
1747.23444,0.00364
1745.74465,0.00448
1744.25487,0.01217
1742.76508,0.01800
1741.27529,0.00926
1739.78550,0.01679
1738.29571,0.00528
1736.80592,0.01008
1735.31614,0.00808
1733.82635,0.01198
1732.33656,0.00909
1730.84677,0.00317
1729.35698,0.01797
1727.86719,0.01091
1726.37740,0.00530
1724.88762,0.01358
1723.39783,0.00425
1721.90804,0.00530
1720.41825,0.00402
1718.92846,0.00252
1717.43867,0.01229
1715.94889,0.01032
1714.45910,0.01073
1712.96931,0.00528
1711.47952,0.01443
1709.98973,0.02479
1708.49994,0.01493
1707.01016,0.01334
1705.52037,0.01177
1704.03058,0.01845
1702.54079,0.01975
1701.05100,0.01567
1699.56121,0.00996
1698.07142,0.01980
1696.58164,0.01862
1695.09185,0.02992
1693.60206,0.03325
1692.11227,0.03167
1690.62248,0.03575
1689.13269,0.04316
1687.64291,0.04047
1686.15312,0.05522
1684.66333,0.04788
1683.17354,0.03773
1681.68375,0.04926
1680.19396,0.05328
1678.70417,0.05569
1677.21439,0.05741
1675.72460,0.06386
1674.23481,0.06351
1672.74502,0.06672
1671.25523,0.07818
1669.76544,0.07932
1668.27566,0.07484
1666.78587,0.07720
1665.29608,0.07606
1663.80629,0.08177
1662.31650,0.09714
1660.82671,0.09796
1659.33693,0.10844
1657.84714,0.09966
1656.35735,0.09797
1654.86756,0.08853
1653.37777,0.09323
1651.88798,0.08784
1650.39819,0.09777
1648.90841,0.08726
1647.41862,0.08053
1645.92883,0.07548
1644.43904,0.07045
1642.94925,0.08050
1641.45946,0.07882
1639.96968,0.07692
1638.47989,0.08093
1636.99010,0.08684
1635.50031,0.08220
1634.01052,0.07287
1632.52073,0.08874
1631.03094,0.08417
1629.54116,0.08998
1628.05137,0.09157
1626.56158,0.09013
1625.07179,0.09907
1623.58200,0.11344
1622.09221,0.08949
1620.60243,0.09967
1619.11264,0.08377
1617.62285,0.08883
1616.13306,0.08451
1614.64327,0.08444
1613.15348,0.09099
1611.66370,0.09286
1610.17391,0.09522
1608.68412,0.09925
1607.19433,0.08754
1605.70454,0.09163
1604.21475,0.09009
1602.72496,0.08857
1601.23518,0.07908
1599.74539,0.07832
1598.25560,0.08723
1596.76581,0.08676
1595.27602,0.10089
1593.78623,0.07906
1592.29645,0.07489
1590.80666,0.07075
1589.31687,0.07087
1587.82708,0.07384
1586.33729,0.07848
1584.84750,0.07232
1583.35771,0.06783
1581.86793,0.07184
1580.37814,0.06999
1578.88835,0.07192
1577.39856,0.06542
1575.90877,0.06105
1574.41898,0.04895
1572.92920,0.05311
1571.43941,0.03164
1569.94962,0.02702
1568.45983,0.02243
1566.97004,0.03962
1565.48025,0.03331
1563.99047,0.02585
1562.50068,0.01748
1561.01089,0.02418
1559.52110,0.02973
1558.03131,0.02614
1556.54152,0.03150
1555.05173,0.01996
1553.56195,0.01832
1552.07216,0.02117
1550.58237,0.00946
1549.09258,0.00766
1547.60279,0.00000
1546.11300,0.01431
1544.62322,0.01547
1543.13343,0.00795
1541.64364,0.00234
1540.15385,0.00497
1538.66406,0.00763
1537.17427,0.01278
1535.68448,0.00878
1534.19470,0.00528
1532.70491,0.02865
1531.21512,0.01370
1529.72533,0.02794
1528.23554,0.01869
1526.74575,0.02804
1525.25597,0.02706
1523.76618,0.02823
1522.27639,0.03413
1520.78660,0.02994
1519.29681,0.02083
1517.80702,0.03103
1516.31724,0.02033
1514.82745,0.03552
1513.33766,0.03969
1511.84787,0.04388
1510.35808,0.04338
1508.86829,0.04009
1507.37850,0.04106
1505.88872,0.03547
1504.39893,0.04213
1502.90914,0.06223
1501.41935,0.04919
1499.92956,0.05851
1498.43977,0.06880
1496.94999,0.06195
1495.46020,0.07229
1493.97041,0.09206
1492.48062,0.09140
1490.99083,0.09758
1489.50104,0.12307
1488.01125,0.13601
1486.52147,0.14897
1485.03168,0.15313
1483.54189,0.18789
1482.05210,0.21351
1480.56231,0.22669
1479.07252,0.25800
1477.58274,0.28534
1476.09295,0.28189
1474.60316,0.29516
1473.11337,0.32493
1471.62358,0.30179
1470.13379,0.30196
1468.64401,0.32851
1467.15422,0.35931
1465.66443,0.37121
1464.17464,0.38313
1462.68485,0.42694
1461.19506,0.44773
1459.70527,0.51983
1458.21549,0.55196
1456.72570,0.63116
1455.23591,0.65840
1453.74612,0.70918
1452.25633,0.77576
1450.76654,0.80354
1449.27676,0.79418
1447.78697,0.78790
1446.29718,0.75766
1444.80739,0.74249
1443.31760,0.72735
1441.82781,0.68682
1440.33802,0.61527
1438.84824,0.55857
1437.35845,0.51389
1435.86866,0.51957
1434.37887,0.57632
1432.88908,0.58864
1431.39929,0.61627
1429.90951,0.71050
1428.41972,0.78030
1426.92993,0.84799
1425.44014,0.88067
1423.95035,0.89007
1422.46056,0.89951
1420.97078,0.94284
1419.48099,0.98173
1417.99120,0.98206
1416.50141,1.00077
1415.01162,0.94587
1413.52183,0.89899
1412.03204,0.82885
1410.54226,0.78508
1409.05247,0.70723
1407.56268,0.63857
1406.07289,0.57888
1404.58310,0.55203
1403.09331,0.52521
1401.60353,0.47641
1400.11374,0.43258
1398.62395,0.37348
1397.13416,0.32923
1395.64437,0.28712
1394.15458,0.24080
1392.66479,0.20815
1391.17501,0.16047
1389.68522,0.13398
1388.19543,0.10282
1386.70564,0.09449
1385.21585,0.08620
1383.72606,0.04522
1382.23628,0.03792
1380.74649,0.03345
1379.25670,0.02808
1377.76691,0.01708
1376.27712,0.01599
1374.78733,0.01421
1373.29755,0.00258
1371.80776,0.01305
1370.31797,0.00637
1368.82818,0.00794
1367.33839,0.00954
1365.84860,0.00528
1364.35881,0.05007
1362.86903,0.04007
1361.37924,0.07220
1359.88945,0.08788
1358.39966,0.10995
1356.90987,0.13180
1355.42008,0.18332
1353.93030,0.24169
1352.44051,0.28008
1350.95072,0.31850
1349.46093,0.39929
1347.97114,0.47398
1346.48135,0.55294
1344.99156,0.61757
1343.50178,0.67446
1342.01199,0.73584
1340.52220,0.77302
1339.03241,0.86010
1337.54262,0.88227
1336.05283,0.91118
1334.56305,0.94011
1333.07326,0.95977
1331.58347,0.95381
1330.09368,0.90742
1328.60389,0.93022
1327.11410,0.90175
1325.62432,0.90977
1324.13453,0.85407
1322.64474,0.82850
1321.15495,0.76203
1319.66516,0.74345
1318.17537,0.72490
1316.68558,0.63451
1315.19580,0.59683
1313.70601,0.56318
1312.21622,0.56084
1310.72643,0.49924
1309.23664,0.47836
1307.74685,0.45916
1306.25707,0.41975
1304.76728,0.39954
1303.27749,0.37935
1301.78770,0.33343
1300.29791,0.30752
1298.80812,0.24283
1297.31834,0.22239
1295.82855,0.17021
1294.33876,0.14441
1292.84897,0.12875
1291.35918,0.11193
1289.86939,0.10749
1288.37960,0.10307
1286.88982,0.09010
1285.40003,0.09549
1283.91024,0.08468
1282.42045,0.08330
1280.93066,0.06431
1279.44087,0.07286
1277.95109,0.05956
1276.46130,0.06370
1274.97151,0.05656
1273.48172,0.04945
1271.99193,0.02708
1270.50214,0.05507
1269.01235,0.03015
1267.52257,0.02643
1266.03278,0.04227
1264.54299,0.03319
1263.05320,0.03778
1261.56341,0.03216
1260.07362,0.02657
1258.58384,0.03193
1257.09405,0.02063
1255.60426,0.03075
1254.11447,0.03808
1252.62468,0.01696
1251.13489,0.00528
1249.64511,0.01154
1248.15532,0.01429
1246.66553,0.01919
1245.17574,0.02411
1243.68595,0.02129
1242.19616,0.02767
1240.70637,0.01267
1239.21659,0.03086
1237.72680,0.02273
1236.23701,0.02168
1234.74722,0.01737
1233.25743,0.01801
1231.76764,0.01869
1230.27786,0.01609
1228.78807,0.00528
1227.29828,0.02432
1225.80849,0.01186
1224.31870,0.00930
1222.82891,0.00865
1221.33912,0.02402
1219.84934,0.02742
1218.35955,0.03084
1216.86976,0.03641
1215.37997,0.05870
1213.89018,0.06384
1212.40039,0.07936
1210.91061,0.07397
1209.42082,0.07307
1207.93103,0.07079
1206.44124,0.06853
1204.95145,0.08135
1203.46166,0.06408
1201.97188,0.06307
1200.48209,0.05997
1198.99230,0.05807
1197.50251,0.03808
1196.01272,0.04140
1194.52293,0.03204
1193.03314,0.02271
1191.54336,0.02846
1190.05357,0.02036
1188.56378,0.03204
1187.07399,0.02233
1185.58420,0.00607
1184.09441,0.01876
1182.60463,0.02019
1181.11484,0.02164
1179.62505,0.02665
1178.13526,0.02015
1176.64547,0.01698
1175.15568,0.01806
1173.66589,0.00528
1172.17611,0.00803
1170.68632,0.00715
1169.19653,0.00630
1167.70674,0.01076
1166.21695,0.02396
1164.72716,0.02894
1163.23738,0.02595
1161.74759,0.01922
1160.25780,0.03228
1158.76801,0.04207
1157.27822,0.05188
1155.78843,0.06689
1154.29865,0.06758
1152.80886,0.07700
1151.31907,0.07774
1149.82928,0.10837
1148.33949,0.10587
1146.84970,0.11362
1145.35991,0.12139
1143.87013,0.11825
1142.38034,0.14290
1140.89055,0.13181
1139.40076,0.14968
1137.91097,0.16523
1136.42118,0.19656
1134.93140,0.19521
1133.44161,0.19390
1131.95182,0.22789
1130.46203,0.21321
1128.97224,0.22208
1127.48245,0.21474
1125.99266,0.23331
1124.50288,0.21238
1123.01309,0.21958
1121.52330,0.22681
1120.03351,0.21019
1118.54372,0.20276
1117.05393,0.21395
1115.56415,0.21269
1114.07436,0.20134
1112.58457,0.20872
1111.09478,0.21612
1109.60499,0.20555
1108.11520,0.22394
1106.62542,0.20660
1105.13563,0.19446
1103.64584,0.19081
1102.15605,0.20742
1100.66626,0.20135
1099.17647,0.19531
1097.68668,0.18141
1096.19690,0.18729
1094.70711,0.20049
1093.21732,0.19655
1091.72753,0.21050
1090.23774,0.20179
1088.74795,0.19309
1087.25817,0.17584
1085.76838,0.17248
1084.27859,0.19597
1082.78880,0.19150
1081.29901,0.19457
1079.80922,0.17791
1078.31943,0.19220
1076.82965,0.20652
1075.33986,0.22216
1073.85007,0.20913
1072.36028,0.21353
1070.87049,0.23536
1069.38070,0.26662
1067.89092,0.28756
1066.40113,0.30852
1064.91134,0.39232
1063.42155,0.51825
1061.93176,0.59621
1060.44197,0.67867
1058.95219,0.78186
1057.46240,0.83532
1055.97261,0.88880
1054.48282,0.96524
1052.99303,1.02830
1051.50324,1.03563
1050.01345,1.04251
1048.52367,1.04072
1047.03388,1.03001
1045.54409,1.01933
1044.05430,0.91998
1042.56451,0.86230
1041.07472,0.77877
1039.58494,0.73572
1038.09515,0.65647
1036.60536,0.61582
1035.11557,0.57520
1033.62578,0.47556
1032.13599,0.42299
1030.64620,0.35774
1029.15642,0.31369
1027.66663,0.28554
1026.17684,0.25742
1024.68705,0.21368
1023.19726,0.18219
1021.70747,0.17379
1020.21769,0.16611
1018.72790,0.14834
1017.23811,0.13601
1015.74832,0.12370
1014.25853,0.13048
1012.76874,0.11775
1011.27896,0.13421
1009.78917,0.13400
1008.29938,0.09571
1006.80959,0.08249
1005.31980,0.06930
1003.83001,0.03296
1002.34022,0.01946
1000.85044,0.00528
999.36065,0.05225
997.87086,0.05512
996.38107,0.05803
994.89128,0.08248
993.40149,0.08626
991.91171,0.12723
990.42192,0.12635
988.93213,0.15325
987.44234,0.14242
985.95255,0.13162
984.46276,0.13390
982.97297,0.12538
981.48319,0.10160
979.99340,0.07290
978.50361,0.06434
977.01382,0.05580
975.52403,0.03564
974.03424,0.03480
972.54446,0.01846
971.05467,0.00708
969.56488,0.00701
968.07509,0.01027
966.58530,0.01355
965.09551,0.00650
963.60573,0.01289
962.11594,0.01013
960.62615,0.01986
959.13636,0.01256
957.64657,0.00528
956.15678,0.03582
954.66699,0.04238
953.17721,0.03814
951.68742,0.07675
950.19763,0.07585
948.70784,0.07499
947.21805,0.08614
945.72826,0.08133
944.23848,0.10241
942.74869,0.10329
941.25890,0.11854
939.76911,0.13217
938.27932,0.14583
936.78953,0.17409
935.29974,0.19086
933.80996,0.22340
932.32017,0.23433
930.83038,0.24423
929.34059,0.25415
927.85080,0.24705
926.36101,0.27642
924.87123,0.29971
923.38144,0.33314
921.89165,0.37071
920.40186,0.40830
918.91207,0.51731
917.42228,0.63858
915.93250,0.79963
914.44271,0.96259
912.95292,1.08028
911.46313,1.19801
909.97334,1.46148
908.48355,1.72569
906.99376,1.87654
905.50398,1.87098
904.01419,1.88873
902.52440,1.90650
901.03461,1.98900
899.54482,2.00000
898.05503,1.83084
896.56525,1.65017
895.07546,1.51752
893.58567,1.38489
892.09588,1.12032
890.60609,0.89105
889.11630,0.68652
887.62651,0.52811
886.13673,0.47359
884.64694,0.41909
883.15715,0.27770
881.66736,0.21631
880.17757,0.16294
878.68778,0.14630
877.19800,0.12968
875.70821,0.07145
874.21842,0.04194
872.72863,0.03410
871.23884,0.03781
869.74905,0.03742
868.25927,0.03707
866.76948,0.06108
865.27969,0.05807
863.78990,0.06519
862.30011,0.07540
860.81032,0.08564
859.32053,0.09590
857.83075,0.10524
856.34096,0.11602
854.85117,0.13670
853.36138,0.15670
851.87159,0.15521
850.38180,0.15373
848.89202,0.19827
847.40223,0.22284
845.91244,0.26461
844.42265,0.26430
842.93286,0.26401
841.44307,0.27033
839.95329,0.29972
838.46350,0.31292
836.97371,0.32449
835.48392,0.31209
833.99413,0.29971
832.50434,0.32641
831.01455,0.31197
829.52477,0.29308
828.03498,0.24693
826.54519,0.22927
825.05540,0.21163
823.56561,0.19990
822.07582,0.17855
820.58604,0.18145
819.09625,0.17497
817.60646,0.16851
816.11667,0.16372
814.62688,0.16296
813.13709,0.15469
811.64730,0.15375
810.15752,0.15529
808.66773,0.15686
807.17794,0.15952
805.68815,0.17890
804.19836,0.15925
802.70857,0.17362
801.21879,0.18802
799.72900,0.16704
798.23921,0.15432
796.74942,0.15150
795.25963,0.15447
793.76984,0.15746
792.28006,0.16177
790.79027,0.19810
789.30048,0.20811
787.81069,0.22826
786.32090,0.23655
784.83111,0.24487
783.34132,0.26556
781.85154,0.33285
780.36175,0.39782
778.87196,0.41823
777.38217,0.43867
775.89238,0.44208
774.40259,0.46691
772.91281,0.46284
771.42302,0.45362
769.93323,0.44443
768.44344,0.37739
766.95365,0.32989
765.46386,0.29043
763.97407,0.25381
762.48429,0.22709
760.99450,0.20040
759.50471,0.17208
758.01492,0.12780
756.52513,0.12329
755.03534,0.11599
753.54556,0.10871
752.05577,0.11463
750.56598,0.09329
749.07619,0.07621
747.58640,0.07526
746.09661,0.07434
744.60683,0.06015
743.11704,0.05210
741.62725,0.04196
740.13746,0.03891
738.64767,0.03588
737.15788,0.03287
735.66809,0.04188
734.17831,0.00528
732.68852,0.00969
731.19873,0.01413
729.70894,0.02294
728.21915,0.02707
726.72936,0.01311
725.23958,0.02106
723.74979,0.01762
722.26000,0.01420
720.77021,0.00528
719.28042,0.02048
717.79063,0.01524
716.30084,0.01825
714.81106,0.02129
713.32127,0.01612
711.83148,0.02861
710.34169,0.03220
708.85190,0.02781
707.36211,0.02344
705.87233,0.02922
704.38254,0.03643
702.89275,0.04766
701.40296,0.04210
699.91317,0.03656
698.42338,0.05422
696.93360,0.07120
695.44381,0.09197
693.95402,0.09806
692.46423,0.10417
690.97444,0.11960
689.48465,0.13247
687.99486,0.17124
686.50508,0.18121
685.01529,0.19121
683.52550,0.19924
682.03571,0.24093
680.54592,0.23936
679.05613,0.25052
677.56635,0.26170
676.07656,0.22422
674.58677,0.22863
673.09698,0.20977
671.60719,0.20494
670.11740,0.20013
668.62761,0.16747
667.13783,0.16589
665.64804,0.14704
664.15825,0.12822
662.66846,0.12530
661.17867,0.08712
659.68888,0.07719
658.19910,0.07153
656.70931,0.06588
655.21952,0.06261
653.72973,0.03020
652.23994,0.04557
650.75015,0.04602
649.26037,0.04650
647.77058,0.05677
646.28079,0.04047
644.79100,0.03479
643.30121,0.04478
641.81142,0.05479
640.32163,0.06165
638.83185,0.06783
637.34206,0.03122
635.85227,0.03039
634.36248,0.02959
632.87269,0.00528
631.38290,0.00944
629.89312,0.01974
628.40333,0.01488
626.91354,0.01006
625.42375,0.00373
623.93396,0.01412
622.44417,0.02419
620.95438,0.03428
619.46460,0.04828
617.97481,0.06183
616.48502,0.08999
614.99523,0.09912
613.50544,0.10828
612.01565,0.14569
610.52587,0.17348
609.03608,0.19188
607.54629,0.20890
606.05650,0.22594
604.56671,0.28277
603.07692,0.36055
601.58714,0.37825
600.09735,0.39598
598.60756,0.43126
597.11777,0.46233
595.62798,0.44285
594.13819,0.43516
592.64840,0.42749
591.15862,0.40502
589.66883,0.34988
588.17904,0.29077
586.68925,0.25720
585.19946,0.22366
583.70967,0.18462
582.21989,0.16112
580.73010,0.14471
579.24031,0.12833
577.75052,0.09009
576.26073,0.07845
574.77094,0.06520
573.28115,0.07043
571.79137,0.07569
570.30158,0.09474
568.81179,0.11546
567.32200,0.11726
565.83221,0.11909
564.34242,0.13918
562.85264,0.17693
561.36285,0.16555
559.87306,0.18336
558.38327,0.20119
556.89348,0.20328
555.40369,0.22869
553.91391,0.22943
552.42412,0.23019
550.93433,0.25661
549.44454,0.24707
547.95475,0.25026
546.46496,0.25805
544.97517,0.26587
543.48539,0.28584
541.99560,0.28771
540.50581,0.32419
539.01602,0.36069
537.52623,0.39792
536.03644,0.46058
534.54666,0.47011
533.05687,0.49130
531.56708,0.51252
530.07729,0.54423
528.58750,0.55150
527.09771,0.58855
525.60792,0.62563
524.11814,0.70472
522.62835,0.75396
521.13856,0.81452
519.64877,0.83617
518.15898,0.85784
516.66919,0.89965
515.17941,0.92691
513.68962,0.91843
512.19983,0.90997
510.71004,0.84367
509.22025,0.78375
507.73046,0.72620
506.24068,0.67833
504.75089,0.63048
503.26110,0.55536
501.77131,0.42546
500.28152,0.37780
498.79173,0.33017
497.30194,0.25468
495.81216,0.21521
494.32237,0.19329
492.83258,0.17140
491.34279,0.13012
489.85300,0.11310
488.36321,0.10833
486.87343,0.11241
485.38364,0.11651
483.89385,0.10171
482.40406,0.09210
480.91427,0.11074
479.42448,0.12941
477.93469,0.17469
476.44491,0.20988
474.95512,0.21604
473.46533,0.22222
471.97554,0.24737
470.48575,0.26995
468.99596,0.28314
467.50618,0.25885
466.01639,0.23457
464.52660,0.17986
463.03681,0.12847
461.54702,0.10109
460.05723,0.07374
458.56745,0.07464
457.07766,0.06404
455.58787,0.04876
454.09808,0.03351
452.60829,0.03074
451.11850,0.02330
449.62871,0.02800
448.13893,0.03272
446.64914,0.02465
445.15935,0.01518
443.66956,0.02857
442.17977,0.02880
440.68998,0.02906
439.20020,0.04628
437.71041,0.03553
436.22062,0.05091
434.73083,0.06633
433.24104,0.07353
431.75125,0.05441
430.26146,0.05166
428.77168,0.04894
427.28189,0.03672
425.79210,0.06451
424.30231,0.06975
422.81252,0.07501
421.32273,0.06876
419.83295,0.04561
418.34316,0.04835
416.85337,0.05112
415.36358,0.04356
413.87379,0.02333
412.38400,0.01429
410.89422,0.00528
409.40443,0.02022
407.91464,0.02294
406.42485,0.02263
404.93506,0.02800
403.44527,0.03338
401.95548,0.02562
400.46570,0.02471
398.97591,0.01805
397.48612,0.01142
395.99633,0.03787
394.50654,0.02553
393.01675,0.03003
391.52697,0.03455
390.03718,0.02558
388.54739,0.01686
387.05760,0.01239
385.56781,0.00794
384.07802,0.00528
382.58824,0.04304
381.09845,0.03647
379.60866,0.02993
378.11887,0.00613
376.62908,0.00963
375.13929,0.00905
373.64950,0.00849
372.15972,0.01819
370.66993,0.01403
369.18014,0.01696
367.69035,0.01991
366.20056,0.03206
364.71077,0.03530
363.22099,0.03479
361.73120,0.03432
360.24141,0.04398
358.75162,0.04449
357.26183,0.04185
355.77204,0.03924
354.28225,0.04477
352.79247,0.05126
351.30268,0.05801
349.81289,0.06479
348.32310,0.08194
346.83331,0.05513
345.34352,0.03492
343.85374,0.01475
342.36395,0.04541
340.87416,0.03728
339.38437,0.03023
337.89458,0.02321
336.40479,0.01115
334.91501,0.01300
333.42522,0.01899
331.93543,0.02500
330.44564,0.02599
328.95585,0.01688
327.46606,0.01203
325.97627,0.00720
324.48649,0.00528
322.99670,0.04975
321.50691,0.05626
320.01712,0.06278
318.52733,0.06569
317.03754,0.07191
315.54776,0.06111
314.05797,0.05033
312.56818,0.05756
311.07839,0.05354
309.58860,0.05930
308.09881,0.06508
306.60902,0.08183
305.11924,0.04426
303.62945,0.02612
302.13966,0.00801
300.64987,0.00528
299.16008,0.00528
