1778.52000,0.01264
1777.03021,0.00000
1775.54042,0.01036
1774.05063,0.01254
1772.56085,0.02048
1771.07106,0.01041
1769.58127,0.00939
1768.09148,0.00183
1766.60169,0.00168
1765.11190,0.01182
1763.62212,0.01828
1762.13233,0.02437
1760.64254,0.02145
1759.15275,0.02021
1757.66296,0.00176
1756.17317,0.01533
1754.68339,0.02647
1753.19360,0.00728
1751.70381,0.02422
1750.21402,0.01206
1748.72423,0.01551
1747.23444,0.00176
1745.74465,0.00908
1744.25487,0.02339
1742.76508,0.01312
1741.27529,0.02544
1739.78550,0.02138
1738.29571,0.02022
1736.80592,0.02605
1735.31614,0.02740
1733.82635,0.02878
1732.33656,0.02280
1730.84677,0.00495
1729.35698,0.01789
1727.86719,0.00338
1726.37740,0.02417
1724.88762,0.02324
1723.39783,0.00758
1721.90804,0.03665
1720.41825,0.01160
1718.92846,0.00176
1717.43867,0.01221
1715.94889,0.03088
1714.45910,0.04056
1712.96931,0.03099
1711.47952,0.05303
1709.98973,0.04885
1708.49994,0.03238
1707.01016,0.03215
1705.52037,0.03194
1704.03058,0.02745
1702.54079,0.03857
1701.05100,0.02962
1699.56121,0.03219
1698.07142,0.04995
1696.58164,0.06446
1695.09185,0.06957
1693.60206,0.06280
1692.11227,0.07001
1690.62248,0.07396
1689.13269,0.06154
1687.64291,0.08359
1686.15312,0.09049
1684.66333,0.09578
1683.17354,0.10069
1681.68375,0.08265
1680.19396,0.07080
1678.70417,0.09137
1677.21439,0.10540
1675.72460,0.11372
1674.23481,0.10935
1672.74502,0.12019
1671.25523,0.11751
1669.76544,0.13455
1668.27566,0.13439
1666.78587,0.14902
1665.29608,0.13251
1663.80629,0.13612
1662.31650,0.13935
1660.82671,0.15245
1659.33693,0.15778
1657.84714,0.16396
1656.35735,0.16483
1654.86756,0.11200
1653.37777,0.13877
1651.88798,0.13151
1650.39819,0.13413
1648.90841,0.14457
1647.41862,0.11156
1645.92883,0.11344
1644.43904,0.11535
1642.94925,0.09882
1641.45946,0.10817
1639.96968,0.08923
1638.47989,0.10560
1636.99010,0.10477
1635.50031,0.10765
1634.01052,0.12164
1632.52073,0.09710
1631.03094,0.11934
1629.54116,0.11372
1628.05137,0.12781
1626.56158,0.12511
1625.07179,0.15238
1623.58200,0.12472
1622.09221,0.12990
1620.60243,0.11336
1619.11264,0.13992
1617.62285,0.11605
1616.13306,0.10739
1614.64327,0.09834
1613.15348,0.11065
1611.66370,0.12667
1610.17391,0.12550
1608.68412,0.09892
1607.19433,0.10600
1605.70454,0.11311
1604.21475,0.12271
1602.72496,0.13233
1601.23518,0.10547
1599.74539,0.10818
1598.25560,0.08589
1596.76581,0.10423
1595.27602,0.09389
1593.78623,0.10121
1592.29645,0.11143
1590.80666,0.07778
1589.31687,0.10528
1587.82708,0.08072
1586.33729,0.10048
1584.84750,0.07063
1583.35771,0.10808
1581.86793,0.10208
1580.37814,0.09364
1578.88835,0.08400
1577.39856,0.08136
1575.90877,0.08285
1574.41898,0.07534
1572.92920,0.05801
1571.43941,0.06491
1569.94962,0.06671
1568.45983,0.06854
1566.97004,0.05501
1565.48025,0.03659
1563.99047,0.04608
1562.50068,0.01827
1561.01089,0.03684
1559.52110,0.05626
1558.03131,0.03797
1556.54152,0.03980
1555.05173,0.05561
1553.56195,0.04437
1552.07216,0.05284
1550.58237,0.03099
1549.09258,0.00343
1547.60279,0.01772
1546.11300,0.01318
1544.62322,0.01112
1543.13343,0.01115
1541.64364,0.00176
1540.15385,0.00662
1538.66406,0.01150
1537.17427,0.01456
1535.68448,0.00740
1534.19470,0.01420
1532.70491,0.00176
1531.21512,0.02954
1529.72533,0.03233
1528.23554,0.00725
1526.74575,0.01501
1525.25597,0.03388
1523.76618,0.02693
1522.27639,0.03682
1520.78660,0.03689
1519.29681,0.03905
1517.80702,0.02646
1516.31724,0.02538
1514.82745,0.02762
1513.33766,0.03500
1511.84787,0.04242
1510.35808,0.05211
1508.86829,0.04543
1507.37850,0.04451
1505.88872,0.03952
1504.39893,0.03661
1502.90914,0.06202
1501.41935,0.04727
1499.92956,0.03131
1498.43977,0.05885
1496.94999,0.05566
1495.46020,0.07095
1493.97041,0.08176
1492.48062,0.09506
1490.99083,0.10058
1489.50104,0.09219
1488.01125,0.10700
1486.52147,0.12184
1485.03168,0.13978
1483.54189,0.14790
1482.05210,0.17082
1480.56231,0.18391
1479.07252,0.25077
1477.58274,0.24587
1476.09295,0.25536
1474.60316,0.27389
1473.11337,0.27564
1471.62358,0.30776
1470.13379,0.29890
1468.64401,0.29703
1467.15422,0.33375
1465.66443,0.33665
1464.17464,0.33958
1462.68485,0.38909
1461.19506,0.45011
1459.70527,0.50254
1458.21549,0.53490
1456.72570,0.61159
1455.23591,0.65303
1453.74612,0.70844
1452.25633,0.78561
1450.76654,0.82467
1449.27676,0.82315
1447.78697,0.80730
1446.29718,0.80542
1444.80739,0.79353
1443.31760,0.78165
1441.82781,0.70152
1440.33802,0.63207
1438.84824,0.58111
1437.35845,0.52403
1435.86866,0.50921
1434.37887,0.51329
1432.88908,0.54118
1431.39929,0.61422
1429.90951,0.69712
1428.41972,0.80794
1426.92993,0.83102
1425.44014,0.89555
1423.95035,0.91047
1422.46056,0.92543
1420.97078,0.96009
1419.48099,1.02432
1417.99120,1.04304
1416.50141,1.07574
1415.01162,1.03464
1413.52183,1.01653
1412.03204,0.94882
1410.54226,0.87458
1409.05247,0.81758
1407.56268,0.73396
1406.07289,0.65405
1404.58310,0.62154
1403.09331,0.58906
1401.60353,0.52523
1400.11374,0.47127
1398.62395,0.42061
1397.13416,0.36958
1395.64437,0.32431
1394.15458,0.26594
1392.66479,0.25272
1391.17501,0.19891
1389.68522,0.12504
1388.19543,0.11641
1386.70564,0.09714
1385.21585,0.07789
1383.72606,0.05170
1382.23628,0.03128
1380.74649,0.00474
1379.25670,0.02620
1377.76691,0.01776
1376.27712,0.01713
1374.78733,0.00176
1373.29755,0.01611
1371.80776,0.04034
1370.31797,0.03547
1368.82818,0.03186
1367.33839,0.02827
1365.84860,0.01815
1364.35881,0.04538
1362.86903,0.04679
1361.37924,0.07900
1359.88945,0.09441
1358.39966,0.11436
1356.90987,0.15157
1355.42008,0.20069
1353.93030,0.25066
1352.44051,0.28877
1350.95072,0.32690
1349.46093,0.42330
1347.97114,0.52341
1346.48135,0.60346
1344.99156,0.65400
1343.50178,0.71769
1342.01199,0.76952
1340.52220,0.78199
1339.03241,0.83961
1337.54262,0.95263
1336.05283,0.99451
1334.56305,1.03642
1333.07326,1.07610
1331.58347,1.09202
1330.09368,1.05096
1328.60389,1.07308
1327.11410,1.10384
1325.62432,1.10674
1324.13453,1.03667
1322.64474,1.06915
1321.15495,1.00610
1319.66516,0.96809
1318.17537,0.93011
1316.68558,0.79905
1315.19580,0.75128
1313.70601,0.65268
1312.21622,0.60086
1310.72643,0.55440
1309.23664,0.49894
1307.74685,0.48944
1306.25707,0.43978
1304.76728,0.42173
1303.27749,0.40370
1301.78770,0.35165
1300.29791,0.33819
1298.80812,0.23288
1297.31834,0.21578
1295.82855,0.16425
1294.33876,0.13695
1292.84897,0.13387
1291.35918,0.08612
1289.86939,0.09499
1288.37960,0.10388
1286.88982,0.09845
1285.40003,0.09838
1283.91024,0.11761
1282.42045,0.06591
1280.93066,0.07289
1279.44087,0.08358
1277.95109,0.08200
1276.46130,0.07142
1274.97151,0.06210
1273.48172,0.05281
1271.99193,0.03698
1270.50214,0.04825
1269.01235,0.04805
1267.52257,0.05568
1266.03278,0.04078
1264.54299,0.04682
1263.05320,0.05248
1261.56341,0.04257
1260.07362,0.03270
1258.58384,0.03844
1257.09405,0.04379
1255.60426,0.04753
1254.11447,0.04268
1252.62468,0.07928
1251.13489,0.04209
1249.64511,0.03117
1248.15532,0.05022
1246.66553,0.03955
1245.17574,0.02892
1243.68595,0.05420
1242.19616,0.05695
1240.70637,0.08310
1239.21659,0.06375
1237.72680,0.04279
1236.23701,0.00176
1234.74722,0.01637
1233.25743,0.01685
1231.76764,0.01736
1230.27786,0.03821
1228.78807,0.05866
1227.29828,0.00860
1225.80849,0.02091
1224.31870,0.02135
1222.82891,0.02509
1221.33912,0.01697
1219.84934,0.02857
1218.35955,0.04019
1216.86976,0.05142
1215.37997,0.07909
1213.89018,0.08259
1212.40039,0.09021
1210.91061,0.08310
1209.42082,0.09775
1207.93103,0.08925
1206.44124,0.08078
1204.95145,0.08156
1203.46166,0.04710
1201.97188,0.05942
1200.48209,0.06480
1198.99230,0.08087
1197.50251,0.03093
1196.01272,0.04007
1194.52293,0.03838
1193.03314,0.03671
1191.54336,0.00779
1190.05357,0.02320
1188.56378,0.04437
1187.07399,0.02210
1185.58420,0.02405
1184.09441,0.01167
1182.60463,0.00670
1181.11484,0.00176
1179.62505,0.00825
1178.13526,0.03364
1176.64547,0.04962
1175.15568,0.05701
1173.66589,0.03613
1172.17611,0.00461
1170.68632,0.00982
1169.19653,0.01507
1167.70674,0.00783
1166.21695,0.02153
1164.72716,0.02254
1163.23738,0.04122
1161.74759,0.05624
1160.25780,0.04749
1158.76801,0.04307
1157.27822,0.03869
1155.78843,0.08539
1154.29865,0.05460
1152.80886,0.07510
1151.31907,0.08538
1149.82928,0.13055
1148.33949,0.12734
1146.84970,0.12868
1145.35991,0.13004
1143.87013,0.12527
1142.38034,0.16483
1140.89055,0.14125
1139.40076,0.15297
1137.91097,0.19097
1136.42118,0.21300
1134.93140,0.20696
1133.44161,0.20094
1131.95182,0.20583
1130.46203,0.22837
1128.97224,0.27596
1127.48245,0.26739
1125.99266,0.25679
1124.50288,0.25606
1123.01309,0.25372
1121.52330,0.25140
1120.03351,0.22943
1118.54372,0.22840
1117.05393,0.22288
1115.56415,0.25102
1114.07436,0.24679
1112.58457,0.23438
1111.09478,0.22200
1109.60499,0.23507
1108.11520,0.22602
1106.62542,0.19936
1105.13563,0.21990
1103.64584,0.18919
1102.15605,0.20076
1100.66626,0.19902
1099.17647,0.19731
1097.68668,0.16301
1096.19690,0.18453
1094.70711,0.20648
1093.21732,0.20549
1091.72753,0.17582
1090.23774,0.17139
1088.74795,0.16700
1087.25817,0.15176
1085.76838,0.14639
1084.27859,0.16443
1082.78880,0.14435
1081.29901,0.13167
1079.80922,0.11616
1078.31943,0.13348
1076.82965,0.15083
1075.33986,0.19322
1073.85007,0.19504
1072.36028,0.19401
1070.87049,0.15487
1069.38070,0.21049
1067.89092,0.20360
1066.40113,0.19673
1064.91134,0.24915
1063.42155,0.35574
1061.93176,0.42462
1060.44197,0.52552
1058.95219,0.60225
1057.46240,0.66526
1055.97261,0.72830
1054.48282,0.80839
1052.99303,0.84913
1051.50324,0.89359
1050.01345,0.89624
1048.52367,0.89195
1047.03388,0.91250
1045.54409,0.93307
1044.05430,0.91532
1042.56451,0.81188
1041.07472,0.71133
1039.58494,0.70351
1038.09515,0.64362
1036.60536,0.58622
1035.11557,0.52884
1033.62578,0.46658
1032.13599,0.39777
1030.64620,0.36386
1029.15642,0.30495
1027.66663,0.27211
1026.17684,0.23930
1024.68705,0.18580
1023.19726,0.17376
1021.70747,0.17445
1020.21769,0.15508
1018.72790,0.12958
1017.23811,0.12892
1015.74832,0.12828
1014.25853,0.12952
1012.76874,0.13530
1011.27896,0.17350
1009.78917,0.18672
1008.29938,0.15689
1006.80959,0.12996
1005.31980,0.10306
1003.83001,0.02820
1002.34022,0.00176
1000.85044,0.03276
999.36065,0.03262
997.87086,0.03579
996.38107,0.03898
994.89128,0.06352
993.40149,0.05775
991.91171,0.06758
990.42192,0.08154
988.93213,0.06190
987.44234,0.07468
985.95255,0.08749
984.46276,0.08639
982.97297,0.09843
981.48319,0.07400
979.99340,0.04016
978.50361,0.03260
977.01382,0.02506
975.52403,0.01837
974.03424,0.03263
972.54446,0.01410
971.05467,0.00667
969.56488,0.02387
968.07509,0.01280
966.58530,0.00176
965.09551,0.00672
963.60573,0.03918
962.11594,0.02860
960.62615,0.01847
959.13636,0.02209
957.64657,0.02575
956.15678,0.05998
954.66699,0.04052
953.17721,0.02682
951.68742,0.05417
950.19763,0.08051
948.70784,0.10688
947.21805,0.11872
945.72826,0.10557
944.23848,0.10597
942.74869,0.11215
941.25890,0.14501
939.76911,0.17277
938.27932,0.20056
936.78953,0.19618
935.29974,0.21151
933.80996,0.25804
932.32017,0.28942
930.83038,0.31078
929.34059,0.33216
927.85080,0.32835
926.36101,0.33400
924.87123,0.39340
923.38144,0.46596
921.89165,0.48583
920.40186,0.50574
918.91207,0.61528
917.42228,0.76341
915.93250,0.98744
914.44271,1.10281
912.95292,1.24035
911.46313,1.37792
909.97334,1.54587
908.48355,1.72655
906.99376,1.88594
905.50398,1.95881
904.01419,1.97860
902.52440,1.99841
901.03461,2.00000
899.54482,1.95240
898.05503,1.87693
896.56525,1.67394
895.07546,1.54152
893.58567,1.40912
892.09588,1.12828
890.60609,0.89094
889.11630,0.66880
887.62651,0.51109
886.13673,0.44834
884.64694,0.38563
883.15715,0.26941
881.66736,0.19219
880.17757,0.15067
878.68778,0.14077
877.19800,0.13088
875.70821,0.06566
874.21842,0.03779
872.72863,0.02758
871.23884,0.01083
869.74905,0.01195
868.25927,0.01310
866.76948,0.00176
865.27969,0.01047
863.78990,0.05448
862.30011,0.05299
860.81032,0.07450
859.32053,0.09603
857.83075,0.07247
856.34096,0.08749
854.85117,0.08655
853.36138,0.11434
851.87159,0.09478
850.38180,0.07526
848.89202,0.09943
847.40223,0.12405
845.91244,0.15033
844.42265,0.15019
842.93286,0.15007
841.44307,0.14239
839.95329,0.20938
838.46350,0.21037
836.97371,0.20154
835.48392,0.19232
833.99413,0.18314
832.50434,0.21376
831.01455,0.21324
829.52477,0.16763
828.03498,0.13312
826.54519,0.11073
825.05540,0.08838
823.56561,0.09209
822.07582,0.05318
820.58604,0.05899
819.09625,0.06402
817.60646,0.06907
816.11667,0.06963
814.62688,0.08171
813.13709,0.07330
811.64730,0.07066
810.15752,0.06334
808.66773,0.05604
807.17794,0.08424
805.68815,0.05628
804.19836,0.07224
802.70857,0.09191
801.21879,0.11160
799.72900,0.07596
798.23921,0.06085
796.74942,0.07611
795.25963,0.07643
793.76984,0.07678
792.28006,0.08802
790.79027,0.12718
789.30048,0.12454
787.81069,0.14447
786.32090,0.14618
784.83111,0.14792
783.34132,0.19132
781.85154,0.19700
780.36175,0.25563
778.87196,0.28413
777.38217,0.31266
775.89238,0.31722
774.40259,0.34560
772.91281,0.30961
771.42302,0.31733
769.93323,0.32508
768.44344,0.29327
766.95365,0.23688
765.46386,0.24574
763.97407,0.21401
762.48429,0.18395
760.99450,0.15392
759.50471,0.12637
758.01492,0.10993
756.52513,0.06603
755.03534,0.06707
753.54556,0.06813
752.05577,0.06656
750.56598,0.06460
749.07619,0.06021
747.58640,0.05810
746.09661,0.05602
744.60683,0.03653
743.11704,0.03922
741.62725,0.04070
740.13746,0.03975
738.64767,0.03883
737.15788,0.01906
735.66809,0.03583
734.17831,0.00176
732.68852,0.01140
731.19873,0.02106
729.70894,0.01455
728.21915,0.03677
726.72936,0.02252
725.23958,0.04357
723.74979,0.03942
722.26000,0.03530
720.77021,0.03223
719.28042,0.00786
717.79063,0.01018
716.30084,0.00595
714.81106,0.00176
713.32127,0.05432
711.83148,0.07943
710.34169,0.08119
708.85190,0.07765
707.36211,0.07413
705.87233,0.09237
704.38254,0.10367
702.89275,0.09654
701.40296,0.08595
699.91317,0.07539
698.42338,0.08474
696.93360,0.06049
695.44381,0.11952
693.95402,0.12219
692.46423,0.12489
690.97444,0.15939
689.48465,0.16275
687.99486,0.18952
686.50508,0.20052
685.01529,0.21155
683.52550,0.26711
682.03571,0.28044
680.54592,0.29914
679.05613,0.30453
677.56635,0.30995
676.07656,0.27213
674.58677,0.27699
673.09698,0.23389
671.60719,0.22137
670.11740,0.20887
668.62761,0.21138
667.13783,0.21062
665.64804,0.20129
664.15825,0.19198
662.66846,0.16382
661.17867,0.12996
659.68888,0.12565
658.19910,0.10783
656.70931,0.09004
655.21952,0.10057
653.72973,0.09924
652.23994,0.10450
650.75015,0.09009
649.26037,0.07572
647.77058,0.06014
646.28079,0.07329
644.79100,0.05489
643.30121,0.04185
641.81142,0.02884
640.32163,0.07245
638.83185,0.03857
637.34206,0.05230
635.85227,0.03590
634.36248,0.01954
632.87269,0.00176
631.38290,0.04242
629.89312,0.06219
628.40333,0.05429
626.91354,0.04643
625.42375,0.03347
623.93396,0.01068
622.44417,0.01643
620.95438,0.02221
619.46460,0.00238
617.97481,0.04123
616.48502,0.05344
614.99523,0.06896
613.50544,0.08451
612.01565,0.08245
610.52587,0.14727
609.03608,0.15223
607.54629,0.19085
606.05650,0.22950
604.56671,0.26285
603.07692,0.32082
601.58714,0.34007
600.09735,0.35934
598.60756,0.40961
597.11777,0.46933
595.62798,0.44050
594.13819,0.44203
592.64840,0.44360
591.15862,0.37875
589.66883,0.36724
588.17904,0.31024
586.68925,0.25531
585.19946,0.20041
583.70967,0.17424
582.21989,0.16615
580.73010,0.13306
579.24031,0.10001
577.75052,0.06369
576.26073,0.09713
574.77094,0.07646
573.28115,0.05950
571.79137,0.04257
570.30158,0.04207
568.81179,0.06293
567.32200,0.08710
565.83221,0.11129
564.34242,0.11459
562.85264,0.12243
561.36285,0.11922
559.87306,0.11439
558.38327,0.10960
556.89348,0.10893
555.40369,0.16858
553.91391,0.17412
552.42412,0.17968
550.93433,0.20208
549.44454,0.22165
547.95475,0.23754
546.46496,0.23563
544.97517,0.23373
543.48539,0.28293
541.99560,0.28745
540.50581,0.31743
539.01602,0.34743
537.52623,0.33685
536.03644,0.42227
534.54666,0.49911
533.05687,0.50748
531.56708,0.51588
530.07729,0.56039
528.58750,0.59796
527.09771,0.61710
525.60792,0.63627
524.11814,0.70509
522.62835,0.73538
521.13856,0.75463
519.64877,0.78087
518.15898,0.80715
516.66919,0.82032
515.17941,0.85526
513.68962,0.83854
512.19983,0.82186
510.71004,0.75967
509.22025,0.72786
507.73046,0.66081
506.24068,0.63910
504.75089,0.61742
503.26110,0.51968
501.77131,0.41541
500.28152,0.35710
498.79173,0.29882
497.30194,0.21554
495.81216,0.20981
494.32237,0.20288
492.83258,0.19597
491.34279,0.17350
489.85300,0.13630
488.36321,0.09707
486.87343,0.09847
485.38364,0.09990
483.89385,0.11899
482.40406,0.12252
480.91427,0.11808
479.42448,0.11367
477.93469,0.09841
476.44491,0.16193
474.95512,0.17420
473.46533,0.18651
471.97554,0.20007
470.48575,0.23621
468.99596,0.21825
467.50618,0.20666
466.01639,0.19511
464.52660,0.14810
463.03681,0.10809
461.54702,0.08205
460.05723,0.05604
458.56745,0.00176
457.07766,0.02609
455.58787,0.02460
454.09808,0.02314
452.60829,0.02253
451.11850,0.05311
449.62871,0.03594
448.13893,0.01880
446.64914,0.02363
445.15935,0.04734
443.66956,0.04976
442.17977,0.06328
440.68998,0.07683
439.20020,0.06784
437.71041,0.07077
436.22062,0.07209
434.73083,0.07344
433.24104,0.06743
431.75125,0.02454
430.26146,0.05857
428.77168,0.09263
427.28189,0.06335
425.79210,0.06896
424.30231,0.07172
422.81252,0.07451
421.32273,0.07733
419.83295,0.06664
418.34316,0.07361
416.85337,0.08060
415.36358,0.05933
413.87379,0.06966
412.38400,0.05664
410.89422,0.04365
409.40443,0.03068
407.91464,0.02307
406.42485,0.04940
404.93506,0.05094
403.44527,0.05250
401.95548,0.09942
400.46570,0.02413
398.97591,0.02906
397.48612,0.03401
395.99633,0.03551
394.50654,0.03456
393.01675,0.03857
391.52697,0.04062
390.03718,0.02793
388.54739,0.02716
387.05760,0.03420
385.56781,0.04128
384.07802,0.01557
382.58824,0.01326
381.09845,0.00750
379.60866,0.00176
378.11887,0.02931
376.62908,0.00398
375.13929,0.00205
373.64950,0.00015
372.15972,0.03518
370.66993,0.09404
369.18014,0.10595
367.69035,0.11790
366.20056,0.06404
364.71077,0.03974
363.22099,0.04548
361.73120,0.05124
360.24141,0.03345
358.75162,0.10222
357.26183,0.09884
355.77204,0.09548
354.28225,0.04703
352.79247,0.08105
351.30268,0.10136
349.81289,0.12169
348.32310,0.08893
346.83331,0.10214
345.34352,0.09466
343.85374,0.08721
342.36395,0.06358
340.87416,0.05516
339.38437,0.05640
337.89458,0.05767
336.40479,0.05342
334.91501,0.04880
333.42522,0.06881
331.93543,0.08884
330.44564,0.06297
328.95585,0.03302
327.46606,0.03591
325.97627,0.03882
324.48649,0.02577
322.99670,0.06155
321.50691,0.09571
320.01712,0.12991
318.52733,0.13418
317.03754,0.12701
315.54776,0.12478
314.05797,0.12257
312.56818,0.11506
311.07839,0.13219
309.58860,0.11797
308.09881,0.10377
306.60902,0.08652
305.11924,0.08161
303.62945,0.04206
302.13966,0.00254
300.64987,0.03679
299.16008,0.00176
