1778.52000,0.02090
1777.03021,0.00864
1775.54042,0.01585
1774.05063,0.01628
1772.56085,0.01381
1771.07106,0.01307
1769.58127,0.01576
1768.09148,0.01458
1766.60169,0.00541
1765.11190,0.00599
1763.62212,0.01023
1762.13233,0.01012
1760.64254,0.01830
1759.15275,0.01825
1757.66296,0.01676
1756.17317,0.00897
1754.68339,0.00000
1753.19360,0.00514
1751.70381,0.00351
1750.21402,0.00263
1748.72423,0.01100
1747.23444,0.01139
1745.74465,0.00621
1744.25487,0.00785
1742.76508,0.01147
1741.27529,0.01195
1739.78550,0.01148
1738.29571,0.00910
1736.80592,0.01427
1735.31614,0.01631
1733.82635,0.00914
1732.33656,0.01219
1730.84677,0.00119
1729.35698,0.01012
1727.86719,0.01277
1726.37740,0.01520
1724.88762,0.01911
1723.39783,0.01333
1721.90804,0.01315
1720.41825,0.01447
1718.92846,0.00730
1717.43867,0.00599
1715.94889,0.02502
1714.45910,0.01785
1712.96931,0.01823
1711.47952,0.00843
1709.98973,0.01420
1708.49994,0.02024
1707.01016,0.02679
1705.52037,0.03337
1704.03058,0.01738
1702.54079,0.00991
1701.05100,0.01826
1699.56121,0.00599
1698.07142,0.01311
1696.58164,0.01296
1695.09185,0.02062
1693.60206,0.02927
1692.11227,0.01900
1690.62248,0.02357
1689.13269,0.02841
1687.64291,0.02477
1686.15312,0.02528
1684.66333,0.02655
1683.17354,0.02760
1681.68375,0.02285
1680.19396,0.02079
1678.70417,0.03892
1677.21439,0.03910
1675.72460,0.03031
1674.23481,0.04122
1672.74502,0.03856
1671.25523,0.04685
1669.76544,0.04375
1668.27566,0.06594
1666.78587,0.05900
1665.29608,0.05889
1663.80629,0.08139
1662.31650,0.07477
1660.82671,0.06671
1659.33693,0.07010
1657.84714,0.08906
1656.35735,0.08399
1654.86756,0.07458
1653.37777,0.07515
1651.88798,0.07040
1650.39819,0.08389
1648.90841,0.09013
1647.41862,0.08156
1645.92883,0.08213
1644.43904,0.08273
1642.94925,0.08153
1641.45946,0.07112
1639.96968,0.07628
1638.47989,0.08390
1636.99010,0.08425
1635.50031,0.09484
1634.01052,0.08698
1632.52073,0.08838
1631.03094,0.08738
1629.54116,0.09344
1628.05137,0.10342
1626.56158,0.08912
1625.07179,0.10401
1623.58200,0.10362
1622.09221,0.11199
1620.60243,0.09391
1619.11264,0.10257
1617.62285,0.09669
1616.13306,0.07892
1614.64327,0.07916
1613.15348,0.07699
1611.66370,0.09501
1610.17391,0.09630
1608.68412,0.08303
1607.19433,0.07586
1605.70454,0.08256
1604.21475,0.08540
1602.72496,0.08826
1601.23518,0.08143
1599.74539,0.07341
1598.25560,0.10064
1596.76581,0.09850
1595.27602,0.09542
1593.78623,0.09187
1592.29645,0.09296
1590.80666,0.08241
1589.31687,0.07505
1587.82708,0.08521
1586.33729,0.08251
1584.84750,0.09053
1583.35771,0.08909
1581.86793,0.07578
1580.37814,0.08290
1578.88835,0.08907
1577.39856,0.05397
1575.90877,0.06942
1574.41898,0.08174
1572.92920,0.06347
1571.43941,0.05325
1569.94962,0.04948
1568.45983,0.04575
1566.97004,0.03316
1565.48025,0.03348
1563.99047,0.02095
1562.50068,0.03736
1561.01089,0.02317
1559.52110,0.02140
1558.03131,0.03156
1556.54152,0.01672
1555.05173,0.01940
1553.56195,0.02284
1552.07216,0.00564
1550.58237,0.01568
1549.09258,0.00752
1547.60279,0.03462
1546.11300,0.01655
1544.62322,0.01114
1543.13343,0.00649
1541.64364,0.00599
1540.15385,0.00892
1538.66406,0.01188
1537.17427,0.01706
1535.68448,0.01181
1534.19470,0.02262
1532.70491,0.01912
1531.21512,0.02342
1529.72533,0.02191
1528.23554,0.01411
1526.74575,0.02116
1525.25597,0.03309
1523.76618,0.04504
1522.27639,0.03588
1520.78660,0.04278
1519.29681,0.03829
1517.80702,0.02459
1516.31724,0.02670
1514.82745,0.03079
1513.33766,0.03854
1511.84787,0.04632
1510.35808,0.04805
1508.86829,0.05150
1507.37850,0.05571
1505.88872,0.06115
1504.39893,0.05083
1502.90914,0.05657
1501.41935,0.07132
1499.92956,0.07274
1498.43977,0.07345
1496.94999,0.08560
1495.46020,0.08588
1493.97041,0.11023
1492.48062,0.11371
1490.99083,0.13179
1489.50104,0.14528
1488.01125,0.14908
1486.52147,0.15290
1485.03168,0.16137
1483.54189,0.20581
1482.05210,0.20388
1480.56231,0.22918
1479.07252,0.24746
1477.58274,0.27402
1476.09295,0.27073
1474.60316,0.28204
1473.11337,0.28608
1471.62358,0.29477
1470.13379,0.30129
1468.64401,0.30079
1467.15422,0.31076
1465.66443,0.33072
1464.17464,0.35070
1462.68485,0.40546
1461.19506,0.41431
1459.70527,0.46426
1458.21549,0.53730
1456.72570,0.58827
1455.23591,0.65578
1453.74612,0.71043
1452.25633,0.76584
1450.76654,0.79504
1449.27676,0.80409
1447.78697,0.77502
1446.29718,0.76639
1444.80739,0.75256
1443.31760,0.73875
1441.82781,0.68135
1440.33802,0.62908
1438.84824,0.56420
1437.35845,0.52729
1435.86866,0.52709
1434.37887,0.53372
1432.88908,0.59455
1431.39929,0.65516
1429.90951,0.71604
1428.41972,0.81267
1426.92993,0.89570
1425.44014,0.92799
1423.95035,0.94062
1422.46056,0.95327
1420.97078,0.98952
1419.48099,1.02215
1417.99120,1.01884
1416.50141,1.03815
1415.01162,0.98727
1413.52183,0.94978
1412.03204,0.88826
1410.54226,0.81316
1409.05247,0.73152
1407.56268,0.66230
1406.07289,0.59651
1404.58310,0.56378
1403.09331,0.53108
1401.60353,0.47775
1400.11374,0.42760
1398.62395,0.37116
1397.13416,0.33102
1395.64437,0.28192
1394.15458,0.24280
1392.66479,0.20517
1391.17501,0.17121
1389.68522,0.15525
1388.19543,0.12230
1386.70564,0.10093
1385.21585,0.07957
1383.72606,0.05278
1382.23628,0.04083
1380.74649,0.02866
1379.25670,0.03231
1377.76691,0.03064
1376.27712,0.01635
1374.78733,0.00599
1373.29755,0.01073
1371.80776,0.00820
1370.31797,0.01688
1368.82818,0.01502
1367.33839,0.01317
1365.84860,0.01731
1364.35881,0.01661
1362.86903,0.02298
1361.37924,0.03399
1359.88945,0.05985
1358.39966,0.09375
1356.90987,0.13764
1355.42008,0.16988
1353.93030,0.24298
1352.44051,0.26640
1350.95072,0.28986
1349.46093,0.39242
1347.97114,0.47679
1346.48135,0.59373
1344.99156,0.66794
1343.50178,0.69189
1342.01199,0.74209
1340.52220,0.76462
1339.03241,0.82605
1337.54262,0.87731
1336.05283,0.90125
1334.56305,0.92522
1333.07326,0.95613
1331.58347,0.98416
1330.09368,0.96629
1328.60389,0.93557
1327.11410,0.91847
1325.62432,0.92376
1324.13453,0.87950
1322.64474,0.86419
1321.15495,0.80978
1319.66516,0.77179
1318.17537,0.73383
1316.68558,0.69067
1315.19580,0.63053
1313.70601,0.58887
1312.21622,0.52198
1310.72643,0.49422
1309.23664,0.48544
1307.74685,0.45069
1306.25707,0.41815
1304.76728,0.38831
1303.27749,0.35849
1301.78770,0.33234
1300.29791,0.30621
1298.80812,0.23857
1297.31834,0.20253
1295.82855,0.17381
1294.33876,0.14511
1292.84897,0.13441
1291.35918,0.10795
1289.86939,0.10520
1288.37960,0.10247
1286.88982,0.09916
1285.40003,0.08908
1283.91024,0.06930
1282.42045,0.07044
1280.93066,0.06966
1279.44087,0.05529
1277.95109,0.06331
1276.46130,0.06042
1274.97151,0.05718
1273.48172,0.05398
1271.99193,0.03561
1270.50214,0.03962
1269.01235,0.03952
1267.52257,0.03313
1266.03278,0.03089
1264.54299,0.01848
1263.05320,0.01994
1261.56341,0.02105
1260.07362,0.02220
1258.58384,0.03564
1257.09405,0.02504
1255.60426,0.02663
1254.11447,0.02896
1252.62468,0.01820
1251.13489,0.02010
1249.64511,0.00599
1248.15532,0.00625
1246.66553,0.01373
1245.17574,0.02123
1243.68595,0.01855
1242.19616,0.03412
1240.70637,0.04023
1239.21659,0.02499
1237.72680,0.02411
1236.23701,0.01038
1234.74722,0.00858
1233.25743,0.00777
1231.76764,0.00699
1230.27786,0.00891
1228.78807,0.01474
1227.29828,0.03104
1225.80849,0.02549
1224.31870,0.01220
1222.82891,0.01132
1221.33912,0.01727
1219.84934,0.02750
1218.35955,0.03775
1216.86976,0.03382
1215.37997,0.04667
1213.89018,0.05031
1212.40039,0.06078
1210.91061,0.08343
1209.42082,0.06625
1207.93103,0.07218
1206.44124,0.07813
1204.95145,0.08387
1203.46166,0.07432
1201.97188,0.07233
1200.48209,0.07741
1198.99230,0.07304
1197.50251,0.04877
1196.01272,0.04251
1194.52293,0.04173
1193.03314,0.04098
1191.54336,0.04451
1190.05357,0.03834
1188.56378,0.03779
1187.07399,0.02948
1185.58420,0.02217
1184.09441,0.01513
1182.60463,0.01055
1181.11484,0.00599
1179.62505,0.01592
1178.13526,0.02831
1176.64547,0.03052
1175.15568,0.02596
1173.66589,0.02287
1172.17611,0.01665
1170.68632,0.01131
1169.19653,0.00599
1167.70674,0.01915
1166.21695,0.01727
1164.72716,0.02586
1163.23738,0.03302
1161.74759,0.05065
1160.25780,0.06345
1158.76801,0.06886
1157.27822,0.07429
1155.78843,0.07453
1154.29865,0.08888
1152.80886,0.09694
1151.31907,0.11426
1149.82928,0.12698
1148.33949,0.15115
1146.84970,0.15227
1145.35991,0.15340
1143.87013,0.14047
1142.38034,0.16110
1140.89055,0.15599
1139.40076,0.17278
1137.91097,0.19372
1136.42118,0.20350
1134.93140,0.20044
1133.44161,0.19740
1131.95182,0.21334
1130.46203,0.23561
1128.97224,0.26836
1127.48245,0.26008
1125.99266,0.26299
1124.50288,0.27808
1123.01309,0.26756
1121.52330,0.25706
1120.03351,0.25449
1118.54372,0.24999
1117.05393,0.26618
1115.56415,0.27558
1114.07436,0.27335
1112.58457,0.27077
1111.09478,0.26822
1109.60499,0.25367
1108.11520,0.25761
1106.62542,0.25331
1105.13563,0.23349
1103.64584,0.22730
1102.15605,0.23352
1100.66626,0.23515
1099.17647,0.23681
1097.68668,0.22707
1096.19690,0.24384
1094.70711,0.23658
1093.21732,0.24830
1091.72753,0.22044
1090.23774,0.20936
1088.74795,0.19831
1087.25817,0.20260
1085.76838,0.19986
1084.27859,0.18694
1082.78880,0.18571
1081.29901,0.19033
1079.80922,0.21077
1078.31943,0.22298
1076.82965,0.23521
1075.33986,0.24163
1073.85007,0.25148
1072.36028,0.25382
1070.87049,0.28194
1069.38070,0.28968
1067.89092,0.30291
1066.40113,0.31616
1064.91134,0.37402
1063.42155,0.47200
1061.93176,0.61543
1060.44197,0.70616
1058.95219,0.78817
1057.46240,0.85867
1055.97261,0.92919
1054.48282,0.98139
1052.99303,1.02852
1051.50324,1.05477
1050.01345,1.05311
1048.52367,1.03811
1047.03388,1.05131
1045.54409,1.06455
1044.05430,1.01415
1042.56451,0.87509
1041.07472,0.77153
1039.58494,0.73019
1038.09515,0.68256
1036.60536,0.64371
1035.11557,0.60487
1033.62578,0.52330
1032.13599,0.46168
1030.64620,0.40494
1029.15642,0.34458
1027.66663,0.31304
1026.17684,0.28152
1024.68705,0.23217
1023.19726,0.18528
1021.70747,0.15881
1020.21769,0.15691
1018.72790,0.13026
1017.23811,0.12938
1015.74832,0.12852
1014.25853,0.11457
1012.76874,0.13102
1011.27896,0.10570
1009.78917,0.10081
1008.29938,0.08283
1006.80959,0.07338
1005.31980,0.06395
1003.83001,0.03122
1002.34022,0.01917
1000.85044,0.03921
999.36065,0.05977
997.87086,0.06953
996.38107,0.07932
994.89128,0.10190
993.40149,0.10141
991.91171,0.12743
990.42192,0.14400
988.93213,0.17299
987.44234,0.16884
985.95255,0.16471
984.46276,0.17409
982.97297,0.14924
981.48319,0.13850
979.99340,0.11710
978.50361,0.10982
977.01382,0.10256
975.52403,0.08536
974.03424,0.05944
972.54446,0.05371
971.05467,0.01885
969.56488,0.02945
968.07509,0.02343
966.58530,0.01743
965.09551,0.00624
963.60573,0.00619
962.11594,0.02430
960.62615,0.00599
959.13636,0.01370
957.64657,0.02143
956.15678,0.01886
954.66699,0.02021
953.17721,0.03106
951.68742,0.03585
950.19763,0.04990
948.70784,0.06398
947.21805,0.06569
945.72826,0.08298
944.23848,0.08085
942.74869,0.09989
941.25890,0.11215
939.76911,0.12406
938.27932,0.13600
936.78953,0.16340
935.29974,0.17648
933.80996,0.20271
932.32017,0.24524
930.83038,0.25391
929.34059,0.26260
927.85080,0.27386
926.36101,0.28806
924.87123,0.32392
923.38144,0.38287
921.89165,0.42181
920.40186,0.46077
918.91207,0.53827
917.42228,0.67556
915.93250,0.85345
914.44271,1.07097
912.95292,1.19752
911.46313,1.32410
909.97334,1.50063
908.48355,1.73161
906.99376,1.94779
905.50398,2.00000
904.01419,1.98833
902.52440,1.97669
901.03461,1.96556
899.54482,1.92651
898.05503,1.79346
896.56525,1.63006
895.07546,1.50338
893.58567,1.37672
892.09588,1.07029
890.60609,0.84649
889.11630,0.64848
887.62651,0.48280
886.13673,0.41737
884.64694,0.35196
883.15715,0.26556
881.66736,0.19182
880.17757,0.14143
878.68778,0.12823
877.19800,0.11507
875.70821,0.07374
874.21842,0.05454
872.72863,0.03367
871.23884,0.04028
869.74905,0.02870
868.25927,0.01713
866.76948,0.00705
865.27969,0.01133
863.78990,0.04115
862.30011,0.03138
860.81032,0.04630
859.32053,0.06125
857.83075,0.08096
856.34096,0.09632
854.85117,0.11996
853.36138,0.13634
851.87159,0.13987
850.38180,0.14342
848.89202,0.14894
847.40223,0.17684
845.91244,0.19942
844.42265,0.21789
842.93286,0.23638
841.44307,0.23887
839.95329,0.26033
838.46350,0.25339
836.97371,0.26858
835.48392,0.26218
833.99413,0.25580
832.50434,0.25260
831.01455,0.24359
829.52477,0.23996
828.03498,0.20841
826.54519,0.18429
825.05540,0.16020
823.56561,0.14767
822.07582,0.13347
820.58604,0.12998
819.09625,0.13745
817.60646,0.14495
816.11667,0.13230
814.62688,0.13474
813.13709,0.13672
811.64730,0.12852
810.15752,0.12764
808.66773,0.12678
807.17794,0.13663
805.68815,0.15525
804.19836,0.14037
802.70857,0.14945
801.21879,0.15855
799.72900,0.14399
798.23921,0.13650
796.74942,0.11348
795.25963,0.11053
793.76984,0.10761
792.28006,0.14516
790.79027,0.16719
789.30048,0.18730
787.81069,0.20477
786.32090,0.21776
784.83111,0.23077
783.34132,0.26094
781.85154,0.29964
780.36175,0.36218
778.87196,0.38027
777.38217,0.39839
775.89238,0.41581
774.40259,0.42134
772.91281,0.40819
771.42302,0.38523
769.93323,0.36229
768.44344,0.34266
766.95365,0.26061
765.46386,0.24078
763.97407,0.17457
762.48429,0.16754
760.99450,0.16055
759.50471,0.13693
758.01492,0.12232
756.52513,0.10289
755.03534,0.09708
753.54556,0.09130
752.05577,0.07801
750.56598,0.06450
749.07619,0.06754
747.58640,0.06416
746.09661,0.06081
744.60683,0.04497
743.11704,0.03280
741.62725,0.01944
740.13746,0.01801
738.64767,0.01660
737.15788,0.00599
735.66809,0.02034
734.17831,0.00532
732.68852,0.00704
731.19873,0.00878
729.70894,0.01710
728.21915,0.02083
726.72936,0.02994
725.23958,0.02327
723.74979,0.02076
722.26000,0.01827
720.77021,0.00730
719.28042,0.01076
717.79063,0.00599
716.30084,0.01062
714.81106,0.01528
713.32127,0.01935
711.83148,0.03220
710.34169,0.02223
708.85190,0.01970
707.36211,0.01719
705.87233,0.04131
704.38254,0.05088
702.89275,0.05659
701.40296,0.06086
699.91317,0.06515
698.42338,0.05878
696.93360,0.08548
695.44381,0.10662
693.95402,0.10895
692.46423,0.11130
690.97444,0.11793
689.48465,0.15277
687.99486,0.15945
686.50508,0.17612
685.01529,0.19281
683.52550,0.22604
682.03571,0.26295
680.54592,0.26927
679.05613,0.27136
677.56635,0.27347
676.07656,0.28229
674.58677,0.26125
673.09698,0.21545
671.60719,0.20904
670.11740,0.20265
668.62761,0.19362
667.13783,0.16298
665.64804,0.15436
664.15825,0.14576
662.66846,0.11374
661.17867,0.09560
659.68888,0.08331
658.19910,0.07639
656.70931,0.06949
655.21952,0.04051
653.72973,0.05432
652.23994,0.04045
650.75015,0.03729
649.26037,0.03417
647.77058,0.03811
646.28079,0.03867
644.79100,0.04631
643.30121,0.04122
641.81142,0.03614
640.32163,0.04191
638.83185,0.04722
637.34206,0.03724
635.85227,0.03299
634.36248,0.02878
632.87269,0.02130
631.38290,0.02454
629.89312,0.02805
628.40333,0.01701
626.91354,0.00599
625.42375,0.02450
623.93396,0.01049
622.44417,0.01496
620.95438,0.01946
619.46460,0.02957
617.97481,0.05648
616.48502,0.08122
614.99523,0.10258
613.50544,0.12396
612.01565,0.12667
610.52587,0.15734
609.03608,0.18852
607.54629,0.20866
606.05650,0.22884
604.56671,0.31889
603.07692,0.36887
601.58714,0.38122
600.09735,0.39360
598.60756,0.45775
597.11777,0.44782
595.62798,0.47121
594.13819,0.46546
592.64840,0.45973
591.15862,0.39402
589.66883,0.35336
588.17904,0.30082
586.68925,0.26264
585.19946,0.22448
583.70967,0.16788
582.21989,0.14362
580.73010,0.12898
579.24031,0.11437
577.75052,0.08265
576.26073,0.08303
574.77094,0.07201
573.28115,0.06600
571.79137,0.06001
570.30158,0.06413
568.81179,0.09063
567.32200,0.09893
565.83221,0.10726
564.34242,0.11609
562.85264,0.15702
561.36285,0.15206
559.87306,0.16583
558.38327,0.17962
556.89348,0.17352
555.40369,0.22696
553.91391,0.22588
552.42412,0.22483
550.93433,0.20838
549.44454,0.21965
547.95475,0.24357
546.46496,0.24748
544.97517,0.25141
543.48539,0.26545
541.99560,0.27368
540.50581,0.30393
539.01602,0.33420
537.52623,0.34979
536.03644,0.41813
534.54666,0.43499
533.05687,0.46803
531.56708,0.50110
530.07729,0.51852
528.58750,0.57678
527.09771,0.59461
525.60792,0.61247
524.11814,0.68319
522.62835,0.73985
521.13856,0.82350
519.64877,0.82251
518.15898,0.82154
516.66919,0.88072
515.17941,0.87579
513.68962,0.87040
512.19983,0.86503
510.71004,0.82616
509.22025,0.76666
507.73046,0.72371
506.24068,0.68454
504.75089,0.64540
503.26110,0.52332
501.77131,0.41219
500.28152,0.36900
498.79173,0.32583
497.30194,0.22157
495.81216,0.19291
494.32237,0.18346
492.83258,0.17404
491.34279,0.13865
489.85300,0.11640
488.36321,0.07352
486.87343,0.07963
485.38364,0.08576
483.89385,0.10904
482.40406,0.11485
480.91427,0.11195
479.42448,0.10906
477.93469,0.14969
476.44491,0.19715
474.95512,0.20443
473.46533,0.21172
471.97554,0.22111
470.48575,0.21911
468.99596,0.21785
467.50618,0.20326
466.01639,0.18869
464.52660,0.15909
463.03681,0.09962
461.54702,0.07954
460.05723,0.05948
458.56745,0.03240
457.07766,0.02625
455.58787,0.02242
454.09808,0.01862
452.60829,0.01132
451.11850,0.00599
449.62871,0.01889
448.13893,0.03181
446.64914,0.02290
445.15935,0.02713
443.66956,0.01729
442.17977,0.01476
440.68998,0.01226
439.20020,0.02631
437.71041,0.05374
436.22062,0.04815
434.73083,0.04259
433.24104,0.04653
431.75125,0.04661
430.26146,0.04367
428.77168,0.04076
427.28189,0.05816
425.79210,0.03064
424.30231,0.04177
422.81252,0.05293
421.32273,0.04953
419.83295,0.04689
418.34316,0.03880
416.85337,0.03074
415.36358,0.05320
413.87379,0.05066
412.38400,0.04522
410.89422,0.03981
409.40443,0.02301
407.91464,0.02007
406.42485,0.03684
404.93506,0.04269
403.44527,0.04857
401.95548,0.04985
400.46570,0.03586
398.97591,0.02918
397.48612,0.02252
395.99633,0.04868
394.50654,0.02604
393.01675,0.03586
391.52697,0.04159
390.03718,0.03726
388.54739,0.02858
387.05760,0.02564
385.56781,0.02273
384.07802,0.01412
382.58824,0.01308
381.09845,0.01862
379.60866,0.02418
378.11887,0.02467
376.62908,0.00599
375.13929,0.01728
373.64950,0.02860
372.15972,0.03302
370.66993,0.05058
369.18014,0.04510
367.69035,0.03964
366.20056,0.04697
364.71077,0.05067
363.22099,0.05075
361.73120,0.05086
360.24141,0.05002
358.75162,0.03998
357.26183,0.06555
355.77204,0.09115
354.28225,0.03841
352.79247,0.04134
351.30268,0.06519
349.81289,0.08906
348.32310,0.07627
346.83331,0.09387
345.34352,0.07178
343.85374,0.04971
342.36395,0.05159
340.87416,0.04330
339.38437,0.04183
337.89458,0.04039
336.40479,0.07032
334.91501,0.03783
333.42522,0.04095
331.93543,0.04410
330.44564,0.02918
328.95585,0.03639
327.46606,0.02989
325.97627,0.02343
324.48649,0.03777
322.99670,0.05213
321.50691,0.08778
320.01712,0.12346
318.52733,0.11967
317.03754,0.10425
315.54776,0.10040
314.05797,0.09657
312.56818,0.08146
311.07839,0.06347
309.58860,0.05546
308.09881,0.04748
306.60902,0.02543
305.11924,0.02114
303.62945,0.01687
302.13966,0.00599
300.64987,0.00561
299.16008,0.00599
