1778.52000,0.01567
1777.03021,0.01503
1775.54042,0.02462
1774.05063,0.02423
1772.56085,0.02073
1771.07106,0.02122
1769.58127,0.02403
1768.09148,0.01665
1766.60169,0.01305
1765.11190,0.01802
1763.62212,0.00195
1762.13233,0.02093
1760.64254,0.01618
1759.15275,0.01541
1757.66296,0.01653
1756.17317,0.00685
1754.68339,0.01699
1753.19360,0.01048
1751.70381,0.00795
1750.21402,0.00357
1748.72423,0.00589
1747.23444,0.00323
1745.74465,0.00455
1744.25487,0.01132
1742.76508,0.00435
1741.27529,0.01054
1739.78550,0.01050
1738.29571,0.00424
1736.80592,0.00195
1735.31614,0.01131
1733.82635,0.00360
1732.33656,0.00841
1730.84677,0.00304
1729.35698,0.00353
1727.86719,0.00426
1726.37740,0.00000
1724.88762,0.00286
1723.39783,0.00053
1721.90804,0.01010
1720.41825,0.01240
1718.92846,0.00285
1717.43867,0.00771
1715.94889,0.00195
1714.45910,0.01273
1712.96931,0.01457
1711.47952,0.01290
1709.98973,0.00645
1708.49994,0.01503
1707.01016,0.01093
1705.52037,0.00684
1704.03058,0.00195
1702.54079,0.00760
1701.05100,0.01015
1699.56121,0.00939
1698.07142,0.00948
1696.58164,0.01064
1695.09185,0.01704
1693.60206,0.01220
1692.11227,0.00948
1690.62248,0.01741
1689.13269,0.01410
1687.64291,0.01541
1686.15312,0.02070
1684.66333,0.02644
1683.17354,0.02698
1681.68375,0.02756
1680.19396,0.03024
1678.70417,0.02710
1677.21439,0.02983
1675.72460,0.03801
1674.23481,0.03057
1672.74502,0.03900
1671.25523,0.04537
1669.76544,0.04322
1668.27566,0.05401
1666.78587,0.05525
1665.29608,0.05338
1663.80629,0.05716
1662.31650,0.07326
1660.82671,0.06625
1659.33693,0.06907
1657.84714,0.08316
1656.35735,0.07435
1654.86756,0.06244
1653.37777,0.06097
1651.88798,0.07287
1650.39819,0.07124
1648.90841,0.08319
1647.41862,0.07390
1645.92883,0.07526
1644.43904,0.07665
1642.94925,0.07431
1641.45946,0.07096
1639.96968,0.06950
1638.47989,0.06682
1636.99010,0.06770
1635.50031,0.07028
1634.01052,0.07184
1632.52073,0.07593
1631.03094,0.07462
1629.54116,0.07813
1628.05137,0.08145
1626.56158,0.08126
1625.07179,0.09193
1623.58200,0.09158
1622.09221,0.08937
1620.60243,0.08448
1619.11264,0.08357
1617.62285,0.08123
1616.13306,0.08663
1614.64327,0.07266
1613.15348,0.08436
1611.66370,0.07983
1610.17391,0.07240
1608.68412,0.07812
1607.19433,0.08825
1605.70454,0.08235
1604.21475,0.08461
1602.72496,0.08689
1601.23518,0.07815
1599.74539,0.07255
1598.25560,0.07762
1596.76581,0.07895
1595.27602,0.09532
1593.78623,0.07232
1592.29645,0.08227
1590.80666,0.07829
1589.31687,0.06995
1587.82708,0.06476
1586.33729,0.07877
1584.84750,0.08385
1583.35771,0.08499
1581.86793,0.08761
1580.37814,0.07566
1578.88835,0.06124
1577.39856,0.05351
1575.90877,0.06415
1574.41898,0.06148
1572.92920,0.04840
1571.43941,0.05912
1569.94962,0.05495
1568.45983,0.05081
1566.97004,0.04450
1565.48025,0.02822
1563.99047,0.02217
1562.50068,0.02594
1561.01089,0.02682
1559.52110,0.01855
1558.03131,0.01468
1556.54152,0.02689
1555.05173,0.02599
1553.56195,0.01177
1552.07216,0.02218
1550.58237,0.01010
1549.09258,0.00513
1547.60279,0.01373
1546.11300,0.01527
1544.62322,0.00995
1543.13343,0.00195
1541.64364,0.00455
1540.15385,0.00415
1538.66406,0.00378
1537.17427,0.01694
1535.68448,0.01659
1534.19470,0.01730
1532.70491,0.01595
1531.21512,0.02150
1529.72533,0.01520
1528.23554,0.02059
1526.74575,0.03956
1525.25597,0.02582
1523.76618,0.02816
1522.27639,0.02990
1520.78660,0.02833
1519.29681,0.03429
1517.80702,0.03506
1516.31724,0.02459
1514.82745,0.03146
1513.33766,0.03782
1511.84787,0.04422
1510.35808,0.05470
1508.86829,0.04019
1507.37850,0.04154
1505.88872,0.05043
1504.39893,0.04871
1502.90914,0.05577
1501.41935,0.06077
1499.92956,0.06141
1498.43977,0.06500
1496.94999,0.07403
1495.46020,0.07913
1493.97041,0.09488
1492.48062,0.10378
1490.99083,0.11228
1489.50104,0.12102
1488.01125,0.12937
1486.52147,0.13774
1485.03168,0.15551
1483.54189,0.20666
1482.05210,0.19280
1480.56231,0.22462
1479.07252,0.24937
1477.58274,0.26601
1476.09295,0.26767
1474.60316,0.28207
1473.11337,0.27190
1471.62358,0.31950
1470.13379,0.30833
1468.64401,0.30657
1467.15422,0.30817
1465.66443,0.32762
1464.17464,0.34709
1462.68485,0.38566
1461.19506,0.42050
1459.70527,0.45557
1458.21549,0.52173
1456.72570,0.56915
1455.23591,0.63077
1453.74612,0.66219
1452.25633,0.72053
1450.76654,0.74866
1449.27676,0.76202
1447.78697,0.73538
1446.29718,0.71272
1444.80739,0.69634
1443.31760,0.67998
1441.82781,0.65823
1440.33802,0.61712
1438.84824,0.55289
1437.35845,0.49807
1435.86866,0.49143
1434.37887,0.49606
1432.88908,0.51928
1431.39929,0.59254
1429.90951,0.65521
1428.41972,0.72915
1426.92993,0.80416
1425.44014,0.84917
1423.95035,0.86138
1422.46056,0.87361
1420.97078,0.89890
1419.48099,0.94526
1417.99120,0.91911
1416.50141,0.91570
1415.01162,0.91169
1413.52183,0.85622
1412.03204,0.78305
1410.54226,0.74680
1409.05247,0.67847
1407.56268,0.59933
1406.07289,0.52126
1404.58310,0.49834
1403.09331,0.47546
1401.60353,0.40600
1400.11374,0.37722
1398.62395,0.33054
1397.13416,0.26991
1395.64437,0.25121
1394.15458,0.21544
1392.66479,0.17969
1391.17501,0.14772
1389.68522,0.12828
1388.19543,0.10533
1386.70564,0.09011
1385.21585,0.07491
1383.72606,0.04327
1382.23628,0.04501
1380.74649,0.02072
1379.25670,0.02167
1377.76691,0.02098
1376.27712,0.00530
1374.78733,0.00195
1373.29755,0.00886
1371.80776,0.00871
1370.31797,0.00316
1368.82818,0.00559
1367.33839,0.00805
1365.84860,0.01365
1364.35881,0.00698
1362.86903,0.03077
1361.37924,0.04792
1359.88945,0.05675
1358.39966,0.07748
1356.90987,0.11263
1355.42008,0.15071
1353.93030,0.22593
1352.44051,0.24437
1350.95072,0.26283
1349.46093,0.32102
1347.97114,0.44115
1346.48135,0.52504
1344.99156,0.58102
1343.50178,0.64702
1342.01199,0.71847
1340.52220,0.71470
1339.03241,0.74742
1337.54262,0.81061
1336.05283,0.82911
1334.56305,0.84763
1333.07326,0.91047
1331.58347,0.89829
1330.09368,0.86988
1328.60389,0.85712
1327.11410,0.86378
1325.62432,0.85607
1324.13453,0.82776
1322.64474,0.78904
1321.15495,0.73243
1319.66516,0.70429
1318.17537,0.67617
1316.68558,0.62984
1315.19580,0.59083
1313.70601,0.55685
1312.21622,0.49579
1310.72643,0.47895
1309.23664,0.45151
1307.74685,0.42138
1306.25707,0.38981
1304.76728,0.36838
1303.27749,0.34697
1301.78770,0.32110
1300.29791,0.28109
1298.80812,0.22129
1297.31834,0.19925
1295.82855,0.16890
1294.33876,0.14982
1292.84897,0.11973
1291.35918,0.11425
1289.86939,0.11339
1288.37960,0.11255
1286.88982,0.09651
1285.40003,0.09114
1283.91024,0.07599
1282.42045,0.05711
1280.93066,0.05452
1279.44087,0.05966
1277.95109,0.04753
1276.46130,0.05689
1274.97151,0.05689
1273.48172,0.05692
1271.99193,0.04197
1270.50214,0.02182
1269.01235,0.02901
1267.52257,0.03373
1266.03278,0.03409
1264.54299,0.02697
1263.05320,0.04155
1261.56341,0.02937
1260.07362,0.01722
1258.58384,0.01812
1257.09405,0.02029
1255.60426,0.02416
1254.11447,0.01429
1252.62468,0.02383
1251.13489,0.01422
1249.64511,0.01714
1248.15532,0.00195
1246.66553,0.00376
1245.17574,0.00559
1243.68595,0.02203
1242.19616,0.03246
1240.70637,0.02769
1239.21659,0.03358
1237.72680,0.03991
1236.23701,0.01603
1234.74722,0.00803
1233.25743,0.01474
1231.76764,0.02148
1230.27786,0.00438
1228.78807,0.01294
1227.29828,0.03445
1225.80849,0.02096
1224.31870,0.01875
1222.82891,0.00927
1221.33912,0.03088
1219.84934,0.03448
1218.35955,0.03810
1216.86976,0.05645
1215.37997,0.05710
1213.89018,0.07695
1212.40039,0.07035
1210.91061,0.07045
1209.42082,0.08016
1207.93103,0.07332
1206.44124,0.06651
1204.95145,0.06149
1203.46166,0.06922
1201.97188,0.07551
1200.48209,0.07286
1198.99230,0.07773
1197.50251,0.05721
1196.01272,0.06151
1194.52293,0.04801
1193.03314,0.03454
1191.54336,0.04913
1190.05357,0.03414
1188.56378,0.04232
1187.07399,0.03280
1185.58420,0.01643
1184.09441,0.00195
1182.60463,0.00346
1181.11484,0.00499
1179.62505,0.00477
1178.13526,0.01146
1176.64547,0.01379
1175.15568,0.01636
1173.66589,0.03021
1172.17611,0.02532
1170.68632,0.01555
1169.19653,0.00581
1167.70674,0.00204
1166.21695,0.02476
1164.72716,0.02854
1163.23738,0.03110
1161.74759,0.04139
1160.25780,0.04086
1158.76801,0.04849
1157.27822,0.05614
1155.78843,0.06424
1154.29865,0.08215
1152.80886,0.08404
1151.31907,0.09993
1149.82928,0.10749
1148.33949,0.12592
1146.84970,0.13031
1145.35991,0.13472
1143.87013,0.13446
1142.38034,0.13715
1140.89055,0.11859
1139.40076,0.14384
1137.91097,0.16953
1136.42118,0.18211
1134.93140,0.18846
1133.44161,0.19484
1131.95182,0.20228
1130.46203,0.20037
1128.97224,0.24246
1127.48245,0.25644
1125.99266,0.24293
1124.50288,0.26467
1123.01309,0.25235
1121.52330,0.24005
1120.03351,0.21830
1118.54372,0.21366
1117.05393,0.22051
1115.56415,0.21676
1114.07436,0.23117
1112.58457,0.22642
1111.09478,0.22169
1109.60499,0.20699
1108.11520,0.23296
1106.62542,0.21017
1105.13563,0.20763
1103.64584,0.19323
1102.15605,0.20804
1100.66626,0.19557
1099.17647,0.18312
1097.68668,0.18799
1096.19690,0.17747
1094.70711,0.19344
1093.21732,0.18443
1091.72753,0.18669
1090.23774,0.18220
1088.74795,0.17774
1087.25817,0.18883
1085.76838,0.16201
1084.27859,0.15856
1082.78880,0.16347
1081.29901,0.17591
1079.80922,0.18213
1078.31943,0.18430
1076.82965,0.18649
1075.33986,0.21279
1073.85007,0.21910
1072.36028,0.23711
1070.87049,0.25347
1069.38070,0.26798
1067.89092,0.27522
1066.40113,0.28249
1064.91134,0.33939
1063.42155,0.44364
1061.93176,0.57709
1060.44197,0.64845
1058.95219,0.76007
1057.46240,0.81542
1055.97261,0.87080
1054.48282,0.92496
1052.99303,0.99123
1051.50324,1.02000
1050.01345,1.00648
1048.52367,1.01195
1047.03388,1.00661
1045.54409,1.00129
1044.05430,0.92429
1042.56451,0.81145
1041.07472,0.74888
1039.58494,0.68550
1038.09515,0.60484
1036.60536,0.55954
1035.11557,0.51427
1033.62578,0.44911
1032.13599,0.39919
1030.64620,0.35514
1029.15642,0.31944
1027.66663,0.28951
1026.17684,0.25959
1024.68705,0.21105
1023.19726,0.18692
1021.70747,0.14572
1020.21769,0.13477
1018.72790,0.12551
1017.23811,0.11232
1015.74832,0.09915
1014.25853,0.09956
1012.76874,0.10186
1011.27896,0.10878
1009.78917,0.10384
1008.29938,0.10059
1006.80959,0.08027
1005.31980,0.05998
1003.83001,0.02532
1002.34022,0.00195
1000.85044,0.03037
999.36065,0.03735
997.87086,0.04289
996.38107,0.04845
994.89128,0.05967
993.40149,0.07717
991.91171,0.10657
990.42192,0.12870
988.93213,0.12938
987.44234,0.13051
985.95255,0.13166
984.46276,0.13012
982.97297,0.12256
981.48319,0.10898
979.99340,0.08813
978.50361,0.07961
977.01382,0.07111
975.52403,0.05804
974.03424,0.04730
972.54446,0.03428
971.05467,0.01962
969.56488,0.00436
968.07509,0.00330
966.58530,0.00227
965.09551,0.01805
963.60573,0.01592
962.11594,0.01091
960.62615,0.00195
959.13636,0.00572
957.64657,0.00952
956.15678,0.02637
954.66699,0.02281
953.17721,0.02845
951.68742,0.02265
950.19763,0.03772
948.70784,0.05282
947.21805,0.06356
945.72826,0.07057
944.23848,0.09512
942.74869,0.10218
941.25890,0.11219
939.76911,0.12388
938.27932,0.13561
936.78953,0.16028
935.29974,0.16517
933.80996,0.19760
932.32017,0.22318
930.83038,0.23492
929.34059,0.24668
927.85080,0.24502
926.36101,0.26840
924.87123,0.29702
923.38144,0.32775
921.89165,0.37038
920.40186,0.41304
918.91207,0.48324
917.42228,0.59265
915.93250,0.78088
914.44271,0.95955
912.95292,1.07456
911.46313,1.18960
909.97334,1.44380
908.48355,1.67051
906.99376,1.86723
905.50398,1.96850
904.01419,1.97442
902.52440,1.98037
901.03461,2.00000
899.54482,1.94148
898.05503,1.77542
896.56525,1.60667
895.07546,1.48642
893.58567,1.36619
892.09588,1.06306
890.60609,0.85710
889.11630,0.64136
887.62651,0.49715
886.13673,0.43031
884.64694,0.36348
883.15715,0.25353
881.66736,0.20823
880.17757,0.14523
878.68778,0.13281
877.19800,0.12041
875.70821,0.08021
874.21842,0.05754
872.72863,0.04887
871.23884,0.04000
869.74905,0.03763
868.25927,0.03528
866.76948,0.04317
865.27969,0.02774
863.78990,0.02921
862.30011,0.04968
860.81032,0.05913
859.32053,0.06860
857.83075,0.07434
856.34096,0.10095
854.85117,0.13009
853.36138,0.16113
851.87159,0.16832
850.38180,0.17554
848.89202,0.17226
847.40223,0.18880
845.91244,0.21746
844.42265,0.24177
842.93286,0.26610
841.44307,0.27836
839.95329,0.28815
838.46350,0.29963
836.97371,0.28341
835.48392,0.29066
833.99413,0.29794
832.50434,0.28471
831.01455,0.27401
829.52477,0.26187
828.03498,0.22557
826.54519,0.21119
825.05540,0.19683
823.56561,0.17708
822.07582,0.14276
820.58604,0.13306
819.09625,0.14694
817.60646,0.16084
816.11667,0.13600
814.62688,0.14412
813.13709,0.14600
811.64730,0.14500
810.15752,0.14454
808.66773,0.14410
807.17794,0.15609
805.68815,0.15372
804.19836,0.16451
802.70857,0.16793
801.21879,0.17136
799.72900,0.16159
798.23921,0.12953
796.74942,0.12335
795.25963,0.11709
793.76984,0.11085
792.28006,0.15623
790.79027,0.18079
789.30048,0.20433
787.81069,0.22060
786.32090,0.22241
784.83111,0.22423
783.34132,0.28540
781.85154,0.31260
780.36175,0.37339
778.87196,0.40294
777.38217,0.43252
775.89238,0.44564
774.40259,0.42315
772.91281,0.41652
771.42302,0.41357
769.93323,0.41064
768.44344,0.33676
766.95365,0.28416
765.46386,0.24993
763.97407,0.20405
762.48429,0.18384
760.99450,0.16365
759.50471,0.12577
758.01492,0.12230
756.52513,0.09218
755.03534,0.08564
753.54556,0.07912
752.05577,0.06888
750.56598,0.06053
749.07619,0.04929
747.58640,0.04444
746.09661,0.03960
744.60683,0.02990
743.11704,0.02439
741.62725,0.01952
740.13746,0.01864
738.64767,0.01779
737.15788,0.00195
735.66809,0.00355
734.17831,0.00142
732.68852,0.00234
731.19873,0.00328
729.70894,0.00081
728.21915,0.01242
726.72936,0.01049
725.23958,0.00422
723.74979,0.00693
722.26000,0.00967
720.77021,0.00430
719.28042,0.00518
717.79063,0.00275
716.30084,0.00263
714.81106,0.00195
713.32127,0.00624
711.83148,0.03619
710.34169,0.02323
708.85190,0.02290
707.36211,0.02259
705.87233,0.02554
704.38254,0.04457
702.89275,0.04694
701.40296,0.05247
699.91317,0.05802
698.42338,0.04983
696.93360,0.06919
695.44381,0.08169
693.95402,0.09588
692.46423,0.11010
690.97444,0.10663
689.48465,0.13236
687.99486,0.15082
686.50508,0.16368
685.01529,0.17656
683.52550,0.21114
682.03571,0.22449
680.54592,0.24932
679.05613,0.25188
677.56635,0.25446
676.07656,0.21662
674.58677,0.21071
673.09698,0.19210
671.60719,0.18487
670.11740,0.17767
668.62761,0.15934
667.13783,0.14458
665.64804,0.12776
664.15825,0.11097
662.66846,0.09253
661.17867,0.09017
659.68888,0.07157
658.19910,0.06196
656.70931,0.05237
655.21952,0.04677
653.72973,0.04578
652.23994,0.05086
650.75015,0.03762
649.26037,0.02440
647.77058,0.03622
646.28079,0.03536
644.79100,0.04702
643.30121,0.04151
641.81142,0.03602
640.32163,0.04025
638.83185,0.04743
637.34206,0.03149
635.85227,0.02318
634.36248,0.01490
632.87269,0.00591
631.38290,0.00195
629.89312,0.01989
628.40333,0.02420
626.91354,0.02854
625.42375,0.00423
623.93396,0.01623
622.44417,0.01699
620.95438,0.01777
619.46460,0.02838
617.97481,0.04922
616.48502,0.07551
614.99523,0.08922
613.50544,0.10294
612.01565,0.12305
610.52587,0.15361
609.03608,0.16793
607.54629,0.19478
606.05650,0.22166
604.56671,0.27983
603.07692,0.32968
601.58714,0.34475
600.09735,0.35984
598.60756,0.42082
597.11777,0.46473
595.62798,0.44946
594.13819,0.43828
592.64840,0.42713
591.15862,0.38525
589.66883,0.33026
588.17904,0.27196
586.68925,0.23787
585.19946,0.20380
583.70967,0.15913
582.21989,0.12740
580.73010,0.10310
579.24031,0.07882
577.75052,0.05280
576.26073,0.06745
574.77094,0.07086
573.28115,0.06044
571.79137,0.05004
570.30158,0.06292
568.81179,0.08832
567.32200,0.09259
565.83221,0.09688
564.34242,0.10901
562.85264,0.14493
561.36285,0.15587
559.87306,0.17495
558.38327,0.19406
556.89348,0.18214
555.40369,0.20943
553.91391,0.21861
552.42412,0.22781
550.93433,0.23307
549.44454,0.22461
547.95475,0.23326
546.46496,0.23547
544.97517,0.23771
543.48539,0.29000
541.99560,0.30625
540.50581,0.34212
539.01602,0.37802
537.52623,0.39163
536.03644,0.39756
534.54666,0.43061
533.05687,0.45368
531.56708,0.47677
530.07729,0.52449
528.58750,0.53783
527.09771,0.57205
525.60792,0.60629
524.11814,0.69037
522.62835,0.72758
521.13856,0.79066
519.64877,0.82145
518.15898,0.85227
516.66919,0.87248
515.17941,0.85206
513.68962,0.85460
512.19983,0.85717
510.71004,0.82724
509.22025,0.77003
507.73046,0.69470
506.24068,0.65682
504.75089,0.61896
503.26110,0.52807
501.77131,0.40698
500.28152,0.35471
498.79173,0.30246
497.30194,0.22793
495.81216,0.20721
494.32237,0.18193
492.83258,0.15666
491.34279,0.15019
489.85300,0.11205
488.36321,0.08207
486.87343,0.07671
485.38364,0.07138
483.89385,0.09421
482.40406,0.11644
480.91427,0.11681
479.42448,0.11720
477.93469,0.16264
476.44491,0.17705
474.95512,0.19659
473.46533,0.21615
471.97554,0.22834
470.48575,0.24117
468.99596,0.24736
467.50618,0.22523
466.01639,0.20312
464.52660,0.17248
463.03681,0.12937
461.54702,0.11160
460.05723,0.09386
458.56745,0.06166
457.07766,0.03990
455.58787,0.03599
454.09808,0.03211
452.60829,0.01188
451.11850,0.03171
449.62871,0.03415
448.13893,0.03662
446.64914,0.04630
445.15935,0.01473
443.66956,0.00195
442.17977,0.01136
440.68998,0.02080
439.20020,0.05735
437.71041,0.05099
436.22062,0.05341
434.73083,0.05586
433.24104,0.05436
431.75125,0.03163
430.26146,0.04082
428.77168,0.05003
427.28189,0.03425
425.79210,0.07353
424.30231,0.06520
422.81252,0.05690
421.32273,0.04726
419.83295,0.02869
418.34316,0.02692
416.85337,0.02517
415.36358,0.03731
413.87379,0.05157
412.38400,0.03395
410.89422,0.01635
409.40443,0.03010
407.91464,0.02115
406.42485,0.04828
404.93506,0.04157
403.44527,0.03488
401.95548,0.04208
400.46570,0.02304
398.97591,0.02434
397.48612,0.02567
395.99633,0.04464
394.50654,0.03966
393.01675,0.03544
391.52697,0.03124
390.03718,0.02757
388.54739,0.02643
387.05760,0.02167
385.56781,0.01694
384.07802,0.02379
382.58824,0.02609
381.09845,0.02132
379.60866,0.01658
378.11887,0.01123
376.62908,0.00195
375.13929,0.00124
373.64950,0.00055
372.15972,0.02584
370.66993,0.04156
369.18014,0.04257
367.69035,0.04360
366.20056,0.02985
364.71077,0.04010
363.22099,0.04590
361.73120,0.05171
360.24141,0.05203
358.75162,0.06113
357.26183,0.06785
355.77204,0.07460
354.28225,0.07564
352.79247,0.07963
351.30268,0.09010
349.81289,0.10059
348.32310,0.09214
346.83331,0.06808
345.34352,0.07010
343.85374,0.07215
342.36395,0.06380
340.87416,0.08820
339.38437,0.07385
337.89458,0.05952
336.40479,0.06732
334.91501,0.06201
333.42522,0.05672
331.93543,0.05145
330.44564,0.05393
328.95585,0.03495
327.46606,0.03039
325.97627,0.02585
324.48649,0.05442
322.99670,0.06551
321.50691,0.08777
320.01712,0.11005
318.52733,0.12663
317.03754,0.13386
315.54776,0.12443
314.05797,0.11502
312.56818,0.09897
311.07839,0.12922
309.58860,0.10832
308.09881,0.08744
306.60902,0.06940
305.11924,0.02971
303.62945,0.02496
302.13966,0.00491
300.64987,0.00195
299.16008,0.00195
