1778.52000,0.01187
1777.03021,0.00487
1775.54042,0.00695
1774.05063,0.01312
1772.56085,0.01660
1771.07106,0.01581
1769.58127,0.00509
1768.09148,0.00615
1766.60169,0.01086
1765.11190,0.00881
1763.62212,0.00701
1762.13233,0.00365
1760.64254,0.01140
1759.15275,0.01283
1757.66296,0.01249
1756.17317,0.00492
1754.68339,0.00304
1753.19360,0.00639
1751.70381,0.00478
1750.21402,0.00207
1748.72423,0.00390
1747.23444,0.00237
1745.74465,0.00267
1744.25487,0.00661
1742.76508,0.01126
1741.27529,0.01548
1739.78550,0.00502
1738.29571,0.01517
1736.80592,0.00612
1735.31614,0.01586
1733.82635,0.00957
1732.33656,0.00421
1730.84677,0.00000
1729.35698,0.00487
1727.86719,0.01066
1726.37740,0.01354
1724.88762,0.00604
1723.39783,0.01146
1721.90804,0.01260
1720.41825,0.01241
1718.92846,0.00365
1717.43867,0.00796
1715.94889,0.01434
1714.45910,0.01780
1712.96931,0.01947
1711.47952,0.00895
1709.98973,0.01543
1708.49994,0.01740
1707.01016,0.01770
1705.52037,0.01802
1704.03058,0.01328
1702.54079,0.00743
1701.05100,0.00365
1699.56121,0.01171
1698.07142,0.02862
1696.58164,0.02971
1695.09185,0.02065
1693.60206,0.02180
1692.11227,0.02138
1690.62248,0.03027
1689.13269,0.02945
1687.64291,0.03771
1686.15312,0.03965
1684.66333,0.03121
1683.17354,0.04067
1681.68375,0.03930
1680.19396,0.03433
1678.70417,0.03979
1677.21439,0.04211
1675.72460,0.04468
1674.23481,0.05632
1672.74502,0.04106
1671.25523,0.04823
1669.76544,0.06628
1668.27566,0.06128
1666.78587,0.07463
1665.29608,0.07171
1663.80629,0.06949
1662.31650,0.07568
1660.82671,0.08414
1659.33693,0.08608
1657.84714,0.08984
1656.35735,0.07485
1654.86756,0.08116
1653.37777,0.07730
1651.88798,0.08026
1650.39819,0.08618
1648.90841,0.10345
1647.41862,0.08295
1645.92883,0.08046
1644.43904,0.07800
1642.94925,0.08359
1641.45946,0.08310
1639.96968,0.08059
1638.47989,0.08536
1636.99010,0.07860
1635.50031,0.08319
1634.01052,0.07512
1632.52073,0.08881
1631.03094,0.08509
1629.54116,0.08706
1628.05137,0.09968
1626.56158,0.10351
1625.07179,0.09514
1623.58200,0.11259
1622.09221,0.10427
1620.60243,0.08715
1619.11264,0.09472
1617.62285,0.09167
1616.13306,0.09499
1614.64327,0.08068
1613.15348,0.09604
1611.66370,0.10305
1610.17391,0.09221
1608.68412,0.09022
1607.19433,0.09617
1605.70454,0.10373
1604.21475,0.10238
1602.72496,0.10105
1601.23518,0.09285
1599.74539,0.08738
1598.25560,0.09235
1596.76581,0.10684
1595.27602,0.08335
1593.78623,0.08748
1592.29645,0.09798
1590.80666,0.09447
1589.31687,0.07582
1587.82708,0.08798
1586.33729,0.08839
1584.84750,0.08452
1583.35771,0.08023
1581.86793,0.08954
1580.37814,0.09525
1578.88835,0.07542
1577.39856,0.07122
1575.90877,0.06796
1574.41898,0.07331
1572.92920,0.05675
1571.43941,0.03817
1569.94962,0.04190
1568.45983,0.04566
1566.97004,0.05023
1565.48025,0.03741
1563.99047,0.02642
1562.50068,0.03220
1561.01089,0.05429
1559.52110,0.02686
1558.03131,0.03520
1556.54152,0.03360
1555.05173,0.03543
1553.56195,0.03231
1552.07216,0.02785
1550.58237,0.03088
1549.09258,0.02601
1547.60279,0.02434
1546.11300,0.01885
1544.62322,0.02085
1543.13343,0.02490
1541.64364,0.00365
1540.15385,0.00960
1538.66406,0.01558
1537.17427,0.01231
1535.68448,0.01970
1534.19470,0.01534
1532.70491,0.01803
1531.21512,0.02865
1529.72533,0.03410
1528.23554,0.02871
1526.74575,0.03172
1525.25597,0.03815
1523.76618,0.03215
1522.27639,0.03433
1520.78660,0.03834
1519.29681,0.03129
1517.80702,0.03625
1516.31724,0.03581
1514.82745,0.03992
1513.33766,0.03794
1511.84787,0.03599
1510.35808,0.05714
1508.86829,0.04641
1507.37850,0.04679
1505.88872,0.04742
1504.39893,0.06437
1502.90914,0.05284
1501.41935,0.04789
1499.92956,0.04749
1498.43977,0.06023
1496.94999,0.06644
1495.46020,0.07630
1493.97041,0.08934
1492.48062,0.09585
1490.99083,0.10488
1489.50104,0.11166
1488.01125,0.11666
1486.52147,0.12168
1485.03168,0.14890
1483.54189,0.14787
1482.05210,0.16948
1480.56231,0.18591
1479.07252,0.20690
1477.58274,0.21591
1476.09295,0.22382
1474.60316,0.22813
1473.11337,0.25578
1471.62358,0.27168
1470.13379,0.25479
1468.64401,0.25242
1467.15422,0.27224
1465.66443,0.27613
1464.17464,0.28005
1462.68485,0.33479
1461.19506,0.36669
1459.70527,0.41673
1458.21549,0.45253
1456.72570,0.50013
1455.23591,0.54006
1453.74612,0.61802
1452.25633,0.65935
1450.76654,0.69324
1449.27676,0.68349
1447.78697,0.70068
1446.29718,0.66745
1444.80739,0.65166
1443.31760,0.63589
1441.82781,0.60816
1440.33802,0.56326
1438.84824,0.51792
1437.35845,0.46470
1435.86866,0.45743
1434.37887,0.48072
1432.88908,0.51219
1431.39929,0.54776
1429.90951,0.61728
1428.41972,0.69476
1426.92993,0.77519
1425.44014,0.80610
1423.95035,0.83025
1422.46056,0.85442
1420.97078,0.88767
1419.48099,0.93994
1417.99120,0.91034
1416.50141,0.91560
1415.01162,0.86252
1413.52183,0.86330
1412.03204,0.81660
1410.54226,0.76155
1409.05247,0.69181
1407.56268,0.60943
1406.07289,0.54563
1404.58310,0.52111
1403.09331,0.49661
1401.60353,0.42429
1400.11374,0.40968
1398.62395,0.35822
1397.13416,0.29705
1395.64437,0.25763
1394.15458,0.22887
1392.66479,0.20239
1391.17501,0.17956
1389.68522,0.14680
1388.19543,0.11248
1386.70564,0.09402
1385.21585,0.07558
1383.72606,0.05491
1382.23628,0.03607
1380.74649,0.02472
1379.25670,0.01996
1377.76691,0.01500
1376.27712,0.00802
1374.78733,0.00741
1373.29755,0.00365
1371.80776,0.00691
1370.31797,0.02422
1368.82818,0.01554
1367.33839,0.00688
1365.84860,0.01725
1364.35881,0.02154
1362.86903,0.03332
1361.37924,0.05146
1359.88945,0.05808
1358.39966,0.08668
1356.90987,0.11801
1355.42008,0.16951
1353.93030,0.22578
1352.44051,0.24847
1350.95072,0.27120
1349.46093,0.33252
1347.97114,0.44613
1346.48135,0.51520
1344.99156,0.59266
1343.50178,0.67331
1342.01199,0.69832
1340.52220,0.74576
1339.03241,0.79165
1337.54262,0.81922
1336.05283,0.84400
1334.56305,0.86880
1333.07326,0.92677
1331.58347,0.94517
1330.09368,0.91743
1328.60389,0.90760
1327.11410,0.92064
1325.62432,0.88031
1324.13453,0.84679
1322.64474,0.82801
1321.15495,0.77847
1319.66516,0.74978
1318.17537,0.72111
1316.68558,0.69337
1315.19580,0.61655
1313.70601,0.56194
1312.21622,0.54377
1310.72643,0.48015
1309.23664,0.44665
1307.74685,0.39507
1306.25707,0.38470
1304.76728,0.35953
1303.27749,0.33439
1301.78770,0.31390
1300.29791,0.29005
1298.80812,0.23568
1297.31834,0.19038
1295.82855,0.15506
1294.33876,0.12610
1292.84897,0.09875
1291.35918,0.08862
1289.86939,0.08779
1288.37960,0.08699
1286.88982,0.08892
1285.40003,0.07527
1283.91024,0.07590
1282.42045,0.05912
1280.93066,0.05414
1279.44087,0.05529
1277.95109,0.03973
1276.46130,0.05835
1274.97151,0.04769
1273.48172,0.03706
1271.99193,0.04173
1270.50214,0.02606
1269.01235,0.02580
1267.52257,0.04592
1266.03278,0.02919
1264.54299,0.01498
1263.05320,0.02137
1261.56341,0.01569
1260.07362,0.01003
1258.58384,0.02103
1257.09405,0.02322
1255.60426,0.01662
1254.11447,0.02293
1252.62468,0.01547
1251.13489,0.01867
1249.64511,0.02144
1248.15532,0.00365
1246.66553,0.00435
1245.17574,0.00509
1243.68595,0.01535
1242.19616,0.02133
1240.70637,0.01716
1239.21659,0.02319
1237.72680,0.01930
1236.23701,0.00524
1234.74722,0.00569
1233.25743,0.00651
1231.76764,0.00735
1230.27786,0.02009
1228.78807,0.01566
1227.29828,0.02189
1225.80849,0.01909
1224.31870,0.00365
1222.82891,0.01219
1221.33912,0.02235
1219.84934,0.02845
1218.35955,0.03458
1216.86976,0.03779
1215.37997,0.05347
1213.89018,0.06036
1212.40039,0.05957
1210.91061,0.05451
1209.42082,0.06440
1207.93103,0.05905
1206.44124,0.05372
1204.95145,0.05781
1203.46166,0.06758
1201.97188,0.06130
1200.48209,0.06954
1198.99230,0.06195
1197.50251,0.03562
1196.01272,0.03419
1194.52293,0.02273
1193.03314,0.01128
1191.54336,0.02984
1190.05357,0.02218
1188.56378,0.02405
1187.07399,0.03476
1185.58420,0.01925
1184.09441,0.01169
1182.60463,0.00765
1181.11484,0.00365
1179.62505,0.00576
1178.13526,0.01831
1176.64547,0.02025
1175.15568,0.03443
1173.66589,0.03370
1172.17611,0.03955
1170.68632,0.02428
1169.19653,0.00903
1167.70674,0.00365
1166.21695,0.02796
1164.72716,0.03306
1163.23738,0.04928
1161.74759,0.06212
1160.25780,0.06730
1158.76801,0.07069
1157.27822,0.07410
1155.78843,0.07098
1154.29865,0.08146
1152.80886,0.09604
1151.31907,0.12195
1149.82928,0.11802
1148.33949,0.13357
1146.84970,0.14338
1145.35991,0.15321
1143.87013,0.14418
1142.38034,0.16367
1140.89055,0.15446
1139.40076,0.15545
1137.91097,0.17140
1136.42118,0.22019
1134.93140,0.22894
1133.44161,0.23773
1131.95182,0.21509
1130.46203,0.22188
1128.97224,0.25291
1127.48245,0.28193
1125.99266,0.25870
1124.50288,0.27012
1123.01309,0.26788
1121.52330,0.26565
1120.03351,0.25226
1118.54372,0.23504
1117.05393,0.24069
1115.56415,0.26606
1114.07436,0.26385
1112.58457,0.26335
1111.09478,0.26289
1109.60499,0.26867
1108.11520,0.26202
1106.62542,0.23075
1105.13563,0.21963
1103.64584,0.21826
1102.15605,0.21444
1100.66626,0.21335
1099.17647,0.21228
1097.68668,0.20491
1096.19690,0.21317
1094.70711,0.20856
1093.21732,0.20171
1091.72753,0.21208
1090.23774,0.19713
1088.74795,0.18221
1087.25817,0.18111
1085.76838,0.18117
1084.27859,0.17718
1082.78880,0.16915
1081.29901,0.16769
1079.80922,0.17962
1078.31943,0.18975
1076.82965,0.19992
1075.33986,0.21236
1073.85007,0.22257
1072.36028,0.21493
1070.87049,0.21750
1069.38070,0.22620
1067.89092,0.24624
1066.40113,0.26630
1064.91134,0.31851
1063.42155,0.38704
1061.93176,0.48026
1060.44197,0.55834
1058.95219,0.66224
1057.46240,0.72159
1055.97261,0.78096
1054.48282,0.86140
1052.99303,0.89051
1051.50324,0.92891
1050.01345,0.91870
1048.52367,0.93000
1047.03388,0.93499
1045.54409,0.94001
1044.05430,0.89233
1042.56451,0.77974
1041.07472,0.73008
1039.58494,0.66709
1038.09515,0.63150
1036.60536,0.58926
1035.11557,0.54705
1033.62578,0.46402
1032.13599,0.40635
1030.64620,0.36704
1029.15642,0.33476
1027.66663,0.30150
1026.17684,0.26825
1024.68705,0.21908
1023.19726,0.18396
1021.70747,0.15566
1020.21769,0.14480
1018.72790,0.13079
1017.23811,0.12111
1015.74832,0.11146
1014.25853,0.11676
1012.76874,0.11914
1011.27896,0.12676
1009.78917,0.12964
1008.29938,0.10020
1006.80959,0.07757
1005.31980,0.05496
1003.83001,0.02491
1002.34022,0.00371
1000.85044,0.00651
999.36065,0.03287
997.87086,0.03279
996.38107,0.03273
994.89128,0.05531
993.40149,0.05372
991.91171,0.06029
990.42192,0.07073
988.93213,0.09093
987.44234,0.09056
985.95255,0.09022
984.46276,0.10279
982.97297,0.09322
981.48319,0.06603
979.99340,0.05560
978.50361,0.03999
977.01382,0.02441
975.52403,0.04595
974.03424,0.03042
972.54446,0.00812
971.05467,0.02160
969.56488,0.00365
968.07509,0.00969
966.58530,0.01576
965.09551,0.00500
963.60573,0.01236
962.11594,0.01182
960.62615,0.00317
959.13636,0.00608
957.64657,0.00901
956.15678,0.02894
954.66699,0.01586
953.17721,0.02271
951.68742,0.02642
950.19763,0.03706
948.70784,0.04772
947.21805,0.07141
945.72826,0.08472
944.23848,0.09172
942.74869,0.10689
941.25890,0.12141
939.76911,0.12995
938.27932,0.13852
936.78953,0.15763
935.29974,0.16070
933.80996,0.20657
932.32017,0.21942
930.83038,0.22901
929.34059,0.23863
927.85080,0.25744
926.36101,0.27446
924.87123,0.27634
923.38144,0.32011
921.89165,0.34117
920.40186,0.36225
918.91207,0.45586
917.42228,0.59272
915.93250,0.72689
914.44271,0.92263
912.95292,1.01985
911.46313,1.11710
909.97334,1.37106
908.48355,1.57820
906.99376,1.80098
905.50398,1.90274
904.01419,1.93563
902.52440,1.96854
901.03461,2.00000
899.54482,1.92945
898.05503,1.79058
896.56525,1.64043
895.07546,1.51735
893.58567,1.39428
892.09588,1.10913
890.60609,0.88305
889.11630,0.66062
887.62651,0.49003
886.13673,0.43937
884.64694,0.38875
883.15715,0.25511
881.66736,0.20295
880.17757,0.14357
878.68778,0.12890
877.19800,0.11426
875.70821,0.06875
874.21842,0.03662
872.72863,0.02194
871.23884,0.02199
869.74905,0.01923
868.25927,0.01650
866.76948,0.01119
865.27969,0.00365
863.78990,0.02284
862.30011,0.03232
860.81032,0.04692
859.32053,0.06155
857.83075,0.06454
856.34096,0.05829
854.85117,0.08871
853.36138,0.11622
851.87159,0.11365
850.38180,0.11111
848.89202,0.12037
847.40223,0.13915
845.91244,0.15365
844.42265,0.17474
842.93286,0.19586
841.44307,0.19822
839.95329,0.22571
838.46350,0.24102
836.97371,0.23033
835.48392,0.22566
833.99413,0.22101
832.50434,0.20949
831.01455,0.19596
829.52477,0.19376
828.03498,0.18005
826.54519,0.16523
825.05540,0.15043
823.56561,0.13069
822.07582,0.10621
820.58604,0.09737
819.09625,0.10066
817.60646,0.10398
816.11667,0.09634
814.62688,0.10842
813.13709,0.09902
811.64730,0.10459
810.15752,0.11221
808.66773,0.11986
807.17794,0.12685
805.68815,0.10377
804.19836,0.11285
802.70857,0.12252
801.21879,0.13221
799.72900,0.11828
798.23921,0.10234
796.74942,0.09412
795.25963,0.09644
793.76984,0.09879
792.28006,0.10648
790.79027,0.13162
789.30048,0.16153
787.81069,0.16363
786.32090,0.17753
784.83111,0.19145
783.34132,0.20992
781.85154,0.23769
780.36175,0.27883
778.87196,0.30224
777.38217,0.32567
775.89238,0.35082
774.40259,0.36446
772.91281,0.36025
771.42302,0.33886
769.93323,0.31750
768.44344,0.28667
766.95365,0.24952
765.46386,0.20945
763.97407,0.18117
762.48429,0.15507
760.99450,0.12899
759.50471,0.13134
758.01492,0.10700
756.52513,0.07342
755.03534,0.07470
753.54556,0.07601
752.05577,0.07078
750.56598,0.06762
749.07619,0.04004
747.58640,0.04133
746.09661,0.04265
744.60683,0.04795
743.11704,0.03155
741.62725,0.01699
740.13746,0.01784
738.64767,0.01871
737.15788,0.01599
735.66809,0.01193
734.17831,0.00587
732.68852,0.00751
731.19873,0.00919
729.70894,0.00365
728.21915,0.01743
726.72936,0.02105
725.23958,0.02878
723.74979,0.02329
722.26000,0.01782
720.77021,0.01227
719.28042,0.01692
717.79063,0.01006
716.30084,0.00684
714.81106,0.00365
713.32127,0.02328
711.83148,0.04204
710.34169,0.04113
708.85190,0.04421
707.36211,0.04731
705.87233,0.04784
704.38254,0.05631
702.89275,0.06571
701.40296,0.06540
699.91317,0.06512
698.42338,0.07843
696.93360,0.07458
695.44381,0.11284
693.95402,0.11276
692.46423,0.11272
690.97444,0.12050
689.48465,0.13849
687.99486,0.18094
686.50508,0.19524
685.01529,0.20957
683.52550,0.23739
682.03571,0.25120
680.54592,0.28201
679.05613,0.28240
677.56635,0.28283
676.07656,0.27004
674.58677,0.24528
673.09698,0.23299
671.60719,0.22016
670.11740,0.20736
668.62761,0.18564
667.13783,0.17413
665.64804,0.15223
664.15825,0.13036
662.66846,0.12820
661.17867,0.10027
659.68888,0.07711
658.19910,0.07548
656.70931,0.07387
655.21952,0.06504
653.72973,0.04741
652.23994,0.05809
650.75015,0.04752
649.26037,0.03698
647.77058,0.03755
646.28079,0.03973
644.79100,0.03560
643.30121,0.04269
641.81142,0.04981
640.32163,0.05955
638.83185,0.05212
637.34206,0.05558
635.85227,0.04039
634.36248,0.02523
632.87269,0.00365
631.38290,0.00746
629.89312,0.03008
628.40333,0.02694
626.91354,0.02381
625.42375,0.01573
623.93396,0.02012
622.44417,0.01413
620.95438,0.00816
619.46460,0.03820
617.97481,0.03273
616.48502,0.05670
614.99523,0.07300
613.50544,0.08933
612.01565,0.11338
610.52587,0.13450
609.03608,0.17353
607.54629,0.19866
606.05650,0.22382
604.56671,0.27333
603.07692,0.32875
601.58714,0.34516
600.09735,0.36159
598.60756,0.42319
597.11777,0.46037
595.62798,0.44509
594.13819,0.43616
592.64840,0.42727
591.15862,0.38106
589.66883,0.33578
588.17904,0.26315
586.68925,0.23817
585.19946,0.21321
583.70967,0.15582
582.21989,0.11586
580.73010,0.10343
579.24031,0.09101
577.75052,0.06878
576.26073,0.06128
574.77094,0.05607
573.28115,0.05292
571.79137,0.04979
570.30158,0.06592
568.81179,0.06963
567.32200,0.08241
565.83221,0.09522
564.34242,0.08158
562.85264,0.10122
561.36285,0.13764
559.87306,0.13595
558.38327,0.13428
556.89348,0.14317
555.40369,0.17040
553.91391,0.17639
552.42412,0.18240
550.93433,0.18934
549.44454,0.18613
547.95475,0.20579
546.46496,0.21303
544.97517,0.22030
543.48539,0.21990
541.99560,0.27835
540.50581,0.29078
539.01602,0.30323
537.52623,0.34479
536.03644,0.37844
534.54666,0.40149
533.05687,0.42140
531.56708,0.44133
530.07729,0.50699
528.58750,0.57471
527.09771,0.59437
525.60792,0.61406
524.11814,0.71647
522.62835,0.74379
521.13856,0.82226
519.64877,0.85166
518.15898,0.88109
516.66919,0.89923
515.17941,0.87372
513.68962,0.86453
512.19983,0.85536
510.71004,0.82065
509.22025,0.76741
507.73046,0.71782
506.24068,0.67911
504.75089,0.64042
503.26110,0.52212
501.77131,0.41040
500.28152,0.36896
498.79173,0.32754
497.30194,0.23355
495.81216,0.17623
494.32237,0.15604
492.83258,0.13588
491.34279,0.14492
489.85300,0.12866
488.36321,0.09409
486.87343,0.09382
485.38364,0.09357
483.89385,0.09483
482.40406,0.10198
480.91427,0.10656
479.42448,0.11117
477.93469,0.13492
476.44491,0.15711
474.95512,0.17253
473.46533,0.18798
471.97554,0.19011
470.48575,0.22710
468.99596,0.21751
467.50618,0.19686
466.01639,0.17623
464.52660,0.15947
463.03681,0.12011
461.54702,0.08303
460.05723,0.04598
458.56745,0.04380
457.07766,0.04074
455.58787,0.04234
454.09808,0.04397
452.60829,0.00365
451.11850,0.03086
449.62871,0.03060
448.13893,0.03037
446.64914,0.05335
445.15935,0.01278
443.66956,0.01794
442.17977,0.01995
440.68998,0.02199
439.20020,0.03718
437.71041,0.05941
436.22062,0.05767
434.73083,0.05596
433.24104,0.04274
431.75125,0.03610
430.26146,0.04736
428.77168,0.05864
427.28189,0.05683
425.79210,0.06205
424.30231,0.05361
422.81252,0.04520
421.32273,0.03850
419.83295,0.02663
418.34316,0.04408
416.85337,0.06156
415.36358,0.04387
413.87379,0.05020
412.38400,0.03777
410.89422,0.02536
409.40443,0.01524
407.91464,0.02641
406.42485,0.02336
404.93506,0.03175
403.44527,0.04017
401.95548,0.05348
400.46570,0.05414
398.97591,0.04600
397.48612,0.03788
395.99633,0.02934
394.50654,0.02603
393.01675,0.03009
391.52697,0.03418
390.03718,0.02980
388.54739,0.01482
387.05760,0.02301
385.56781,0.03122
384.07802,0.02339
382.58824,0.02192
381.09845,0.02183
379.60866,0.02176
378.11887,0.01855
376.62908,0.01107
375.13929,0.00735
373.64950,0.00365
372.15972,0.00954
370.66993,0.03423
369.18014,0.04175
367.69035,0.04930
366.20056,0.04601
364.71077,0.05044
363.22099,0.03872
361.73120,0.02702
360.24141,0.03514
358.75162,0.04125
357.26183,0.03969
355.77204,0.03816
354.28225,0.04615
352.79247,0.03765
351.30268,0.05112
349.81289,0.06462
348.32310,0.05936
346.83331,0.04145
345.34352,0.04066
343.85374,0.03988
342.36395,0.04943
340.87416,0.03637
339.38437,0.03816
337.89458,0.03997
336.40479,0.03016
334.91501,0.03100
333.42522,0.03549
331.93543,0.04000
330.44564,0.04363
328.95585,0.02511
327.46606,0.02472
325.97627,0.02435
324.48649,0.02731
322.99670,0.05134
321.50691,0.06431
320.01712,0.07729
318.52733,0.08714
317.03754,0.11873
315.54776,0.11200
314.05797,0.10528
312.56818,0.10573
311.07839,0.11841
309.58860,0.09763
308.09881,0.07687
306.60902,0.05841
305.11924,0.03453
303.62945,0.02912
302.13966,0.00411
300.64987,0.00342
299.16008,0.00365
