1778.52000,0.00149
1777.03021,0.01011
1775.54042,0.01628
1774.05063,0.00675
1772.56085,0.01005
1771.07106,0.00843
1769.58127,0.00481
1768.09148,0.00459
1766.60169,0.00506
1765.11190,0.01320
1763.62212,0.00497
1762.13233,0.00529
1760.64254,0.00115
1759.15275,0.00804
1757.66296,0.00282
1756.17317,0.00931
1754.68339,0.00459
1753.19360,0.01045
1751.70381,0.01005
1750.21402,0.00832
1748.72423,0.00325
1747.23444,0.00158
1745.74465,0.01367
1744.25487,0.02084
1742.76508,0.02108
1741.27529,0.00898
1739.78550,0.00500
1738.29571,0.01478
1736.80592,0.01291
1735.31614,0.01488
1733.82635,0.01620
1732.33656,0.00047
1730.84677,0.00610
1729.35698,0.00368
1727.86719,0.01071
1726.37740,0.00137
1724.88762,0.01362
1723.39783,0.00949
1721.90804,0.00000
1720.41825,0.00157
1718.92846,0.00271
1717.43867,0.00523
1715.94889,0.00979
1714.45910,0.00315
1712.96931,0.00282
1711.47952,0.00155
1709.98973,0.01087
1708.49994,0.01999
1707.01016,0.01588
1705.52037,0.01179
1704.03058,0.00256
1702.54079,0.00751
1701.05100,0.00844
1699.56121,0.00333
1698.07142,0.01037
1696.58164,0.02328
1695.09185,0.02588
1693.60206,0.02288
1692.11227,0.01946
1690.62248,0.02393
1689.13269,0.03202
1687.64291,0.02711
1686.15312,0.02581
1684.66333,0.02206
1683.17354,0.02665
1681.68375,0.03307
1680.19396,0.03142
1678.70417,0.03721
1677.21439,0.03426
1675.72460,0.04796
1674.23481,0.04798
1672.74502,0.05454
1671.25523,0.04899
1669.76544,0.04886
1668.27566,0.06201
1666.78587,0.06463
1665.29608,0.06569
1663.80629,0.09015
1662.31650,0.08812
1660.82671,0.09712
1659.33693,0.09761
1657.84714,0.08554
1656.35735,0.08563
1654.86756,0.08732
1653.37777,0.08094
1651.88798,0.07280
1650.39819,0.08759
1648.90841,0.09117
1647.41862,0.08579
1645.92883,0.07661
1644.43904,0.06746
1642.94925,0.08080
1641.45946,0.07934
1639.96968,0.08554
1638.47989,0.09244
1636.99010,0.10835
1635.50031,0.09867
1634.01052,0.07958
1632.52073,0.09691
1631.03094,0.08551
1629.54116,0.09346
1628.05137,0.09806
1626.56158,0.10066
1625.07179,0.10126
1623.58200,0.10009
1622.09221,0.09715
1620.60243,0.10052
1619.11264,0.09830
1617.62285,0.09633
1616.13306,0.09169
1614.64327,0.07562
1613.15348,0.08810
1611.66370,0.11296
1610.17391,0.09898
1608.68412,0.10210
1607.19433,0.10951
1605.70454,0.09403
1604.21475,0.09959
1602.72496,0.10516
1601.23518,0.10728
1599.74539,0.09392
1598.25560,0.10575
1596.76581,0.09514
1595.27602,0.09735
1593.78623,0.08903
1592.29645,0.08838
1590.80666,0.08820
1589.31687,0.08018
1587.82708,0.09060
1586.33729,0.07140
1584.84750,0.08502
1583.35771,0.07665
1581.86793,0.08470
1580.37814,0.09345
1578.88835,0.07819
1577.39856,0.08901
1575.90877,0.07964
1574.41898,0.06288
1572.92920,0.05355
1571.43941,0.04807
1569.94962,0.04790
1568.45983,0.04775
1566.97004,0.04459
1565.48025,0.04594
1563.99047,0.04126
1562.50068,0.04267
1561.01089,0.03871
1559.52110,0.04421
1558.03131,0.03266
1556.54152,0.02742
1555.05173,0.02895
1553.56195,0.02466
1552.07216,0.02309
1550.58237,0.01908
1549.09258,0.01846
1547.60279,0.01382
1546.11300,0.01348
1544.62322,0.00282
1543.13343,0.00705
1541.64364,0.01086
1540.15385,0.01413
1538.66406,0.01743
1537.17427,0.01884
1535.68448,0.00590
1534.19470,0.03396
1532.70491,0.03622
1531.21512,0.01648
1529.72533,0.03474
1528.23554,0.02359
1526.74575,0.03268
1525.25597,0.04427
1523.76618,0.02893
1522.27639,0.05292
1520.78660,0.04032
1519.29681,0.04640
1517.80702,0.03946
1516.31724,0.03480
1514.82745,0.04319
1513.33766,0.04430
1511.84787,0.04544
1510.35808,0.07817
1508.86829,0.05116
1507.37850,0.05384
1505.88872,0.05226
1504.39893,0.06599
1502.90914,0.07638
1501.41935,0.07421
1499.92956,0.06599
1498.43977,0.06994
1496.94999,0.07705
1495.46020,0.08913
1493.97041,0.09764
1492.48062,0.10550
1490.99083,0.13135
1489.50104,0.14151
1488.01125,0.14360
1486.52147,0.14572
1485.03168,0.16875
1483.54189,0.19495
1482.05210,0.22096
1480.56231,0.24946
1479.07252,0.25889
1477.58274,0.28227
1476.09295,0.30635
1474.60316,0.29203
1473.11337,0.30583
1471.62358,0.30684
1470.13379,0.30653
1468.64401,0.33882
1467.15422,0.33451
1465.66443,0.35270
1464.17464,0.37091
1462.68485,0.42060
1461.19506,0.45660
1459.70527,0.50139
1458.21549,0.54846
1456.72570,0.62925
1455.23591,0.66849
1453.74612,0.71676
1452.25633,0.78077
1450.76654,0.78190
1449.27676,0.76845
1447.78697,0.75570
1446.29718,0.78589
1444.80739,0.75387
1443.31760,0.72187
1441.82781,0.66294
1440.33802,0.60965
1438.84824,0.57233
1437.35845,0.51864
1435.86866,0.51103
1434.37887,0.55916
1432.88908,0.59069
1431.39929,0.63999
1429.90951,0.74391
1428.41972,0.78338
1426.92993,0.85724
1425.44014,0.90439
1423.95035,0.91675
1422.46056,0.92913
1420.97078,0.95501
1419.48099,1.00720
1417.99120,1.00663
1416.50141,0.99619
1415.01162,0.95927
1413.52183,0.88215
1412.03204,0.83068
1410.54226,0.75923
1409.05247,0.71140
1407.56268,0.66314
1406.07289,0.61063
1404.58310,0.57680
1403.09331,0.54300
1401.60353,0.47889
1400.11374,0.42716
1398.62395,0.37208
1397.13416,0.32422
1395.64437,0.27189
1394.15458,0.24002
1392.66479,0.20594
1391.17501,0.17098
1389.68522,0.14211
1388.19543,0.10608
1386.70564,0.09096
1385.21585,0.07587
1383.72606,0.05698
1382.23628,0.05767
1380.74649,0.04849
1379.25670,0.03305
1377.76691,0.03673
1376.27712,0.01370
1374.78733,0.00282
1373.29755,0.00821
1371.80776,0.01519
1370.31797,0.01546
1368.82818,0.01655
1367.33839,0.01765
1365.84860,0.01193
1364.35881,0.03678
1362.86903,0.04369
1361.37924,0.06523
1359.88945,0.07039
1358.39966,0.10680
1356.90987,0.14368
1355.42008,0.19767
1353.93030,0.24763
1352.44051,0.27954
1350.95072,0.31146
1349.46093,0.42531
1347.97114,0.48188
1346.48135,0.58162
1344.99156,0.62185
1343.50178,0.68838
1342.01199,0.72978
1340.52220,0.77929
1339.03241,0.83422
1337.54262,0.90400
1336.05283,0.92920
1334.56305,0.95444
1333.07326,0.95689
1331.58347,0.96049
1330.09368,0.94997
1328.60389,0.92891
1327.11410,0.91865
1325.62432,0.88551
1324.13453,0.85396
1322.64474,0.81885
1321.15495,0.77859
1319.66516,0.74161
1318.17537,0.70466
1316.68558,0.65436
1315.19580,0.58791
1313.70601,0.56777
1312.21622,0.55080
1310.72643,0.53273
1309.23664,0.48345
1307.74685,0.44341
1306.25707,0.41890
1304.76728,0.39958
1303.27749,0.38028
1301.78770,0.33630
1300.29791,0.29323
1298.80812,0.25087
1297.31834,0.20539
1295.82855,0.17880
1294.33876,0.16347
1292.84897,0.11828
1291.35918,0.11558
1289.86939,0.10931
1288.37960,0.10306
1286.88982,0.09953
1285.40003,0.09266
1283.91024,0.07615
1282.42045,0.06731
1280.93066,0.06029
1279.44087,0.05306
1277.95109,0.05440
1276.46130,0.05576
1274.97151,0.05198
1273.48172,0.04823
1271.99193,0.03843
1270.50214,0.03337
1269.01235,0.03306
1267.52257,0.00604
1266.03278,0.01858
1264.54299,0.02778
1263.05320,0.04419
1261.56341,0.03288
1260.07362,0.02159
1258.58384,0.00617
1257.09405,0.01684
1255.60426,0.00282
1254.11447,0.01406
1252.62468,0.01049
1251.13489,0.01189
1249.64511,0.02163
1248.15532,0.02105
1246.66553,0.02399
1245.17574,0.02695
1243.68595,0.01252
1242.19616,0.01901
1240.70637,0.01586
1239.21659,0.02060
1237.72680,0.01908
1236.23701,0.01915
1234.74722,0.00577
1233.25743,0.00477
1231.76764,0.00379
1230.27786,0.01811
1228.78807,0.00348
1227.29828,0.01650
1225.80849,0.00282
1224.31870,0.01004
1222.82891,0.01392
1221.33912,0.01961
1219.84934,0.01938
1218.35955,0.01918
1216.86976,0.02652
1215.37997,0.04737
1213.89018,0.06622
1212.40039,0.08060
1210.91061,0.07816
1209.42082,0.07551
1207.93103,0.07256
1206.44124,0.06963
1204.95145,0.07402
1203.46166,0.08001
1201.97188,0.07816
1200.48209,0.06354
1198.99230,0.04848
1197.50251,0.03233
1196.01272,0.04743
1194.52293,0.04054
1193.03314,0.03367
1191.54336,0.03222
1190.05357,0.03371
1188.56378,0.03007
1187.07399,0.01880
1185.58420,0.00891
1184.09441,0.01635
1182.60463,0.01852
1181.11484,0.02073
1179.62505,0.02149
1178.13526,0.01307
1176.64547,0.00805
1175.15568,0.00282
1173.66589,0.00928
1172.17611,0.01711
1170.68632,0.01957
1169.19653,0.02206
1167.70674,0.02233
1166.21695,0.01363
1164.72716,0.03304
1163.23738,0.04799
1161.74759,0.04071
1160.25780,0.04447
1158.76801,0.05522
1157.27822,0.06599
1155.78843,0.07679
1154.29865,0.08985
1152.80886,0.09980
1151.31907,0.10708
1149.82928,0.11932
1148.33949,0.13316
1146.84970,0.13455
1145.35991,0.13597
1143.87013,0.13640
1142.38034,0.15865
1140.89055,0.17059
1139.40076,0.18413
1137.91097,0.21342
1136.42118,0.22341
1134.93140,0.22141
1133.44161,0.21943
1131.95182,0.24342
1130.46203,0.25081
1128.97224,0.25149
1127.48245,0.25017
1125.99266,0.25337
1124.50288,0.26378
1123.01309,0.26029
1121.52330,0.25682
1120.03351,0.25135
1118.54372,0.24052
1117.05393,0.24589
1115.56415,0.22971
1114.07436,0.23400
1112.58457,0.23540
1111.09478,0.23682
1109.60499,0.22366
1108.11520,0.23771
1106.62542,0.22595
1105.13563,0.23736
1103.64584,0.22969
1102.15605,0.22586
1100.66626,0.21229
1099.17647,0.19874
1097.68668,0.20510
1096.19690,0.19441
1094.70711,0.21677
1093.21732,0.22388
1091.72753,0.22180
1090.23774,0.22120
1088.74795,0.22063
1087.25817,0.20402
1085.76838,0.17867
1084.27859,0.19446
1082.78880,0.18062
1081.29901,0.20477
1079.80922,0.23322
1078.31943,0.21945
1076.82965,0.20571
1075.33986,0.22524
1073.85007,0.22615
1072.36028,0.23337
1070.87049,0.25522
1069.38070,0.28609
1067.89092,0.30035
1066.40113,0.31463
1064.91134,0.41072
1063.42155,0.52121
1061.93176,0.60881
1060.44197,0.69980
1058.95219,0.81283
1057.46240,0.86703
1055.97261,0.92126
1054.48282,1.00920
1052.99303,1.07021
1051.50324,1.03172
1050.01345,1.05976
1048.52367,1.07658
1047.03388,1.06704
1045.54409,1.05752
1044.05430,0.95400
1042.56451,0.85567
1041.07472,0.80096
1039.58494,0.73885
1038.09515,0.67991
1036.60536,0.62044
1035.11557,0.56099
1033.62578,0.50887
1032.13599,0.43161
1030.64620,0.38852
1029.15642,0.32411
1027.66663,0.29365
1026.17684,0.26322
1024.68705,0.21281
1023.19726,0.19636
1021.70747,0.17071
1020.21769,0.15835
1018.72790,0.14534
1017.23811,0.13864
1015.74832,0.13197
1014.25853,0.10645
1012.76874,0.11218
1011.27896,0.11726
1009.78917,0.11001
1008.29938,0.08571
1006.80959,0.07593
1005.31980,0.06617
1003.83001,0.03250
1002.34022,0.02965
1000.85044,0.03467
999.36065,0.04871
997.87086,0.05154
996.38107,0.05440
994.89128,0.07458
993.40149,0.10354
991.91171,0.12287
990.42192,0.13998
988.93213,0.15981
987.44234,0.15775
985.95255,0.15573
984.46276,0.15159
982.97297,0.13894
981.48319,0.12474
979.99340,0.10472
978.50361,0.09653
977.01382,0.08836
975.52403,0.07268
974.03424,0.03884
972.54446,0.04073
971.05467,0.02109
969.56488,0.00282
968.07509,0.00871
966.58530,0.01462
965.09551,0.00696
963.60573,0.00585
962.11594,0.00386
960.62615,0.00414
959.13636,0.00455
957.64657,0.00500
956.15678,0.01029
954.66699,0.02437
953.17721,0.03466
951.68742,0.02610
950.19763,0.03408
948.70784,0.04208
947.21805,0.06505
945.72826,0.06603
944.23848,0.06815
942.74869,0.08265
941.25890,0.11762
939.76911,0.12442
938.27932,0.13125
936.78953,0.15843
935.29974,0.19709
933.80996,0.19961
932.32017,0.22148
930.83038,0.21461
929.34059,0.20776
927.85080,0.23734
926.36101,0.25818
924.87123,0.30690
923.38144,0.32374
921.89165,0.36790
920.40186,0.41209
918.91207,0.50112
917.42228,0.65353
915.93250,0.79024
914.44271,0.98067
912.95292,1.10069
911.46313,1.22073
909.97334,1.46313
908.48355,1.70241
906.99376,1.85566
905.50398,1.93862
904.01419,1.94668
902.52440,1.95477
901.03461,1.98973
899.54482,2.00000
898.05503,1.89752
896.56525,1.69126
895.07546,1.54221
893.58567,1.39318
892.09588,1.13107
890.60609,0.90582
889.11630,0.70328
887.62651,0.55446
886.13673,0.48733
884.64694,0.42023
883.15715,0.29665
881.66736,0.19690
880.17757,0.14459
878.68778,0.13386
877.19800,0.12315
875.70821,0.08012
874.21842,0.05554
872.72863,0.03682
871.23884,0.02261
869.74905,0.01270
868.25927,0.00282
866.76948,0.04067
865.27969,0.06304
863.78990,0.08229
862.30011,0.07752
860.81032,0.07716
859.32053,0.07683
857.83075,0.09573
856.34096,0.10409
854.85117,0.11428
853.36138,0.12786
851.87159,0.13742
850.38180,0.14700
848.89202,0.18739
847.40223,0.22151
845.91244,0.24285
844.42265,0.24377
842.93286,0.24472
841.44307,0.25715
839.95329,0.28757
838.46350,0.29196
836.97371,0.30109
835.48392,0.30699
833.99413,0.31291
832.50434,0.29808
831.01455,0.29630
829.52477,0.28691
828.03498,0.24676
826.54519,0.22483
825.05540,0.20293
823.56561,0.18892
822.07582,0.17897
820.58604,0.16074
819.09625,0.15231
817.60646,0.14389
816.11667,0.15337
814.62688,0.15433
813.13709,0.13914
811.64730,0.14240
810.15752,0.14489
808.66773,0.14741
807.17794,0.15793
805.68815,0.16353
804.19836,0.16916
802.70857,0.17155
801.21879,0.17397
799.72900,0.17045
798.23921,0.16405
796.74942,0.15744
795.25963,0.15995
793.76984,0.16249
792.28006,0.17415
790.79027,0.17955
789.30048,0.18520
787.81069,0.21738
786.32090,0.22667
784.83111,0.23598
783.34132,0.28261
781.85154,0.34499
780.36175,0.40425
778.87196,0.43085
777.38217,0.45747
775.89238,0.45256
774.40259,0.46406
772.91281,0.46548
771.42302,0.44379
769.93323,0.42212
768.44344,0.35397
766.95365,0.30202
765.46386,0.28672
763.97407,0.24538
762.48429,0.21529
760.99450,0.18523
759.50471,0.14801
758.01492,0.13327
756.52513,0.11250
755.03534,0.11197
753.54556,0.11146
752.05577,0.09031
750.56598,0.07210
749.07619,0.05617
747.58640,0.05430
746.09661,0.05245
744.60683,0.03457
743.11704,0.03671
741.62725,0.00876
740.13746,0.00645
738.64767,0.00417
737.15788,0.01000
735.66809,0.00282
734.17831,0.01162
732.68852,0.00718
731.19873,0.00277
729.70894,0.00176
728.21915,0.01823
726.72936,0.00867
725.23958,0.00992
723.74979,0.00962
722.26000,0.00934
720.77021,0.02504
719.28042,0.00752
717.79063,0.00282
716.30084,0.01770
714.81106,0.03261
713.32127,0.03024
711.83148,0.04161
710.34169,0.03525
708.85190,0.03486
707.36211,0.03450
705.87233,0.04574
704.38254,0.04734
702.89275,0.05772
701.40296,0.06139
699.91317,0.06509
698.42338,0.07173
696.93360,0.09861
695.44381,0.11474
693.95402,0.12549
692.46423,0.13628
690.97444,0.13203
689.48465,0.17678
687.99486,0.18674
686.50508,0.19447
685.01529,0.20223
683.52550,0.23945
682.03571,0.25961
680.54592,0.28744
679.05613,0.27946
677.56635,0.27150
676.07656,0.24301
674.58677,0.23297
673.09698,0.21284
671.60719,0.21464
670.11740,0.21647
668.62761,0.18832
667.13783,0.16605
665.64804,0.14840
664.15825,0.13078
662.66846,0.11689
661.17867,0.11156
659.68888,0.08514
658.19910,0.07929
656.70931,0.07348
655.21952,0.04690
653.72973,0.05023
652.23994,0.05112
650.75015,0.05045
649.26037,0.04981
647.77058,0.06672
646.28079,0.05040
644.79100,0.04714
643.30121,0.05569
641.81142,0.06427
640.32163,0.05479
638.83185,0.05343
637.34206,0.03815
635.85227,0.03470
634.36248,0.03127
632.87269,0.00282
631.38290,0.01776
629.89312,0.02037
628.40333,0.01571
626.91354,0.01106
625.42375,0.00880
623.93396,0.00410
622.44417,0.01335
620.95438,0.02262
619.46460,0.03169
617.97481,0.05943
616.48502,0.08675
614.99523,0.09208
613.50544,0.09743
612.01565,0.14706
610.52587,0.15920
609.03608,0.19428
607.54629,0.22310
606.05650,0.25193
604.56671,0.30820
603.07692,0.36337
601.58714,0.38892
600.09735,0.41448
598.60756,0.42322
597.11777,0.43491
595.62798,0.45134
594.13819,0.43297
592.64840,0.41462
591.15862,0.38350
589.66883,0.33577
588.17904,0.25459
586.68925,0.22691
585.19946,0.19925
583.70967,0.16241
582.21989,0.16737
580.73010,0.13777
579.24031,0.10818
577.75052,0.08694
576.26073,0.08953
574.77094,0.07283
573.28115,0.06199
571.79137,0.05117
570.30158,0.07476
568.81179,0.09679
567.32200,0.09998
565.83221,0.10320
564.34242,0.11430
562.85264,0.13576
561.36285,0.14736
559.87306,0.16212
558.38327,0.17692
556.89348,0.19084
555.40369,0.19332
553.91391,0.20122
552.42412,0.20915
550.93433,0.21598
549.44454,0.20239
547.95475,0.23937
546.46496,0.23773
544.97517,0.23612
543.48539,0.26801
541.99560,0.26510
540.50581,0.29580
539.01602,0.32652
537.52623,0.35851
536.03644,0.41500
534.54666,0.43513
533.05687,0.46517
531.56708,0.49523
530.07729,0.51768
528.58750,0.52599
527.09771,0.56366
525.60792,0.60134
524.11814,0.69735
522.62835,0.73183
521.13856,0.80250
519.64877,0.81669
518.15898,0.83091
516.66919,0.87335
515.17941,0.89401
513.68962,0.89022
512.19983,0.88645
510.71004,0.83126
509.22025,0.79968
507.73046,0.74005
506.24068,0.66617
504.75089,0.59232
503.26110,0.50400
501.77131,0.39661
500.28152,0.34462
498.79173,0.29266
497.30194,0.23971
495.81216,0.20611
494.32237,0.17668
492.83258,0.14728
491.34279,0.11128
489.85300,0.08519
488.36321,0.07912
486.87343,0.07981
485.38364,0.08052
483.89385,0.08935
482.40406,0.09101
480.91427,0.10011
479.42448,0.10924
477.93469,0.16287
476.44491,0.18463
474.95512,0.19371
473.46533,0.20282
471.97554,0.20668
470.48575,0.21011
468.99596,0.22525
467.50618,0.20053
466.01639,0.17584
464.52660,0.12748
463.03681,0.08565
461.54702,0.08080
460.05723,0.07598
458.56745,0.06186
457.07766,0.04350
455.58787,0.03560
454.09808,0.02773
452.60829,0.02472
451.11850,0.00757
449.62871,0.00989
448.13893,0.01222
446.64914,0.00908
445.15935,0.00282
443.66956,0.01563
442.17977,0.02104
440.68998,0.02648
439.20020,0.03060
437.71041,0.04553
436.22062,0.04722
434.73083,0.04894
433.24104,0.05181
431.75125,0.03560
430.26146,0.03852
428.77168,0.04146
427.28189,0.03611
425.79210,0.05708
424.30231,0.06065
422.81252,0.06425
421.32273,0.04642
419.83295,0.04277
418.34316,0.03645
416.85337,0.03015
415.36358,0.02365
413.87379,0.02594
412.38400,0.02274
410.89422,0.01958
409.40443,0.02238
407.91464,0.01241
406.42485,0.03257
404.93506,0.03377
403.44527,0.03499
401.95548,0.01591
400.46570,0.02673
398.97591,0.02184
397.48612,0.01699
395.99633,0.02406
394.50654,0.03857
393.01675,0.04491
391.52697,0.05127
390.03718,0.04900
388.54739,0.01554
387.05760,0.00917
385.56781,0.00282
384.07802,0.02598
382.58824,0.01772
381.09845,0.02128
379.60866,0.02486
378.11887,0.02408
376.62908,0.02310
375.13929,0.01283
373.64950,0.00258
372.15972,0.00662
370.66993,0.00282
369.18014,0.01038
367.69035,0.01797
366.20056,0.01019
364.71077,0.01119
363.22099,0.01245
361.73120,0.01373
360.24141,0.03705
358.75162,0.02131
357.26183,0.02479
355.77204,0.02831
354.28225,0.02836
352.79247,0.02484
351.30268,0.04764
349.81289,0.07046
348.32310,0.06836
346.83331,0.04473
345.34352,0.04055
343.85374,0.03639
342.36395,0.02137
340.87416,0.03602
339.38437,0.03418
337.89458,0.03237
336.40479,0.02553
334.91501,0.03849
333.42522,0.03349
331.93543,0.02852
330.44564,0.03099
328.95585,0.02270
327.46606,0.01275
325.97627,0.00282
324.48649,0.01124
322.99670,0.04372
321.50691,0.06746
320.01712,0.09122
318.52733,0.07772
317.03754,0.07458
315.54776,0.05663
314.05797,0.03871
312.56818,0.02194
311.07839,0.03776
309.58860,0.04013
308.09881,0.04253
306.60902,0.03326
305.11924,0.03211
303.62945,0.02110
302.13966,0.01012
300.64987,0.01803
299.16008,0.00282
