1778.52000,0.00270
1777.03021,0.00000
1775.54042,0.00680
1774.05063,0.00481
1772.56085,0.01100
1771.07106,0.00686
1769.58127,0.00451
1768.09148,0.01144
1766.60169,0.00649
1765.11190,0.01236
1763.62212,0.00372
1762.13233,0.00678
1760.64254,0.01030
1759.15275,0.00945
1757.66296,0.01016
1756.17317,0.01155
1754.68339,0.01275
1753.19360,0.01243
1751.70381,0.00443
1750.21402,0.00372
1748.72423,0.01381
1747.23444,0.01005
1745.74465,0.01424
1744.25487,0.02088
1742.76508,0.01807
1741.27529,0.01881
1739.78550,0.01055
1738.29571,0.01901
1736.80592,0.01824
1735.31614,0.01662
1733.82635,0.00886
1732.33656,0.01169
1730.84677,0.00222
1729.35698,0.00422
1727.86719,0.01285
1726.37740,0.01094
1724.88762,0.01103
1723.39783,0.00851
1721.90804,0.00314
1720.41825,0.00441
1718.92846,0.00372
1717.43867,0.01043
1715.94889,0.01188
1714.45910,0.00697
1712.96931,0.01045
1711.47952,0.00889
1709.98973,0.00823
1708.49994,0.01553
1707.01016,0.01713
1705.52037,0.01875
1704.03058,0.01555
1702.54079,0.01128
1701.05100,0.00372
1699.56121,0.01845
1698.07142,0.01668
1696.58164,0.02661
1695.09185,0.02930
1693.60206,0.03950
1692.11227,0.03519
1690.62248,0.04059
1689.13269,0.03369
1687.64291,0.03936
1686.15312,0.04660
1684.66333,0.04637
1683.17354,0.04684
1681.68375,0.05701
1680.19396,0.05158
1678.70417,0.06114
1677.21439,0.05840
1675.72460,0.06295
1674.23481,0.06731
1672.74502,0.06992
1671.25523,0.07301
1669.76544,0.07611
1668.27566,0.08409
1666.78587,0.07601
1665.29608,0.08162
1663.80629,0.08416
1662.31650,0.09951
1660.82671,0.10166
1659.33693,0.11155
1657.84714,0.11419
1656.35735,0.11422
1654.86756,0.09159
1653.37777,0.10069
1651.88798,0.09969
1650.39819,0.09475
1648.90841,0.09380
1647.41862,0.08208
1645.92883,0.08239
1644.43904,0.08272
1642.94925,0.08738
1641.45946,0.09844
1639.96968,0.08266
1638.47989,0.09201
1636.99010,0.08752
1635.50031,0.08194
1634.01052,0.09401
1632.52073,0.09333
1631.03094,0.08805
1629.54116,0.09733
1628.05137,0.09519
1626.56158,0.11134
1625.07179,0.11365
1623.58200,0.11730
1622.09221,0.12517
1620.60243,0.10332
1619.11264,0.10573
1617.62285,0.09737
1616.13306,0.09388
1614.64327,0.09900
1613.15348,0.09600
1611.66370,0.10448
1610.17391,0.10461
1608.68412,0.09287
1607.19433,0.08270
1605.70454,0.10735
1604.21475,0.10494
1602.72496,0.10256
1601.23518,0.08323
1599.74539,0.09147
1598.25560,0.09730
1596.76581,0.10140
1595.27602,0.09429
1593.78623,0.09338
1592.29645,0.10019
1590.80666,0.09007
1589.31687,0.07712
1587.82708,0.08357
1586.33729,0.09048
1584.84750,0.08046
1583.35771,0.08919
1581.86793,0.09331
1580.37814,0.09196
1578.88835,0.08380
1577.39856,0.06972
1575.90877,0.07350
1574.41898,0.07511
1572.92920,0.06265
1571.43941,0.06034
1569.94962,0.06323
1568.45983,0.06615
1566.97004,0.05334
1565.48025,0.04629
1563.99047,0.04234
1562.50068,0.04084
1561.01089,0.04091
1559.52110,0.05091
1558.03131,0.03429
1556.54152,0.04412
1555.05173,0.03327
1553.56195,0.04447
1552.07216,0.02685
1550.58237,0.02753
1549.09258,0.02934
1547.60279,0.02853
1546.11300,0.02003
1544.62322,0.00936
1543.13343,0.00796
1541.64364,0.00372
1540.15385,0.00576
1538.66406,0.00782
1537.17427,0.02091
1535.68448,0.01487
1534.19470,0.01524
1532.70491,0.02687
1531.21512,0.02552
1529.72533,0.02553
1528.23554,0.02534
1526.74575,0.02341
1525.25597,0.02855
1523.76618,0.03042
1522.27639,0.03231
1520.78660,0.03092
1519.29681,0.03858
1517.80702,0.02711
1516.31724,0.02910
1514.82745,0.03090
1513.33766,0.02952
1511.84787,0.02817
1510.35808,0.04787
1508.86829,0.04845
1507.37850,0.05190
1505.88872,0.05054
1504.39893,0.05141
1502.90914,0.05516
1501.41935,0.05894
1499.92956,0.06186
1498.43977,0.06987
1496.94999,0.07769
1495.46020,0.07848
1493.97041,0.08987
1492.48062,0.10591
1490.99083,0.11360
1489.50104,0.11075
1488.01125,0.12620
1486.52147,0.14168
1485.03168,0.15277
1483.54189,0.16500
1482.05210,0.19200
1480.56231,0.20141
1479.07252,0.21635
1477.58274,0.25752
1476.09295,0.26348
1474.60316,0.27541
1473.11337,0.27173
1471.62358,0.28856
1470.13379,0.28933
1468.64401,0.30929
1467.15422,0.30460
1465.66443,0.32461
1464.17464,0.34464
1462.68485,0.38122
1461.19506,0.42090
1459.70527,0.44959
1458.21549,0.53646
1456.72570,0.57005
1455.23591,0.62392
1453.74612,0.67276
1452.25633,0.71964
1450.76654,0.77975
1449.27676,0.76083
1447.78697,0.76594
1446.29718,0.74927
1444.80739,0.73009
1443.31760,0.71094
1441.82781,0.68157
1440.33802,0.64055
1438.84824,0.55397
1437.35845,0.51036
1435.86866,0.51126
1434.37887,0.51725
1432.88908,0.56687
1431.39929,0.63106
1429.90951,0.67390
1428.41972,0.77359
1426.92993,0.82463
1425.44014,0.89354
1423.95035,0.91677
1422.46056,0.94003
1420.97078,0.96672
1419.48099,0.99014
1417.99120,0.98957
1416.50141,0.98727
1415.01162,0.97443
1413.52183,0.95059
1412.03204,0.87393
1410.54226,0.81755
1409.05247,0.73212
1407.56268,0.65773
1406.07289,0.58932
1404.58310,0.56001
1403.09331,0.53074
1401.60353,0.44918
1400.11374,0.41632
1398.62395,0.37643
1397.13416,0.33239
1395.64437,0.27846
1394.15458,0.23887
1392.66479,0.19336
1391.17501,0.18091
1389.68522,0.14932
1388.19543,0.11952
1386.70564,0.10450
1385.21585,0.08950
1383.72606,0.06484
1382.23628,0.03051
1380.74649,0.02352
1379.25670,0.02558
1377.76691,0.02040
1376.27712,0.01965
1374.78733,0.00372
1373.29755,0.02583
1371.80776,0.02264
1370.31797,0.02146
1368.82818,0.01523
1367.33839,0.00903
1365.84860,0.02135
1364.35881,0.03106
1362.86903,0.04167
1361.37924,0.04900
1359.88945,0.06957
1358.39966,0.08664
1356.90987,0.12907
1355.42008,0.17944
1353.93030,0.26178
1352.44051,0.28181
1350.95072,0.30187
1349.46093,0.38516
1347.97114,0.50261
1346.48135,0.58221
1344.99156,0.63033
1343.50178,0.72716
1342.01199,0.76740
1340.52220,0.80107
1339.03241,0.84599
1337.54262,0.90702
1336.05283,0.93029
1334.56305,0.95360
1333.07326,0.98386
1331.58347,0.98420
1330.09368,0.98655
1328.60389,0.97702
1327.11410,0.96070
1325.62432,0.95035
1324.13453,0.89509
1322.64474,0.89007
1321.15495,0.85028
1319.66516,0.80985
1318.17537,0.76945
1316.68558,0.69868
1315.19580,0.66163
1313.70601,0.57792
1312.21622,0.54885
1310.72643,0.50637
1309.23664,0.49122
1307.74685,0.43558
1306.25707,0.41255
1304.76728,0.39285
1303.27749,0.37318
1301.78770,0.33944
1300.29791,0.29757
1298.80812,0.25220
1297.31834,0.19431
1295.82855,0.17432
1294.33876,0.14709
1292.84897,0.11107
1291.35918,0.10349
1289.86939,0.10452
1288.37960,0.10557
1286.88982,0.09586
1285.40003,0.08750
1283.91024,0.08246
1282.42045,0.06269
1280.93066,0.07224
1279.44087,0.08270
1277.95109,0.06278
1276.46130,0.05655
1274.97151,0.05662
1273.48172,0.05671
1271.99193,0.03799
1270.50214,0.03648
1269.01235,0.03786
1267.52257,0.04124
1266.03278,0.02549
1264.54299,0.02871
1263.05320,0.02402
1261.56341,0.02166
1260.07362,0.01933
1258.58384,0.02463
1257.09405,0.02797
1255.60426,0.02516
1254.11447,0.01731
1252.62468,0.01588
1251.13489,0.02196
1249.64511,0.01154
1248.15532,0.00710
1246.66553,0.00896
1245.17574,0.01084
1243.68595,0.03532
1242.19616,0.04375
1240.70637,0.05397
1239.21659,0.04461
1237.72680,0.01876
1236.23701,0.02530
1234.74722,0.00919
1233.25743,0.01534
1231.76764,0.02152
1230.27786,0.00372
1228.78807,0.04032
1227.29828,0.02519
1225.80849,0.03454
1224.31870,0.02871
1222.82891,0.03677
1221.33912,0.02086
1219.84934,0.02436
1218.35955,0.02787
1216.86976,0.04661
1215.37997,0.04379
1213.89018,0.06082
1212.40039,0.06972
1210.91061,0.07160
1209.42082,0.06712
1207.93103,0.06586
1206.44124,0.06462
1204.95145,0.07012
1203.46166,0.05120
1201.97188,0.07261
1200.48209,0.06982
1198.99230,0.06904
1197.50251,0.04515
1196.01272,0.03671
1194.52293,0.02477
1193.03314,0.01285
1191.54336,0.02474
1190.05357,0.03093
1188.56378,0.02812
1187.07399,0.01806
1185.58420,0.01926
1184.09441,0.00330
1182.60463,0.00353
1181.11484,0.00372
1179.62505,0.01351
1178.13526,0.02112
1176.64547,0.02281
1175.15568,0.01637
1173.66589,0.02229
1172.17611,0.00688
1170.68632,0.00712
1169.19653,0.00739
1167.70674,0.00372
1166.21695,0.00724
1164.72716,0.03126
1163.23738,0.03636
1161.74759,0.04347
1160.25780,0.05193
1158.76801,0.05370
1157.27822,0.05549
1155.78843,0.07481
1154.29865,0.06773
1152.80886,0.06596
1151.31907,0.08734
1149.82928,0.09002
1148.33949,0.11476
1146.84970,0.12244
1145.35991,0.13016
1143.87013,0.13823
1142.38034,0.13289
1140.89055,0.13220
1139.40076,0.15906
1137.91097,0.18330
1136.42118,0.19480
1134.93140,0.20819
1133.44161,0.22161
1131.95182,0.22261
1130.46203,0.20117
1128.97224,0.23723
1127.48245,0.24888
1125.99266,0.26143
1124.50288,0.25837
1123.01309,0.26051
1121.52330,0.26267
1120.03351,0.22422
1118.54372,0.23029
1117.05393,0.23594
1115.56415,0.24955
1114.07436,0.24996
1112.58457,0.25007
1111.09478,0.25020
1109.60499,0.24012
1108.11520,0.22918
1106.62542,0.23985
1105.13563,0.21465
1103.64584,0.20555
1102.15605,0.19537
1100.66626,0.19777
1099.17647,0.20019
1097.68668,0.19956
1096.19690,0.20687
1094.70711,0.20761
1093.21732,0.19097
1091.72753,0.16973
1090.23774,0.17550
1088.74795,0.18129
1087.25817,0.17885
1085.76838,0.16145
1084.27859,0.16368
1082.78880,0.16131
1081.29901,0.16183
1079.80922,0.15973
1078.31943,0.16360
1076.82965,0.16750
1075.33986,0.17803
1073.85007,0.19387
1072.36028,0.19850
1070.87049,0.22187
1069.38070,0.23206
1067.89092,0.22410
1066.40113,0.21617
1064.91134,0.28391
1063.42155,0.36048
1061.93176,0.45932
1060.44197,0.54476
1058.95219,0.64894
1057.46240,0.69026
1055.97261,0.73161
1054.48282,0.82485
1052.99303,0.87385
1051.50324,0.88169
1050.01345,0.92061
1048.52367,0.92916
1047.03388,0.92672
1045.54409,0.92431
1044.05430,0.87237
1042.56451,0.80394
1041.07472,0.73443
1039.58494,0.64292
1038.09515,0.61179
1036.60536,0.58276
1035.11557,0.55377
1033.62578,0.47491
1032.13599,0.41877
1030.64620,0.36088
1029.15642,0.31381
1027.66663,0.28417
1026.17684,0.25455
1024.68705,0.21747
1023.19726,0.18922
1021.70747,0.16011
1020.21769,0.14843
1018.72790,0.12995
1017.23811,0.12911
1015.74832,0.12829
1014.25853,0.10636
1012.76874,0.13444
1011.27896,0.12225
1009.78917,0.15346
1008.29938,0.12370
1006.80959,0.10321
1005.31980,0.08275
1003.83001,0.03147
1002.34022,0.00445
1000.85044,0.02503
999.36065,0.03858
997.87086,0.03817
996.38107,0.03778
994.89128,0.03841
993.40149,0.04656
991.91171,0.06089
990.42192,0.07305
988.93213,0.07818
987.44234,0.07949
985.95255,0.08082
984.46276,0.08779
982.97297,0.08377
981.48319,0.06194
979.99340,0.04080
978.50361,0.03179
977.01382,0.02281
975.52403,0.03675
974.03424,0.03487
972.54446,0.01230
971.05467,0.00738
969.56488,0.00381
968.07509,0.00396
966.58530,0.00387
965.09551,0.02488
963.60573,0.01465
962.11594,0.00444
960.62615,0.00372
959.13636,0.00969
957.64657,0.01567
956.15678,0.01453
954.66699,0.02133
953.17721,0.03235
951.68742,0.02863
950.19763,0.04642
948.70784,0.06422
947.21805,0.08811
945.72826,0.08714
944.23848,0.09126
942.74869,0.12645
941.25890,0.12886
939.76911,0.14186
938.27932,0.15488
936.78953,0.17234
935.29974,0.18475
933.80996,0.19851
932.32017,0.22881
930.83038,0.23227
929.34059,0.23575
927.85080,0.24807
926.36101,0.25953
924.87123,0.27212
923.38144,0.31292
921.89165,0.35022
920.40186,0.38755
918.91207,0.46168
917.42228,0.57812
915.93250,0.74106
914.44271,0.94079
912.95292,1.05698
911.46313,1.17318
909.97334,1.42651
908.48355,1.62106
906.99376,1.84801
905.50398,1.96135
904.01419,1.97890
902.52440,1.99649
901.03461,2.00000
899.54482,1.96852
898.05503,1.84016
896.56525,1.66624
895.07546,1.54873
893.58567,1.43124
892.09588,1.13362
890.60609,0.91047
889.11630,0.68205
887.62651,0.51467
886.13673,0.44190
884.64694,0.36915
883.15715,0.26989
881.66736,0.18673
880.17757,0.14523
878.68778,0.12863
877.19800,0.11205
875.70821,0.06555
874.21842,0.04617
872.72863,0.02791
871.23884,0.00372
869.74905,0.00786
868.25927,0.01202
866.76948,0.02425
865.27969,0.02527
863.78990,0.02631
862.30011,0.04786
860.81032,0.05402
859.32053,0.06020
857.83075,0.07654
856.34096,0.07066
854.85117,0.09630
853.36138,0.10346
851.87159,0.11428
850.38180,0.12513
848.89202,0.10263
847.40223,0.12047
845.91244,0.16277
844.42265,0.17636
842.93286,0.18997
841.44307,0.18918
839.95329,0.21903
838.46350,0.22159
836.97371,0.23410
835.48392,0.23330
833.99413,0.23252
832.50434,0.23012
831.01455,0.20902
829.52477,0.21856
828.03498,0.17924
826.54519,0.16218
825.05540,0.14515
823.56561,0.11206
822.07582,0.09948
820.58604,0.09419
819.09625,0.09554
817.60646,0.09691
816.11667,0.09984
814.62688,0.10545
813.13709,0.09940
811.64730,0.10219
810.15752,0.09928
808.66773,0.09639
807.17794,0.11247
805.68815,0.09664
804.19836,0.11761
802.70857,0.12429
801.21879,0.13100
799.72900,0.11373
798.23921,0.10066
796.74942,0.10260
795.25963,0.09432
793.76984,0.08606
792.28006,0.11252
790.79027,0.12953
789.30048,0.15758
787.81069,0.19269
786.32090,0.19040
784.83111,0.18813
783.34132,0.22266
781.85154,0.26008
780.36175,0.31074
778.87196,0.32718
777.38217,0.34364
775.89238,0.39261
774.40259,0.37510
772.91281,0.38888
771.42302,0.37274
769.93323,0.35662
768.44344,0.33854
766.95365,0.25574
765.46386,0.23089
763.97407,0.20187
762.48429,0.17454
760.99450,0.14722
759.50471,0.12137
758.01492,0.11073
756.52513,0.09660
755.03534,0.08778
753.54556,0.07898
752.05577,0.07879
750.56598,0.07400
749.07619,0.06242
747.58640,0.05383
746.09661,0.04526
744.60683,0.05797
743.11704,0.03745
741.62725,0.01520
740.13746,0.01510
738.64767,0.01503
737.15788,0.02412
735.66809,0.00372
734.17831,0.02031
732.68852,0.01698
731.19873,0.01369
729.70894,0.01096
728.21915,0.02919
726.72936,0.01969
725.23958,0.02761
723.74979,0.02069
722.26000,0.01380
720.77021,0.03479
719.28042,0.02299
717.79063,0.00372
716.30084,0.00596
714.81106,0.00823
713.32127,0.02747
711.83148,0.05578
710.34169,0.05481
708.85190,0.04506
707.36211,0.03534
705.87233,0.04414
704.38254,0.06485
702.89275,0.07987
701.40296,0.06936
699.91317,0.05888
698.42338,0.08146
696.93360,0.08842
695.44381,0.10620
693.95402,0.12148
692.46423,0.13678
690.97444,0.13019
689.48465,0.15820
687.99486,0.16928
686.50508,0.19018
685.01529,0.21111
683.52550,0.24671
682.03571,0.26779
680.54592,0.29375
679.05613,0.28284
677.56635,0.27196
676.07656,0.27135
674.58677,0.26239
673.09698,0.23913
671.60719,0.22307
670.11740,0.20702
668.62761,0.18869
667.13783,0.16752
665.64804,0.14671
664.15825,0.12591
662.66846,0.10944
661.17867,0.08837
659.68888,0.08803
658.19910,0.07262
656.70931,0.05724
655.21952,0.03869
653.72973,0.04241
652.23994,0.04197
650.75015,0.03814
649.26037,0.03433
647.77058,0.05093
646.28079,0.05279
644.79100,0.03022
643.30121,0.03268
641.81142,0.03517
640.32163,0.03933
638.83185,0.01555
637.34206,0.01623
635.85227,0.01254
634.36248,0.00887
632.87269,0.00896
631.38290,0.01854
629.89312,0.03277
628.40333,0.02941
626.91354,0.02608
625.42375,0.02585
623.93396,0.02520
622.44417,0.01445
620.95438,0.00372
619.46460,0.02416
617.97481,0.04483
616.48502,0.06554
614.99523,0.07944
613.50544,0.09336
612.01565,0.11128
610.52587,0.13538
609.03608,0.16986
607.54629,0.19435
606.05650,0.21886
604.56671,0.27147
603.07692,0.34107
601.58714,0.35519
600.09735,0.36934
598.60756,0.42976
597.11777,0.44131
595.62798,0.44805
594.13819,0.42717
592.64840,0.40631
591.15862,0.38449
589.66883,0.31512
588.17904,0.28344
586.68925,0.25211
585.19946,0.22080
583.70967,0.15550
582.21989,0.12590
580.73010,0.10700
579.24031,0.08813
577.75052,0.05926
576.26073,0.06059
574.77094,0.06657
573.28115,0.05760
571.79137,0.04865
570.30158,0.06505
568.81179,0.07311
567.32200,0.07746
565.83221,0.08182
564.34242,0.10141
562.85264,0.12983
561.36285,0.13977
559.87306,0.14402
558.38327,0.14828
556.89348,0.12725
555.40369,0.16394
553.91391,0.16476
552.42412,0.16561
550.93433,0.17396
549.44454,0.18477
547.95475,0.19692
546.46496,0.20821
544.97517,0.21953
543.48539,0.23638
541.99560,0.25215
540.50581,0.27433
539.01602,0.29654
537.52623,0.33595
536.03644,0.35601
534.54666,0.40956
533.05687,0.42978
531.56708,0.45002
530.07729,0.47987
528.58750,0.55356
527.09771,0.57619
525.60792,0.59884
524.11814,0.69023
522.62835,0.71579
521.13856,0.79798
519.64877,0.82646
518.15898,0.85496
516.66919,0.90330
515.17941,0.89265
513.68962,0.87927
512.19983,0.86592
510.71004,0.79478
509.22025,0.76463
507.73046,0.67283
506.24068,0.64218
504.75089,0.61155
503.26110,0.50772
501.77131,0.38828
500.28152,0.34319
498.79173,0.29812
497.30194,0.23645
495.81216,0.19177
494.32237,0.17045
492.83258,0.14916
491.34279,0.12789
489.85300,0.11348
488.36321,0.08147
486.87343,0.08252
485.38364,0.08360
483.89385,0.09615
482.40406,0.10983
480.91427,0.10613
479.42448,0.10246
477.93469,0.12568
476.44491,0.13748
474.95512,0.15976
473.46533,0.18206
471.97554,0.18667
470.48575,0.20781
468.99596,0.19638
467.50618,0.18212
466.01639,0.16788
464.52660,0.13583
463.03681,0.11084
461.54702,0.09062
460.05723,0.07043
458.56745,0.04089
457.07766,0.02945
455.58787,0.02441
454.09808,0.01940
452.60829,0.02146
451.11850,0.04094
449.62871,0.02917
448.13893,0.01743
446.64914,0.02972
445.15935,0.04050
443.66956,0.00372
442.17977,0.01028
440.68998,0.01687
439.20020,0.04781
437.71041,0.03363
436.22062,0.04447
434.73083,0.05534
433.24104,0.02714
431.75125,0.03596
430.26146,0.04041
428.77168,0.04487
427.28189,0.05399
425.79210,0.03583
424.30231,0.04125
422.81252,0.04670
421.32273,0.03808
419.83295,0.04049
418.34316,0.04580
416.85337,0.05112
415.36358,0.03974
413.87379,0.03741
412.38400,0.02981
410.89422,0.02225
409.40443,0.01977
407.91464,0.03714
406.42485,0.03030
404.93506,0.03385
403.44527,0.03741
401.95548,0.04695
400.46570,0.03405
398.97591,0.02415
397.48612,0.01427
395.99633,0.02941
394.50654,0.02234
393.01675,0.02630
391.52697,0.02683
390.03718,0.02827
388.54739,0.01719
387.05760,0.01295
385.56781,0.00874
384.07802,0.00958
382.58824,0.02917
381.09845,0.02092
379.60866,0.01269
378.11887,0.00372
376.62908,0.01322
375.13929,0.01481
373.64950,0.01642
372.15972,0.03414
370.66993,0.05144
369.18014,0.03804
367.69035,0.02467
366.20056,0.05902
364.71077,0.05002
363.22099,0.04874
361.73120,0.04749
360.24141,0.03680
358.75162,0.06049
357.26183,0.05645
355.77204,0.05244
354.28225,0.05219
352.79247,0.05219
351.30268,0.06565
349.81289,0.07914
348.32310,0.07239
346.83331,0.04407
345.34352,0.03935
343.85374,0.03466
342.36395,0.02382
340.87416,0.02886
339.38437,0.03162
337.89458,0.03440
336.40479,0.06088
334.91501,0.02594
333.42522,0.02615
331.93543,0.02639
330.44564,0.01597
328.95585,0.01593
327.46606,0.02439
325.97627,0.03287
324.48649,0.03224
322.99670,0.05300
321.50691,0.06552
320.01712,0.07807
318.52733,0.10242
317.03754,0.11865
315.54776,0.11398
314.05797,0.10934
312.56818,0.07455
311.07839,0.07150
309.58860,0.06198
308.09881,0.05248
306.60902,0.03717
305.11924,0.02761
303.62945,0.01566
302.13966,0.00372
300.64987,0.01362
299.16008,0.00372
