1778.52000,0.00688
1777.03021,0.00332
1775.54042,0.00513
1774.05063,0.01696
1772.56085,0.00695
1771.07106,0.00325
1769.58127,0.00330
1768.09148,0.00802
1766.60169,0.00905
1765.11190,0.00731
1763.62212,0.01210
1762.13233,0.01902
1760.64254,0.01503
1759.15275,0.01780
1757.66296,0.01665
1756.17317,0.01227
1754.68339,0.01023
1753.19360,0.01520
1751.70381,0.01299
1750.21402,0.01917
1748.72423,0.01421
1747.23444,0.01020
1745.74465,0.01111
1744.25487,0.02747
1742.76508,0.01990
1741.27529,0.02165
1739.78550,0.02134
1738.29571,0.02012
1736.80592,0.02729
1735.31614,0.01542
1733.82635,0.02172
1732.33656,0.00083
1730.84677,0.00508
1729.35698,0.01331
1727.86719,0.01738
1726.37740,0.01613
1724.88762,0.01281
1723.39783,0.01718
1721.90804,0.01507
1720.41825,0.00949
1718.92846,0.00766
1717.43867,0.00330
1715.94889,0.01365
1714.45910,0.00612
1712.96931,0.00651
1711.47952,0.01578
1709.98973,0.01878
1708.49994,0.00995
1707.01016,0.01173
1705.52037,0.01353
1704.03058,0.01617
1702.54079,0.01209
1701.05100,0.01594
1699.56121,0.00330
1698.07142,0.01574
1696.58164,0.00705
1695.09185,0.01931
1693.60206,0.02252
1692.11227,0.02181
1690.62248,0.03135
1689.13269,0.02650
1687.64291,0.02586
1686.15312,0.02687
1684.66333,0.04186
1683.17354,0.02315
1681.68375,0.01912
1680.19396,0.02628
1678.70417,0.03695
1677.21439,0.03346
1675.72460,0.03720
1674.23481,0.04259
1672.74502,0.03499
1671.25523,0.05672
1669.76544,0.05777
1668.27566,0.05465
1666.78587,0.06273
1665.29608,0.06199
1663.80629,0.06687
1662.31650,0.07757
1660.82671,0.06807
1659.33693,0.08907
1657.84714,0.08310
1656.35735,0.08321
1654.86756,0.08032
1653.37777,0.08048
1651.88798,0.07997
1650.39819,0.08692
1648.90841,0.08599
1647.41862,0.07555
1645.92883,0.07071
1644.43904,0.06590
1642.94925,0.08065
1641.45946,0.07868
1639.96968,0.06324
1638.47989,0.08970
1636.99010,0.08408
1635.50031,0.08314
1634.01052,0.08339
1632.52073,0.08598
1631.03094,0.09233
1629.54116,0.09544
1628.05137,0.09043
1626.56158,0.09755
1625.07179,0.08422
1623.58200,0.09720
1622.09221,0.08578
1620.60243,0.09183
1619.11264,0.09232
1617.62285,0.08400
1616.13306,0.08873
1614.64327,0.08464
1613.15348,0.08849
1611.66370,0.09911
1610.17391,0.08835
1608.68412,0.08227
1607.19433,0.08250
1605.70454,0.08879
1604.21475,0.08965
1602.72496,0.09053
1601.23518,0.08620
1599.74539,0.08050
1598.25560,0.08599
1596.76581,0.08871
1595.27602,0.08495
1593.78623,0.07795
1592.29645,0.07237
1590.80666,0.07334
1589.31687,0.06199
1587.82708,0.08301
1586.33729,0.07102
1584.84750,0.07045
1583.35771,0.06339
1581.86793,0.07706
1580.37814,0.07610
1578.88835,0.06865
1577.39856,0.06867
1575.90877,0.05848
1574.41898,0.04250
1572.92920,0.04771
1571.43941,0.04667
1569.94962,0.04437
1568.45983,0.04210
1566.97004,0.03810
1565.48025,0.02273
1563.99047,0.03716
1562.50068,0.03138
1561.01089,0.02609
1559.52110,0.04013
1558.03131,0.03605
1556.54152,0.01548
1555.05173,0.01424
1553.56195,0.02117
1552.07216,0.02115
1550.58237,0.01440
1549.09258,0.00000
1547.60279,0.00833
1546.11300,0.00948
1544.62322,0.00298
1543.13343,0.00906
1541.64364,0.00330
1540.15385,0.01023
1538.66406,0.01719
1537.17427,0.01929
1535.68448,0.01047
1534.19470,0.00913
1532.70491,0.01851
1531.21512,0.02513
1529.72533,0.01130
1528.23554,0.00866
1526.74575,0.00930
1525.25597,0.02206
1523.76618,0.03136
1522.27639,0.02742
1520.78660,0.04374
1519.29681,0.02497
1517.80702,0.02878
1516.31724,0.02797
1514.82745,0.02392
1513.33766,0.03188
1511.84787,0.03986
1510.35808,0.03589
1508.86829,0.05241
1507.37850,0.02360
1505.88872,0.03482
1504.39893,0.04792
1502.90914,0.05640
1501.41935,0.07584
1499.92956,0.06669
1498.43977,0.05314
1496.94999,0.05707
1495.46020,0.07172
1493.97041,0.07755
1492.48062,0.10272
1490.99083,0.09930
1489.50104,0.11428
1488.01125,0.12300
1486.52147,0.13175
1485.03168,0.15379
1483.54189,0.17026
1482.05210,0.18816
1480.56231,0.22445
1479.07252,0.23588
1477.58274,0.25269
1476.09295,0.27743
1474.60316,0.26544
1473.11337,0.27930
1471.62358,0.28853
1470.13379,0.27336
1468.64401,0.29868
1467.15422,0.31171
1465.66443,0.32743
1464.17464,0.34318
1462.68485,0.37814
1461.19506,0.40034
1459.70527,0.45814
1458.21549,0.54063
1456.72570,0.60104
1455.23591,0.63334
1453.74612,0.68682
1452.25633,0.74010
1450.76654,0.76247
1449.27676,0.76369
1447.78697,0.73308
1446.29718,0.73970
1444.80739,0.72762
1443.31760,0.71557
1441.82781,0.65086
1440.33802,0.58990
1438.84824,0.52757
1437.35845,0.48828
1435.86866,0.48252
1434.37887,0.54075
1432.88908,0.56620
1431.39929,0.62610
1429.90951,0.70254
1428.41972,0.79529
1426.92993,0.86062
1425.44014,0.91225
1423.95035,0.90854
1422.46056,0.90486
1420.97078,0.94377
1419.48099,0.96944
1417.99120,1.00142
1416.50141,1.01226
1415.01162,0.95823
1413.52183,0.92283
1412.03204,0.84047
1410.54226,0.76419
1409.05247,0.69955
1407.56268,0.65030
1406.07289,0.59014
1404.58310,0.55419
1403.09331,0.51826
1401.60353,0.45771
1400.11374,0.42393
1398.62395,0.36528
1397.13416,0.31852
1395.64437,0.27947
1394.15458,0.23927
1392.66479,0.19608
1391.17501,0.17058
1389.68522,0.12046
1388.19543,0.09548
1386.70564,0.07646
1385.21585,0.05746
1383.72606,0.02884
1382.23628,0.01954
1380.74649,0.02422
1379.25670,0.02498
1377.76691,0.02669
1376.27712,0.00051
1374.78733,0.00134
1373.29755,0.00336
1371.80776,0.00563
1370.31797,0.00444
1368.82818,0.00386
1367.33839,0.00330
1365.84860,0.01042
1364.35881,0.02918
1362.86903,0.04123
1361.37924,0.04819
1359.88945,0.08587
1358.39966,0.08590
1356.90987,0.13084
1355.42008,0.18674
1353.93030,0.24174
1352.44051,0.27059
1350.95072,0.29947
1349.46093,0.39640
1347.97114,0.48034
1346.48135,0.57546
1344.99156,0.63316
1343.50178,0.68158
1342.01199,0.71514
1340.52220,0.74547
1339.03241,0.82560
1337.54262,0.88040
1336.05283,0.91115
1334.56305,0.94193
1333.07326,0.97308
1331.58347,0.93703
1330.09368,0.92357
1328.60389,0.91200
1327.11410,0.92278
1325.62432,0.90102
1324.13453,0.86905
1322.64474,0.83106
1321.15495,0.79239
1319.66516,0.75852
1318.17537,0.72467
1316.68558,0.64421
1315.19580,0.59099
1313.70601,0.54989
1312.21622,0.55813
1310.72643,0.51708
1309.23664,0.47535
1307.74685,0.46180
1306.25707,0.41500
1304.76728,0.38452
1303.27749,0.35406
1301.78770,0.33130
1300.29791,0.28623
1298.80812,0.23258
1297.31834,0.20362
1295.82855,0.16421
1294.33876,0.14599
1292.84897,0.10710
1291.35918,0.10056
1289.86939,0.10160
1288.37960,0.10267
1286.88982,0.09946
1285.40003,0.08046
1283.91024,0.07637
1282.42045,0.06486
1280.93066,0.07990
1279.44087,0.06774
1277.95109,0.03793
1276.46130,0.06048
1274.97151,0.04898
1273.48172,0.03750
1271.99193,0.03919
1270.50214,0.02625
1269.01235,0.02706
1267.52257,0.01929
1266.03278,0.02387
1264.54299,0.04406
1263.05320,0.03357
1261.56341,0.02671
1260.07362,0.01987
1258.58384,0.03434
1257.09405,0.02209
1255.60426,0.03545
1254.11447,0.01394
1252.62468,0.01595
1251.13489,0.02497
1249.64511,0.00330
1248.15532,0.01665
1246.66553,0.02026
1245.17574,0.02389
1243.68595,0.02126
1242.19616,0.02611
1240.70637,0.01353
1239.21659,0.02028
1237.72680,0.03171
1236.23701,0.02107
1234.74722,0.01417
1233.25743,0.01196
1231.76764,0.00976
1230.27786,0.00410
1228.78807,0.02056
1227.29828,0.02519
1225.80849,0.02937
1224.31870,0.01637
1222.82891,0.01641
1221.33912,0.01579
1219.84934,0.02019
1218.35955,0.02461
1216.86976,0.03708
1215.37997,0.05470
1213.89018,0.06559
1212.40039,0.07116
1210.91061,0.07885
1209.42082,0.07725
1207.93103,0.07731
1206.44124,0.07740
1204.95145,0.07518
1203.46166,0.06857
1201.97188,0.05873
1200.48209,0.07589
1198.99230,0.05307
1197.50251,0.04889
1196.01272,0.03007
1194.52293,0.03431
1193.03314,0.03857
1191.54336,0.03890
1190.05357,0.03298
1188.56378,0.02568
1187.07399,0.03167
1185.58420,0.01442
1184.09441,0.00464
1182.60463,0.00396
1181.11484,0.00330
1179.62505,0.01588
1178.13526,0.02987
1176.64547,0.00900
1175.15568,0.01328
1173.66589,0.01665
1172.17611,0.00330
1170.68632,0.01494
1169.19653,0.02661
1167.70674,0.03133
1166.21695,0.04212
1164.72716,0.03688
1163.23738,0.02446
1161.74759,0.03439
1160.25780,0.04667
1158.76801,0.05165
1157.27822,0.05666
1155.78843,0.06831
1154.29865,0.07790
1152.80886,0.08519
1151.31907,0.10809
1149.82928,0.11449
1148.33949,0.13418
1146.84970,0.13029
1145.35991,0.12642
1143.87013,0.14060
1142.38034,0.13969
1140.89055,0.15927
1139.40076,0.15817
1137.91097,0.18036
1136.42118,0.20304
1134.93140,0.21167
1133.44161,0.22033
1131.95182,0.21005
1130.46203,0.21840
1128.97224,0.22818
1127.48245,0.23635
1125.99266,0.24688
1124.50288,0.25417
1123.01309,0.24311
1121.52330,0.23207
1120.03351,0.22897
1118.54372,0.22892
1117.05393,0.22633
1115.56415,0.22121
1114.07436,0.22681
1112.58457,0.23535
1111.09478,0.24391
1109.60499,0.23167
1108.11520,0.22226
1106.62542,0.23287
1105.13563,0.22001
1103.64584,0.21788
1102.15605,0.20530
1100.66626,0.20171
1099.17647,0.19814
1097.68668,0.19261
1096.19690,0.18781
1094.70711,0.20560
1093.21732,0.21806
1091.72753,0.19589
1090.23774,0.20142
1088.74795,0.20698
1087.25817,0.20302
1085.76838,0.19165
1084.27859,0.21007
1082.78880,0.19759
1081.29901,0.20559
1079.80922,0.18059
1078.31943,0.18563
1076.82965,0.19068
1075.33986,0.22460
1073.85007,0.25297
1072.36028,0.23833
1070.87049,0.24162
1069.38070,0.26681
1067.89092,0.29818
1066.40113,0.32957
1064.91134,0.40019
1063.42155,0.51316
1061.93176,0.60313
1060.44197,0.70475
1058.95219,0.80453
1057.46240,0.84550
1055.97261,0.88649
1054.48282,0.98960
1052.99303,1.03762
1051.50324,1.04519
1050.01345,1.04348
1048.52367,1.02225
1047.03388,1.01803
1045.54409,1.01384
1044.05430,0.92082
1042.56451,0.84015
1041.07472,0.77834
1039.58494,0.73191
1038.09515,0.66132
1036.60536,0.62343
1035.11557,0.58556
1033.62578,0.48922
1032.13599,0.43291
1030.64620,0.39803
1029.15642,0.32037
1027.66663,0.28949
1026.17684,0.25864
1024.68705,0.21036
1023.19726,0.17467
1021.70747,0.18250
1020.21769,0.15988
1018.72790,0.15357
1017.23811,0.14263
1015.74832,0.13172
1014.25853,0.12409
1012.76874,0.10392
1011.27896,0.10797
1009.78917,0.09460
1008.29938,0.09009
1006.80959,0.07269
1005.31980,0.05532
1003.83001,0.03554
1002.34022,0.00554
1000.85044,0.03116
999.36065,0.04983
997.87086,0.05991
996.38107,0.07002
994.89128,0.08922
993.40149,0.10148
991.91171,0.12073
990.42192,0.12931
988.93213,0.14908
987.44234,0.14643
985.95255,0.14380
984.46276,0.14875
982.97297,0.14420
981.48319,0.11966
979.99340,0.09097
978.50361,0.09044
977.01382,0.08994
975.52403,0.06620
974.03424,0.04784
972.54446,0.03741
971.05467,0.02281
969.56488,0.00894
968.07509,0.01580
966.58530,0.02268
965.09551,0.00330
963.60573,0.02510
962.11594,0.01320
960.62615,0.00272
959.13636,0.00723
957.64657,0.01176
956.15678,0.01121
954.66699,0.03230
953.17721,0.04017
951.68742,0.04852
950.19763,0.06179
948.70784,0.07508
947.21805,0.07536
945.72826,0.05358
944.23848,0.06694
942.74869,0.08754
941.25890,0.12537
939.76911,0.13369
938.27932,0.14204
936.78953,0.16366
935.29974,0.18369
933.80996,0.20746
932.32017,0.22939
930.83038,0.23553
929.34059,0.24170
927.85080,0.24812
926.36101,0.26829
924.87123,0.29058
923.38144,0.34476
921.89165,0.38826
920.40186,0.43179
918.91207,0.53303
917.42228,0.68942
915.93250,0.79931
914.44271,0.99878
912.95292,1.10151
911.46313,1.20427
909.97334,1.43870
908.48355,1.70061
906.99376,1.87042
905.50398,1.90908
904.01419,1.90101
902.52440,1.89297
901.03461,1.99474
899.54482,2.00000
898.05503,1.83852
896.56525,1.62798
895.07546,1.49608
893.58567,1.36421
892.09588,1.09281
890.60609,0.87958
889.11630,0.67544
887.62651,0.52879
886.13673,0.44658
884.64694,0.36440
883.15715,0.28643
881.66736,0.18081
880.17757,0.15476
878.68778,0.13234
877.19800,0.10995
875.70821,0.07397
874.21842,0.03151
872.72863,0.03652
871.23884,0.01806
869.74905,0.01649
868.25927,0.01494
866.76948,0.01214
865.27969,0.05379
863.78990,0.03197
862.30011,0.06529
860.81032,0.07294
859.32053,0.08061
857.83075,0.07517
856.34096,0.09185
854.85117,0.12948
853.36138,0.13109
851.87159,0.13482
850.38180,0.13857
848.89202,0.16095
847.40223,0.17406
845.91244,0.22928
844.42265,0.23058
842.93286,0.23189
841.44307,0.23812
839.95329,0.26367
838.46350,0.28809
836.97371,0.28415
835.48392,0.27768
833.99413,0.27124
832.50434,0.27272
831.01455,0.28401
829.52477,0.25507
828.03498,0.24128
826.54519,0.21961
825.05540,0.19796
823.56561,0.18471
822.07582,0.15520
820.58604,0.15340
819.09625,0.14511
817.60646,0.13684
816.11667,0.13883
814.62688,0.13178
813.13709,0.12312
811.64730,0.11914
810.15752,0.12646
808.66773,0.13381
807.17794,0.14293
805.68815,0.15160
804.19836,0.16077
802.70857,0.15659
801.21879,0.15243
799.72900,0.14446
798.23921,0.13395
796.74942,0.14487
795.25963,0.14186
793.76984,0.13887
792.28006,0.15847
790.79027,0.18856
789.30048,0.20751
787.81069,0.19997
786.32090,0.21071
784.83111,0.22148
783.34132,0.24890
781.85154,0.31309
780.36175,0.36755
778.87196,0.38574
777.38217,0.40396
775.89238,0.44034
774.40259,0.44488
772.91281,0.44247
771.42302,0.42055
769.93323,0.39865
768.44344,0.31304
766.95365,0.29584
765.46386,0.24401
763.97407,0.19360
762.48429,0.18450
760.99450,0.17543
759.50471,0.13556
758.01492,0.12269
756.52513,0.09590
755.03534,0.09355
753.54556,0.09123
752.05577,0.09289
750.56598,0.06177
749.07619,0.05045
747.58640,0.05427
746.09661,0.05812
744.60683,0.04571
743.11704,0.04310
741.62725,0.01259
740.13746,0.00794
738.64767,0.00330
737.15788,0.02193
735.66809,0.01197
734.17831,0.00460
732.68852,0.00620
731.19873,0.00783
729.70894,0.00914
728.21915,0.01372
726.72936,0.00973
725.23958,0.01762
723.74979,0.01391
722.26000,0.01022
720.77021,0.00330
719.28042,0.00827
717.79063,0.01117
716.30084,0.01108
714.81106,0.01100
713.32127,0.02096
711.83148,0.02838
710.34169,0.01861
708.85190,0.01689
707.36211,0.01520
705.87233,0.03132
704.38254,0.04236
702.89275,0.03364
701.40296,0.03495
699.91317,0.03629
698.42338,0.05347
696.93360,0.06649
695.44381,0.09441
693.95402,0.10841
692.46423,0.12243
690.97444,0.13368
689.48465,0.15008
687.99486,0.16324
686.50508,0.16992
685.01529,0.17662
683.52550,0.22894
682.03571,0.23010
680.54592,0.25200
679.05613,0.25019
677.56635,0.24841
676.07656,0.24293
674.58677,0.22049
673.09698,0.20739
671.60719,0.20350
670.11740,0.19963
668.62761,0.17008
667.13783,0.15661
665.64804,0.14270
664.15825,0.12881
662.66846,0.11471
661.17867,0.11390
659.68888,0.09055
658.19910,0.07723
656.70931,0.06393
655.21952,0.05716
653.72973,0.05647
652.23994,0.04720
650.75015,0.04761
649.26037,0.04804
647.77058,0.05350
646.28079,0.03990
644.79100,0.04494
643.30121,0.05559
641.81142,0.06626
640.32163,0.08557
638.83185,0.05070
637.34206,0.04632
635.85227,0.03221
634.36248,0.01811
632.87269,0.00544
631.38290,0.02639
629.89312,0.03572
628.40333,0.01950
626.91354,0.00330
625.42375,0.01075
623.93396,0.00287
622.44417,0.02258
620.95438,0.04232
619.46460,0.04149
617.97481,0.06465
616.48502,0.09248
614.99523,0.10511
613.50544,0.11775
612.01565,0.15101
610.52587,0.18825
609.03608,0.18550
607.54629,0.22313
606.05650,0.26079
604.56671,0.32767
603.07692,0.39480
601.58714,0.40869
600.09735,0.42261
598.60756,0.46423
597.11777,0.50052
595.62798,0.48381
594.13819,0.46189
592.64840,0.43999
591.15862,0.41149
589.66883,0.35464
588.17904,0.28850
586.68925,0.26042
585.19946,0.23237
583.70967,0.18166
582.21989,0.15308
580.73010,0.13917
579.24031,0.12529
577.75052,0.09864
576.26073,0.09341
574.77094,0.09960
573.28115,0.09477
571.79137,0.08997
570.30158,0.08623
568.81179,0.10462
567.32200,0.11594
565.83221,0.12728
564.34242,0.15924
562.85264,0.17098
561.36285,0.16483
559.87306,0.17895
558.38327,0.19309
556.89348,0.19842
555.40369,0.21773
553.91391,0.22392
552.42412,0.23013
550.93433,0.24323
549.44454,0.23380
547.95475,0.25974
546.46496,0.26198
544.97517,0.26425
543.48539,0.28608
541.99560,0.30189
540.50581,0.32796
539.01602,0.35405
537.52623,0.38319
536.03644,0.45794
534.54666,0.46806
533.05687,0.48762
531.56708,0.50721
530.07729,0.54694
528.58750,0.55924
527.09771,0.59216
525.60792,0.62510
524.11814,0.70726
522.62835,0.75968
521.13856,0.81607
519.64877,0.84016
518.15898,0.86427
516.66919,0.89236
515.17941,0.89884
513.68962,0.90639
512.19983,0.91397
510.71004,0.83679
509.22025,0.78732
507.73046,0.71740
506.24068,0.68205
504.75089,0.64672
503.26110,0.54082
501.77131,0.40680
500.28152,0.36306
498.79173,0.31934
497.30194,0.25634
495.81216,0.22243
494.32237,0.20682
492.83258,0.19122
491.34279,0.12344
489.85300,0.08917
488.36321,0.11284
486.87343,0.10793
485.38364,0.10304
483.89385,0.09702
482.40406,0.11800
480.91427,0.11505
479.42448,0.11212
477.93469,0.16923
476.44491,0.19217
474.95512,0.20664
473.46533,0.22114
471.97554,0.21996
470.48575,0.23765
468.99596,0.25862
467.50618,0.23112
466.01639,0.20364
464.52660,0.13002
463.03681,0.11411
461.54702,0.08624
460.05723,0.05839
458.56745,0.05558
457.07766,0.04837
455.58787,0.04107
454.09808,0.03379
452.60829,0.03293
451.11850,0.02931
449.62871,0.01629
448.13893,0.00330
446.64914,0.01858
445.15935,0.00877
443.66956,0.00549
442.17977,0.00410
440.68998,0.00274
439.20020,0.03303
437.71041,0.05195
436.22062,0.06799
434.73083,0.08405
433.24104,0.09141
431.75125,0.04461
430.26146,0.03946
428.77168,0.03434
427.28189,0.03947
425.79210,0.05464
424.30231,0.06203
422.81252,0.06945
421.32273,0.03282
419.83295,0.06529
418.34316,0.05488
416.85337,0.04449
415.36358,0.00330
413.87379,0.02221
412.38400,0.02056
410.89422,0.01893
409.40443,0.00791
407.91464,0.01831
406.42485,0.03571
404.93506,0.03837
403.44527,0.04105
401.95548,0.02271
400.46570,0.03021
398.97591,0.02657
397.48612,0.02296
395.99633,0.03402
394.50654,0.04604
393.01675,0.05506
391.52697,0.06410
390.03718,0.05224
388.54739,0.02016
387.05760,0.01172
385.56781,0.00330
384.07802,0.00669
382.58824,0.01895
381.09845,0.02367
379.60866,0.02841
378.11887,0.00934
376.62908,0.00169
375.13929,0.00872
373.64950,0.01578
372.15972,0.00355
370.66993,0.01763
369.18014,0.01045
367.69035,0.00330
366.20056,0.00646
364.71077,0.02569
363.22099,0.03273
361.73120,0.03980
360.24141,0.01956
358.75162,0.03657
357.26183,0.04487
355.77204,0.05320
354.28225,0.02562
352.79247,0.05645
351.30268,0.06834
349.81289,0.08026
348.32310,0.08767
346.83331,0.07719
345.34352,0.05045
343.85374,0.02374
342.36395,0.03055
340.87416,0.04459
339.38437,0.04122
337.89458,0.03786
336.40479,0.02244
334.91501,0.02635
333.42522,0.01481
331.93543,0.00330
330.44564,0.01258
328.95585,0.02352
327.46606,0.02704
325.97627,0.03058
324.48649,0.00577
322.99670,0.04416
321.50691,0.05664
320.01712,0.06914
318.52733,0.07202
317.03754,0.09003
315.54776,0.08866
314.05797,0.08730
312.56818,0.03445
311.07839,0.05234
309.58860,0.06699
308.09881,0.08166
306.60902,0.08962
305.11924,0.05504
303.62945,0.04281
302.13966,0.03060
300.64987,0.00330
299.16008,0.00330
