1778.52000,0.01586
1777.03021,0.00844
1775.54042,0.00825
1774.05063,0.00874
1772.56085,0.01144
1771.07106,0.01811
1769.58127,0.01211
1768.09148,0.01357
1766.60169,0.00544
1765.11190,0.01220
1763.62212,0.01614
1762.13233,0.00524
1760.64254,0.01097
1759.15275,0.01520
1757.66296,0.01530
1756.17317,0.00449
1754.68339,0.00748
1753.19360,0.00350
1751.70381,0.00807
1750.21402,0.00435
1748.72423,0.00000
1747.23444,0.00792
1745.74465,0.00952
1744.25487,0.00393
1742.76508,0.00471
1741.27529,0.00485
1739.78550,0.00524
1738.29571,0.00886
1736.80592,0.00988
1735.31614,0.00940
1733.82635,0.01047
1732.33656,0.01069
1730.84677,0.00569
1729.35698,0.00509
1727.86719,0.01194
1726.37740,0.01007
1724.88762,0.00669
1723.39783,0.01056
1721.90804,0.01051
1720.41825,0.01026
1718.92846,0.00524
1717.43867,0.02159
1715.94889,0.02223
1714.45910,0.01808
1712.96931,0.01089
1711.47952,0.00876
1709.98973,0.01561
1708.49994,0.01331
1707.01016,0.01551
1705.52037,0.01774
1704.03058,0.01441
1702.54079,0.01986
1701.05100,0.01089
1699.56121,0.00524
1698.07142,0.01242
1696.58164,0.01286
1695.09185,0.02228
1693.60206,0.02014
1692.11227,0.02087
1690.62248,0.02052
1689.13269,0.03004
1687.64291,0.02231
1686.15312,0.02991
1684.66333,0.03185
1683.17354,0.02266
1681.68375,0.03121
1680.19396,0.02775
1678.70417,0.03241
1677.21439,0.03250
1675.72460,0.03174
1674.23481,0.03625
1672.74502,0.03597
1671.25523,0.04250
1669.76544,0.05145
1668.27566,0.06021
1666.78587,0.05566
1665.29608,0.06600
1663.80629,0.06324
1662.31650,0.07800
1660.82671,0.07201
1659.33693,0.07763
1657.84714,0.07213
1656.35735,0.08589
1654.86756,0.07672
1653.37777,0.07719
1651.88798,0.07681
1650.39819,0.08105
1648.90841,0.09274
1647.41862,0.08631
1645.92883,0.08603
1644.43904,0.08577
1642.94925,0.08794
1641.45946,0.08838
1639.96968,0.09038
1638.47989,0.08628
1636.99010,0.09182
1635.50031,0.08405
1634.01052,0.08615
1632.52073,0.09635
1631.03094,0.09631
1629.54116,0.08864
1628.05137,0.09498
1626.56158,0.09697
1625.07179,0.09921
1623.58200,0.10781
1622.09221,0.09785
1620.60243,0.10934
1619.11264,0.10206
1617.62285,0.10070
1616.13306,0.09717
1614.64327,0.08646
1613.15348,0.09413
1611.66370,0.10402
1610.17391,0.11021
1608.68412,0.09806
1607.19433,0.09381
1605.70454,0.10488
1604.21475,0.10417
1602.72496,0.10349
1601.23518,0.10195
1599.74539,0.09519
1598.25560,0.10201
1596.76581,0.11170
1595.27602,0.10633
1593.78623,0.09923
1592.29645,0.09587
1590.80666,0.09362
1589.31687,0.07785
1587.82708,0.08440
1586.33729,0.08988
1584.84750,0.08904
1583.35771,0.08692
1581.86793,0.10122
1580.37814,0.09761
1578.88835,0.08900
1577.39856,0.07407
1575.90877,0.06333
1574.41898,0.08802
1572.92920,0.04824
1571.43941,0.03713
1569.94962,0.04943
1568.45983,0.06175
1566.97004,0.05596
1565.48025,0.03532
1563.99047,0.03613
1562.50068,0.03565
1561.01089,0.02274
1559.52110,0.02799
1558.03131,0.02693
1556.54152,0.02720
1555.05173,0.03078
1553.56195,0.01536
1552.07216,0.01811
1550.58237,0.02351
1549.09258,0.02696
1547.60279,0.02038
1546.11300,0.01907
1544.62322,0.01757
1543.13343,0.01369
1541.64364,0.00524
1540.15385,0.00887
1538.66406,0.01253
1537.17427,0.00693
1535.68448,0.01643
1534.19470,0.02027
1532.70491,0.01867
1531.21512,0.01906
1529.72533,0.02297
1528.23554,0.00724
1526.74575,0.02038
1525.25597,0.01737
1523.76618,0.02138
1522.27639,0.04071
1520.78660,0.02903
1519.29681,0.03682
1517.80702,0.04333
1516.31724,0.03128
1514.82745,0.03216
1513.33766,0.04213
1511.84787,0.05212
1510.35808,0.06377
1508.86829,0.05097
1507.37850,0.03622
1505.88872,0.05385
1504.39893,0.05052
1502.90914,0.05508
1501.41935,0.05814
1499.92956,0.04569
1498.43977,0.07809
1496.94999,0.07531
1495.46020,0.07824
1493.97041,0.08798
1492.48062,0.10495
1490.99083,0.12216
1489.50104,0.13065
1488.01125,0.13371
1486.52147,0.13678
1485.03168,0.15518
1483.54189,0.19066
1482.05210,0.18834
1480.56231,0.20354
1479.07252,0.23100
1477.58274,0.25302
1476.09295,0.26282
1474.60316,0.26040
1473.11337,0.26828
1471.62358,0.29017
1470.13379,0.27078
1468.64401,0.27851
1467.15422,0.27468
1465.66443,0.29886
1464.17464,0.32306
1462.68485,0.36040
1461.19506,0.37940
1459.70527,0.42182
1458.21549,0.51564
1456.72570,0.54696
1455.23591,0.60584
1453.74612,0.67940
1452.25633,0.72303
1450.76654,0.75291
1449.27676,0.74390
1447.78697,0.70847
1446.29718,0.70781
1444.80739,0.68991
1443.31760,0.67204
1441.82781,0.64063
1440.33802,0.60684
1438.84824,0.54072
1437.35845,0.49911
1435.86866,0.50037
1434.37887,0.53904
1432.88908,0.54844
1431.39929,0.61602
1429.90951,0.67640
1428.41972,0.77551
1426.92993,0.85540
1425.44014,0.90143
1423.95035,0.91534
1422.46056,0.92928
1420.97078,0.97647
1419.48099,0.96707
1417.99120,1.00206
1416.50141,0.98593
1415.01162,0.94686
1413.52183,0.90082
1412.03204,0.83186
1410.54226,0.79024
1409.05247,0.69924
1407.56268,0.61591
1406.07289,0.56606
1404.58310,0.53339
1403.09331,0.50074
1401.60353,0.44877
1400.11374,0.38568
1398.62395,0.34862
1397.13416,0.29957
1395.64437,0.25622
1394.15458,0.21530
1392.66479,0.18971
1391.17501,0.15977
1389.68522,0.13532
1388.19543,0.11330
1386.70564,0.09611
1385.21585,0.07895
1383.72606,0.05153
1382.23628,0.03638
1380.74649,0.03569
1379.25670,0.02343
1377.76691,0.02387
1376.27712,0.01341
1374.78733,0.01018
1373.29755,0.00524
1371.80776,0.01614
1370.31797,0.01221
1368.82818,0.01202
1367.33839,0.01185
1365.84860,0.03094
1364.35881,0.03279
1362.86903,0.03444
1361.37924,0.05733
1359.88945,0.08395
1358.39966,0.10032
1356.90987,0.13858
1355.42008,0.19260
1353.93030,0.25058
1352.44051,0.27644
1350.95072,0.30233
1349.46093,0.37875
1347.97114,0.48492
1346.48135,0.58609
1344.99156,0.65011
1343.50178,0.72335
1342.01199,0.77561
1340.52220,0.79905
1339.03241,0.84371
1337.54262,0.85932
1336.05283,0.87922
1334.56305,0.89915
1333.07326,0.94653
1331.58347,0.94234
1330.09368,0.94102
1328.60389,0.92420
1327.11410,0.90019
1325.62432,0.87205
1324.13453,0.83082
1322.64474,0.78764
1321.15495,0.76635
1319.66516,0.73164
1318.17537,0.69695
1316.68558,0.66153
1315.19580,0.60863
1313.70601,0.58374
1312.21622,0.53898
1310.72643,0.48157
1309.23664,0.45938
1307.74685,0.43109
1306.25707,0.39954
1304.76728,0.37687
1303.27749,0.35423
1301.78770,0.31182
1300.29791,0.28518
1298.80812,0.24305
1297.31834,0.20027
1295.82855,0.16955
1294.33876,0.13623
1292.84897,0.12698
1291.35918,0.10595
1289.86939,0.10090
1288.37960,0.09587
1286.88982,0.09131
1285.40003,0.08764
1283.91024,0.06957
1282.42045,0.05808
1280.93066,0.07045
1279.44087,0.05966
1277.95109,0.05131
1276.46130,0.04997
1274.97151,0.04243
1273.48172,0.03491
1271.99193,0.04458
1270.50214,0.03153
1269.01235,0.02900
1267.52257,0.02606
1266.03278,0.02073
1264.54299,0.02134
1263.05320,0.01890
1261.56341,0.01486
1260.07362,0.01083
1258.58384,0.00410
1257.09405,0.01385
1255.60426,0.01686
1254.11447,0.00590
1252.62468,0.00524
1251.13489,0.00783
1249.64511,0.01023
1248.15532,0.01505
1246.66553,0.01367
1245.17574,0.01232
1243.68595,0.01197
1242.19616,0.02280
1240.70637,0.01594
1239.21659,0.02703
1237.72680,0.02306
1236.23701,0.01802
1234.74722,0.00863
1233.25743,0.00692
1231.76764,0.00524
1230.27786,0.00870
1228.78807,0.01196
1227.29828,0.02225
1225.80849,0.02993
1224.31870,0.00791
1222.82891,0.01543
1221.33912,0.01969
1219.84934,0.02998
1218.35955,0.04030
1216.86976,0.04682
1215.37997,0.04440
1213.89018,0.06561
1212.40039,0.06542
1210.91061,0.07050
1209.42082,0.06118
1207.93103,0.06139
1206.44124,0.06163
1204.95145,0.07971
1203.46166,0.05321
1201.97188,0.06018
1200.48209,0.07177
1198.99230,0.06393
1197.50251,0.04430
1196.01272,0.04023
1194.52293,0.03759
1193.03314,0.03498
1191.54336,0.03797
1190.05357,0.04076
1188.56378,0.02543
1187.07399,0.02587
1185.58420,0.01693
1184.09441,0.01042
1182.60463,0.01082
1181.11484,0.01124
1179.62505,0.00524
1178.13526,0.01475
1176.64547,0.00789
1175.15568,0.01963
1173.66589,0.01610
1172.17611,0.01915
1170.68632,0.01402
1169.19653,0.00892
1167.70674,0.00658
1166.21695,0.03530
1164.72716,0.01726
1163.23738,0.03007
1161.74759,0.03504
1160.25780,0.05577
1158.76801,0.06242
1157.27822,0.06909
1155.78843,0.07459
1154.29865,0.08820
1152.80886,0.10096
1151.31907,0.09385
1149.82928,0.10644
1148.33949,0.11796
1146.84970,0.12994
1145.35991,0.14194
1143.87013,0.15922
1142.38034,0.15007
1140.89055,0.14946
1139.40076,0.15282
1137.91097,0.18046
1136.42118,0.19698
1134.93140,0.20456
1133.44161,0.21217
1131.95182,0.22045
1130.46203,0.20887
1128.97224,0.23993
1127.48245,0.24435
1125.99266,0.26498
1124.50288,0.25808
1123.01309,0.25317
1121.52330,0.24828
1120.03351,0.24473
1118.54372,0.24667
1117.05393,0.23530
1115.56415,0.25653
1114.07436,0.25023
1112.58457,0.24987
1111.09478,0.24952
1109.60499,0.25029
1108.11520,0.24344
1106.62542,0.22064
1105.13563,0.24401
1103.64584,0.22082
1102.15605,0.21275
1100.66626,0.22023
1099.17647,0.22772
1097.68668,0.21207
1096.19690,0.21809
1094.70711,0.21910
1093.21732,0.23062
1091.72753,0.22687
1090.23774,0.22194
1088.74795,0.21704
1087.25817,0.18865
1085.76838,0.20576
1084.27859,0.19863
1082.78880,0.18803
1081.29901,0.19385
1079.80922,0.20909
1078.31943,0.20916
1076.82965,0.20925
1075.33986,0.23265
1073.85007,0.24449
1072.36028,0.25351
1070.87049,0.27961
1069.38070,0.30726
1067.89092,0.31318
1066.40113,0.31912
1064.91134,0.38182
1063.42155,0.49571
1061.93176,0.58206
1060.44197,0.67173
1058.95219,0.78459
1057.46240,0.83407
1055.97261,0.88358
1054.48282,0.95060
1052.99303,0.97633
1051.50324,0.99661
1050.01345,0.97910
1048.52367,0.97014
1047.03388,0.95442
1045.54409,0.93873
1044.05430,0.92678
1042.56451,0.79811
1041.07472,0.72499
1039.58494,0.67507
1038.09515,0.63021
1036.60536,0.59323
1035.11557,0.55628
1033.62578,0.47935
1032.13599,0.42802
1030.64620,0.37803
1029.15642,0.33046
1027.66663,0.30445
1026.17684,0.27847
1024.68705,0.22616
1023.19726,0.18197
1021.70747,0.16819
1020.21769,0.14438
1018.72790,0.12890
1017.23811,0.11727
1015.74832,0.10566
1014.25853,0.09222
1012.76874,0.08776
1011.27896,0.08399
1009.78917,0.08264
1008.29938,0.07935
1006.80959,0.06133
1005.31980,0.04333
1003.83001,0.02284
1002.34022,0.01462
1000.85044,0.03288
999.36065,0.06733
997.87086,0.06869
996.38107,0.07007
994.89128,0.09017
993.40149,0.12144
991.91171,0.13787
990.42192,0.16110
988.93213,0.16271
987.44234,0.16402
985.95255,0.16535
984.46276,0.15917
982.97297,0.15519
981.48319,0.14074
979.99340,0.11561
978.50361,0.09563
977.01382,0.07568
975.52403,0.07663
974.03424,0.05050
972.54446,0.04516
971.05467,0.04422
969.56488,0.02296
968.07509,0.01409
966.58530,0.00524
965.09551,0.01783
963.60573,0.02718
962.11594,0.00485
960.62615,0.00474
959.13636,0.00446
957.64657,0.00420
956.15678,0.01586
954.66699,0.00633
953.17721,0.01782
951.68742,0.03698
950.19763,0.04414
948.70784,0.05133
947.21805,0.06007
945.72826,0.06730
944.23848,0.07215
942.74869,0.10545
941.25890,0.10860
939.76911,0.11822
938.27932,0.12787
936.78953,0.15339
935.29974,0.17347
933.80996,0.20560
932.32017,0.23272
930.83038,0.23210
929.34059,0.23151
927.85080,0.25477
926.36101,0.27303
924.87123,0.29305
923.38144,0.34043
921.89165,0.37264
920.40186,0.40487
918.91207,0.50173
917.42228,0.59971
915.93250,0.73028
914.44271,0.97762
912.95292,1.09666
911.46313,1.21571
909.97334,1.52106
908.48355,1.72805
906.99376,1.92960
905.50398,2.00000
904.01419,1.98571
902.52440,1.97145
901.03461,1.96081
899.54482,1.91020
898.05503,1.74876
896.56525,1.57905
895.07546,1.46641
893.58567,1.35380
892.09588,1.03878
890.60609,0.80313
889.11630,0.60927
887.62651,0.45456
886.13673,0.40886
884.64694,0.36318
883.15715,0.24746
881.66736,0.18161
880.17757,0.13895
878.68778,0.12103
877.19800,0.10312
875.70821,0.07890
874.21842,0.04771
872.72863,0.03578
871.23884,0.04574
869.74905,0.02905
868.25927,0.01238
866.76948,0.03246
865.27969,0.03530
863.78990,0.03576
862.30011,0.04826
860.81032,0.05991
859.32053,0.07159
857.83075,0.06755
856.34096,0.08234
854.85117,0.12644
853.36138,0.15286
851.87159,0.15701
850.38180,0.16118
848.89202,0.17237
847.40223,0.17680
845.91244,0.21843
844.42265,0.22466
842.93286,0.23091
841.44307,0.26080
839.95329,0.25005
838.46350,0.27322
836.97371,0.27454
835.48392,0.26922
833.99413,0.26392
832.50434,0.28084
831.01455,0.24334
829.52477,0.24413
828.03498,0.21215
826.54519,0.20117
825.05540,0.19023
823.56561,0.15023
822.07582,0.14326
820.58604,0.13064
819.09625,0.13039
817.60646,0.13016
816.11667,0.14647
814.62688,0.12782
813.13709,0.13149
811.64730,0.14809
810.15752,0.14459
808.66773,0.14112
807.17794,0.14423
805.68815,0.16901
804.19836,0.15140
802.70857,0.16136
801.21879,0.17135
799.72900,0.15162
798.23921,0.13302
796.74942,0.13324
795.25963,0.13260
793.76984,0.13200
792.28006,0.13578
790.79027,0.16211
789.30048,0.18125
787.81069,0.21812
786.32090,0.22561
784.83111,0.23313
783.34132,0.28231
781.85154,0.32125
780.36175,0.36742
778.87196,0.37765
777.38217,0.38791
775.89238,0.42562
774.40259,0.43276
772.91281,0.40603
771.42302,0.38698
769.93323,0.36795
768.44344,0.33846
766.95365,0.27663
765.46386,0.22641
763.97407,0.19567
762.48429,0.17414
760.99450,0.15263
759.50471,0.12481
758.01492,0.12892
756.52513,0.10027
755.03534,0.09373
753.54556,0.08720
752.05577,0.08595
750.56598,0.06745
749.07619,0.04679
747.58640,0.04124
746.09661,0.03571
744.60683,0.04398
743.11704,0.02603
741.62725,0.01642
740.13746,0.01471
738.64767,0.01301
737.15788,0.01266
735.66809,0.00729
734.17831,0.00524
732.68852,0.00848
731.19873,0.01176
729.70894,0.00412
728.21915,0.01184
726.72936,0.01281
725.23958,0.01009
723.74979,0.01493
722.26000,0.01979
720.77021,0.00534
719.28042,0.01259
717.79063,0.00785
716.30084,0.00586
714.81106,0.00390
713.32127,0.01013
711.83148,0.00481
710.34169,0.02399
708.85190,0.01958
707.36211,0.01520
705.87233,0.01980
704.38254,0.03820
702.89275,0.04286
701.40296,0.04819
699.91317,0.05355
698.42338,0.04537
696.93360,0.06149
695.44381,0.08550
693.95402,0.09707
692.46423,0.10867
690.97444,0.10083
689.48465,0.12472
687.99486,0.15891
686.50508,0.17114
685.01529,0.18341
683.52550,0.21154
682.03571,0.23183
680.54592,0.26199
679.05613,0.25062
677.56635,0.23929
676.07656,0.23934
674.58677,0.21843
673.09698,0.20192
671.60719,0.18860
670.11740,0.17530
668.62761,0.17897
667.13783,0.13873
665.64804,0.13611
664.15825,0.13351
662.66846,0.09486
661.17867,0.07001
659.68888,0.05634
658.19910,0.05296
656.70931,0.04961
655.21952,0.03885
653.72973,0.02418
652.23994,0.03030
650.75015,0.02256
649.26037,0.01484
647.77058,0.03677
646.28079,0.03009
644.79100,0.03502
643.30121,0.03931
641.81142,0.04363
640.32163,0.04339
638.83185,0.03835
637.34206,0.01367
635.85227,0.01426
634.36248,0.01487
632.87269,0.00709
631.38290,0.00524
629.89312,0.01525
628.40333,0.01534
626.91354,0.01545
625.42375,0.01614
623.93396,0.02078
622.44417,0.02611
620.95438,0.03145
619.46460,0.03573
617.97481,0.04550
616.48502,0.08109
614.99523,0.08467
613.50544,0.08828
612.01565,0.10798
610.52587,0.14957
609.03608,0.17347
607.54629,0.19620
606.05650,0.21894
604.56671,0.27287
603.07692,0.30714
601.58714,0.32603
600.09735,0.34493
598.60756,0.40464
597.11777,0.44950
595.62798,0.43842
594.13819,0.43195
592.64840,0.42551
591.15862,0.38849
589.66883,0.31389
588.17904,0.25636
586.68925,0.22498
585.19946,0.19363
583.70967,0.16241
582.21989,0.12749
580.73010,0.10736
579.24031,0.08725
577.75052,0.06137
576.26073,0.07596
574.77094,0.06893
573.28115,0.06783
571.79137,0.06675
570.30158,0.06066
568.81179,0.08893
567.32200,0.08694
565.83221,0.08497
564.34242,0.09559
562.85264,0.12636
561.36285,0.15015
559.87306,0.16074
558.38327,0.17135
556.89348,0.18232
555.40369,0.17866
553.91391,0.19022
552.42412,0.20180
550.93433,0.20368
549.44454,0.20208
547.95475,0.21253
546.46496,0.22771
544.97517,0.24291
543.48539,0.25540
541.99560,0.29765
540.50581,0.30865
539.01602,0.31969
537.52623,0.37796
536.03644,0.37768
534.54666,0.41764
533.05687,0.42866
531.56708,0.43970
530.07729,0.51515
528.58750,0.52700
527.09771,0.57299
525.60792,0.61899
524.11814,0.67508
522.62835,0.72267
521.13856,0.78208
519.64877,0.80479
518.15898,0.82753
516.66919,0.86471
515.17941,0.85623
513.68962,0.85040
512.19983,0.84459
510.71004,0.80295
509.22025,0.73663
507.73046,0.67274
506.24068,0.63468
504.75089,0.59663
503.26110,0.50264
501.77131,0.39622
500.28152,0.34239
498.79173,0.28859
497.30194,0.23558
495.81216,0.19003
494.32237,0.16625
492.83258,0.14250
491.34279,0.11822
489.85300,0.11015
488.36321,0.09488
486.87343,0.09046
485.38364,0.08607
483.89385,0.09361
482.40406,0.11320
480.91427,0.11281
479.42448,0.11245
477.93469,0.14698
476.44491,0.18590
474.95512,0.19840
473.46533,0.21091
471.97554,0.19722
470.48575,0.21154
468.99596,0.20161
467.50618,0.19313
466.01639,0.18467
464.52660,0.14662
463.03681,0.10640
461.54702,0.09320
460.05723,0.08003
458.56745,0.04491
457.07766,0.02140
455.58787,0.02000
454.09808,0.01862
452.60829,0.00524
451.11850,0.02402
449.62871,0.03124
448.13893,0.03849
446.64914,0.04160
445.15935,0.01217
443.66956,0.01314
442.17977,0.02092
440.68998,0.02872
439.20020,0.04463
437.71041,0.04658
436.22062,0.03959
434.73083,0.03262
433.24104,0.04601
431.75125,0.02837
430.26146,0.03601
428.77168,0.04368
427.28189,0.05672
425.79210,0.05164
424.30231,0.05184
422.81252,0.05206
421.32273,0.04639
419.83295,0.03682
418.34316,0.04214
416.85337,0.04748
415.36358,0.04170
413.87379,0.05168
412.38400,0.04211
410.89422,0.03257
409.40443,0.05137
407.91464,0.04877
406.42485,0.05056
404.93506,0.05423
403.44527,0.05793
401.95548,0.04777
400.46570,0.06234
398.97591,0.04556
397.48612,0.02880
395.99633,0.03906
394.50654,0.03558
393.01675,0.02775
391.52697,0.01994
390.03718,0.03624
388.54739,0.03529
387.05760,0.02726
385.56781,0.01925
384.07802,0.03630
382.58824,0.03741
381.09845,0.03866
379.60866,0.03993
378.11887,0.01444
376.62908,0.02133
375.13929,0.01327
373.64950,0.00524
372.15972,0.02897
370.66993,0.03611
369.18014,0.03019
367.69035,0.02429
366.20056,0.02683
364.71077,0.05673
363.22099,0.05418
361.73120,0.05165
360.24141,0.05757
358.75162,0.05149
357.26183,0.05800
355.77204,0.06453
354.28225,0.04453
352.79247,0.04466
351.30268,0.06734
349.81289,0.09004
348.32310,0.05220
346.83331,0.08632
345.34352,0.05378
343.85374,0.02126
342.36395,0.02064
340.87416,0.02574
339.38437,0.02571
337.89458,0.02571
336.40479,0.04902
334.91501,0.04590
333.42522,0.03581
331.93543,0.02574
330.44564,0.02619
328.95585,0.00524
327.46606,0.00983
325.97627,0.01445
324.48649,0.04163
322.99670,0.04369
321.50691,0.05540
320.01712,0.06713
318.52733,0.09725
317.03754,0.09788
315.54776,0.09460
314.05797,0.09134
312.56818,0.06165
311.07839,0.06325
309.58860,0.06225
308.09881,0.06128
306.60902,0.02425
305.11924,0.02923
303.62945,0.01772
302.13966,0.00623
300.64987,0.00524
299.16008,0.00524
