1778.52000,0.00107
1777.03021,0.00605
1775.54042,0.01285
1774.05063,0.01004
1772.56085,0.00972
1771.07106,0.01256
1769.58127,0.00938
1768.09148,0.01899
1766.60169,0.01272
1765.11190,0.00514
1763.62212,0.01705
1762.13233,0.02451
1760.64254,0.02058
1759.15275,0.01891
1757.66296,0.01390
1756.17317,0.02079
1754.68339,0.01852
1753.19360,0.02209
1751.70381,0.01472
1750.21402,0.01140
1748.72423,0.01728
1747.23444,0.01490
1745.74465,0.01769
1744.25487,0.02028
1742.76508,0.01462
1741.27529,0.02173
1739.78550,0.02037
1738.29571,0.02171
1736.80592,0.01524
1735.31614,0.01955
1733.82635,0.00865
1732.33656,0.00449
1730.84677,0.01312
1729.35698,0.02110
1727.86719,0.01522
1726.37740,0.01721
1724.88762,0.01877
1723.39783,0.02124
1721.90804,0.01323
1720.41825,0.00747
1718.92846,0.01091
1717.43867,0.00901
1715.94889,0.02245
1714.45910,0.01666
1712.96931,0.01850
1711.47952,0.00828
1709.98973,0.01667
1708.49994,0.01881
1707.01016,0.02030
1705.52037,0.02182
1704.03058,0.00858
1702.54079,0.01306
1701.05100,0.01218
1699.56121,0.00596
1698.07142,0.00514
1696.58164,0.01494
1695.09185,0.01828
1693.60206,0.02210
1692.11227,0.02123
1690.62248,0.01502
1689.13269,0.01756
1687.64291,0.02326
1686.15312,0.02137
1684.66333,0.01839
1683.17354,0.01677
1681.68375,0.01607
1680.19396,0.01697
1678.70417,0.02057
1677.21439,0.02912
1675.72460,0.02852
1674.23481,0.03869
1672.74502,0.03276
1671.25523,0.03783
1669.76544,0.04448
1668.27566,0.03997
1666.78587,0.05026
1665.29608,0.04221
1663.80629,0.06262
1662.31650,0.07074
1660.82671,0.06299
1659.33693,0.07160
1657.84714,0.06547
1656.35735,0.07189
1654.86756,0.07207
1653.37777,0.07362
1651.88798,0.06825
1650.39819,0.06380
1648.90841,0.07393
1647.41862,0.06997
1645.92883,0.07343
1644.43904,0.07691
1642.94925,0.06452
1641.45946,0.07611
1639.96968,0.06825
1638.47989,0.08436
1636.99010,0.08707
1635.50031,0.08174
1634.01052,0.07419
1632.52073,0.08772
1631.03094,0.09969
1629.54116,0.07387
1628.05137,0.09932
1626.56158,0.06817
1625.07179,0.08472
1623.58200,0.10063
1622.09221,0.09618
1620.60243,0.09423
1619.11264,0.08737
1617.62285,0.07024
1616.13306,0.07798
1614.64327,0.08418
1613.15348,0.09510
1611.66370,0.09329
1610.17391,0.09911
1608.68412,0.09085
1607.19433,0.08038
1605.70454,0.08941
1604.21475,0.08704
1602.72496,0.08470
1601.23518,0.09917
1599.74539,0.08904
1598.25560,0.09013
1596.76581,0.09460
1595.27602,0.09909
1593.78623,0.07429
1592.29645,0.08040
1590.80666,0.07198
1589.31687,0.07925
1587.82708,0.07290
1586.33729,0.08850
1584.84750,0.07123
1583.35771,0.07076
1581.86793,0.07950
1580.37814,0.08199
1578.88835,0.07623
1577.39856,0.07429
1575.90877,0.07037
1574.41898,0.05729
1572.92920,0.05184
1571.43941,0.05493
1569.94962,0.05020
1568.45983,0.04550
1566.97004,0.04642
1565.48025,0.05027
1563.99047,0.03266
1562.50068,0.02469
1561.01089,0.03533
1559.52110,0.02025
1558.03131,0.03027
1556.54152,0.01904
1555.05173,0.01612
1553.56195,0.01591
1552.07216,0.01573
1550.58237,0.01154
1549.09258,0.01364
1547.60279,0.00278
1546.11300,-0.00000
1544.62322,0.00288
1543.13343,0.01161
1541.64364,0.00715
1540.15385,0.00820
1538.66406,0.00927
1537.17427,0.00623
1535.68448,0.00612
1534.19470,0.00514
1532.70491,0.01660
1531.21512,0.01913
1529.72533,0.02326
1528.23554,0.01151
1526.74575,0.02486
1525.25597,0.01831
1523.76618,0.02857
1522.27639,0.02521
1520.78660,0.03843
1519.29681,0.03332
1517.80702,0.01838
1516.31724,0.02138
1514.82745,0.03201
1513.33766,0.03740
1511.84787,0.04282
1510.35808,0.04793
1508.86829,0.06134
1507.37850,0.05329
1505.88872,0.04638
1504.39893,0.05270
1502.90914,0.05658
1501.41935,0.05556
1499.92956,0.05815
1498.43977,0.05292
1496.94999,0.06429
1495.46020,0.06135
1493.97041,0.06851
1492.48062,0.08868
1490.99083,0.09208
1489.50104,0.09864
1488.01125,0.10231
1486.52147,0.10601
1485.03168,0.12137
1483.54189,0.14168
1482.05210,0.15754
1480.56231,0.18215
1479.07252,0.19716
1477.58274,0.22271
1476.09295,0.21180
1474.60316,0.20002
1473.11337,0.20953
1471.62358,0.22354
1470.13379,0.22101
1468.64401,0.23797
1467.15422,0.23594
1465.66443,0.25239
1464.17464,0.26887
1462.68485,0.29287
1461.19506,0.33973
1459.70527,0.37811
1458.21549,0.42076
1456.72570,0.48112
1455.23591,0.50211
1453.74612,0.53856
1452.25633,0.58400
1450.76654,0.60573
1449.27676,0.61830
1447.78697,0.65754
1446.29718,0.65203
1444.80739,0.62394
1443.31760,0.59588
1441.82781,0.55239
1440.33802,0.48788
1438.84824,0.45877
1437.35845,0.43863
1435.86866,0.42859
1434.37887,0.47297
1432.88908,0.50327
1431.39929,0.52911
1429.90951,0.61251
1428.41972,0.65766
1426.92993,0.72297
1425.44014,0.77891
1423.95035,0.79749
1422.46056,0.81609
1420.97078,0.81905
1419.48099,0.87038
1417.99120,0.90718
1416.50141,0.91536
1415.01162,0.88081
1413.52183,0.82457
1412.03204,0.78917
1410.54226,0.72111
1409.05247,0.66226
1407.56268,0.62447
1406.07289,0.55917
1404.58310,0.52389
1403.09331,0.48863
1401.60353,0.45250
1400.11374,0.39312
1398.62395,0.34786
1397.13416,0.29703
1395.64437,0.24690
1394.15458,0.22096
1392.66479,0.19057
1391.17501,0.15864
1389.68522,0.14106
1388.19543,0.09686
1386.70564,0.08000
1385.21585,0.06316
1383.72606,0.04277
1382.23628,0.05485
1380.74649,0.05286
1379.25670,0.04484
1377.76691,0.03730
1376.27712,0.01479
1374.78733,0.01557
1373.29755,0.00766
1371.80776,0.00514
1370.31797,0.01708
1368.82818,0.01876
1367.33839,0.02046
1365.84860,0.01076
1364.35881,0.03646
1362.86903,0.03308
1361.37924,0.03980
1359.88945,0.04967
1358.39966,0.08733
1356.90987,0.12121
1355.42008,0.16115
1353.93030,0.22798
1352.44051,0.24111
1350.95072,0.25426
1349.46093,0.33593
1347.97114,0.40106
1346.48135,0.49756
1344.99156,0.54953
1343.50178,0.58452
1342.01199,0.63766
1340.52220,0.65433
1339.03241,0.74356
1337.54262,0.79655
1336.05283,0.82785
1334.56305,0.85917
1333.07326,0.87284
1331.58347,0.83616
1330.09368,0.82793
1328.60389,0.80787
1327.11410,0.84177
1325.62432,0.80922
1324.13453,0.79102
1322.64474,0.74262
1321.15495,0.69134
1319.66516,0.65888
1318.17537,0.62645
1316.68558,0.59270
1315.19580,0.54800
1313.70601,0.49818
1312.21622,0.48308
1310.72643,0.45569
1309.23664,0.39676
1307.74685,0.39337
1306.25707,0.33964
1304.76728,0.32600
1303.27749,0.31239
1301.78770,0.27373
1300.29791,0.25949
1298.80812,0.21259
1297.31834,0.16482
1295.82855,0.14417
1294.33876,0.11682
1292.84897,0.10337
1291.35918,0.08524
1289.86939,0.08796
1288.37960,0.09070
1286.88982,0.07242
1285.40003,0.07253
1283.91024,0.07086
1282.42045,0.05109
1280.93066,0.05932
1279.44087,0.03937
1277.95109,0.04004
1276.46130,0.03514
1274.97151,0.03272
1273.48172,0.03033
1271.99193,0.01833
1270.50214,0.02248
1269.01235,0.01591
1267.52257,0.01943
1266.03278,0.02835
1264.54299,0.03214
1263.05320,0.02387
1261.56341,0.02044
1260.07362,0.01703
1258.58384,0.02517
1257.09405,0.00514
1255.60426,0.02256
1254.11447,0.00755
1252.62468,0.01741
1251.13489,0.01297
1249.64511,0.01683
1248.15532,0.00706
1246.66553,0.01319
1245.17574,0.01934
1243.68595,0.01018
1242.19616,0.00978
1240.70637,0.01410
1239.21659,0.02762
1237.72680,0.01453
1236.23701,0.01847
1234.74722,0.01483
1233.25743,0.00953
1231.76764,0.00426
1230.27786,0.02036
1228.78807,0.02060
1227.29828,0.02646
1225.80849,0.02115
1224.31870,0.00937
1222.82891,0.01440
1221.33912,0.00514
1219.84934,0.01280
1218.35955,0.02048
1216.86976,0.03121
1215.37997,0.02965
1213.89018,0.05633
1212.40039,0.05750
1210.91061,0.04773
1209.42082,0.06619
1207.93103,0.06050
1206.44124,0.05484
1204.95145,0.06083
1203.46166,0.05298
1201.97188,0.03798
1200.48209,0.04920
1198.99230,0.03873
1197.50251,0.02873
1196.01272,0.02390
1194.52293,0.02200
1193.03314,0.02013
1191.54336,0.03619
1190.05357,0.03303
1188.56378,0.02362
1187.07399,0.02565
1185.58420,0.02390
1184.09441,0.00538
1182.60463,0.00525
1181.11484,0.00514
1179.62505,0.01775
1178.13526,0.01270
1176.64547,0.02716
1175.15568,0.02014
1173.66589,0.01696
1172.17611,0.01425
1170.68632,0.01223
1169.19653,0.01024
1167.70674,0.00514
1166.21695,0.02516
1164.72716,0.03446
1163.23738,0.02767
1161.74759,0.02784
1160.25780,0.04415
1158.76801,0.05120
1157.27822,0.05827
1155.78843,0.06771
1154.29865,0.08188
1152.80886,0.08734
1151.31907,0.09059
1149.82928,0.09969
1148.33949,0.13320
1146.84970,0.13518
1145.35991,0.13718
1143.87013,0.13652
1142.38034,0.13431
1140.89055,0.14042
1139.40076,0.14587
1137.91097,0.16388
1136.42118,0.19132
1134.93140,0.19114
1133.44161,0.19098
1131.95182,0.18380
1130.46203,0.18940
1128.97224,0.23061
1127.48245,0.21745
1125.99266,0.22424
1124.50288,0.23978
1123.01309,0.23834
1121.52330,0.23691
1120.03351,0.22141
1118.54372,0.21444
1117.05393,0.20705
1115.56415,0.19811
1114.07436,0.22098
1112.58457,0.22385
1111.09478,0.22673
1109.60499,0.19730
1108.11520,0.20169
1106.62542,0.20946
1105.13563,0.19576
1103.64584,0.19485
1102.15605,0.18188
1100.66626,0.18057
1099.17647,0.17928
1097.68668,0.17264
1096.19690,0.17588
1094.70711,0.20041
1093.21732,0.17101
1091.72753,0.20409
1090.23774,0.18660
1088.74795,0.16914
1087.25817,0.17006
1085.76838,0.15780
1084.27859,0.15026
1082.78880,0.16580
1081.29901,0.14980
1079.80922,0.14367
1078.31943,0.15402
1076.82965,0.16440
1075.33986,0.17424
1073.85007,0.17918
1072.36028,0.18906
1070.87049,0.19114
1069.38070,0.20712
1067.89092,0.22480
1066.40113,0.24250
1064.91134,0.32123
1063.42155,0.39103
1061.93176,0.45144
1060.44197,0.52890
1058.95219,0.61511
1057.46240,0.65959
1055.97261,0.70410
1054.48282,0.79441
1052.99303,0.84602
1051.50324,0.85221
1050.01345,0.85015
1048.52367,0.86489
1047.03388,0.85862
1045.54409,0.85237
1044.05430,0.82421
1042.56451,0.77593
1041.07472,0.71469
1039.58494,0.65168
1038.09515,0.57885
1036.60536,0.54062
1035.11557,0.50242
1033.62578,0.42988
1032.13599,0.38714
1030.64620,0.36569
1029.15642,0.30061
1027.66663,0.27618
1026.17684,0.25178
1024.68705,0.20781
1023.19726,0.18155
1021.70747,0.16203
1020.21769,0.12552
1018.72790,0.12195
1017.23811,0.12555
1015.74832,0.12918
1014.25853,0.08583
1012.76874,0.07787
1011.27896,0.06009
1009.78917,0.06807
1008.29938,0.04966
1006.80959,0.04526
1005.31980,0.04089
1003.83001,0.02725
1002.34022,0.00514
1000.85044,0.02030
999.36065,0.04332
997.87086,0.03961
996.38107,0.03593
994.89128,0.05656
993.40149,0.06468
991.91171,0.08177
990.42192,0.09307
988.93213,0.09253
987.44234,0.09303
985.95255,0.09354
984.46276,0.09688
982.97297,0.09934
981.48319,0.07922
979.99340,0.05040
978.50361,0.04040
977.01382,0.03043
975.52403,0.03615
974.03424,0.03114
972.54446,0.01520
971.05467,0.00980
969.56488,0.00554
968.07509,0.00553
966.58530,0.00555
965.09551,0.01106
963.60573,0.02040
962.11594,0.00514
960.62615,0.00953
959.13636,0.00981
957.64657,0.01012
956.15678,0.02018
954.66699,0.03519
953.17721,0.03255
951.68742,0.05074
950.19763,0.04870
948.70784,0.04669
947.21805,0.04794
945.72826,0.07519
944.23848,0.07604
942.74869,0.09729
941.25890,0.11789
939.76911,0.13158
938.27932,0.14529
936.78953,0.17379
935.29974,0.17524
933.80996,0.20760
932.32017,0.23573
930.83038,0.23232
929.34059,0.22894
927.85080,0.23565
926.36101,0.24888
924.87123,0.29235
923.38144,0.35174
921.89165,0.39045
920.40186,0.42918
918.91207,0.50252
917.42228,0.60901
915.93250,0.76812
914.44271,0.95189
912.95292,1.06673
911.46313,1.18160
909.97334,1.38469
908.48355,1.63055
906.99376,1.78108
905.50398,1.83986
904.01419,1.88904
902.52440,1.93824
901.03461,2.00000
899.54482,1.99642
898.05503,1.88945
896.56525,1.64149
895.07546,1.54229
893.58567,1.44312
892.09588,1.12494
890.60609,0.93191
889.11630,0.70690
887.62651,0.52153
886.13673,0.45023
884.64694,0.37895
883.15715,0.25432
881.66736,0.17671
880.17757,0.12979
878.68778,0.11111
877.19800,0.09244
875.70821,0.04000
874.21842,0.02586
872.72863,0.02406
871.23884,0.00773
869.74905,0.00642
868.25927,0.00514
866.76948,0.00782
865.27969,0.03202
863.78990,0.03050
862.30011,0.03460
860.81032,0.02842
859.32053,0.02228
857.83075,0.04682
856.34096,0.05974
854.85117,0.07403
853.36138,0.08768
851.87159,0.08803
850.38180,0.08840
848.89202,0.11823
847.40223,0.14272
845.91244,0.16611
844.42265,0.17195
842.93286,0.17781
841.44307,0.17307
839.95329,0.19790
838.46350,0.21760
836.97371,0.19502
835.48392,0.20492
833.99413,0.21485
832.50434,0.21405
831.01455,0.18530
829.52477,0.20112
828.03498,0.15317
826.54519,0.14396
825.05540,0.13478
823.56561,0.12853
822.07582,0.12209
820.58604,0.11454
819.09625,0.10725
817.60646,0.09998
816.11667,0.11243
814.62688,0.10073
813.13709,0.09711
811.64730,0.09978
810.15752,0.09991
808.66773,0.10005
807.17794,0.10996
805.68815,0.11228
804.19836,0.11261
802.70857,0.11991
801.21879,0.12722
799.72900,0.10882
798.23921,0.11574
796.74942,0.11462
795.25963,0.10894
793.76984,0.10328
792.28006,0.10918
790.79027,0.13703
789.30048,0.12372
787.81069,0.13148
786.32090,0.15146
784.83111,0.17146
783.34132,0.18869
781.85154,0.24333
780.36175,0.29732
778.87196,0.31014
777.38217,0.32299
775.89238,0.34660
774.40259,0.35256
772.91281,0.33772
771.42302,0.31306
769.93323,0.28842
768.44344,0.25105
766.95365,0.18371
765.46386,0.20122
763.97407,0.15251
762.48429,0.13146
760.99450,0.11043
759.50471,0.10073
758.01492,0.09240
756.52513,0.07738
755.03534,0.06440
753.54556,0.05144
752.05577,0.06245
750.56598,0.04999
749.07619,0.04874
747.58640,0.03711
746.09661,0.02550
744.60683,0.01448
743.11704,0.02698
741.62725,0.01376
740.13746,0.02072
738.64767,0.02769
737.15788,0.01925
735.66809,0.01755
734.17831,0.00982
732.68852,0.01309
731.19873,0.01638
729.70894,0.01567
728.21915,0.01744
726.72936,0.00514
725.23958,0.00534
723.74979,0.00532
722.26000,0.00532
720.77021,0.00389
719.28042,0.01837
717.79063,0.00824
716.30084,0.01437
714.81106,0.02052
713.32127,0.03598
711.83148,0.04386
710.34169,0.02378
708.85190,0.02578
707.36211,0.02779
705.87233,0.03823
704.38254,0.04533
702.89275,0.05112
701.40296,0.05916
699.91317,0.06723
698.42338,0.07778
696.93360,0.09239
695.44381,0.10747
693.95402,0.10982
692.46423,0.11219
690.97444,0.12219
689.48465,0.13871
687.99486,0.17114
686.50508,0.17383
685.01529,0.17654
683.52550,0.21062
682.03571,0.23397
680.54592,0.24929
679.05613,0.26273
677.56635,0.27619
676.07656,0.24099
674.58677,0.23850
673.09698,0.23155
671.60719,0.21713
670.11740,0.20274
668.62761,0.16743
667.13783,0.15409
665.64804,0.14167
664.15825,0.12927
662.66846,0.11219
661.17867,0.10029
659.68888,0.08192
658.19910,0.06950
656.70931,0.05711
655.21952,0.03971
653.72973,0.04449
652.23994,0.03295
650.75015,0.03420
649.26037,0.03547
647.77058,0.02490
646.28079,0.03405
644.79100,0.04905
643.30121,0.05109
641.81142,0.05315
640.32163,0.02300
638.83185,0.03541
637.34206,0.03687
635.85227,0.02325
634.36248,0.00965
632.87269,0.00514
631.38290,0.01943
629.89312,0.01695
628.40333,0.01451
626.91354,0.01208
625.42375,0.00341
623.93396,0.01738
622.44417,0.02241
620.95438,0.02747
619.46460,0.03300
617.97481,0.04952
616.48502,0.05532
614.99523,0.07793
613.50544,0.10057
612.01565,0.11383
610.52587,0.13651
609.03608,0.16437
607.54629,0.18509
606.05650,0.20583
604.56671,0.25122
603.07692,0.28924
601.58714,0.31308
600.09735,0.33693
598.60756,0.36720
597.11777,0.40196
595.62798,0.38168
594.13819,0.37184
592.64840,0.36201
591.15862,0.33173
589.66883,0.28760
588.17904,0.23028
586.68925,0.20198
585.19946,0.17370
583.70967,0.13414
582.21989,0.10982
580.73010,0.09773
579.24031,0.08566
577.75052,0.05156
576.26073,0.04413
574.77094,0.04680
573.28115,0.04087
571.79137,0.03496
570.30158,0.03076
568.81179,0.03575
567.32200,0.04906
565.83221,0.06239
564.34242,0.06544
562.85264,0.07277
561.36285,0.09781
559.87306,0.09702
558.38327,0.09626
556.89348,0.11667
555.40369,0.11181
553.91391,0.11716
552.42412,0.12253
550.93433,0.14326
549.44454,0.13939
547.95475,0.14025
546.46496,0.15590
544.97517,0.17158
543.48539,0.19511
541.99560,0.20770
540.50581,0.22110
539.01602,0.23452
537.52623,0.28479
536.03644,0.32568
534.54666,0.34578
533.05687,0.36255
531.56708,0.37933
530.07729,0.42591
528.58750,0.46670
527.09771,0.50695
525.60792,0.54723
524.11814,0.61696
522.62835,0.65650
521.13856,0.68979
519.64877,0.73162
518.15898,0.77347
516.66919,0.75513
515.17941,0.79031
513.68962,0.79216
512.19983,0.79404
510.71004,0.74020
509.22025,0.68594
507.73046,0.61693
506.24068,0.58096
504.75089,0.54502
503.26110,0.45101
501.77131,0.35882
500.28152,0.31757
498.79173,0.27635
497.30194,0.20639
495.81216,0.16913
494.32237,0.15495
492.83258,0.14080
491.34279,0.10496
489.85300,0.08638
488.36321,0.09401
486.87343,0.08487
485.38364,0.07577
483.89385,0.07384
482.40406,0.08067
480.91427,0.08249
479.42448,0.08434
477.93469,0.11362
476.44491,0.15390
474.95512,0.15291
473.46533,0.15193
471.97554,0.18020
470.48575,0.17401
468.99596,0.16382
467.50618,0.14549
466.01639,0.12718
464.52660,0.10609
463.03681,0.07048
461.54702,0.06679
460.05723,0.06312
458.56745,0.05668
457.07766,0.05832
455.58787,0.04208
454.09808,0.02586
452.60829,0.00944
451.11850,0.00514
449.62871,0.01132
448.13893,0.01753
446.64914,0.02701
445.15935,0.01950
443.66956,0.01985
442.17977,0.01350
440.68998,0.00719
439.20020,0.03603
437.71041,0.03111
436.22062,0.02475
434.73083,0.01841
433.24104,0.05452
431.75125,0.03782
430.26146,0.03883
428.77168,0.03987
427.28189,0.04071
425.79210,0.03440
424.30231,0.03506
422.81252,0.03574
421.32273,0.03444
419.83295,0.02465
418.34316,0.02081
416.85337,0.01700
415.36358,0.03952
413.87379,0.02065
412.38400,0.01288
410.89422,0.00514
409.40443,0.01963
407.91464,0.02765
406.42485,0.02316
404.93506,0.02138
403.44527,0.01963
401.95548,0.02954
400.46570,0.02693
398.97591,0.01954
397.48612,0.01218
395.99633,0.04747
394.50654,0.02840
393.01675,0.03599
391.52697,0.04361
390.03718,0.03849
388.54739,0.02578
387.05760,0.01544
385.56781,0.00514
384.07802,0.01477
382.58824,0.01749
381.09845,0.02806
379.60866,0.03866
378.11887,0.02623
376.62908,0.01226
375.13929,0.00950
373.64950,0.00676
372.15972,0.01166
370.66993,0.02375
369.18014,0.02310
367.69035,0.02248
366.20056,0.01583
364.71077,0.00877
363.22099,0.02925
361.73120,0.04977
360.24141,0.02464
358.75162,0.03043
357.26183,0.02527
355.77204,0.02013
354.28225,0.01279
352.79247,0.02740
351.30268,0.04024
349.81289,0.05311
348.32310,0.06220
346.83331,0.05385
345.34352,0.04150
343.85374,0.02917
342.36395,0.04909
340.87416,0.04084
339.38437,0.04470
337.89458,0.04858
336.40479,0.03592
334.91501,0.03784
333.42522,0.03385
331.93543,0.02988
330.44564,0.03791
328.95585,0.02470
327.46606,0.02349
325.97627,0.02230
324.48649,0.00514
322.99670,0.06703
321.50691,0.07277
320.01712,0.07853
318.52733,0.09730
317.03754,0.08229
315.54776,0.05611
314.05797,0.02995
312.56818,0.01658
311.07839,0.03838
309.58860,0.04095
308.09881,0.04354
306.60902,0.05265
305.11924,0.05216
303.62945,0.02864
302.13966,0.00514
300.64987,0.02202
299.16008,0.00514
