1778.52000,0.00300
1777.03021,0.00041
1775.54042,0.01156
1774.05063,0.00507
1772.56085,0.00000
1771.07106,0.00866
1769.58127,0.00480
1768.09148,0.00421
1766.60169,0.01248
1765.11190,0.00752
1763.62212,0.00584
1762.13233,0.00837
1760.64254,0.01115
1759.15275,0.01024
1757.66296,0.00703
1756.17317,0.00686
1754.68339,0.00788
1753.19360,0.00589
1751.70381,0.00510
1750.21402,0.00688
1748.72423,0.01357
1747.23444,0.00703
1745.74465,0.01393
1744.25487,0.01434
1742.76508,0.01664
1741.27529,0.02338
1739.78550,0.01155
1738.29571,0.01368
1736.80592,0.01421
1735.31614,0.01477
1733.82635,0.01372
1732.33656,0.00874
1730.84677,0.01285
1729.35698,0.01234
1727.86719,0.01394
1726.37740,0.01092
1724.88762,0.02627
1723.39783,0.00703
1721.90804,0.00924
1720.41825,0.01286
1718.92846,0.01047
1717.43867,0.01043
1715.94889,0.01381
1714.45910,0.01930
1712.96931,0.01552
1711.47952,0.00782
1709.98973,0.01338
1708.49994,0.01502
1707.01016,0.01366
1705.52037,0.01232
1704.03058,0.01542
1702.54079,0.00343
1701.05100,0.01211
1699.56121,0.01430
1698.07142,0.00768
1696.58164,0.01480
1695.09185,0.01636
1693.60206,0.00703
1692.11227,0.01502
1690.62248,0.00955
1689.13269,0.01921
1687.64291,0.00729
1686.15312,0.02025
1684.66333,0.00814
1683.17354,0.01603
1681.68375,0.01884
1680.19396,0.00703
1678.70417,0.01963
1677.21439,0.02899
1675.72460,0.02514
1674.23481,0.02363
1672.74502,0.02981
1671.25523,0.02905
1669.76544,0.03226
1668.27566,0.03270
1666.78587,0.04060
1665.29608,0.03993
1663.80629,0.05229
1662.31650,0.04841
1660.82671,0.06013
1659.33693,0.05490
1657.84714,0.05388
1656.35735,0.05358
1654.86756,0.05330
1653.37777,0.05467
1651.88798,0.06490
1650.39819,0.05260
1648.90841,0.06125
1647.41862,0.05807
1645.92883,0.06292
1644.43904,0.06781
1642.94925,0.07654
1641.45946,0.06462
1639.96968,0.06527
1638.47989,0.07315
1636.99010,0.07059
1635.50031,0.07131
1634.01052,0.07206
1632.52073,0.08049
1631.03094,0.08082
1629.54116,0.07629
1628.05137,0.08247
1626.56158,0.07357
1625.07179,0.08026
1623.58200,0.08744
1622.09221,0.08442
1620.60243,0.07352
1619.11264,0.07891
1617.62285,0.07479
1616.13306,0.06838
1614.64327,0.07221
1613.15348,0.08048
1611.66370,0.09250
1610.17391,0.09872
1608.68412,0.09405
1607.19433,0.08522
1605.70454,0.08733
1604.21475,0.08703
1602.72496,0.08675
1601.23518,0.08661
1599.74539,0.09509
1598.25560,0.09592
1596.76581,0.09446
1595.27602,0.09534
1593.78623,0.07044
1592.29645,0.07509
1590.80666,0.07929
1589.31687,0.08329
1587.82708,0.07592
1586.33729,0.07531
1584.84750,0.07171
1583.35771,0.07231
1581.86793,0.08990
1580.37814,0.08474
1578.88835,0.07611
1577.39856,0.08773
1575.90877,0.07009
1574.41898,0.06455
1572.92920,0.06810
1571.43941,0.06262
1569.94962,0.06215
1568.45983,0.06170
1566.97004,0.04862
1565.48025,0.06158
1563.99047,0.04064
1562.50068,0.03110
1561.01089,0.03345
1559.52110,0.02861
1558.03131,0.02356
1556.54152,0.01087
1555.05173,0.02679
1553.56195,0.01042
1552.07216,0.01337
1550.58237,0.02377
1549.09258,0.00748
1547.60279,0.01212
1546.11300,0.00703
1544.62322,0.01090
1543.13343,0.02897
1541.64364,0.01685
1540.15385,0.01475
1538.66406,0.01267
1537.17427,0.02270
1535.68448,0.01323
1534.19470,0.01657
1532.70491,0.01435
1531.21512,0.01982
1529.72533,0.01928
1528.23554,0.01016
1526.74575,0.02151
1525.25597,0.03312
1523.76618,0.02384
1522.27639,0.03433
1520.78660,0.04020
1519.29681,0.03145
1517.80702,0.02737
1516.31724,0.04446
1514.82745,0.03648
1513.33766,0.04049
1511.84787,0.04452
1510.35808,0.05288
1508.86829,0.04243
1507.37850,0.05409
1505.88872,0.05972
1504.39893,0.07584
1502.90914,0.06548
1501.41935,0.06050
1499.92956,0.05507
1498.43977,0.05710
1496.94999,0.06474
1495.46020,0.07147
1493.97041,0.07612
1492.48062,0.09800
1490.99083,0.11875
1489.50104,0.12371
1488.01125,0.11765
1486.52147,0.11162
1485.03168,0.12990
1483.54189,0.13309
1482.05210,0.15118
1480.56231,0.17999
1479.07252,0.18348
1477.58274,0.20838
1476.09295,0.21332
1474.60316,0.20062
1473.11337,0.21838
1471.62358,0.21386
1470.13379,0.21587
1468.64401,0.23858
1467.15422,0.24389
1465.66443,0.25364
1464.17464,0.26341
1462.68485,0.30272
1461.19506,0.32392
1459.70527,0.36630
1458.21549,0.41915
1456.72570,0.46622
1455.23591,0.51401
1453.74612,0.56787
1452.25633,0.61478
1450.76654,0.63730
1449.27676,0.65056
1447.78697,0.64525
1446.29718,0.65483
1444.80739,0.63957
1443.31760,0.62433
1441.82781,0.56612
1440.33802,0.53699
1438.84824,0.50160
1437.35845,0.46415
1435.86866,0.46692
1434.37887,0.51201
1432.88908,0.51995
1431.39929,0.56462
1429.90951,0.64069
1428.41972,0.71679
1426.92993,0.76758
1425.44014,0.82001
1423.95035,0.82727
1422.46056,0.83455
1420.97078,0.86289
1419.48099,0.90543
1417.99120,0.96332
1416.50141,0.95199
1415.01162,0.89699
1413.52183,0.84549
1412.03204,0.80239
1410.54226,0.74583
1409.05247,0.67001
1407.56268,0.62372
1406.07289,0.57118
1404.58310,0.54713
1403.09331,0.52311
1401.60353,0.46297
1400.11374,0.39820
1398.62395,0.35949
1397.13416,0.29989
1395.64437,0.25379
1394.15458,0.20561
1392.66479,0.18977
1391.17501,0.15791
1389.68522,0.13724
1388.19543,0.09776
1386.70564,0.09316
1385.21585,0.08859
1383.72606,0.05662
1382.23628,0.05999
1380.74649,0.05921
1379.25670,0.03241
1377.76691,0.03098
1376.27712,0.01074
1374.78733,0.00703
1373.29755,0.01484
1371.80776,0.01454
1370.31797,0.01379
1368.82818,0.01296
1367.33839,0.01215
1365.84860,0.01705
1364.35881,0.01896
1362.86903,0.02879
1361.37924,0.05979
1359.88945,0.07037
1358.39966,0.08747
1356.90987,0.12877
1355.42008,0.17032
1353.93030,0.22817
1352.44051,0.25571
1350.95072,0.28327
1349.46093,0.35141
1347.97114,0.43073
1346.48135,0.50705
1344.99156,0.55411
1343.50178,0.62048
1342.01199,0.65713
1340.52220,0.73517
1339.03241,0.79627
1337.54262,0.84089
1336.05283,0.85253
1334.56305,0.86420
1333.07326,0.88449
1331.58347,0.85994
1330.09368,0.85076
1328.60389,0.86043
1327.11410,0.81551
1325.62432,0.80616
1324.13453,0.77616
1322.64474,0.74525
1321.15495,0.68856
1319.66516,0.66304
1318.17537,0.63755
1316.68558,0.59999
1315.19580,0.54875
1313.70601,0.50635
1312.21622,0.48537
1310.72643,0.44232
1309.23664,0.42626
1307.74685,0.39303
1306.25707,0.35122
1304.76728,0.33325
1303.27749,0.31531
1301.78770,0.27798
1300.29791,0.26764
1298.80812,0.22222
1297.31834,0.18706
1295.82855,0.16656
1294.33876,0.13493
1292.84897,0.10750
1291.35918,0.09544
1289.86939,0.09525
1288.37960,0.09508
1286.88982,0.07913
1285.40003,0.08320
1283.91024,0.06335
1282.42045,0.05840
1280.93066,0.06160
1279.44087,0.05297
1277.95109,0.04948
1276.46130,0.04090
1274.97151,0.03990
1273.48172,0.03892
1271.99193,0.03924
1270.50214,0.02774
1269.01235,0.04228
1267.52257,0.02361
1266.03278,0.02821
1264.54299,0.04004
1263.05320,0.03771
1261.56341,0.03029
1260.07362,0.02290
1258.58384,0.02924
1257.09405,0.02793
1255.60426,0.02432
1254.11447,0.00703
1252.62468,0.01329
1251.13489,0.01307
1249.64511,0.01961
1248.15532,0.02361
1246.66553,0.02137
1245.17574,0.01914
1243.68595,0.02113
1242.19616,0.01082
1240.70637,0.01215
1239.21659,0.01281
1237.72680,0.02070
1236.23701,0.02001
1234.74722,0.00842
1233.25743,0.01103
1231.76764,0.01367
1230.27786,0.00703
1228.78807,0.01746
1227.29828,0.01885
1225.80849,0.01655
1224.31870,0.01287
1222.82891,0.01154
1221.33912,0.01953
1219.84934,0.02208
1218.35955,0.02466
1216.86976,0.01715
1215.37997,0.03220
1213.89018,0.04891
1212.40039,0.04565
1210.91061,0.04869
1209.42082,0.06035
1207.93103,0.05496
1206.44124,0.04958
1204.95145,0.05272
1203.46166,0.06401
1201.97188,0.04395
1200.48209,0.05644
1198.99230,0.05061
1197.50251,0.02504
1196.01272,0.03296
1194.52293,0.03114
1193.03314,0.02934
1191.54336,0.01572
1190.05357,0.02791
1188.56378,0.03177
1187.07399,0.01612
1185.58420,0.02072
1184.09441,0.00930
1182.60463,0.01266
1181.11484,0.01605
1179.62505,0.00703
1178.13526,0.01770
1176.64547,0.01421
1175.15568,0.00703
1173.66589,0.01260
1172.17611,0.02076
1170.68632,0.01545
1169.19653,0.01017
1167.70674,0.00747
1166.21695,0.02362
1164.72716,0.02422
1163.23738,0.03484
1161.74759,0.02758
1160.25780,0.04150
1158.76801,0.04347
1157.27822,0.04546
1155.78843,0.05666
1154.29865,0.06742
1152.80886,0.06727
1151.31907,0.07087
1149.82928,0.10470
1148.33949,0.10951
1146.84970,0.11910
1145.35991,0.12872
1143.87013,0.14335
1142.38034,0.14128
1140.89055,0.13551
1139.40076,0.14510
1137.91097,0.16146
1136.42118,0.18737
1134.93140,0.18924
1133.44161,0.19114
1131.95182,0.20015
1130.46203,0.20779
1128.97224,0.21708
1127.48245,0.20873
1125.99266,0.22528
1124.50288,0.22394
1123.01309,0.22461
1121.52330,0.22530
1120.03351,0.23380
1118.54372,0.21699
1117.05393,0.21345
1115.56415,0.19902
1114.07436,0.20947
1112.58457,0.20890
1111.09478,0.20836
1109.60499,0.19750
1108.11520,0.21874
1106.62542,0.20281
1105.13563,0.19202
1103.64584,0.18590
1102.15605,0.18608
1100.66626,0.17489
1099.17647,0.16373
1097.68668,0.18141
1096.19690,0.18656
1094.70711,0.18430
1093.21732,0.18508
1091.72753,0.18705
1090.23774,0.17521
1088.74795,0.16340
1087.25817,0.15869
1085.76838,0.13426
1084.27859,0.13913
1082.78880,0.14821
1081.29901,0.14523
1079.80922,0.14529
1078.31943,0.13817
1076.82965,0.13107
1075.33986,0.15793
1073.85007,0.14275
1072.36028,0.15570
1070.87049,0.18217
1069.38070,0.19401
1067.89092,0.20750
1066.40113,0.22102
1064.91134,0.28731
1063.42155,0.37153
1061.93176,0.39906
1060.44197,0.49122
1058.95219,0.55946
1057.46240,0.60263
1055.97261,0.64583
1054.48282,0.71624
1052.99303,0.73856
1051.50324,0.72210
1050.01345,0.72192
1048.52367,0.72991
1047.03388,0.73199
1045.54409,0.73409
1044.05430,0.71031
1042.56451,0.64611
1041.07472,0.61865
1039.58494,0.56473
1038.09515,0.51617
1036.60536,0.49029
1035.11557,0.46444
1033.62578,0.41037
1032.13599,0.35935
1030.64620,0.32531
1029.15642,0.26737
1027.66663,0.24953
1026.17684,0.23172
1024.68705,0.17988
1023.19726,0.16897
1021.70747,0.15552
1020.21769,0.11259
1018.72790,0.10059
1017.23811,0.09779
1015.74832,0.09501
1014.25853,0.06797
1012.76874,0.05420
1011.27896,0.05974
1009.78917,0.03719
1008.29938,0.03859
1006.80959,0.03433
1005.31980,0.03009
1003.83001,0.00925
1002.34022,0.01865
1000.85044,0.01041
999.36065,0.02497
997.87086,0.03444
996.38107,0.04393
994.89128,0.04113
993.40149,0.06345
991.91171,0.07046
990.42192,0.06912
988.93213,0.09012
987.44234,0.08697
985.95255,0.08384
984.46276,0.08631
982.97297,0.06696
981.48319,0.06879
979.99340,0.05552
978.50361,0.04763
977.01382,0.03976
975.52403,0.03773
974.03424,0.02596
972.54446,0.01862
971.05467,0.00899
969.56488,0.01216
968.07509,0.01512
966.58530,0.01810
965.09551,0.02297
963.60573,0.01717
962.11594,0.02208
960.62615,0.00703
959.13636,0.01252
957.64657,0.01803
956.15678,0.03263
954.66699,0.03610
953.17721,0.03401
951.68742,0.05728
950.19763,0.05686
948.70784,0.05647
947.21805,0.05587
945.72826,0.05832
944.23848,0.07496
942.74869,0.11417
941.25890,0.11274
939.76911,0.13270
938.27932,0.15269
936.78953,0.16457
935.29974,0.18345
933.80996,0.19932
932.32017,0.23056
930.83038,0.22812
929.34059,0.22571
927.85080,0.25074
926.36101,0.25698
924.87123,0.31110
923.38144,0.35248
921.89165,0.37539
920.40186,0.39833
918.91207,0.46627
917.42228,0.59186
915.93250,0.72538
914.44271,0.88425
912.95292,1.00712
911.46313,1.13002
909.97334,1.36681
908.48355,1.58411
906.99376,1.76703
905.50398,1.83541
904.01419,1.86325
902.52440,1.89112
901.03461,2.00000
899.54482,1.93763
898.05503,1.83623
896.56525,1.65561
895.07546,1.52359
893.58567,1.39158
892.09588,1.09460
890.60609,0.89804
889.11630,0.67710
887.62651,0.51474
886.13673,0.43503
884.64694,0.35534
883.15715,0.24604
881.66736,0.17767
880.17757,0.12397
878.68778,0.11305
877.19800,0.10215
875.70821,0.04735
874.21842,0.04323
872.72863,0.02357
871.23884,0.01951
869.74905,0.01326
868.25927,0.00703
866.76948,0.01414
865.27969,0.03266
863.78990,0.02238
862.30011,0.02700
860.81032,0.03327
859.32053,0.03957
857.83075,0.03543
856.34096,0.06315
854.85117,0.08183
853.36138,0.09566
851.87159,0.10369
850.38180,0.11175
848.89202,0.12542
847.40223,0.13259
845.91244,0.17163
844.42265,0.16317
842.93286,0.15473
841.44307,0.17106
839.95329,0.17394
838.46350,0.20403
836.97371,0.20602
835.48392,0.21211
833.99413,0.21822
832.50434,0.20959
831.01455,0.20052
829.52477,0.17335
828.03498,0.14690
826.54519,0.14069
825.05540,0.13450
823.56561,0.11091
822.07582,0.10244
820.58604,0.09679
819.09625,0.09651
817.60646,0.09624
816.11667,0.10135
814.62688,0.11369
813.13709,0.10025
811.64730,0.09869
810.15752,0.10075
808.66773,0.10283
807.17794,0.10785
805.68815,0.11451
804.19836,0.10888
802.70857,0.11826
801.21879,0.12767
799.72900,0.11932
798.23921,0.11239
796.74942,0.11454
795.25963,0.10917
793.76984,0.10382
792.28006,0.10209
790.79027,0.10434
789.30048,0.11381
787.81069,0.12215
786.32090,0.14469
784.83111,0.16724
783.34132,0.21376
781.85154,0.23404
780.36175,0.28921
778.87196,0.30303
777.38217,0.31687
775.89238,0.32911
774.40259,0.34695
772.91281,0.30974
771.42302,0.29068
769.93323,0.27163
768.44344,0.23565
766.95365,0.18853
765.46386,0.16422
763.97407,0.15642
762.48429,0.13796
760.99450,0.11953
759.50471,0.09042
758.01492,0.09806
756.52513,0.07992
755.03534,0.06867
753.54556,0.05743
752.05577,0.04216
750.56598,0.04898
749.07619,0.04444
747.58640,0.03585
746.09661,0.02729
744.60683,0.01329
743.11704,0.02511
741.62725,0.02394
740.13746,0.01547
738.64767,0.00703
737.15788,0.01953
735.66809,0.01741
734.17831,0.01624
732.68852,0.01730
731.19873,0.01839
729.70894,0.01055
728.21915,0.01018
726.72936,0.01973
725.23958,0.01373
723.74979,0.01647
722.26000,0.01923
720.77021,0.00703
719.28042,0.01706
717.79063,0.01782
716.30084,0.01919
714.81106,0.02057
713.32127,0.03140
711.83148,0.02528
710.34169,0.03010
708.85190,0.02938
707.36211,0.02867
705.87233,0.02567
704.38254,0.03686
702.89275,0.03507
701.40296,0.04282
699.91317,0.05060
698.42338,0.06072
696.93360,0.07831
695.44381,0.10149
693.95402,0.11239
692.46423,0.12330
690.97444,0.11820
689.48465,0.14311
687.99486,0.14433
686.50508,0.16220
685.01529,0.18008
683.52550,0.21321
682.03571,0.23754
680.54592,0.25770
679.05613,0.25639
677.56635,0.25511
676.07656,0.24025
674.58677,0.22402
673.09698,0.22989
671.60719,0.21707
670.11740,0.20428
668.62761,0.17211
667.13783,0.15042
665.64804,0.14060
664.15825,0.13081
662.66846,0.11592
661.17867,0.08944
659.68888,0.07670
658.19910,0.06735
656.70931,0.05802
655.21952,0.05557
653.72973,0.05151
652.23994,0.03261
650.75015,0.02825
649.26037,0.02392
647.77058,0.02507
646.28079,0.03810
644.79100,0.04952
643.30121,0.05330
641.81142,0.05710
640.32163,0.04908
638.83185,0.04502
637.34206,0.01031
635.85227,0.01213
634.36248,0.01397
632.87269,0.00980
631.38290,0.01377
629.89312,0.01127
628.40333,0.00914
626.91354,0.00703
625.42375,0.01031
623.93396,0.02083
622.44417,0.02707
620.95438,0.03333
619.46460,0.02555
617.97481,0.04662
616.48502,0.07375
614.99523,0.08336
613.50544,0.09299
612.01565,0.10671
610.52587,0.13486
609.03608,0.19046
607.54629,0.19077
606.05650,0.19111
604.56671,0.23306
603.07692,0.29155
601.58714,0.31368
600.09735,0.33584
598.60756,0.37742
597.11777,0.38858
595.62798,0.38304
594.13819,0.37043
592.64840,0.35784
591.15862,0.33819
589.66883,0.27510
588.17904,0.23690
586.68925,0.21220
585.19946,0.18753
583.70967,0.15173
582.21989,0.12710
580.73010,0.10714
579.24031,0.08721
577.75052,0.05638
576.26073,0.05090
574.77094,0.04406
573.28115,0.04025
571.79137,0.03647
570.30158,0.03643
568.81179,0.04966
567.32200,0.05687
565.83221,0.06411
564.34242,0.05394
562.85264,0.07516
561.36285,0.07898
559.87306,0.09107
558.38327,0.10319
556.89348,0.10847
555.40369,0.11540
553.91391,0.12224
552.42412,0.12910
550.93433,0.12657
549.44454,0.11292
547.95475,0.13182
546.46496,0.13273
544.97517,0.13366
543.48539,0.16007
541.99560,0.18906
540.50581,0.20900
539.01602,0.22897
537.52623,0.27034
536.03644,0.30152
534.54666,0.33922
533.05687,0.35021
531.56708,0.36124
530.07729,0.41411
528.58750,0.45539
527.09771,0.49077
525.60792,0.52617
524.11814,0.60749
522.62835,0.67257
521.13856,0.70536
519.64877,0.71855
518.15898,0.73175
516.66919,0.75183
515.17941,0.79611
513.68962,0.78789
512.19983,0.77969
510.71004,0.73038
509.22025,0.66947
507.73046,0.60556
506.24068,0.55388
504.75089,0.50222
503.26110,0.42816
501.77131,0.34436
500.28152,0.29661
498.79173,0.24888
497.30194,0.20535
495.81216,0.17626
494.32237,0.15509
492.83258,0.13395
491.34279,0.09795
489.85300,0.06267
488.36321,0.06507
486.87343,0.06772
485.38364,0.07040
483.89385,0.07496
482.40406,0.06745
480.91427,0.07578
479.42448,0.08412
477.93469,0.08622
476.44491,0.11785
474.95512,0.13823
473.46533,0.15864
471.97554,0.15293
470.48575,0.16048
468.99596,0.13901
467.50618,0.13581
466.01639,0.13262
464.52660,0.08775
463.03681,0.08589
461.54702,0.07406
460.05723,0.06226
458.56745,0.05257
457.07766,0.03756
455.58787,0.02548
454.09808,0.01342
452.60829,0.01683
451.11850,0.00703
449.62871,0.00901
448.13893,0.01101
446.64914,0.01896
445.15935,0.02065
443.66956,0.00402
442.17977,0.01363
440.68998,0.02326
439.20020,0.02164
437.71041,0.02005
436.22062,0.02534
434.73083,0.03065
433.24104,0.02912
431.75125,0.02600
430.26146,0.03289
428.77168,0.03980
427.28189,0.02814
425.79210,0.02883
424.30231,0.03790
422.81252,0.04700
421.32273,0.03776
419.83295,0.02413
418.34316,0.03027
416.85337,0.03644
415.36358,0.01428
413.87379,0.02886
412.38400,0.02488
410.89422,0.02091
409.40443,0.02603
407.91464,0.01979
406.42485,0.01683
404.93506,0.01447
403.44527,0.01213
401.95548,0.01597
400.46570,0.03680
398.97591,0.02419
397.48612,0.01161
395.99633,0.01508
394.50654,0.03066
393.01675,0.02790
391.52697,0.02517
390.03718,0.03384
388.54739,0.02302
387.05760,0.01525
385.56781,0.00749
384.07802,0.01625
382.58824,0.01364
381.09845,0.01838
379.60866,0.02313
378.11887,0.02455
376.62908,0.00878
375.13929,0.01047
373.64950,0.01219
372.15972,0.01067
370.66993,0.03660
369.18014,0.03211
367.69035,0.02764
366.20056,0.01274
364.71077,0.02875
363.22099,0.02678
361.73120,0.02483
360.24141,0.01720
358.75162,0.00868
357.26183,0.00784
355.77204,0.00703
354.28225,0.02424
352.79247,0.04962
351.30268,0.05247
349.81289,0.05534
348.32310,0.06312
346.83331,0.03490
345.34352,0.03041
343.85374,0.02594
342.36395,0.04520
340.87416,0.03799
339.38437,0.03441
337.89458,0.03084
336.40479,0.03346
334.91501,0.00892
333.42522,0.00803
331.93543,0.00717
330.44564,0.02864
328.95585,0.01644
327.46606,0.01483
325.97627,0.01325
324.48649,0.02486
322.99670,0.05625
321.50691,0.06373
320.01712,0.07122
318.52733,0.07921
317.03754,0.06723
315.54776,0.05644
314.05797,0.04568
312.56818,0.03586
311.07839,0.04326
309.58860,0.04593
308.09881,0.04862
306.60902,0.05354
305.11924,0.03663
303.62945,0.03369
302.13966,0.03078
300.64987,0.00721
299.16008,0.00703
