1778.52000,0.02120
1777.03021,0.02308
1775.54042,0.02679
1774.05063,0.02693
1772.56085,0.01780
1771.07106,0.02848
1769.58127,0.01909
1768.09148,0.02053
1766.60169,0.01269
1765.11190,0.00578
1763.62212,0.01869
1762.13233,0.02951
1760.64254,0.02298
1759.15275,0.02756
1757.66296,0.02107
1756.17317,0.01341
1754.68339,0.01626
1753.19360,0.01015
1751.70381,0.02085
1750.21402,0.00759
1748.72423,0.01174
1747.23444,0.00993
1745.74465,0.01143
1744.25487,0.01896
1742.76508,0.02021
1741.27529,0.01460
1739.78550,0.01500
1738.29571,0.01813
1736.80592,0.02308
1735.31614,0.01696
1733.82635,0.00697
1732.33656,0.00000
1730.84677,0.00717
1729.35698,0.01107
1727.86719,0.01890
1726.37740,0.02734
1724.88762,0.02142
1723.39783,0.02212
1721.90804,0.01385
1720.41825,0.00921
1718.92846,0.00578
1717.43867,0.01286
1715.94889,0.02656
1714.45910,0.01899
1712.96931,0.01505
1711.47952,0.01593
1709.98973,0.03032
1708.49994,0.02435
1707.01016,0.02081
1705.52037,0.01729
1704.03058,0.02069
1702.54079,0.01782
1701.05100,0.01377
1699.56121,0.01755
1698.07142,0.02824
1696.58164,0.01138
1695.09185,0.03292
1693.60206,0.02989
1692.11227,0.01670
1690.62248,0.03112
1689.13269,0.04586
1687.64291,0.04173
1686.15312,0.04363
1684.66333,0.04915
1683.17354,0.04930
1681.68375,0.04558
1680.19396,0.04997
1678.70417,0.04869
1677.21439,0.05883
1675.72460,0.06900
1674.23481,0.06120
1672.74502,0.05672
1671.25523,0.07986
1669.76544,0.08532
1668.27566,0.08932
1666.78587,0.08884
1665.29608,0.08628
1663.80629,0.10234
1662.31650,0.11183
1660.82671,0.10365
1659.33693,0.12968
1657.84714,0.10896
1656.35735,0.10925
1654.86756,0.09428
1653.37777,0.11471
1651.88798,0.09888
1650.39819,0.09867
1648.90841,0.11318
1647.41862,0.09143
1645.92883,0.09025
1644.43904,0.08909
1642.94925,0.10250
1641.45946,0.08744
1639.96968,0.08111
1638.47989,0.09279
1636.99010,0.11169
1635.50031,0.11203
1634.01052,0.11989
1632.52073,0.10648
1631.03094,0.09610
1629.54116,0.10013
1628.05137,0.11949
1626.56158,0.12327
1625.07179,0.12738
1623.58200,0.12701
1622.09221,0.10688
1620.60243,0.10837
1619.11264,0.14436
1617.62285,0.09911
1616.13306,0.09767
1614.64327,0.09596
1613.15348,0.09486
1611.66370,0.11629
1610.17391,0.11914
1608.68412,0.11063
1607.19433,0.11383
1605.70454,0.11017
1604.21475,0.11417
1602.72496,0.11820
1601.23518,0.10711
1599.74539,0.10834
1598.25560,0.10809
1596.76581,0.11057
1595.27602,0.11307
1593.78623,0.09911
1592.29645,0.11035
1590.80666,0.11713
1589.31687,0.09484
1587.82708,0.10257
1586.33729,0.09622
1584.84750,0.10309
1583.35771,0.11029
1581.86793,0.09772
1580.37814,0.10077
1578.88835,0.09335
1577.39856,0.08535
1575.90877,0.07858
1574.41898,0.07993
1572.92920,0.07951
1571.43941,0.06921
1569.94962,0.06793
1568.45983,0.06668
1566.97004,0.06066
1565.48025,0.03876
1563.99047,0.04358
1562.50068,0.04243
1561.01089,0.05420
1559.52110,0.05519
1558.03131,0.03492
1556.54152,0.04556
1555.05173,0.02894
1553.56195,0.04323
1552.07216,0.03145
1550.58237,0.02480
1549.09258,0.01337
1547.60279,0.02506
1546.11300,0.00559
1544.62322,0.00293
1543.13343,0.01590
1541.64364,0.01210
1540.15385,0.00893
1538.66406,0.00578
1537.17427,0.01809
1535.68448,0.00704
1534.19470,0.01341
1532.70491,0.02280
1531.21512,0.02232
1529.72533,0.01706
1528.23554,0.01363
1526.74575,0.03541
1525.25597,0.03413
1523.76618,0.04006
1522.27639,0.04513
1520.78660,0.04092
1519.29681,0.04363
1517.80702,0.02538
1516.31724,0.03654
1514.82745,0.03303
1513.33766,0.04454
1511.84787,0.05607
1510.35808,0.06493
1508.86829,0.03783
1507.37850,0.06053
1505.88872,0.05747
1504.39893,0.07722
1502.90914,0.05172
1501.41935,0.07152
1499.92956,0.06796
1498.43977,0.07737
1496.94999,0.08680
1495.46020,0.09625
1493.97041,0.10573
1492.48062,0.11524
1490.99083,0.12477
1489.50104,0.13432
1488.01125,0.14390
1486.52147,0.15350
1485.03168,0.16313
1483.54189,0.17278
1482.05210,0.18246
1480.56231,0.19631
1479.07252,0.24976
1477.58274,0.28076
1476.09295,0.28179
1474.60316,0.30563
1473.11337,0.29531
1471.62358,0.31471
1470.13379,0.31014
1468.64401,0.31189
1467.15422,0.33346
1465.66443,0.34456
1464.17464,0.35568
1462.68485,0.43669
1461.19506,0.45117
1459.70527,0.47526
1458.21549,0.55155
1456.72570,0.62066
1455.23591,0.70930
1453.74612,0.76947
1452.25633,0.81107
1450.76654,0.84760
1449.27676,0.86497
1447.78697,0.84758
1446.29718,0.83441
1444.80739,0.80837
1443.31760,0.78236
1441.82781,0.74587
1440.33802,0.65094
1438.84824,0.60191
1437.35845,0.55321
1435.86866,0.54711
1434.37887,0.58691
1432.88908,0.61744
1431.39929,0.66689
1429.90951,0.77183
1428.41972,0.87620
1426.92993,0.95481
1425.44014,0.98786
1423.95035,1.01524
1422.46056,1.04265
1420.97078,1.08027
1419.48099,1.08224
1417.99120,1.12141
1416.50141,1.12403
1415.01162,1.10388
1413.52183,1.04808
1412.03204,0.96531
1410.54226,0.85858
1409.05247,0.77406
1407.56268,0.71925
1406.07289,0.67496
1404.58310,0.63445
1403.09331,0.59396
1401.60353,0.53895
1400.11374,0.49206
1398.62395,0.42690
1397.13416,0.35908
1395.64437,0.31796
1394.15458,0.26727
1392.66479,0.21121
1391.17501,0.20615
1389.68522,0.15793
1388.19543,0.11034
1386.70564,0.10221
1385.21585,0.09410
1383.72606,0.05588
1382.23628,0.04827
1380.74649,0.04608
1379.25670,0.05411
1377.76691,0.04417
1376.27712,0.03516
1374.78733,0.00578
1373.29755,0.01802
1371.80776,0.02159
1370.31797,0.01139
1368.82818,0.00946
1367.33839,0.00756
1365.84860,0.00909
1364.35881,0.02804
1362.86903,0.05840
1361.37924,0.05701
1359.88945,0.08952
1358.39966,0.11186
1356.90987,0.14293
1355.42008,0.22439
1353.93030,0.27469
1352.44051,0.29968
1350.95072,0.32470
1349.46093,0.44464
1347.97114,0.51903
1346.48135,0.62014
1344.99156,0.71737
1343.50178,0.77834
1342.01199,0.80185
1340.52220,0.84008
1339.03241,0.90203
1337.54262,0.98199
1336.05283,1.01295
1334.56305,1.04393
1333.07326,1.07179
1331.58347,1.06279
1330.09368,1.05622
1328.60389,1.06646
1327.11410,1.06413
1325.62432,1.02195
1324.13453,0.98639
1322.64474,0.95685
1321.15495,0.87006
1319.66516,0.84837
1318.17537,0.82670
1316.68558,0.72380
1315.19580,0.67249
1313.70601,0.62151
1312.21622,0.58255
1310.72643,0.55620
1309.23664,0.50080
1307.74685,0.45981
1306.25707,0.46683
1304.76728,0.43668
1303.27749,0.40656
1301.78770,0.34499
1300.29791,0.31102
1298.80812,0.25069
1297.31834,0.20448
1295.82855,0.18738
1294.33876,0.15770
1292.84897,0.13496
1291.35918,0.09814
1289.86939,0.10632
1288.37960,0.11453
1286.88982,0.11497
1285.40003,0.08455
1283.91024,0.08713
1282.42045,0.07235
1280.93066,0.05580
1279.44087,0.06776
1277.95109,0.06864
1276.46130,0.04137
1274.97151,0.03765
1273.48172,0.03397
1271.99193,0.01966
1270.50214,0.03566
1269.01235,0.03190
1267.52257,0.02996
1266.03278,0.03644
1264.54299,0.02525
1263.05320,0.03208
1261.56341,0.03384
1260.07362,0.03562
1258.58384,0.02993
1257.09405,0.01437
1255.60426,0.02462
1254.11447,0.01271
1252.62468,0.01821
1251.13489,0.01984
1249.64511,0.02389
1248.15532,0.00578
1246.66553,0.00922
1245.17574,0.01268
1243.68595,0.02606
1242.19616,0.03647
1240.70637,0.02681
1239.21659,0.01298
1237.72680,0.02076
1236.23701,0.02886
1234.74722,0.01541
1233.25743,0.02176
1231.76764,0.02815
1230.27786,0.03095
1228.78807,0.02509
1227.29828,0.02855
1225.80849,0.03593
1224.31870,0.02384
1222.82891,0.00578
1221.33912,0.03886
1219.84934,0.03913
1218.35955,0.03942
1216.86976,0.02429
1215.37997,0.05657
1213.89018,0.06938
1212.40039,0.07232
1210.91061,0.07618
1209.42082,0.07797
1207.93103,0.07214
1206.44124,0.06633
1204.95145,0.08019
1203.46166,0.07279
1201.97188,0.04921
1200.48209,0.08323
1198.99230,0.07080
1197.50251,0.04370
1196.01272,0.03252
1194.52293,0.03036
1193.03314,0.02822
1191.54336,0.03960
1190.05357,0.04321
1188.56378,0.02316
1187.07399,0.03521
1185.58420,0.01491
1184.09441,0.01322
1182.60463,0.01515
1181.11484,0.01711
1179.62505,0.02689
1178.13526,0.04929
1176.64547,0.04113
1175.15568,0.03689
1173.66589,0.01528
1172.17611,0.02069
1170.68632,0.01322
1169.19653,0.00578
1167.70674,0.02681
1166.21695,0.04187
1164.72716,0.04706
1163.23738,0.05227
1161.74759,0.05661
1160.25780,0.07177
1158.76801,0.07361
1157.27822,0.07547
1155.78843,0.09910
1154.29865,0.08077
1152.80886,0.10625
1151.31907,0.09517
1149.82928,0.13629
1148.33949,0.13005
1146.84970,0.14558
1145.35991,0.16114
1143.87013,0.15827
1142.38034,0.17373
1140.89055,0.16702
1139.40076,0.20081
1137.91097,0.20165
1136.42118,0.23069
1134.93140,0.23457
1133.44161,0.23848
1131.95182,0.25891
1130.46203,0.26976
1128.97224,0.27464
1127.48245,0.26995
1125.99266,0.28178
1124.50288,0.28343
1123.01309,0.27957
1121.52330,0.27573
1120.03351,0.24597
1118.54372,0.27382
1117.05393,0.29179
1115.56415,0.28939
1114.07436,0.26604
1112.58457,0.26429
1111.09478,0.26257
1109.60499,0.24708
1108.11520,0.26041
1106.62542,0.27135
1105.13563,0.24484
1103.64584,0.25404
1102.15605,0.24677
1100.66626,0.24088
1099.17647,0.23501
1097.68668,0.21972
1096.19690,0.21435
1094.70711,0.22099
1093.21732,0.22437
1091.72753,0.21847
1090.23774,0.20600
1088.74795,0.19356
1087.25817,0.20423
1085.76838,0.18853
1084.27859,0.19056
1082.78880,0.18930
1081.29901,0.17099
1079.80922,0.16769
1078.31943,0.18000
1076.82965,0.19234
1075.33986,0.21970
1073.85007,0.21380
1072.36028,0.19983
1070.87049,0.22576
1069.38070,0.20104
1067.89092,0.21593
1066.40113,0.23084
1064.91134,0.31205
1063.42155,0.41667
1061.93176,0.49582
1060.44197,0.58370
1058.95219,0.66560
1057.46240,0.71515
1055.97261,0.76471
1054.48282,0.83110
1052.99303,0.85823
1051.50324,0.89108
1050.01345,0.90056
1048.52367,0.92117
1047.03388,0.91107
1045.54409,0.90099
1044.05430,0.89408
1042.56451,0.77055
1041.07472,0.74061
1039.58494,0.69359
1038.09515,0.64511
1036.60536,0.60564
1035.11557,0.56619
1033.62578,0.48510
1032.13599,0.44031
1030.64620,0.38145
1029.15642,0.33491
1027.66663,0.30053
1026.17684,0.26619
1024.68705,0.22212
1023.19726,0.18497
1021.70747,0.18683
1020.21769,0.16353
1018.72790,0.15824
1017.23811,0.14743
1015.74832,0.13664
1014.25853,0.12333
1012.76874,0.11934
1011.27896,0.12377
1009.78917,0.12463
1008.29938,0.11561
1006.80959,0.08968
1005.31980,0.06378
1003.83001,0.03265
1002.34022,0.01174
1000.85044,0.00975
999.36065,0.03836
997.87086,0.04241
996.38107,0.04649
994.89128,0.05389
993.40149,0.03883
991.91171,0.06937
990.42192,0.07714
988.93213,0.08614
987.44234,0.08227
985.95255,0.07842
984.46276,0.08000
982.97297,0.08820
981.48319,0.07123
979.99340,0.05999
978.50361,0.05926
977.01382,0.05856
975.52403,0.05579
974.03424,0.03355
972.54446,0.03412
971.05467,0.01943
969.56488,0.01196
968.07509,0.00886
966.58530,0.00578
965.09551,0.01086
963.60573,0.02166
962.11594,0.01179
960.62615,0.01244
959.13636,0.02256
957.64657,0.03271
956.15678,0.03313
954.66699,0.01799
953.17721,0.04576
951.68742,0.05345
950.19763,0.07077
948.70784,0.08811
947.21805,0.09558
945.72826,0.07399
944.23848,0.10100
942.74869,0.12983
941.25890,0.13111
939.76911,0.13840
938.27932,0.14572
936.78953,0.19264
935.29974,0.21321
933.80996,0.22510
932.32017,0.23911
930.83038,0.24460
929.34059,0.25012
927.85080,0.25941
926.36101,0.27952
924.87123,0.30026
923.38144,0.33391
921.89165,0.37553
920.40186,0.41718
918.91207,0.50938
917.42228,0.61450
915.93250,0.76642
914.44271,0.96514
912.95292,1.07318
911.46313,1.18124
909.97334,1.44330
908.48355,1.70389
906.99376,1.89674
905.50398,1.94298
904.01419,1.95567
902.52440,1.96838
901.03461,2.00000
899.54482,1.97168
898.05503,1.88431
896.56525,1.72500
895.07546,1.59315
893.58567,1.46133
892.09588,1.18125
890.60609,0.95008
889.11630,0.71922
887.62651,0.53098
886.13673,0.47004
884.64694,0.40913
883.15715,0.28273
881.66736,0.20343
880.17757,0.16703
878.68778,0.14730
877.19800,0.12759
875.70821,0.05919
874.21842,0.03608
872.72863,0.03729
871.23884,0.01903
869.74905,0.01324
868.25927,0.00747
866.76948,0.00578
865.27969,0.01462
863.78990,0.04657
862.30011,0.06236
860.81032,0.06557
859.32053,0.06881
857.83075,0.08017
856.34096,0.08976
854.85117,0.10027
853.36138,0.09941
851.87159,0.09003
850.38180,0.08067
848.89202,0.10477
847.40223,0.13100
845.91244,0.16265
844.42265,0.17408
842.93286,0.18553
841.44307,0.17708
839.95329,0.19683
838.46350,0.21031
836.97371,0.22681
835.48392,0.23284
833.99413,0.23890
832.50434,0.22999
831.01455,0.22171
829.52477,0.23294
828.03498,0.18602
826.54519,0.15861
825.05540,0.13124
823.56561,0.10328
822.07582,0.10594
820.58604,0.09183
819.09625,0.10503
817.60646,0.11826
816.11667,0.09343
814.62688,0.09740
813.13709,0.10051
811.64730,0.07395
810.15752,0.08685
808.66773,0.09978
807.17794,0.11108
805.68815,0.12300
804.19836,0.13015
802.70857,0.12698
801.21879,0.12383
799.72900,0.12746
798.23921,0.09273
796.74942,0.10330
795.25963,0.10415
793.76984,0.10503
792.28006,0.10968
790.79027,0.15064
789.30048,0.16643
787.81069,0.15376
786.32090,0.16661
784.83111,0.17947
783.34132,0.21786
781.85154,0.24577
780.36175,0.31688
778.87196,0.33180
777.38217,0.34674
775.89238,0.35406
774.40259,0.36320
772.91281,0.36847
771.42302,0.36102
769.93323,0.35360
768.44344,0.29747
766.95365,0.24587
765.46386,0.22937
763.97407,0.17901
762.48429,0.16182
760.99450,0.14465
759.50471,0.12045
758.01492,0.11008
756.52513,0.09822
755.03534,0.08955
753.54556,0.08089
752.05577,0.08411
750.56598,0.06726
749.07619,0.04054
747.58640,0.04188
746.09661,0.04325
744.60683,0.03429
743.11704,0.03046
741.62725,0.02066
740.13746,0.01807
738.64767,0.01551
737.15788,0.00578
735.66809,0.01977
734.17831,0.01158
732.68852,0.01542
731.19873,0.01928
729.70894,0.00877
728.21915,0.02348
726.72936,0.02412
725.23958,0.02178
723.74979,0.02516
722.26000,0.02857
720.77021,0.01012
719.28042,0.00578
717.79063,0.01734
716.30084,0.02008
714.81106,0.02285
713.32127,0.04228
711.83148,0.05573
710.34169,0.03923
708.85190,0.04329
707.36211,0.04738
705.87233,0.07683
704.38254,0.07572
702.89275,0.06293
701.40296,0.06817
699.91317,0.07343
698.42338,0.08351
696.93360,0.08822
695.44381,0.11214
693.95402,0.13459
692.46423,0.15707
690.97444,0.14238
689.48465,0.16341
687.99486,0.22704
686.50508,0.23372
685.01529,0.24042
683.52550,0.26544
682.03571,0.30968
680.54592,0.33865
679.05613,0.32836
677.56635,0.31810
676.07656,0.31206
674.58677,0.29855
673.09698,0.29106
671.60719,0.26890
670.11740,0.24676
668.62761,0.21176
667.13783,0.19507
665.64804,0.17916
664.15825,0.16327
662.66846,0.14486
661.17867,0.12047
659.68888,0.07962
658.19910,0.08197
656.70931,0.08435
655.21952,0.09215
653.72973,0.08018
652.23994,0.04425
650.75015,0.04163
649.26037,0.03903
647.77058,0.07424
646.28079,0.04770
644.79100,0.06707
643.30121,0.05662
641.81142,0.04620
640.32163,0.07014
638.83185,0.05182
637.34206,0.04282
635.85227,0.03760
634.36248,0.03240
632.87269,0.00578
631.38290,0.02556
629.89312,0.04566
628.40333,0.03924
626.91354,0.03285
625.42375,0.02394
623.93396,0.02315
622.44417,0.01699
620.95438,0.01085
619.46460,0.03202
617.97481,0.04332
616.48502,0.07593
614.99523,0.09688
613.50544,0.11785
612.01565,0.11545
610.52587,0.18745
609.03608,0.22918
607.54629,0.25655
606.05650,0.28394
604.56671,0.32305
603.07692,0.41616
601.58714,0.43178
600.09735,0.44742
598.60756,0.46654
597.11777,0.49378
595.62798,0.49046
594.13819,0.49526
592.64840,0.50008
591.15862,0.45006
589.66883,0.36827
588.17904,0.32099
586.68925,0.27959
585.19946,0.23821
583.70967,0.19220
582.21989,0.15312
580.73010,0.13295
579.24031,0.11281
577.75052,0.07410
576.26073,0.09149
574.77094,0.08941
573.28115,0.08331
571.79137,0.07724
570.30158,0.06654
568.81179,0.07326
567.32200,0.09904
565.83221,0.12485
564.34242,0.12054
562.85264,0.12826
561.36285,0.13990
559.87306,0.14991
558.38327,0.15995
556.89348,0.17496
555.40369,0.18160
553.91391,0.18902
552.42412,0.19645
550.93433,0.21516
549.44454,0.19431
547.95475,0.24426
546.46496,0.24969
544.97517,0.25516
543.48539,0.23980
541.99560,0.27515
540.50581,0.29583
539.01602,0.31653
537.52623,0.38644
536.03644,0.42339
534.54666,0.48404
533.05687,0.50979
531.56708,0.53557
530.07729,0.61399
528.58750,0.64357
527.09771,0.68441
525.60792,0.72527
524.11814,0.79720
522.62835,0.84186
521.13856,0.91234
519.64877,0.95960
518.15898,1.00689
516.66919,1.01657
515.17941,1.05026
513.68962,1.05519
512.19983,1.06015
510.71004,0.94549
509.22025,0.90491
507.73046,0.87486
506.24068,0.81785
504.75089,0.76086
503.26110,0.60944
501.77131,0.46943
500.28152,0.39348
498.79173,0.31754
497.30194,0.28167
495.81216,0.27280
494.32237,0.24222
492.83258,0.21166
491.34279,0.16719
489.85300,0.13413
488.36321,0.10470
486.87343,0.10798
485.38364,0.11128
483.89385,0.12720
482.40406,0.10746
480.91427,0.09914
479.42448,0.09085
477.93469,0.14614
476.44491,0.18737
474.95512,0.19640
473.46533,0.20544
471.97554,0.20657
470.48575,0.24400
468.99596,0.22088
467.50618,0.19839
466.01639,0.17593
464.52660,0.16518
463.03681,0.09658
461.54702,0.07374
460.05723,0.05093
458.56745,0.03758
457.07766,0.03715
455.58787,0.02145
454.09808,0.00578
452.60829,0.01670
451.11850,0.02224
449.62871,0.01566
448.13893,0.00911
446.64914,0.02402
445.15935,0.03566
443.66956,0.02453
442.17977,0.02617
440.68998,0.02784
439.20020,0.03927
437.71041,0.05193
436.22062,0.05068
434.73083,0.04944
433.24104,0.03369
431.75125,0.02576
430.26146,0.02925
428.77168,0.03276
427.28189,0.05789
425.79210,0.05845
424.30231,0.04630
422.81252,0.03417
421.32273,0.03990
419.83295,0.05316
418.34316,0.05175
416.85337,0.05036
415.36358,0.04600
413.87379,0.03297
412.38400,0.02670
410.89422,0.02047
409.40443,0.02580
407.91464,0.03206
406.42485,0.02635
404.93506,0.02665
403.44527,0.02699
401.95548,0.01745
400.46570,0.02533
398.97591,0.01554
397.48612,0.00578
395.99633,0.02052
394.50654,0.00800
393.01675,0.02909
391.52697,0.05020
390.03718,0.04255
388.54739,0.03432
387.05760,0.02132
385.56781,0.00835
384.07802,0.03341
382.58824,0.01951
381.09845,0.02108
379.60866,0.02267
378.11887,0.01874
376.62908,0.01844
375.13929,0.01890
373.64950,0.01940
372.15972,0.03656
370.66993,0.03275
369.18014,0.02882
367.69035,0.02491
366.20056,0.01039
364.71077,0.00578
363.22099,0.02263
361.73120,0.03950
360.24141,0.05430
358.75162,0.03644
357.26183,0.03840
355.77204,0.04038
354.28225,0.00160
352.79247,0.03631
351.30268,0.05516
349.81289,0.07403
348.32310,0.08033
346.83331,0.05367
345.34352,0.03169
343.85374,0.00972
342.36395,0.03921
340.87416,0.02195
339.38437,0.02465
337.89458,0.02737
336.40479,0.03327
334.91501,0.02960
333.42522,0.03600
331.93543,0.04242
330.44564,0.02743
328.95585,0.03015
327.46606,0.02555
325.97627,0.02098
324.48649,0.00578
322.99670,0.05768
321.50691,0.06417
320.01712,0.07069
318.52733,0.08877
317.03754,0.10299
315.54776,0.09054
314.05797,0.07811
312.56818,0.04322
311.07839,0.03295
309.58860,0.04459
308.09881,0.05625
306.60902,0.05894
305.11924,0.02567
303.62945,0.03396
302.13966,0.04227
300.64987,0.00578
299.16008,0.00578
