1778.52000,0.01227
1777.03021,0.00169
1775.54042,0.01233
1774.05063,0.01468
1772.56085,0.01309
1771.07106,0.00954
1769.58127,0.00423
1768.09148,0.01123
1766.60169,0.00874
1765.11190,0.00330
1763.62212,0.00839
1762.13233,0.00973
1760.64254,0.00457
1759.15275,0.00853
1757.66296,0.00420
1756.17317,0.00346
1754.68339,0.00552
1753.19360,0.00146
1751.70381,0.00000
1750.21402,0.00688
1748.72423,0.00428
1747.23444,0.00606
1745.74465,0.00370
1744.25487,0.00374
1742.76508,0.00777
1741.27529,0.01202
1739.78550,0.00420
1738.29571,0.00990
1736.80592,0.00630
1735.31614,0.00986
1733.82635,0.00512
1732.33656,0.00675
1730.84677,0.00582
1729.35698,0.00115
1727.86719,0.00701
1726.37740,0.00556
1724.88762,0.01206
1723.39783,0.01164
1721.90804,0.01066
1720.41825,0.00970
1718.92846,0.00420
1717.43867,0.01147
1715.94889,0.00806
1714.45910,0.01339
1712.96931,0.01161
1711.47952,0.00372
1709.98973,0.01506
1708.49994,0.01356
1707.01016,0.01791
1705.52037,0.02230
1704.03058,0.01452
1702.54079,0.00439
1701.05100,0.01528
1699.56121,0.00420
1698.07142,0.01378
1696.58164,0.00932
1695.09185,0.01340
1693.60206,0.01254
1692.11227,0.01607
1690.62248,0.01567
1689.13269,0.00934
1687.64291,0.01254
1686.15312,0.01894
1684.66333,0.01130
1683.17354,0.00625
1681.68375,0.01114
1680.19396,0.01485
1678.70417,0.00968
1677.21439,0.01384
1675.72460,0.01506
1674.23481,0.01887
1672.74502,0.02330
1671.25523,0.02795
1669.76544,0.03282
1668.27566,0.03573
1666.78587,0.03768
1665.29608,0.03767
1663.80629,0.04561
1662.31650,0.05317
1660.82671,0.05204
1659.33693,0.06520
1657.84714,0.06036
1656.35735,0.06405
1654.86756,0.06599
1653.37777,0.06201
1651.88798,0.06380
1650.39819,0.06105
1648.90841,0.07774
1647.41862,0.06454
1645.92883,0.06305
1644.43904,0.06159
1642.94925,0.07679
1641.45946,0.07735
1639.96968,0.07120
1638.47989,0.08944
1636.99010,0.08493
1635.50031,0.07905
1634.01052,0.07735
1632.52073,0.08954
1631.03094,0.09760
1629.54116,0.08864
1628.05137,0.10110
1626.56158,0.07932
1625.07179,0.08173
1623.58200,0.08851
1622.09221,0.09097
1620.60243,0.09126
1619.11264,0.09357
1617.62285,0.08104
1616.13306,0.07784
1614.64327,0.07288
1613.15348,0.09211
1611.66370,0.10364
1610.17391,0.08786
1608.68412,0.09033
1607.19433,0.08747
1605.70454,0.08443
1604.21475,0.08994
1602.72496,0.09547
1601.23518,0.08874
1599.74539,0.09036
1598.25560,0.09695
1596.76581,0.10337
1595.27602,0.08584
1593.78623,0.08458
1592.29645,0.08195
1590.80666,0.08272
1589.31687,0.08747
1587.82708,0.08492
1586.33729,0.09170
1584.84750,0.08226
1583.35771,0.08155
1581.86793,0.07018
1580.37814,0.08537
1578.88835,0.08652
1577.39856,0.07740
1575.90877,0.06691
1574.41898,0.06041
1572.92920,0.06343
1571.43941,0.07045
1569.94962,0.06669
1568.45983,0.06295
1566.97004,0.05102
1565.48025,0.04327
1563.99047,0.04882
1562.50068,0.03537
1561.01089,0.03581
1559.52110,0.02618
1558.03131,0.03023
1556.54152,0.02322
1555.05173,0.02138
1553.56195,0.02431
1552.07216,0.02688
1550.58237,0.01699
1549.09258,0.00652
1547.60279,0.00420
1546.11300,0.01174
1544.62322,0.01929
1543.13343,0.00607
1541.64364,0.01582
1540.15385,0.01954
1538.66406,0.02329
1537.17427,0.01567
1535.68448,0.00867
1534.19470,0.02645
1532.70491,0.01256
1531.21512,0.01851
1529.72533,0.01101
1528.23554,0.00650
1526.74575,0.01667
1525.25597,0.03717
1523.76618,0.02660
1522.27639,0.02416
1520.78660,0.03146
1519.29681,0.03739
1517.80702,0.04434
1516.31724,0.03725
1514.82745,0.03375
1513.33766,0.03789
1511.84787,0.04206
1510.35808,0.04635
1508.86829,0.05721
1507.37850,0.04292
1505.88872,0.05105
1504.39893,0.06732
1502.90914,0.05806
1501.41935,0.05358
1499.92956,0.06358
1498.43977,0.05935
1496.94999,0.07257
1495.46020,0.08581
1493.97041,0.07174
1492.48062,0.09592
1490.99083,0.10151
1489.50104,0.11603
1488.01125,0.10968
1486.52147,0.10335
1485.03168,0.12706
1483.54189,0.12266
1482.05210,0.15553
1480.56231,0.18267
1479.07252,0.17498
1477.58274,0.19761
1476.09295,0.19828
1474.60316,0.18788
1473.11337,0.20583
1471.62358,0.21807
1470.13379,0.21427
1468.64401,0.23249
1467.15422,0.22261
1465.66443,0.23652
1464.17464,0.25045
1462.68485,0.29768
1461.19506,0.30473
1459.70527,0.37380
1458.21549,0.41139
1456.72570,0.46248
1455.23591,0.49518
1453.74612,0.53463
1452.25633,0.57945
1450.76654,0.64172
1449.27676,0.64876
1447.78697,0.63205
1446.29718,0.66865
1444.80739,0.64089
1443.31760,0.61316
1441.82781,0.56722
1440.33802,0.53023
1438.84824,0.48137
1437.35845,0.43313
1435.86866,0.45325
1434.37887,0.49261
1432.88908,0.51001
1431.39929,0.56288
1429.90951,0.62271
1428.41972,0.67663
1426.92993,0.72640
1425.44014,0.79720
1423.95035,0.81473
1422.46056,0.83229
1420.97078,0.85701
1419.48099,0.90432
1417.99120,0.92116
1416.50141,0.94931
1415.01162,0.91272
1413.52183,0.84940
1412.03204,0.80275
1410.54226,0.77038
1409.05247,0.70417
1407.56268,0.62668
1406.07289,0.57478
1404.58310,0.54815
1403.09331,0.52154
1401.60353,0.46713
1400.11374,0.41017
1398.62395,0.34986
1397.13416,0.31374
1395.64437,0.24932
1394.15458,0.22791
1392.66479,0.19364
1391.17501,0.16832
1389.68522,0.13707
1388.19543,0.09772
1386.70564,0.08485
1385.21585,0.07199
1383.72606,0.05708
1382.23628,0.04695
1380.74649,0.04179
1379.25670,0.02636
1377.76691,0.02124
1376.27712,0.00625
1374.78733,0.00495
1373.29755,0.00942
1371.80776,0.00420
1370.31797,0.00746
1368.82818,0.01004
1367.33839,0.01265
1365.84860,0.01954
1364.35881,0.02685
1362.86903,0.03359
1361.37924,0.05402
1359.88945,0.07368
1358.39966,0.08940
1356.90987,0.12852
1355.42008,0.17816
1353.93030,0.21832
1352.44051,0.24255
1350.95072,0.26681
1349.46093,0.35577
1347.97114,0.43920
1346.48135,0.52721
1344.99156,0.58731
1343.50178,0.64190
1342.01199,0.69809
1340.52220,0.73370
1339.03241,0.80816
1337.54262,0.87947
1336.05283,0.89594
1334.56305,0.91244
1333.07326,0.93628
1331.58347,0.91341
1330.09368,0.88719
1328.60389,0.89743
1327.11410,0.89047
1325.62432,0.86254
1324.13453,0.83067
1322.64474,0.77584
1321.15495,0.75868
1319.66516,0.72361
1318.17537,0.68856
1316.68558,0.62551
1315.19580,0.57575
1313.70601,0.55454
1312.21622,0.51196
1310.72643,0.48109
1309.23664,0.44965
1307.74685,0.39625
1306.25707,0.38487
1304.76728,0.36142
1303.27749,0.33800
1301.78770,0.30133
1300.29791,0.25894
1298.80812,0.22964
1297.31834,0.18274
1295.82855,0.15646
1294.33876,0.13536
1292.84897,0.09665
1291.35918,0.08728
1289.86939,0.09180
1288.37960,0.09635
1286.88982,0.08606
1285.40003,0.07916
1283.91024,0.05445
1282.42045,0.07098
1280.93066,0.05266
1279.44087,0.03536
1277.95109,0.04581
1276.46130,0.02697
1274.97151,0.03687
1273.48172,0.04680
1271.99193,0.04308
1270.50214,0.02592
1269.01235,0.02641
1267.52257,0.02851
1266.03278,0.02152
1264.54299,0.03317
1263.05320,0.03454
1261.56341,0.03268
1260.07362,0.03083
1258.58384,0.02217
1257.09405,0.01255
1255.60426,0.01008
1254.11447,0.01556
1252.62468,0.00898
1251.13489,0.00420
1249.64511,0.01070
1248.15532,0.01543
1246.66553,0.02048
1245.17574,0.02555
1243.68595,0.00936
1242.19616,0.01537
1240.70637,0.01983
1239.21659,0.01539
1237.72680,0.02365
1236.23701,0.01470
1234.74722,0.00836
1233.25743,0.00837
1231.76764,0.00841
1230.27786,0.02114
1228.78807,0.01053
1227.29828,0.01718
1225.80849,0.02048
1224.31870,0.00954
1222.82891,0.00536
1221.33912,0.01190
1219.84934,0.01361
1218.35955,0.01534
1216.86976,0.02096
1215.37997,0.03393
1213.89018,0.03564
1212.40039,0.05797
1210.91061,0.06467
1209.42082,0.06110
1207.93103,0.06022
1206.44124,0.05937
1204.95145,0.05528
1203.46166,0.05041
1201.97188,0.05230
1200.48209,0.04055
1198.99230,0.03932
1197.50251,0.03891
1196.01272,0.02841
1194.52293,0.02775
1193.03314,0.02711
1191.54336,0.02302
1190.05357,0.02411
1188.56378,0.02958
1187.07399,0.02478
1185.58420,0.01544
1184.09441,0.01048
1182.60463,0.00733
1181.11484,0.00420
1179.62505,0.00832
1178.13526,0.00434
1176.64547,0.00439
1175.15568,0.01121
1173.66589,0.00480
1172.17611,0.01365
1170.68632,0.01144
1169.19653,0.00925
1167.70674,0.01283
1166.21695,0.01406
1164.72716,0.02680
1163.23738,0.02490
1161.74759,0.02699
1160.25780,0.04218
1158.76801,0.04590
1157.27822,0.04964
1155.78843,0.07143
1154.29865,0.10078
1152.80886,0.09429
1151.31907,0.09813
1149.82928,0.11625
1148.33949,0.13341
1146.84970,0.14385
1145.35991,0.15432
1143.87013,0.14797
1142.38034,0.16403
1140.89055,0.16090
1139.40076,0.17899
1137.91097,0.19017
1136.42118,0.20573
1134.93140,0.20646
1133.44161,0.20721
1131.95182,0.21611
1130.46203,0.23255
1128.97224,0.24407
1127.48245,0.24472
1125.99266,0.27015
1124.50288,0.26530
1123.01309,0.25799
1121.52330,0.25071
1120.03351,0.26098
1118.54372,0.25028
1117.05393,0.24000
1115.56415,0.23331
1114.07436,0.23714
1112.58457,0.24426
1111.09478,0.25140
1109.60499,0.24144
1108.11520,0.23149
1106.62542,0.22811
1105.13563,0.22594
1103.64584,0.21448
1102.15605,0.22127
1100.66626,0.21749
1099.17647,0.21373
1097.68668,0.19919
1096.19690,0.20192
1094.70711,0.21596
1093.21732,0.19436
1091.72753,0.19320
1090.23774,0.19017
1088.74795,0.18717
1087.25817,0.16626
1085.76838,0.15449
1084.27859,0.15919
1082.78880,0.15915
1081.29901,0.15716
1079.80922,0.16014
1078.31943,0.16483
1076.82965,0.16954
1075.33986,0.17140
1073.85007,0.18795
1072.36028,0.19005
1070.87049,0.20130
1069.38070,0.21573
1067.89092,0.24010
1066.40113,0.26448
1064.91134,0.32356
1063.42155,0.39494
1061.93176,0.45723
1060.44197,0.53519
1058.95219,0.59139
1057.46240,0.64147
1055.97261,0.69157
1054.48282,0.77656
1052.99303,0.81819
1051.50324,0.81330
1050.01345,0.81774
1048.52367,0.83033
1047.03388,0.83026
1045.54409,0.83021
1044.05430,0.82187
1042.56451,0.75255
1041.07472,0.67750
1039.58494,0.65952
1038.09515,0.57422
1036.60536,0.52975
1035.11557,0.48530
1033.62578,0.44603
1032.13599,0.38677
1030.64620,0.36319
1029.15642,0.29744
1027.66663,0.27212
1026.17684,0.24683
1024.68705,0.21622
1023.19726,0.16779
1021.70747,0.15188
1020.21769,0.12688
1018.72790,0.11617
1017.23811,0.10706
1015.74832,0.09797
1014.25853,0.06534
1012.76874,0.06898
1011.27896,0.06334
1009.78917,0.03691
1008.29938,0.04162
1006.80959,0.03911
1005.31980,0.03663
1003.83001,0.02119
1002.34022,0.01113
1000.85044,0.02348
999.36065,0.04832
997.87086,0.04507
996.38107,0.04183
994.89128,0.05368
993.40149,0.06119
991.91171,0.08180
990.42192,0.09252
988.93213,0.09773
987.44234,0.10216
985.95255,0.10662
984.46276,0.09941
982.97297,0.09421
981.48319,0.07576
979.99340,0.06486
978.50361,0.05389
977.01382,0.04294
975.52403,0.03568
974.03424,0.03398
972.54446,0.02479
971.05467,0.01185
969.56488,0.00428
968.07509,0.01085
966.58530,0.01744
965.09551,0.01127
963.60573,0.01067
962.11594,0.00436
960.62615,0.00420
959.13636,0.00427
957.64657,0.00435
956.15678,0.01159
954.66699,0.01846
953.17721,0.03505
951.68742,0.03543
950.19763,0.04425
948.70784,0.05309
947.21805,0.06265
945.72826,0.06054
944.23848,0.05688
942.74869,0.09147
941.25890,0.11796
939.76911,0.12803
938.27932,0.13812
936.78953,0.16092
935.29974,0.18909
933.80996,0.20856
932.32017,0.21558
930.83038,0.21579
929.34059,0.21603
927.85080,0.22015
926.36101,0.24627
924.87123,0.28233
923.38144,0.32931
921.89165,0.36442
920.40186,0.39956
918.91207,0.46879
917.42228,0.59410
915.93250,0.73963
914.44271,0.92461
912.95292,1.04861
911.46313,1.17262
909.97334,1.39392
908.48355,1.61782
906.99376,1.75577
905.50398,1.85175
904.01419,1.88012
902.52440,1.90850
901.03461,2.00000
899.54482,1.98179
898.05503,1.86515
896.56525,1.66178
895.07546,1.52597
893.58567,1.39019
892.09588,1.11618
890.60609,0.91250
889.11630,0.67636
887.62651,0.50245
886.13673,0.42413
884.64694,0.34583
883.15715,0.23418
881.66736,0.15940
880.17757,0.11653
878.68778,0.09894
877.19800,0.08138
875.70821,0.05304
874.21842,0.02651
872.72863,0.00872
871.23884,0.01333
869.74905,0.00875
868.25927,0.00420
866.76948,0.01865
865.27969,0.01568
863.78990,0.01095
862.30011,0.00922
860.81032,0.02336
859.32053,0.03752
857.83075,0.03744
856.34096,0.04293
854.85117,0.05875
853.36138,0.07538
851.87159,0.07570
850.38180,0.07603
848.89202,0.09868
847.40223,0.13323
845.91244,0.15414
844.42265,0.15111
842.93286,0.14809
841.44307,0.16155
839.95329,0.17165
838.46350,0.18971
836.97371,0.18640
835.48392,0.18746
833.99413,0.18855
832.50434,0.19818
831.01455,0.20427
829.52477,0.16958
828.03498,0.15650
826.54519,0.14414
825.05540,0.13181
823.56561,0.12117
822.07582,0.10562
820.58604,0.09384
819.09625,0.08933
817.60646,0.08483
816.11667,0.09016
814.62688,0.09770
813.13709,0.09298
811.64730,0.08154
810.15752,0.08331
808.66773,0.08509
807.17794,0.10364
805.68815,0.10359
804.19836,0.10871
802.70857,0.11257
801.21879,0.11646
799.72900,0.10719
798.23921,0.11736
796.74942,0.09527
795.25963,0.10063
793.76984,0.10602
792.28006,0.10282
790.79027,0.11865
789.30048,0.12678
787.81069,0.14484
786.32090,0.16134
784.83111,0.17786
783.34132,0.19738
781.85154,0.24703
780.36175,0.27887
778.87196,0.28825
777.38217,0.29766
775.89238,0.33433
774.40259,0.32863
772.91281,0.31325
771.42302,0.30117
769.93323,0.28910
768.44344,0.22526
766.95365,0.18957
765.46386,0.17035
763.97407,0.13530
762.48429,0.12296
760.99450,0.11064
759.50471,0.08893
758.01492,0.07894
756.52513,0.06025
755.03534,0.05644
753.54556,0.05266
752.05577,0.05028
750.56598,0.03902
749.07619,0.02659
747.58640,0.02537
746.09661,0.02418
744.60683,0.02985
743.11704,0.01969
741.62725,0.01392
740.13746,0.01628
738.64767,0.01868
737.15788,0.01040
735.66809,0.01066
734.17831,0.00420
732.68852,0.00560
731.19873,0.00701
729.70894,0.01251
728.21915,0.00634
726.72936,0.00754
725.23958,0.00420
723.74979,0.00441
722.26000,0.00464
720.77021,0.00510
719.28042,0.01211
717.79063,0.00528
716.30084,0.00442
714.81106,0.00358
713.32127,0.00613
711.83148,0.02178
710.34169,0.01566
708.85190,0.01868
707.36211,0.02172
705.87233,0.02280
704.38254,0.04055
702.89275,0.03435
701.40296,0.04026
699.91317,0.04619
698.42338,0.05492
696.93360,0.07060
695.44381,0.09859
693.95402,0.10382
692.46423,0.10908
690.97444,0.11951
689.48465,0.15175
687.99486,0.17292
686.50508,0.18154
685.01529,0.19018
683.52550,0.20925
682.03571,0.25626
680.54592,0.27240
679.05613,0.27074
677.56635,0.26910
676.07656,0.24926
674.58677,0.22825
673.09698,0.24312
671.60719,0.22761
670.11740,0.21213
668.62761,0.17715
667.13783,0.16062
665.64804,0.14609
664.15825,0.13159
662.66846,0.11632
661.17867,0.10464
659.68888,0.07594
658.19910,0.06173
656.70931,0.04754
655.21952,0.04328
653.72973,0.03291
652.23994,0.03067
650.75015,0.03391
649.26037,0.03717
647.77058,0.03600
646.28079,0.03109
644.79100,0.04502
643.30121,0.04966
641.81142,0.05433
640.32163,0.04476
638.83185,0.03719
637.34206,0.02351
635.85227,0.01509
634.36248,0.00670
632.87269,0.00811
631.38290,0.00914
629.89312,0.02486
628.40333,0.01564
626.91354,0.00644
625.42375,0.00420
623.93396,0.01260
622.44417,0.02241
620.95438,0.03224
619.46460,0.03654
617.97481,0.06048
616.48502,0.09494
614.99523,0.10051
613.50544,0.10610
612.01565,0.14320
610.52587,0.16171
609.03608,0.19213
607.54629,0.21386
606.05650,0.23561
604.56671,0.27759
603.07692,0.34455
601.58714,0.36924
600.09735,0.39396
598.60756,0.42513
597.11777,0.43870
595.62798,0.43289
594.13819,0.42442
592.64840,0.41598
591.15862,0.38210
589.66883,0.32290
588.17904,0.23777
586.68925,0.22090
585.19946,0.20406
583.70967,0.17109
582.21989,0.13340
580.73010,0.11514
579.24031,0.09690
577.75052,0.07829
576.26073,0.05872
574.77094,0.05640
573.28115,0.05420
571.79137,0.05203
570.30158,0.05413
568.81179,0.06954
567.32200,0.07754
565.83221,0.08556
564.34242,0.08142
562.85264,0.10643
561.36285,0.09818
559.87306,0.11243
558.38327,0.12671
556.89348,0.13240
555.40369,0.15019
553.91391,0.15226
552.42412,0.15436
550.93433,0.15558
549.44454,0.14336
547.95475,0.16068
546.46496,0.17267
544.97517,0.18468
543.48539,0.20108
541.99560,0.23612
540.50581,0.24741
539.01602,0.25873
537.52623,0.31661
536.03644,0.35076
534.54666,0.36531
533.05687,0.39316
531.56708,0.42104
530.07729,0.45210
528.58750,0.52499
527.09771,0.57175
525.60792,0.61854
524.11814,0.70595
522.62835,0.76071
521.13856,0.79548
519.64877,0.81988
518.15898,0.84430
516.66919,0.86527
515.17941,0.87300
513.68962,0.87818
512.19983,0.88338
510.71004,0.82800
509.22025,0.75362
507.73046,0.68322
506.24068,0.62355
504.75089,0.56389
503.26110,0.47594
501.77131,0.41059
500.28152,0.35943
498.79173,0.30829
497.30194,0.24380
495.81216,0.19103
494.32237,0.17423
492.83258,0.15745
491.34279,0.12554
489.85300,0.09148
488.36321,0.08457
486.87343,0.08215
485.38364,0.07975
483.89385,0.06837
482.40406,0.10335
480.91427,0.10043
479.42448,0.09753
477.93469,0.12169
476.44491,0.14726
474.95512,0.15285
473.46533,0.15846
471.97554,0.17282
470.48575,0.17808
468.99596,0.16930
467.50618,0.16154
466.01639,0.15380
464.52660,0.09795
463.03681,0.10491
461.54702,0.08447
460.05723,0.06405
458.56745,0.05127
457.07766,0.05893
455.58787,0.04333
454.09808,0.02776
452.60829,0.01844
451.11850,0.00420
449.62871,0.00832
448.13893,0.01245
446.64914,0.03156
445.15935,0.01009
443.66956,0.01697
442.17977,0.01753
440.68998,0.01812
439.20020,0.01477
437.71041,0.03778
436.22062,0.03101
434.73083,0.02427
433.24104,0.02180
431.75125,0.02887
430.26146,0.04021
428.77168,0.05159
427.28189,0.03654
425.79210,0.03141
424.30231,0.03969
422.81252,0.04798
421.32273,0.03144
419.83295,0.04266
418.34316,0.03250
416.85337,0.02237
415.36358,0.01742
413.87379,0.02060
412.38400,0.02015
410.89422,0.01972
409.40443,0.02733
407.91464,0.04052
406.42485,0.02520
404.93506,0.02764
403.44527,0.03010
401.95548,0.01981
400.46570,0.03470
398.97591,0.03584
397.48612,0.03701
395.99633,0.03612
394.50654,0.03188
393.01675,0.03391
391.52697,0.03597
390.03718,0.02170
388.54739,0.02509
387.05760,0.01464
385.56781,0.00420
384.07802,0.02599
382.58824,0.03453
381.09845,0.03299
379.60866,0.03148
378.11887,0.01870
376.62908,0.02158
375.13929,0.01212
373.64950,0.00267
372.15972,0.00286
370.66993,0.01575
369.18014,0.01291
367.69035,0.01010
366.20056,0.01553
364.71077,0.02217
363.22099,0.02675
361.73120,0.03136
360.24141,0.02480
358.75162,0.00420
357.26183,0.01479
355.77204,0.02541
354.28225,0.01415
352.79247,0.04650
351.30268,0.04540
349.81289,0.04432
348.32310,0.04445
346.83331,0.04619
345.34352,0.04478
343.85374,0.04340
342.36395,0.03986
340.87416,0.03041
339.38437,0.03157
337.89458,0.03276
336.40479,0.03902
334.91501,0.04669
333.42522,0.02794
331.93543,0.00922
330.44564,0.03538
328.95585,0.03998
327.46606,0.02211
325.97627,0.00427
324.48649,0.01712
322.99670,0.05753
321.50691,0.06834
320.01712,0.07918
318.52733,0.09311
317.03754,0.06963
315.54776,0.05717
314.05797,0.04473
312.56818,0.03063
311.07839,0.06805
309.58860,0.06004
308.09881,0.05205
306.60902,0.04517
305.11924,0.05099
303.62945,0.03287
302.13966,0.01478
300.64987,0.00680
299.16008,0.00420
