1778.52000,0.01830
1777.03021,0.01699
1775.54042,0.01160
1774.05063,0.01672
1772.56085,0.01959
1771.07106,0.02180
1769.58127,0.01240
1768.09148,0.01032
1766.60169,0.01397
1765.11190,0.01285
1763.62212,0.01176
1762.13233,0.01091
1760.64254,0.00644
1759.15275,0.01432
1757.66296,0.01560
1756.17317,0.00869
1754.68339,0.00318
1753.19360,0.00704
1751.70381,0.00067
1750.21402,0.00709
1748.72423,0.00623
1747.23444,0.00129
1745.74465,0.00505
1744.25487,0.00381
1742.76508,0.01445
1741.27529,0.01714
1739.78550,0.01962
1738.29571,0.00615
1736.80592,0.01096
1735.31614,0.00644
1733.82635,0.01309
1732.33656,0.00424
1730.84677,0.01002
1729.35698,0.01217
1727.86719,0.01229
1726.37740,0.01266
1724.88762,0.01283
1723.39783,0.00618
1721.90804,0.01141
1720.41825,0.01166
1718.92846,0.00644
1717.43867,0.00822
1715.94889,0.02098
1714.45910,0.01687
1712.96931,0.01210
1711.47952,0.01443
1709.98973,0.01998
1708.49994,0.01324
1707.01016,0.00879
1705.52037,0.00437
1704.03058,0.00363
1702.54079,0.00451
1701.05100,0.00951
1699.56121,0.00679
1698.07142,0.02302
1696.58164,0.00688
1695.09185,0.01084
1693.60206,0.01300
1692.11227,0.01815
1690.62248,0.00644
1689.13269,0.01826
1687.64291,0.02235
1686.15312,0.03148
1684.66333,0.02147
1683.17354,0.01833
1681.68375,0.02046
1680.19396,0.02329
1678.70417,0.02387
1677.21439,0.03588
1675.72460,0.03742
1674.23481,0.02644
1672.74502,0.03510
1671.25523,0.04584
1669.76544,0.05340
1668.27566,0.04845
1666.78587,0.04648
1665.29608,0.04590
1663.80629,0.06178
1662.31650,0.06855
1660.82671,0.07033
1659.33693,0.07213
1657.84714,0.06894
1656.35735,0.07513
1654.86756,0.06696
1653.37777,0.07776
1651.88798,0.06918
1650.39819,0.08345
1648.90841,0.08040
1647.41862,0.06597
1645.92883,0.06684
1644.43904,0.06774
1642.94925,0.07597
1641.45946,0.07828
1639.96968,0.06329
1638.47989,0.08504
1636.99010,0.08013
1635.50031,0.07524
1634.01052,0.08680
1632.52073,0.08584
1631.03094,0.08080
1629.54116,0.07623
1628.05137,0.08766
1626.56158,0.09387
1625.07179,0.08139
1623.58200,0.09426
1622.09221,0.08936
1620.60243,0.09041
1619.11264,0.09035
1617.62285,0.08506
1616.13306,0.07501
1614.64327,0.06840
1613.15348,0.08235
1611.66370,0.08309
1610.17391,0.09366
1608.68412,0.08099
1607.19433,0.08067
1605.70454,0.08652
1604.21475,0.08898
1602.72496,0.09146
1601.23518,0.07891
1599.74539,0.08121
1598.25560,0.09266
1596.76581,0.09272
1595.27602,0.09030
1593.78623,0.07878
1592.29645,0.08303
1590.80666,0.07612
1589.31687,0.07722
1587.82708,0.07971
1586.33729,0.07743
1584.84750,0.07267
1583.35771,0.07660
1581.86793,0.06710
1580.37814,0.08454
1578.88835,0.06025
1577.39856,0.06086
1575.90877,0.06217
1574.41898,0.06876
1572.92920,0.05438
1571.43941,0.04185
1569.94962,0.04360
1568.45983,0.04537
1566.97004,0.02903
1565.48025,0.02595
1563.99047,0.03384
1562.50068,0.02693
1561.01089,0.02529
1559.52110,0.01774
1558.03131,0.01751
1556.54152,0.01594
1555.05173,0.02033
1553.56195,0.01881
1552.07216,0.01389
1550.58237,0.01378
1549.09258,0.01096
1547.60279,0.00429
1546.11300,0.01497
1544.62322,0.00378
1543.13343,0.00527
1541.64364,0.01225
1540.15385,0.00934
1538.66406,0.00644
1537.17427,0.01905
1535.68448,0.02027
1534.19470,0.02220
1532.70491,0.02255
1531.21512,0.02316
1529.72533,0.01718
1528.23554,0.02149
1526.74575,0.03129
1525.25597,0.02880
1523.76618,0.02679
1522.27639,0.03644
1520.78660,0.03699
1519.29681,0.03299
1517.80702,0.02811
1516.31724,0.02714
1514.82745,0.03440
1513.33766,0.04099
1511.84787,0.04761
1510.35808,0.05631
1508.86829,0.04884
1507.37850,0.03432
1505.88872,0.03396
1504.39893,0.04047
1502.90914,0.05020
1501.41935,0.05403
1499.92956,0.06540
1498.43977,0.07612
1496.94999,0.07362
1495.46020,0.07891
1493.97041,0.09700
1492.48062,0.10279
1490.99083,0.11316
1489.50104,0.11262
1488.01125,0.12760
1486.52147,0.14262
1485.03168,0.15651
1483.54189,0.18936
1482.05210,0.18871
1480.56231,0.20564
1479.07252,0.22601
1477.58274,0.24322
1476.09295,0.26433
1474.60316,0.25604
1473.11337,0.25393
1471.62358,0.26872
1470.13379,0.26506
1468.64401,0.29108
1467.15422,0.28176
1465.66443,0.29369
1464.17464,0.30563
1462.68485,0.36597
1461.19506,0.38732
1459.70527,0.45774
1458.21549,0.48324
1456.72570,0.56397
1455.23591,0.61963
1453.74612,0.67669
1452.25633,0.73057
1450.76654,0.76007
1449.27676,0.75173
1447.78697,0.75732
1446.29718,0.72918
1444.80739,0.70573
1443.31760,0.68231
1441.82781,0.62664
1440.33802,0.55912
1438.84824,0.52494
1437.35845,0.48804
1435.86866,0.49428
1434.37887,0.52153
1432.88908,0.56820
1431.39929,0.61238
1429.90951,0.69879
1428.41972,0.76264
1426.92993,0.81921
1425.44014,0.88037
1423.95035,0.89102
1422.46056,0.90170
1420.97078,0.94559
1419.48099,0.97012
1417.99120,0.97961
1416.50141,0.96837
1415.01162,0.95578
1413.52183,0.90535
1412.03204,0.83555
1410.54226,0.79201
1409.05247,0.68918
1407.56268,0.63405
1406.07289,0.57941
1404.58310,0.55729
1403.09331,0.53520
1401.60353,0.47059
1400.11374,0.40623
1398.62395,0.36835
1397.13416,0.33004
1395.64437,0.26758
1394.15458,0.23708
1392.66479,0.21686
1391.17501,0.17705
1389.68522,0.15210
1388.19543,0.11165
1386.70564,0.09724
1385.21585,0.08285
1383.72606,0.05365
1382.23628,0.04410
1380.74649,0.04347
1379.25670,0.04149
1377.76691,0.02630
1376.27712,0.01844
1374.78733,0.01836
1373.29755,0.00644
1371.80776,0.02097
1370.31797,0.01180
1368.82818,0.01280
1367.33839,0.01383
1365.84860,0.01135
1364.35881,0.02006
1362.86903,0.02835
1361.37924,0.05628
1359.88945,0.09267
1358.39966,0.10969
1356.90987,0.14066
1355.42008,0.18716
1353.93030,0.23254
1352.44051,0.26050
1350.95072,0.28848
1349.46093,0.38594
1347.97114,0.47112
1346.48135,0.55107
1344.99156,0.63058
1343.50178,0.68868
1342.01199,0.74247
1340.52220,0.77871
1339.03241,0.83027
1337.54262,0.86770
1336.05283,0.89832
1334.56305,0.92895
1333.07326,0.95254
1331.58347,0.96361
1330.09368,0.93341
1328.60389,0.92012
1327.11410,0.89453
1325.62432,0.90090
1324.13453,0.88539
1322.64474,0.83547
1321.15495,0.79423
1319.66516,0.74743
1318.17537,0.70066
1316.68558,0.65584
1315.19580,0.61083
1313.70601,0.55443
1312.21622,0.51767
1310.72643,0.51310
1309.23664,0.48141
1307.74685,0.45202
1306.25707,0.41468
1304.76728,0.39595
1303.27749,0.37724
1301.78770,0.35069
1300.29791,0.27397
1298.80812,0.24587
1297.31834,0.19726
1295.82855,0.16898
1294.33876,0.14916
1292.84897,0.12594
1291.35918,0.10549
1289.86939,0.10525
1288.37960,0.10503
1286.88982,0.10176
1285.40003,0.08847
1283.91024,0.08045
1282.42045,0.06607
1280.93066,0.06198
1279.44087,0.06613
1277.95109,0.05182
1276.46130,0.04369
1274.97151,0.03913
1273.48172,0.03459
1271.99193,0.03246
1270.50214,0.03196
1269.01235,0.03057
1267.52257,0.02692
1266.03278,0.01509
1264.54299,0.00441
1263.05320,0.01777
1261.56341,0.01929
1260.07362,0.02083
1258.58384,0.01921
1257.09405,0.01281
1255.60426,0.00644
1254.11447,0.01827
1252.62468,0.00707
1251.13489,0.00758
1249.64511,0.01496
1248.15532,0.01392
1246.66553,0.01199
1245.17574,0.01008
1243.68595,0.01436
1242.19616,0.01341
1240.70637,0.01820
1239.21659,0.01570
1237.72680,0.00776
1236.23701,0.00600
1234.74722,0.01521
1233.25743,0.01087
1231.76764,0.00656
1230.27786,0.00877
1228.78807,0.01009
1227.29828,0.02239
1225.80849,0.01281
1224.31870,0.00644
1222.82891,0.01788
1221.33912,0.01611
1219.84934,0.02109
1218.35955,0.02609
1216.86976,0.04081
1215.37997,0.04142
1213.89018,0.05984
1212.40039,0.05638
1210.91061,0.06778
1209.42082,0.06893
1207.93103,0.06635
1206.44124,0.06379
1204.95145,0.08555
1203.46166,0.07151
1201.97188,0.06503
1200.48209,0.07431
1198.99230,0.06103
1197.50251,0.04801
1196.01272,0.04413
1194.52293,0.03868
1193.03314,0.03326
1191.54336,0.03492
1190.05357,0.02407
1188.56378,0.02282
1187.07399,0.02844
1185.58420,0.01241
1184.09441,0.01603
1182.60463,0.01122
1181.11484,0.00644
1179.62505,0.01270
1178.13526,0.02262
1176.64547,0.01295
1175.15568,0.01996
1173.66589,0.00783
1172.17611,0.00668
1170.68632,0.00680
1169.19653,0.00695
1167.70674,0.00769
1166.21695,0.01575
1164.72716,0.03182
1163.23738,0.01598
1161.74759,0.03415
1160.25780,0.03889
1158.76801,0.04342
1157.27822,0.04798
1155.78843,0.05302
1154.29865,0.06584
1152.80886,0.07343
1151.31907,0.09542
1149.82928,0.08185
1148.33949,0.10776
1146.84970,0.11066
1145.35991,0.11359
1143.87013,0.12360
1142.38034,0.12703
1140.89055,0.13892
1139.40076,0.15996
1137.91097,0.17487
1136.42118,0.17292
1134.93140,0.18376
1133.44161,0.19463
1131.95182,0.19344
1130.46203,0.19956
1128.97224,0.23012
1127.48245,0.21098
1125.99266,0.21033
1124.50288,0.21747
1123.01309,0.21254
1121.52330,0.20763
1120.03351,0.20868
1118.54372,0.20450
1117.05393,0.22727
1115.56415,0.22770
1114.07436,0.20307
1112.58457,0.20047
1111.09478,0.19789
1109.60499,0.21120
1108.11520,0.21312
1106.62542,0.20549
1105.13563,0.19856
1103.64584,0.19850
1102.15605,0.19778
1100.66626,0.18637
1099.17647,0.17497
1097.68668,0.18436
1096.19690,0.19035
1094.70711,0.17219
1093.21732,0.17754
1091.72753,0.17608
1090.23774,0.17338
1088.74795,0.17071
1087.25817,0.17205
1085.76838,0.16361
1084.27859,0.15862
1082.78880,0.15228
1081.29901,0.16809
1079.80922,0.18118
1078.31943,0.18758
1076.82965,0.19399
1075.33986,0.21492
1073.85007,0.19960
1072.36028,0.20209
1070.87049,0.21488
1069.38070,0.23111
1067.89092,0.25101
1066.40113,0.27094
1064.91134,0.34610
1063.42155,0.47101
1061.93176,0.57290
1060.44197,0.65612
1058.95219,0.75761
1057.46240,0.79501
1055.97261,0.83245
1054.48282,0.89865
1052.99303,0.94183
1051.50324,0.96724
1050.01345,0.96166
1048.52367,0.99556
1047.03388,0.97108
1045.54409,0.94663
1044.05430,0.91034
1042.56451,0.78123
1041.07472,0.72127
1039.58494,0.68870
1038.09515,0.58133
1036.60536,0.55349
1035.11557,0.52567
1033.62578,0.45647
1032.13599,0.39322
1030.64620,0.34301
1029.15642,0.29532
1027.66663,0.26785
1026.17684,0.24040
1024.68705,0.20442
1023.19726,0.16368
1021.70747,0.13391
1020.21769,0.13336
1018.72790,0.13146
1017.23811,0.11477
1015.74832,0.09809
1014.25853,0.07962
1012.76874,0.08946
1011.27896,0.09019
1009.78917,0.07430
1008.29938,0.05478
1006.80959,0.05274
1005.31980,0.05072
1003.83001,0.01644
1002.34022,0.00956
1000.85044,0.03852
999.36065,0.04789
997.87086,0.05044
996.38107,0.05301
994.89128,0.08617
993.40149,0.09655
991.91171,0.13204
990.42192,0.15615
988.93213,0.15040
987.44234,0.15620
985.95255,0.16201
984.46276,0.16569
982.97297,0.15022
981.48319,0.13045
979.99340,0.11298
978.50361,0.10340
977.01382,0.09385
975.52403,0.08147
974.03424,0.04448
972.54446,0.03808
971.05467,0.02874
969.56488,0.01782
968.07509,0.01971
966.58530,0.02162
965.09551,0.01898
963.60573,0.02915
962.11594,0.02087
960.62615,0.00644
959.13636,0.00942
957.64657,0.01243
956.15678,0.00770
954.66699,0.02329
953.17721,0.03618
951.68742,0.05570
950.19763,0.05780
948.70784,0.05992
947.21805,0.07016
945.72826,0.08407
944.23848,0.08022
942.74869,0.09897
941.25890,0.11843
939.76911,0.13210
938.27932,0.14580
936.78953,0.15985
935.29974,0.18648
933.80996,0.22249
932.32017,0.23365
930.83038,0.23116
929.34059,0.22868
927.85080,0.26022
926.36101,0.26966
924.87123,0.31356
923.38144,0.36479
921.89165,0.41798
920.40186,0.47120
918.91207,0.56333
917.42228,0.69861
915.93250,0.84873
914.44271,1.05432
912.95292,1.15761
911.46313,1.26093
909.97334,1.52430
908.48355,1.76124
906.99376,1.92291
905.50398,1.98606
904.01419,1.97658
902.52440,1.96712
901.03461,2.00000
899.54482,1.93253
898.05503,1.83611
896.56525,1.68406
895.07546,1.53396
893.58567,1.38389
892.09588,1.11306
890.60609,0.88787
889.11630,0.68552
887.62651,0.53452
886.13673,0.47662
884.64694,0.41874
883.15715,0.30271
881.66736,0.20245
880.17757,0.17179
878.68778,0.15553
877.19800,0.13929
875.70821,0.08155
874.21842,0.05532
872.72863,0.05535
871.23884,0.02187
869.74905,0.02708
868.25927,0.03231
866.76948,0.05000
865.27969,0.03098
863.78990,0.06355
862.30011,0.07812
860.81032,0.08062
859.32053,0.08314
857.83075,0.10097
856.34096,0.10651
854.85117,0.13831
853.36138,0.14298
851.87159,0.14984
850.38180,0.15673
848.89202,0.18064
847.40223,0.21301
845.91244,0.23628
844.42265,0.24155
842.93286,0.24685
841.44307,0.24897
839.95329,0.28101
838.46350,0.27063
836.97371,0.31047
835.48392,0.30197
833.99413,0.29349
832.50434,0.29120
831.01455,0.28916
829.52477,0.27916
828.03498,0.22356
826.54519,0.21360
825.05540,0.20367
823.56561,0.18099
822.07582,0.16655
820.58604,0.16330
819.09625,0.15837
817.60646,0.15347
816.11667,0.15896
814.62688,0.16266
813.13709,0.14881
811.64730,0.14298
810.15752,0.14344
808.66773,0.14392
807.17794,0.17009
805.68815,0.18420
804.19836,0.18920
802.70857,0.18567
801.21879,0.18217
799.72900,0.16877
798.23921,0.15790
796.74942,0.15002
795.25963,0.14980
793.76984,0.14961
792.28006,0.17123
790.79027,0.19310
789.30048,0.21933
787.81069,0.22734
786.32090,0.22989
784.83111,0.23247
783.34132,0.26815
781.85154,0.31868
780.36175,0.36695
778.87196,0.38981
777.38217,0.41269
775.89238,0.42522
774.40259,0.44393
772.91281,0.41682
771.42302,0.39874
769.93323,0.38068
768.44344,0.33242
766.95365,0.28464
765.46386,0.24669
763.97407,0.19667
762.48429,0.18010
760.99450,0.16356
759.50471,0.14692
758.01492,0.14924
756.52513,0.11463
755.03534,0.10890
753.54556,0.10320
752.05577,0.08531
750.56598,0.08091
749.07619,0.06261
747.58640,0.06111
746.09661,0.05963
744.60683,0.04848
743.11704,0.04009
741.62725,0.03309
740.13746,0.02840
738.64767,0.02373
737.15788,0.01794
735.66809,0.02541
734.17831,0.00644
732.68852,0.01344
731.19873,0.02046
729.70894,0.01586
728.21915,0.01951
726.72936,0.01496
725.23958,0.00747
723.74979,0.01223
722.26000,0.01700
720.77021,0.00697
719.28042,0.00587
717.79063,0.01100
716.30084,0.01707
714.81106,0.02316
713.32127,0.02357
711.83148,0.02629
710.34169,0.00667
708.85190,0.01115
707.36211,0.01565
705.87233,0.03033
704.38254,0.03522
702.89275,0.03192
701.40296,0.03663
699.91317,0.04136
698.42338,0.03905
696.93360,0.06755
695.44381,0.09198
693.95402,0.09361
692.46423,0.09527
690.97444,0.10540
689.48465,0.14201
687.99486,0.15560
686.50508,0.16682
685.01529,0.17807
683.52550,0.21409
682.03571,0.22846
680.54592,0.25883
679.05613,0.24735
677.56635,0.23591
676.07656,0.23463
674.58677,0.21628
673.09698,0.18791
671.60719,0.18340
670.11740,0.17891
668.62761,0.14788
667.13783,0.14264
665.64804,0.12522
664.15825,0.10783
662.66846,0.09286
661.17867,0.09616
659.68888,0.07120
658.19910,0.06656
656.70931,0.06195
655.21952,0.04185
653.72973,0.03706
652.23994,0.03252
650.75015,0.03496
649.26037,0.03742
647.77058,0.03455
646.28079,0.04037
644.79100,0.04302
643.30121,0.03737
641.81142,0.03174
640.32163,0.04884
638.83185,0.03424
637.34206,0.01854
635.85227,0.01757
634.36248,0.01662
632.87269,0.01353
631.38290,0.00910
629.89312,0.01935
628.40333,0.02050
626.91354,0.02167
625.42375,0.00644
623.93396,0.02058
622.44417,0.02015
620.95438,0.01973
619.46460,0.02208
617.97481,0.05092
616.48502,0.07955
614.99523,0.09497
613.50544,0.11042
612.01565,0.11129
610.52587,0.15667
609.03608,0.19546
607.54629,0.20678
606.05650,0.21812
604.56671,0.29850
603.07692,0.33396
601.58714,0.35508
600.09735,0.37621
598.60756,0.42201
597.11777,0.41468
595.62798,0.44022
594.13819,0.42176
592.64840,0.40332
591.15862,0.38171
589.66883,0.34804
588.17904,0.27903
586.68925,0.24586
585.19946,0.21271
583.70967,0.15245
582.21989,0.12687
580.73010,0.10806
579.24031,0.08926
577.75052,0.09479
576.26073,0.07023
574.77094,0.05345
573.28115,0.06235
571.79137,0.07128
570.30158,0.08080
568.81179,0.10951
567.32200,0.10483
565.83221,0.10016
564.34242,0.14377
562.85264,0.15866
561.36285,0.18589
559.87306,0.18885
558.38327,0.19184
556.89348,0.19565
555.40369,0.21499
553.91391,0.21599
552.42412,0.21702
550.93433,0.24328
549.44454,0.23534
547.95475,0.23381
546.46496,0.24406
544.97517,0.25433
543.48539,0.27432
541.99560,0.30323
540.50581,0.31426
539.01602,0.32531
537.52623,0.37003
536.03644,0.40839
534.54666,0.44929
533.05687,0.47731
531.56708,0.50537
530.07729,0.52260
528.58750,0.57546
527.09771,0.60301
525.60792,0.63058
524.11814,0.69788
522.62835,0.76269
521.13856,0.81611
519.64877,0.83192
518.15898,0.84775
516.66919,0.87821
515.17941,0.89250
513.68962,0.88616
512.19983,0.87985
510.71004,0.81390
509.22025,0.79543
507.73046,0.72908
506.24068,0.68761
504.75089,0.64618
503.26110,0.53176
501.77131,0.40186
500.28152,0.35718
498.79173,0.31253
497.30194,0.24726
495.81216,0.19957
494.32237,0.18077
492.83258,0.16199
491.34279,0.13925
489.85300,0.11333
488.36321,0.09770
486.87343,0.10081
485.38364,0.10393
483.89385,0.10480
482.40406,0.13558
480.91427,0.12589
479.42448,0.11622
477.93469,0.15756
476.44491,0.19505
474.95512,0.20222
473.46533,0.20942
471.97554,0.24926
470.48575,0.23689
468.99596,0.23936
467.50618,0.21654
466.01639,0.19375
464.52660,0.15820
463.03681,0.11263
461.54702,0.08945
460.05723,0.06629
458.56745,0.03974
457.07766,0.03579
455.58787,0.02867
454.09808,0.02158
452.60829,0.02067
451.11850,0.01088
449.62871,0.00865
448.13893,0.00644
446.64914,0.02493
445.15935,0.01379
443.66956,0.01567
442.17977,0.01941
440.68998,0.02316
439.20020,0.03036
437.71041,0.05014
436.22062,0.03788
434.73083,0.02565
433.24104,0.05987
431.75125,0.04118
430.26146,0.04921
428.77168,0.05726
427.28189,0.03728
425.79210,0.04880
424.30231,0.05351
422.81252,0.05823
421.32273,0.03059
419.83295,0.04700
418.34316,0.04130
416.85337,0.03563
415.36358,0.01744
413.87379,0.03257
412.38400,0.02264
410.89422,0.01273
409.40443,0.03774
407.91464,0.02879
406.42485,0.02260
404.93506,0.02579
403.44527,0.02900
401.95548,0.01787
400.46570,0.02136
398.97591,0.01608
397.48612,0.01084
395.99633,0.02580
394.50654,0.03623
393.01675,0.02980
391.52697,0.02339
390.03718,0.03754
388.54739,0.03825
387.05760,0.02234
385.56781,0.00644
384.07802,0.01980
382.58824,0.01904
381.09845,0.01134
379.60866,0.00367
378.11887,0.02328
376.62908,0.01668
375.13929,0.02003
373.64950,0.02341
372.15972,0.00000
370.66993,0.01511
369.18014,0.01837
367.69035,0.02165
366.20056,0.01183
364.71077,0.01710
363.22099,0.01840
361.73120,0.01972
360.24141,0.04399
358.75162,0.04525
357.26183,0.03432
355.77204,0.02342
354.28225,0.00969
352.79247,0.04617
351.30268,0.04789
349.81289,0.04963
348.32310,0.06542
346.83331,0.06390
345.34352,0.04438
343.85374,0.02489
342.36395,0.03804
340.87416,0.02202
339.38437,0.02370
337.89458,0.02540
336.40479,0.02108
334.91501,0.02956
333.42522,0.01799
331.93543,0.00644
330.44564,0.01642
328.95585,0.01524
327.46606,0.01580
325.97627,0.01638
324.48649,0.01604
322.99670,0.03466
321.50691,0.05467
320.01712,0.07470
318.52733,0.08495
317.03754,0.07538
315.54776,0.06948
314.05797,0.06361
312.56818,0.01989
311.07839,0.04554
309.58860,0.03849
308.09881,0.03145
306.60902,0.00996
305.11924,0.02225
303.62945,0.01563
302.13966,0.00889
300.64987,0.00644
299.16008,0.00644
