1778.52000,0.01817
1777.03021,0.01957
1775.54042,0.02922
1774.05063,0.02560
1772.56085,0.01948
1771.07106,0.02668
1769.58127,0.01237
1768.09148,0.00379
1766.60169,0.01486
1765.11190,0.02628
1763.62212,0.02347
1762.13233,0.01689
1760.64254,0.02997
1759.15275,0.01964
1757.66296,0.01377
1756.17317,0.02217
1754.68339,0.03028
1753.19360,0.01404
1751.70381,0.01524
1750.21402,0.01520
1748.72423,0.00252
1747.23444,0.01274
1745.74465,0.02236
1744.25487,0.01649
1742.76508,0.01634
1741.27529,0.02256
1739.78550,0.01107
1738.29571,0.00878
1736.80592,0.03128
1735.31614,0.01741
1733.82635,0.01274
1732.33656,0.01252
1730.84677,0.00126
1729.35698,0.02199
1727.86719,0.02122
1726.37740,0.02047
1724.88762,0.01311
1723.39783,0.01811
1721.90804,0.01618
1720.41825,0.01807
1718.92846,0.00796
1717.43867,0.00452
1715.94889,0.01862
1714.45910,0.04256
1712.96931,0.01747
1711.47952,0.00379
1709.98973,0.01950
1708.49994,0.01213
1707.01016,0.01903
1705.52037,0.02596
1704.03058,0.01645
1702.54079,0.01709
1701.05100,0.01745
1699.56121,0.01498
1698.07142,0.03184
1696.58164,0.05918
1695.09185,0.03842
1693.60206,0.04840
1692.11227,0.04574
1690.62248,0.04469
1689.13269,0.05601
1687.64291,0.06293
1686.15312,0.07367
1684.66333,0.06385
1683.17354,0.07116
1681.68375,0.07216
1680.19396,0.06306
1678.70417,0.06411
1677.21439,0.07975
1675.72460,0.07421
1674.23481,0.09654
1672.74502,0.09707
1671.25523,0.08748
1669.76544,0.09914
1668.27566,0.10037
1666.78587,0.09054
1665.29608,0.10829
1663.80629,0.12890
1662.31650,0.13847
1660.82671,0.12843
1659.33693,0.14216
1657.84714,0.13629
1656.35735,0.11936
1654.86756,0.11956
1653.37777,0.11693
1651.88798,0.10704
1650.39819,0.11808
1648.90841,0.12154
1647.41862,0.10698
1645.92883,0.10606
1644.43904,0.10517
1642.94925,0.10968
1641.45946,0.10473
1639.96968,0.10454
1638.47989,0.10628
1636.99010,0.12514
1635.50031,0.11712
1634.01052,0.11989
1632.52073,0.11287
1631.03094,0.10967
1629.54116,0.11790
1628.05137,0.11823
1626.56158,0.11448
1625.07179,0.12595
1623.58200,0.13016
1622.09221,0.13661
1620.60243,0.13423
1619.11264,0.12111
1617.62285,0.10864
1616.13306,0.11425
1614.64327,0.12399
1613.15348,0.10464
1611.66370,0.13723
1610.17391,0.13756
1608.68412,0.13474
1607.19433,0.11011
1605.70454,0.11875
1604.21475,0.12313
1602.72496,0.12754
1601.23518,0.11789
1599.74539,0.11618
1598.25560,0.12684
1596.76581,0.11283
1595.27602,0.10455
1593.78623,0.10895
1592.29645,0.10452
1590.80666,0.09758
1589.31687,0.11314
1587.82708,0.09929
1586.33729,0.10066
1584.84750,0.09730
1583.35771,0.09682
1581.86793,0.08782
1580.37814,0.10258
1578.88835,0.08888
1577.39856,0.07457
1575.90877,0.08023
1574.41898,0.06629
1572.92920,0.06124
1571.43941,0.05590
1569.94962,0.05312
1568.45983,0.05036
1566.97004,0.04604
1565.48025,0.04017
1563.99047,0.04603
1562.50068,0.04464
1561.01089,0.04391
1559.52110,0.03751
1558.03131,0.03841
1556.54152,0.03110
1555.05173,0.04155
1553.56195,0.03652
1552.07216,0.02454
1550.58237,0.03127
1549.09258,0.02694
1547.60279,0.01441
1546.11300,0.02375
1544.62322,0.00620
1543.13343,0.01211
1541.64364,0.00379
1540.15385,0.00624
1538.66406,0.00870
1537.17427,0.01230
1535.68448,0.02321
1534.19470,0.01705
1532.70491,0.02643
1531.21512,0.01557
1529.72533,0.02215
1528.23554,0.02115
1526.74575,0.03664
1525.25597,0.03285
1523.76618,0.02719
1522.27639,0.03706
1520.78660,0.03904
1519.29681,0.04073
1517.80702,0.01776
1516.31724,0.01728
1514.82745,0.04817
1513.33766,0.04633
1511.84787,0.04451
1510.35808,0.03495
1508.86829,0.04600
1507.37850,0.05107
1505.88872,0.03874
1504.39893,0.07234
1502.90914,0.05532
1501.41935,0.08138
1499.92956,0.06536
1498.43977,0.06835
1496.94999,0.05872
1495.46020,0.09912
1493.97041,0.11169
1492.48062,0.12460
1490.99083,0.13975
1489.50104,0.14765
1488.01125,0.14497
1486.52147,0.14232
1485.03168,0.16897
1483.54189,0.17887
1482.05210,0.24198
1480.56231,0.24465
1479.07252,0.28691
1477.58274,0.32161
1476.09295,0.32087
1474.60316,0.31510
1473.11337,0.34512
1471.62358,0.31629
1470.13379,0.34130
1468.64401,0.35747
1467.15422,0.39392
1465.66443,0.39874
1464.17464,0.40359
1462.68485,0.45437
1461.19506,0.48396
1459.70527,0.51833
1458.21549,0.57646
1456.72570,0.64760
1455.23591,0.74535
1453.74612,0.77380
1452.25633,0.85546
1450.76654,0.86149
1449.27676,0.88401
1447.78697,0.83374
1446.29718,0.80978
1444.80739,0.78504
1443.31760,0.76034
1441.82781,0.70194
1440.33802,0.62110
1438.84824,0.57289
1437.35845,0.52375
1435.86866,0.51706
1434.37887,0.56800
1432.88908,0.60409
1431.39929,0.67724
1429.90951,0.75549
1428.41972,0.80558
1426.92993,0.87058
1425.44014,0.91661
1423.95035,0.93576
1422.46056,0.95494
1420.97078,0.98142
1419.48099,1.03895
1417.99120,1.06073
1416.50141,1.04139
1415.01162,1.01385
1413.52183,0.93505
1412.03204,0.83570
1410.54226,0.77784
1409.05247,0.71431
1407.56268,0.66473
1406.07289,0.60822
1404.58310,0.57341
1403.09331,0.53863
1401.60353,0.49517
1400.11374,0.42324
1398.62395,0.36876
1397.13416,0.31746
1395.64437,0.26745
1394.15458,0.25324
1392.66479,0.20993
1391.17501,0.16919
1389.68522,0.12909
1388.19543,0.09504
1386.70564,0.08508
1385.21585,0.07513
1383.72606,0.03863
1382.23628,0.01766
1380.74649,0.04166
1379.25670,0.02296
1377.76691,0.02675
1376.27712,0.00588
1374.78733,0.00783
1373.29755,0.00379
1371.80776,0.02456
1370.31797,0.01813
1368.82818,0.01584
1367.33839,0.01358
1365.84860,0.01102
1364.35881,0.02369
1362.86903,0.01263
1361.37924,0.03959
1359.88945,0.07038
1358.39966,0.09676
1356.90987,0.13139
1355.42008,0.18473
1353.93030,0.25676
1352.44051,0.28261
1350.95072,0.30848
1349.46093,0.41478
1347.97114,0.50718
1346.48135,0.58884
1344.99156,0.65787
1343.50178,0.75858
1342.01199,0.76497
1340.52220,0.84009
1339.03241,0.88389
1337.54262,0.92899
1336.05283,0.95290
1334.56305,0.97684
1333.07326,1.01314
1331.58347,1.02542
1330.09368,0.99309
1328.60389,0.97503
1327.11410,0.99656
1325.62432,0.95797
1324.13453,0.98589
1322.64474,0.91665
1321.15495,0.86611
1319.66516,0.81828
1318.17537,0.77049
1316.68558,0.71591
1315.19580,0.66452
1313.70601,0.61949
1312.21622,0.61786
1310.72643,0.57826
1309.23664,0.51969
1307.74685,0.52573
1306.25707,0.47640
1304.76728,0.44466
1303.27749,0.41294
1301.78770,0.36558
1300.29791,0.31128
1298.80812,0.25321
1297.31834,0.21796
1295.82855,0.20109
1294.33876,0.16652
1292.84897,0.13831
1291.35918,0.13228
1289.86939,0.12011
1288.37960,0.10796
1286.88982,0.12321
1285.40003,0.09608
1283.91024,0.08448
1282.42045,0.06404
1280.93066,0.08035
1279.44087,0.07009
1277.95109,0.05353
1276.46130,0.04238
1274.97151,0.04707
1273.48172,0.05180
1271.99193,0.02014
1270.50214,0.04866
1269.01235,0.02022
1267.52257,0.03201
1266.03278,0.02641
1264.54299,0.02876
1263.05320,0.02575
1261.56341,0.02592
1260.07362,0.02613
1258.58384,0.03491
1257.09405,0.00984
1255.60426,0.02595
1254.11447,0.01897
1252.62468,0.00379
1251.13489,0.00463
1249.64511,0.00960
1248.15532,0.02537
1246.66553,0.02802
1245.17574,0.03070
1243.68595,0.01488
1242.19616,0.02695
1240.70637,0.04474
1239.21659,0.02457
1237.72680,0.00379
1236.23701,0.00494
1234.74722,0.01814
1233.25743,0.02012
1231.76764,0.02214
1230.27786,0.03256
1228.78807,0.03130
1227.29828,0.03165
1225.80849,0.01778
1224.31870,0.01216
1222.82891,0.01828
1221.33912,0.02443
1219.84934,0.02459
1218.35955,0.02477
1216.86976,0.04176
1215.37997,0.05308
1213.89018,0.07359
1212.40039,0.07483
1210.91061,0.08527
1209.42082,0.07611
1207.93103,0.07663
1206.44124,0.07718
1204.95145,0.07886
1203.46166,0.07645
1201.97188,0.07090
1200.48209,0.07930
1198.99230,0.07349
1197.50251,0.05187
1196.01272,0.02490
1194.52293,0.02707
1193.03314,0.02927
1191.54336,0.01979
1190.05357,0.04451
1188.56378,0.04584
1187.07399,0.04086
1185.58420,0.00330
1184.09441,0.00566
1182.60463,0.00471
1181.11484,0.00379
1179.62505,0.02930
1178.13526,0.04566
1176.64547,0.02437
1175.15568,0.02622
1173.66589,0.00404
1172.17611,0.00910
1170.68632,0.00643
1169.19653,0.00379
1167.70674,0.02957
1166.21695,0.03099
1164.72716,0.02801
1163.23738,0.03044
1161.74759,0.03447
1160.25780,0.07018
1158.76801,0.07158
1157.27822,0.07300
1155.78843,0.07998
1154.29865,0.08953
1152.80886,0.10637
1151.31907,0.10711
1149.82928,0.11134
1148.33949,0.13080
1146.84970,0.14696
1145.35991,0.16315
1143.87013,0.14691
1142.38034,0.17660
1140.89055,0.16959
1139.40076,0.19269
1137.91097,0.23765
1136.42118,0.25319
1134.93140,0.24138
1133.44161,0.22960
1131.95182,0.27023
1130.46203,0.27068
1128.97224,0.29585
1127.48245,0.28971
1125.99266,0.29309
1124.50288,0.28922
1123.01309,0.29138
1121.52330,0.29357
1120.03351,0.26920
1118.54372,0.28821
1117.05393,0.28193
1115.56415,0.27631
1114.07436,0.26470
1112.58457,0.26799
1111.09478,0.27131
1109.60499,0.25819
1108.11520,0.27454
1106.62542,0.27224
1105.13563,0.26363
1103.64584,0.23510
1102.15605,0.25124
1100.66626,0.25473
1099.17647,0.25826
1097.68668,0.25421
1096.19690,0.24448
1094.70711,0.25979
1093.21732,0.23841
1091.72753,0.24966
1090.23774,0.24004
1088.74795,0.23044
1087.25817,0.23638
1085.76838,0.20721
1084.27859,0.21637
1082.78880,0.20941
1081.29901,0.24426
1079.80922,0.24590
1078.31943,0.24376
1076.82965,0.24165
1075.33986,0.25508
1073.85007,0.27486
1072.36028,0.28771
1070.87049,0.29551
1069.38070,0.30366
1067.89092,0.34111
1066.40113,0.37859
1064.91134,0.43525
1063.42155,0.59670
1061.93176,0.68317
1060.44197,0.80257
1058.95219,0.92802
1057.46240,0.97325
1055.97261,1.01850
1054.48282,1.09306
1052.99303,1.15784
1051.50324,1.14382
1050.01345,1.16179
1048.52367,1.21461
1047.03388,1.20383
1045.54409,1.19308
1044.05430,1.06839
1042.56451,0.93138
1041.07472,0.85075
1039.58494,0.78660
1038.09515,0.74558
1036.60536,0.70269
1035.11557,0.65983
1033.62578,0.58249
1032.13599,0.47731
1030.64620,0.42440
1029.15642,0.38385
1027.66663,0.34966
1026.17684,0.31550
1024.68705,0.24242
1023.19726,0.22002
1021.70747,0.19290
1020.21769,0.15599
1018.72790,0.16943
1017.23811,0.16249
1015.74832,0.15556
1014.25853,0.15484
1012.76874,0.14401
1011.27896,0.15854
1009.78917,0.14111
1008.29938,0.11770
1006.80959,0.09147
1005.31980,0.06526
1003.83001,0.05110
1002.34022,0.03792
1000.85044,0.04122
999.36065,0.05595
997.87086,0.05582
996.38107,0.05572
994.89128,0.06673
993.40149,0.09485
991.91171,0.12648
990.42192,0.12838
988.93213,0.15595
987.44234,0.14587
985.95255,0.13582
984.46276,0.16220
982.97297,0.17056
981.48319,0.12513
979.99340,0.10220
978.50361,0.08832
977.01382,0.07447
975.52403,0.08169
974.03424,0.05285
972.54446,0.02530
971.05467,0.02626
969.56488,0.01744
968.07509,0.01846
966.58530,0.01950
965.09551,0.00379
963.60573,0.01155
962.11594,0.01743
960.62615,0.00624
959.13636,0.01265
957.64657,0.01908
956.15678,0.03013
954.66699,0.03487
953.17721,0.01590
951.68742,0.06026
950.19763,0.06698
948.70784,0.07373
947.21805,0.09601
945.72826,0.07938
944.23848,0.05138
942.74869,0.08925
941.25890,0.10941
939.76911,0.12691
938.27932,0.14444
936.78953,0.16690
935.29974,0.21661
933.80996,0.23912
932.32017,0.22747
930.83038,0.23388
929.34059,0.24032
927.85080,0.23065
926.36101,0.29602
924.87123,0.29937
923.38144,0.37936
921.89165,0.42328
920.40186,0.46723
918.91207,0.52893
917.42228,0.71379
915.93250,0.86892
914.44271,1.08233
912.95292,1.19351
911.46313,1.30472
909.97334,1.52896
908.48355,1.74816
906.99376,1.91263
905.50398,1.97013
904.01419,1.95500
902.52440,1.93990
901.03461,1.99843
899.54482,2.00000
898.05503,1.86421
896.56525,1.67654
895.07546,1.55204
893.58567,1.42757
892.09588,1.10798
890.60609,0.92294
889.11630,0.69012
887.62651,0.55103
886.13673,0.48921
884.64694,0.42741
883.15715,0.29916
881.66736,0.20449
880.17757,0.16207
878.68778,0.13836
877.19800,0.11467
875.70821,0.07075
874.21842,0.04838
872.72863,0.02541
871.23884,0.02271
869.74905,0.01324
868.25927,0.00379
866.76948,0.02796
865.27969,0.05121
863.78990,0.06562
862.30011,0.07499
860.81032,0.08518
859.32053,0.09539
857.83075,0.08775
856.34096,0.10798
854.85117,0.12254
853.36138,0.13428
851.87159,0.14700
850.38180,0.15974
848.89202,0.19245
847.40223,0.23942
845.91244,0.23673
844.42265,0.25400
842.93286,0.27130
841.44307,0.27280
839.95329,0.29426
838.46350,0.29518
836.97371,0.32999
835.48392,0.32890
833.99413,0.32783
832.50434,0.33835
831.01455,0.29919
829.52477,0.30785
828.03498,0.28521
826.54519,0.26021
825.05540,0.23524
823.56561,0.19399
822.07582,0.21640
820.58604,0.17710
819.09625,0.18088
817.60646,0.18468
816.11667,0.15717
814.62688,0.15976
813.13709,0.17282
811.64730,0.15837
810.15752,0.15961
808.66773,0.16088
807.17794,0.17942
805.68815,0.19103
804.19836,0.16594
802.70857,0.17760
801.21879,0.18928
799.72900,0.17344
798.23921,0.15606
796.74942,0.17668
795.25963,0.17612
793.76984,0.17558
792.28006,0.20641
790.79027,0.24328
789.30048,0.25579
787.81069,0.27309
786.32090,0.26920
784.83111,0.26533
783.34132,0.32259
781.85154,0.37100
780.36175,0.44129
778.87196,0.47282
777.38217,0.50437
775.89238,0.48420
774.40259,0.50141
772.91281,0.52687
771.42302,0.49664
769.93323,0.46644
768.44344,0.42139
766.95365,0.35705
765.46386,0.33010
763.97407,0.28385
762.48429,0.26502
760.99450,0.24621
759.50471,0.19308
758.01492,0.16182
756.52513,0.12742
755.03534,0.12960
753.54556,0.13181
752.05577,0.12471
750.56598,0.08914
749.07619,0.07196
747.58640,0.07902
746.09661,0.08610
744.60683,0.07153
743.11704,0.05192
741.62725,0.02600
740.13746,0.02797
738.64767,0.02996
737.15788,0.04590
735.66809,0.03845
734.17831,0.00379
732.68852,0.01301
731.19873,0.02226
729.70894,0.01475
728.21915,0.03987
726.72936,0.02387
725.23958,0.01042
723.74979,0.01299
722.26000,0.01558
720.77021,0.00379
719.28042,0.01277
717.79063,0.00689
716.30084,0.01212
714.81106,0.01738
713.32127,0.04545
711.83148,0.02765
710.34169,0.02380
708.85190,0.02663
707.36211,0.02948
705.87233,0.03393
704.38254,0.04095
702.89275,0.05970
701.40296,0.07168
699.91317,0.08368
698.42338,0.08446
696.93360,0.09256
695.44381,0.12315
693.95402,0.12686
692.46423,0.13060
690.97444,0.14386
689.48465,0.15810
687.99486,0.18344
686.50508,0.19567
685.01529,0.20792
683.52550,0.27480
682.03571,0.29898
680.54592,0.31938
679.05613,0.31544
677.56635,0.31152
676.07656,0.30034
674.58677,0.25975
673.09698,0.23818
671.60719,0.21853
670.11740,0.19891
668.62761,0.20812
667.13783,0.18381
665.64804,0.17993
664.15825,0.17608
662.66846,0.13443
661.17867,0.12446
659.68888,0.09742
658.19910,0.07927
656.70931,0.06114
655.21952,0.03545
653.72973,0.02687
652.23994,0.04554
650.75015,0.04350
649.26037,0.04149
647.77058,0.05707
646.28079,0.04514
644.79100,0.05444
643.30121,0.06140
641.81142,0.06838
640.32163,0.07649
638.83185,0.07007
637.34206,0.02600
635.85227,0.01994
634.36248,0.01391
632.87269,0.00379
631.38290,0.01576
629.89312,0.01256
628.40333,0.01840
626.91354,0.02427
625.42375,0.00278
623.93396,-0.00000
622.44417,0.00156
620.95438,0.00315
619.46460,0.03452
617.97481,0.05895
616.48502,0.10841
614.99523,0.11769
613.50544,0.12701
612.01565,0.14995
610.52587,0.20078
609.03608,0.22505
607.54629,0.24839
606.05650,0.27176
604.56671,0.29452
603.07692,0.35244
601.58714,0.38237
600.09735,0.41233
598.60756,0.47571
597.11777,0.46314
595.62798,0.48954
594.13819,0.47528
592.64840,0.46105
591.15862,0.42326
589.66883,0.36334
588.17904,0.28794
586.68925,0.25149
585.19946,0.21507
583.70967,0.17931
582.21989,0.14294
580.73010,0.13113
579.24031,0.11934
577.75052,0.07830
576.26073,0.08572
574.77094,0.10234
573.28115,0.08686
571.79137,0.07140
570.30158,0.07101
568.81179,0.10071
567.32200,0.11065
565.83221,0.12062
564.34242,0.13426
562.85264,0.16216
561.36285,0.16224
559.87306,0.17437
558.38327,0.18652
556.89348,0.20250
555.40369,0.22768
553.91391,0.23738
552.42412,0.24710
550.93433,0.26951
549.44454,0.26504
547.95475,0.25870
546.46496,0.26963
544.97517,0.28059
543.48539,0.30155
541.99560,0.30227
540.50581,0.32597
539.01602,0.34969
537.52623,0.41633
536.03644,0.43995
534.54666,0.50379
533.05687,0.50846
531.56708,0.51316
530.07729,0.56537
528.58750,0.57202
527.09771,0.61019
525.60792,0.64839
524.11814,0.72539
522.62835,0.77013
521.13856,0.82945
519.64877,0.84733
518.15898,0.86524
516.66919,0.88254
515.17941,0.89543
513.68962,0.89790
512.19983,0.90040
510.71004,0.85133
509.22025,0.80988
507.73046,0.77700
506.24068,0.70901
504.75089,0.64104
503.26110,0.50631
501.77131,0.40485
500.28152,0.35389
498.79173,0.30297
497.30194,0.23861
495.81216,0.17460
494.32237,0.17076
492.83258,0.16694
491.34279,0.12168
489.85300,0.07106
488.36321,0.07903
486.87343,0.09194
485.38364,0.10486
483.89385,0.11038
482.40406,0.12098
480.91427,0.10993
479.42448,0.09890
477.93469,0.13238
476.44491,0.20133
474.95512,0.19972
473.46533,0.19813
471.97554,0.25323
470.48575,0.26341
468.99596,0.24132
467.50618,0.22211
466.01639,0.20292
464.52660,0.17268
463.03681,0.10796
461.54702,0.09329
460.05723,0.07863
458.56745,0.04565
457.07766,0.03769
455.58787,0.03641
454.09808,0.03516
452.60829,0.01873
451.11850,0.01246
449.62871,0.01381
448.13893,0.01519
446.64914,0.02578
445.15935,0.02911
443.66956,0.00999
442.17977,0.00688
440.68998,0.00379
439.20020,0.01115
437.71041,0.05146
436.22062,0.03909
434.73083,0.02675
433.24104,0.03991
431.75125,0.02207
430.26146,0.02690
428.77168,0.03175
427.28189,0.04881
425.79210,0.07856
424.30231,0.06497
422.81252,0.05140
421.32273,0.05464
419.83295,0.05632
418.34316,0.03729
416.85337,0.01828
415.36358,0.04061
413.87379,0.03321
412.38400,0.03391
410.89422,0.03464
409.40443,0.01877
407.91464,0.03141
406.42485,0.02287
404.93506,0.02148
403.44527,0.02012
401.95548,0.04205
400.46570,0.00924
398.97591,0.00747
397.48612,0.00574
395.99633,0.01826
394.50654,0.02163
393.01675,0.03246
391.52697,0.04332
390.03718,0.03854
388.54739,0.01447
387.05760,0.00912
385.56781,0.00379
384.07802,0.00755
382.58824,0.01292
381.09845,0.01736
379.60866,0.02183
378.11887,0.04089
376.62908,0.02610
375.13929,0.03729
373.64950,0.04851
372.15972,0.04107
370.66993,0.01087
369.18014,0.01818
367.69035,0.02552
366.20056,0.03098
364.71077,0.03424
363.22099,0.04973
361.73120,0.06523
360.24141,0.06510
358.75162,0.04979
357.26183,0.04559
355.77204,0.04142
354.28225,0.03379
352.79247,0.07461
351.30268,0.08349
349.81289,0.09240
348.32310,0.08487
346.83331,0.09129
345.34352,0.06735
343.85374,0.04344
342.36395,0.01480
340.87416,0.04191
339.38437,0.04244
337.89458,0.04301
336.40479,0.03758
334.91501,0.04991
333.42522,0.04137
331.93543,0.03285
330.44564,0.01993
328.95585,0.00735
327.46606,0.00556
325.97627,0.00379
324.48649,0.00708
322.99670,0.05852
321.50691,0.08528
320.01712,0.11207
318.52733,0.09742
317.03754,0.12173
315.54776,0.12454
314.05797,0.12738
312.56818,0.05775
311.07839,0.05114
309.58860,0.04693
308.09881,0.04275
306.60902,0.06566
305.11924,0.06105
303.62945,0.03241
302.13966,0.00379
300.64987,0.03164
299.16008,0.00379
