1778.52000,0.01822
1777.03021,0.01007
1775.54042,0.00573
1774.05063,0.01729
1772.56085,0.02207
1771.07106,0.02007
1769.58127,0.01319
1768.09148,0.01540
1766.60169,0.00516
1765.11190,0.03237
1763.62212,0.00970
1762.13233,0.03130
1760.64254,0.02267
1759.15275,0.02692
1757.66296,0.02440
1756.17317,0.01849
1754.68339,0.01829
1753.19360,0.02415
1751.70381,0.02551
1750.21402,0.02273
1748.72423,0.01696
1747.23444,0.00516
1745.74465,0.02607
1744.25487,0.01601
1742.76508,0.02563
1741.27529,0.01637
1739.78550,0.02227
1738.29571,0.02818
1736.80592,0.02014
1735.31614,0.02460
1733.82635,0.01774
1732.33656,0.02149
1730.84677,0.00258
1729.35698,0.00222
1727.86719,0.00000
1726.37740,0.00396
1724.88762,0.00530
1723.39783,0.00439
1721.90804,0.00351
1720.41825,0.00417
1718.92846,0.00409
1717.43867,0.01614
1715.94889,0.00516
1714.45910,0.02357
1712.96931,0.01138
1711.47952,0.01547
1709.98973,0.02375
1708.49994,0.01429
1707.01016,0.01354
1705.52037,0.01282
1704.03058,0.01099
1702.54079,0.01562
1701.05100,0.02027
1699.56121,0.03137
1698.07142,0.01944
1696.58164,0.03135
1695.09185,0.03875
1693.60206,0.04126
1692.11227,0.02980
1690.62248,0.03652
1689.13269,0.04931
1687.64291,0.04965
1686.15312,0.07157
1684.66333,0.05533
1683.17354,0.06217
1681.68375,0.07245
1680.19396,0.05552
1678.70417,0.06925
1677.21439,0.06826
1675.72460,0.07939
1674.23481,0.07807
1672.74502,0.07262
1671.25523,0.08458
1669.76544,0.09657
1668.27566,0.12333
1666.78587,0.09227
1665.29608,0.08278
1663.80629,0.10546
1662.31650,0.11417
1660.82671,0.11043
1659.33693,0.12222
1657.84714,0.13857
1656.35735,0.10315
1654.86756,0.09838
1653.37777,0.09515
1651.88798,0.10517
1650.39819,0.10161
1648.90841,0.10753
1647.41862,0.08852
1645.92883,0.09449
1644.43904,0.10048
1642.94925,0.07815
1641.45946,0.10234
1639.96968,0.07514
1638.47989,0.07859
1636.99010,0.09643
1635.50031,0.08707
1634.01052,0.08303
1632.52073,0.07902
1631.03094,0.08865
1629.54116,0.10359
1628.05137,0.11515
1626.56158,0.11654
1625.07179,0.11114
1623.58200,0.12089
1622.09221,0.12008
1620.60243,0.10909
1619.11264,0.09056
1617.62285,0.09853
1616.13306,0.08497
1614.64327,0.10886
1613.15348,0.08778
1611.66370,0.10984
1610.17391,0.11415
1608.68412,0.11621
1607.19433,0.09562
1605.70454,0.09320
1604.21475,0.10441
1602.72496,0.11566
1601.23518,0.07551
1599.74539,0.10305
1598.25560,0.07619
1596.76581,0.09169
1595.27602,0.08642
1593.78623,0.08534
1592.29645,0.11264
1590.80666,0.09346
1589.31687,0.06901
1587.82708,0.06236
1586.33729,0.08484
1584.84750,0.07370
1583.35771,0.08906
1581.86793,0.11086
1580.37814,0.09677
1578.88835,0.08876
1577.39856,0.07926
1575.90877,0.08302
1574.41898,0.07811
1572.92920,0.05281
1571.43941,0.05135
1569.94962,0.05748
1568.45983,0.06363
1566.97004,0.04259
1565.48025,0.02044
1563.99047,0.02440
1562.50068,0.04994
1561.01089,0.04601
1559.52110,0.03493
1558.03131,0.03597
1556.54152,0.01624
1555.05173,0.03548
1553.56195,0.01202
1552.07216,0.02336
1550.58237,0.01697
1549.09258,0.03290
1547.60279,0.00955
1546.11300,0.00361
1544.62322,0.01155
1543.13343,0.00516
1541.64364,0.00907
1540.15385,0.01282
1538.66406,0.01659
1537.17427,0.02663
1535.68448,0.00796
1534.19470,0.02875
1532.70491,0.01969
1531.21512,0.03448
1529.72533,0.01943
1528.23554,0.01651
1526.74575,0.02343
1525.25597,0.03719
1523.76618,0.04341
1522.27639,0.03643
1520.78660,0.03627
1519.29681,0.03879
1517.80702,0.01109
1516.31724,0.03748
1514.82745,0.03062
1513.33766,0.03494
1511.84787,0.03928
1510.35808,0.03855
1508.86829,0.04200
1507.37850,0.03225
1505.88872,0.02025
1504.39893,0.02491
1502.90914,0.04812
1501.41935,0.03847
1499.92956,0.05115
1498.43977,0.05591
1496.94999,0.06637
1495.46020,0.06400
1493.97041,0.08547
1492.48062,0.08845
1490.99083,0.09598
1489.50104,0.12396
1488.01125,0.12758
1486.52147,0.13122
1485.03168,0.11164
1483.54189,0.14615
1482.05210,0.16707
1480.56231,0.16949
1479.07252,0.20483
1477.58274,0.22885
1476.09295,0.21547
1474.60316,0.24446
1473.11337,0.27990
1471.62358,0.27453
1470.13379,0.24802
1468.64401,0.27560
1467.15422,0.30282
1465.66443,0.31759
1464.17464,0.33239
1462.68485,0.38956
1461.19506,0.41537
1459.70527,0.47789
1458.21549,0.51925
1456.72570,0.60450
1455.23591,0.62172
1453.74612,0.67147
1452.25633,0.74810
1450.76654,0.74271
1449.27676,0.78990
1447.78697,0.75999
1446.29718,0.72821
1444.80739,0.69589
1443.31760,0.66360
1441.82781,0.64022
1440.33802,0.56847
1438.84824,0.50960
1437.35845,0.46134
1435.86866,0.45205
1434.37887,0.48588
1432.88908,0.51218
1431.39929,0.57744
1429.90951,0.64121
1428.41972,0.71409
1426.92993,0.81723
1425.44014,0.85159
1423.95035,0.85290
1422.46056,0.85423
1420.97078,0.89132
1419.48099,0.94166
1417.99120,1.00866
1416.50141,0.99479
1415.01162,0.97564
1413.52183,0.92061
1412.03204,0.87996
1410.54226,0.80305
1409.05247,0.70424
1407.56268,0.64628
1406.07289,0.56906
1404.58310,0.53857
1403.09331,0.50809
1401.60353,0.45893
1400.11374,0.40375
1398.62395,0.38034
1397.13416,0.32861
1395.64437,0.26405
1394.15458,0.24262
1392.66479,0.18794
1391.17501,0.17525
1389.68522,0.12553
1388.19543,0.09777
1386.70564,0.08610
1385.21585,0.07446
1383.72606,0.04829
1382.23628,0.02479
1380.74649,0.04176
1379.25670,0.02209
1377.76691,0.02929
1376.27712,0.00325
1374.78733,0.01503
1373.29755,0.02571
1371.80776,0.01146
1370.31797,0.01198
1368.82818,0.00855
1367.33839,0.00516
1365.84860,0.00818
1364.35881,0.02485
1362.86903,0.03398
1361.37924,0.06317
1359.88945,0.09314
1358.39966,0.10575
1356.90987,0.15392
1355.42008,0.18435
1353.93030,0.24958
1352.44051,0.26513
1350.95072,0.28070
1349.46093,0.38154
1347.97114,0.45784
1346.48135,0.55421
1344.99156,0.60523
1343.50178,0.66119
1342.01199,0.70923
1340.52220,0.72139
1339.03241,0.81637
1337.54262,0.88150
1336.05283,0.91339
1334.56305,0.94531
1333.07326,1.01317
1331.58347,1.03644
1330.09368,1.02004
1328.60389,1.02862
1327.11410,0.99980
1325.62432,0.97818
1324.13453,0.95999
1322.64474,0.91347
1321.15495,0.81027
1319.66516,0.78725
1318.17537,0.76425
1316.68558,0.69817
1315.19580,0.63212
1313.70601,0.58878
1312.21622,0.53791
1310.72643,0.47874
1309.23664,0.45664
1307.74685,0.43420
1306.25707,0.39136
1304.76728,0.36595
1303.27749,0.34055
1301.78770,0.30951
1300.29791,0.26678
1298.80812,0.22294
1297.31834,0.20294
1295.82855,0.16444
1294.33876,0.11122
1292.84897,0.10453
1291.35918,0.09295
1289.86939,0.09009
1288.37960,0.08726
1286.88982,0.07424
1285.40003,0.10095
1283.91024,0.06794
1282.42045,0.05878
1280.93066,0.06893
1279.44087,0.08024
1277.95109,0.04356
1276.46130,0.05416
1274.97151,0.04834
1273.48172,0.04255
1271.99193,0.05474
1270.50214,0.04200
1269.01235,0.02891
1267.52257,0.03059
1266.03278,0.02776
1264.54299,0.04612
1263.05320,0.03881
1261.56341,0.03454
1260.07362,0.03030
1258.58384,0.02419
1257.09405,0.01924
1255.60426,0.01357
1254.11447,0.05290
1252.62468,0.03442
1251.13489,0.02239
1249.64511,0.01379
1248.15532,0.02336
1246.66553,0.01425
1245.17574,0.00516
1243.68595,0.03537
1242.19616,0.04596
1240.70637,0.05317
1239.21659,0.04339
1237.72680,0.03439
1236.23701,0.03335
1234.74722,0.02668
1233.25743,0.02569
1231.76764,0.02473
1230.27786,0.04082
1228.78807,0.02516
1227.29828,0.04130
1225.80849,0.00490
1224.31870,0.00974
1222.82891,0.00516
1221.33912,0.05655
1219.84934,0.05165
1218.35955,0.04676
1216.86976,0.04947
1215.37997,0.04690
1213.89018,0.07385
1212.40039,0.08609
1210.91061,0.06659
1209.42082,0.08114
1207.93103,0.05961
1206.44124,0.03810
1204.95145,0.08146
1203.46166,0.05680
1201.97188,0.06467
1200.48209,0.05820
1198.99230,0.04949
1197.50251,0.02493
1196.01272,0.03252
1194.52293,0.03145
1193.03314,0.03040
1191.54336,0.02786
1190.05357,0.01023
1188.56378,0.01644
1187.07399,0.02797
1185.58420,0.02289
1184.09441,0.00574
1182.60463,0.00543
1181.11484,0.00516
1179.62505,0.02892
1178.13526,0.04100
1176.64547,0.05083
1175.15568,0.02628
1173.66589,0.00516
1172.17611,0.00564
1170.68632,0.01580
1169.19653,0.02598
1167.70674,0.01142
1166.21695,0.02675
1164.72716,0.02661
1163.23738,0.02877
1161.74759,0.03888
1160.25780,0.03958
1158.76801,0.04199
1157.27822,0.04444
1155.78843,0.04256
1154.29865,0.06150
1152.80886,0.06194
1151.31907,0.09114
1149.82928,0.09239
1148.33949,0.10349
1146.84970,0.11783
1145.35991,0.13220
1143.87013,0.12409
1142.38034,0.13681
1140.89055,0.13670
1139.40076,0.16534
1137.91097,0.14638
1136.42118,0.19284
1134.93140,0.19302
1133.44161,0.19322
1131.95182,0.18986
1130.46203,0.20807
1128.97224,0.20174
1127.48245,0.17917
1125.99266,0.20388
1124.50288,0.22938
1123.01309,0.22296
1121.52330,0.21656
1120.03351,0.21604
1118.54372,0.21556
1117.05393,0.20980
1115.56415,0.22789
1114.07436,0.21349
1112.58457,0.21518
1111.09478,0.21690
1109.60499,0.19955
1108.11520,0.19471
1106.62542,0.19631
1105.13563,0.21080
1103.64584,0.18863
1102.15605,0.18880
1100.66626,0.19259
1099.17647,0.19640
1097.68668,0.17018
1096.19690,0.15004
1094.70711,0.19608
1093.21732,0.17259
1091.72753,0.15781
1090.23774,0.16518
1088.74795,0.17257
1087.25817,0.15598
1085.76838,0.13299
1084.27859,0.14216
1082.78880,0.13850
1081.29901,0.11596
1079.80922,0.14411
1078.31943,0.14544
1076.82965,0.14680
1075.33986,0.15045
1073.85007,0.15526
1072.36028,0.16842
1070.87049,0.17063
1069.38070,0.17287
1067.89092,0.18289
1066.40113,0.19293
1064.91134,0.24969
1063.42155,0.35940
1061.93176,0.41999
1060.44197,0.49951
1058.95219,0.60967
1057.46240,0.63102
1055.97261,0.65239
1054.48282,0.74260
1052.99303,0.75041
1051.50324,0.81609
1050.01345,0.80845
1048.52367,0.84432
1047.03388,0.84467
1045.54409,0.84505
1044.05430,0.83146
1042.56451,0.73171
1041.07472,0.65882
1039.58494,0.65287
1038.09515,0.58192
1036.60536,0.53293
1035.11557,0.48396
1033.62578,0.42858
1032.13599,0.38080
1030.64620,0.35005
1029.15642,0.29967
1027.66663,0.26085
1026.17684,0.22205
1024.68705,0.19216
1023.19726,0.17439
1021.70747,0.16648
1020.21769,0.11814
1018.72790,0.13221
1017.23811,0.12929
1015.74832,0.12640
1014.25853,0.09366
1012.76874,0.11161
1011.27896,0.13790
1009.78917,0.13549
1008.29938,0.13348
1006.80959,0.11505
1005.31980,0.09664
1003.83001,0.02174
1002.34022,0.01113
1000.85044,0.01038
999.36065,0.03385
997.87086,0.04015
996.38107,0.04647
994.89128,0.04658
993.40149,0.05162
991.91171,0.08656
990.42192,0.08259
988.93213,0.06390
987.44234,0.07245
985.95255,0.08102
984.46276,0.10475
982.97297,0.08956
981.48319,0.07742
979.99340,0.04073
978.50361,0.03620
977.01382,0.03170
975.52403,0.05029
974.03424,0.01861
972.54446,0.02439
971.05467,0.01697
969.56488,0.00503
968.07509,0.00669
966.58530,0.00837
965.09551,0.00516
963.60573,0.02545
962.11594,0.02347
960.62615,0.01848
959.13636,0.01692
957.64657,0.01539
956.15678,0.03884
954.66699,0.03547
953.17721,0.05745
951.68742,0.07077
950.19763,0.07598
948.70784,0.08122
947.21805,0.12825
945.72826,0.10613
944.23848,0.08026
942.74869,0.12661
941.25890,0.12309
939.76911,0.13642
938.27932,0.14978
936.78953,0.15389
935.29974,0.17996
933.80996,0.20681
932.32017,0.23634
930.83038,0.27137
929.34059,0.30642
927.85080,0.29595
926.36101,0.30970
924.87123,0.33859
923.38144,0.37431
921.89165,0.41025
920.40186,0.44622
918.91207,0.55083
917.42228,0.65130
915.93250,0.83006
914.44271,0.99259
912.95292,1.08974
911.46313,1.18691
909.97334,1.40585
908.48355,1.62481
906.99376,1.81204
905.50398,1.85260
904.01419,1.87845
902.52440,1.90432
901.03461,1.93929
899.54482,2.00000
898.05503,1.90913
896.56525,1.71923
895.07546,1.55960
893.58567,1.39999
892.09588,1.15233
890.60609,0.90960
889.11630,0.70773
887.62651,0.54331
886.13673,0.47022
884.64694,0.39716
883.15715,0.29785
881.66736,0.23220
880.17757,0.19230
878.68778,0.16187
877.19800,0.13146
875.70821,0.09239
874.21842,0.07110
872.72863,0.05250
871.23884,0.06491
869.74905,0.04938
868.25927,0.03387
866.76948,0.00516
865.27969,0.03382
863.78990,0.06137
862.30011,0.06475
860.81032,0.07686
859.32053,0.08899
857.83075,0.09396
856.34096,0.10652
854.85117,0.12893
853.36138,0.11659
851.87159,0.11410
850.38180,0.11163
848.89202,0.10542
847.40223,0.13174
845.91244,0.17925
844.42265,0.18672
842.93286,0.19422
841.44307,0.19606
839.95329,0.21457
838.46350,0.23197
836.97371,0.23087
835.48392,0.23811
833.99413,0.24538
832.50434,0.22734
831.01455,0.22332
829.52477,0.21895
828.03498,0.17981
826.54519,0.15243
825.05540,0.12506
823.56561,0.13591
822.07582,0.11314
820.58604,0.11043
819.09625,0.11322
817.60646,0.11605
816.11667,0.13231
814.62688,0.11118
813.13709,0.12523
811.64730,0.09356
810.15752,0.08989
808.66773,0.08625
807.17794,0.09927
805.68815,0.09946
804.19836,0.10459
802.70857,0.12184
801.21879,0.13912
799.72900,0.12504
798.23921,0.10381
796.74942,0.10453
795.25963,0.09714
793.76984,0.08979
792.28006,0.11742
790.79027,0.14925
789.30048,0.14329
787.81069,0.17554
786.32090,0.16736
784.83111,0.15921
783.34132,0.19948
781.85154,0.22427
780.36175,0.28046
778.87196,0.29510
777.38217,0.30976
775.89238,0.32822
774.40259,0.35692
772.91281,0.35503
771.42302,0.33727
769.93323,0.31955
768.44344,0.28521
766.95365,0.22595
765.46386,0.22985
763.97407,0.17668
762.48429,0.16702
760.99450,0.15739
759.50471,0.12207
758.01492,0.12685
756.52513,0.07835
755.03534,0.07733
753.54556,0.07633
752.05577,0.07365
750.56598,0.08688
749.07619,0.07026
747.58640,0.07314
746.09661,0.07605
744.60683,0.04098
743.11704,0.05131
741.62725,0.02991
740.13746,0.02536
738.64767,0.02083
737.15788,0.02748
735.66809,0.02546
734.17831,0.02876
732.68852,0.01923
731.19873,0.00972
729.70894,0.00516
728.21915,0.02903
726.72936,0.03364
725.23958,0.01749
723.74979,0.02197
722.26000,0.02647
720.77021,0.02892
719.28042,0.04462
717.79063,0.00516
716.30084,0.02550
714.81106,0.04587
713.32127,0.06419
711.83148,0.09349
710.34169,0.09674
708.85190,0.07241
707.36211,0.04810
705.87233,0.08356
704.38254,0.09409
702.89275,0.10426
701.40296,0.09613
699.91317,0.08802
698.42338,0.09411
696.93360,0.09796
695.44381,0.12074
693.95402,0.12389
692.46423,0.12706
690.97444,0.14387
689.48465,0.13650
687.99486,0.17151
686.50508,0.18291
685.01529,0.19433
683.52550,0.25021
682.03571,0.26565
680.54592,0.24823
679.05613,0.27035
677.56635,0.29249
676.07656,0.25775
674.58677,0.23363
673.09698,0.25225
671.60719,0.23555
670.11740,0.21888
668.62761,0.20582
667.13783,0.18523
665.64804,0.16882
664.15825,0.15243
662.66846,0.16254
661.17867,0.10953
659.68888,0.11742
658.19910,0.11343
656.70931,0.10946
655.21952,0.09625
653.72973,0.08193
652.23994,0.10469
650.75015,0.07549
649.26037,0.04632
647.77058,0.08163
646.28079,0.04665
644.79100,0.06122
643.30121,0.06277
641.81142,0.06435
640.32163,0.07219
638.83185,0.08043
637.34206,0.06753
635.85227,0.05390
634.36248,0.04029
632.87269,0.00516
631.38290,0.03600
629.89312,0.04607
628.40333,0.03897
626.91354,0.03190
625.42375,0.01407
623.93396,0.01517
622.44417,0.01630
620.95438,0.01746
619.46460,0.01637
617.97481,0.05273
616.48502,0.09025
614.99523,0.11004
613.50544,0.12984
612.01565,0.13153
610.52587,0.16499
609.03608,0.16521
607.54629,0.19854
606.05650,0.23190
604.56671,0.26622
603.07692,0.30624
601.58714,0.33911
600.09735,0.37199
598.60756,0.37807
597.11777,0.41138
595.62798,0.39822
594.13819,0.37564
592.64840,0.35308
591.15862,0.36419
589.66883,0.31976
588.17904,0.22695
586.68925,0.20317
585.19946,0.17941
583.70967,0.17100
582.21989,0.12706
580.73010,0.10735
579.24031,0.08767
577.75052,0.07406
576.26073,0.11605
574.77094,0.07602
573.28115,0.06344
571.79137,0.05087
570.30158,0.04646
568.81179,0.07081
567.32200,0.07382
565.83221,0.07686
564.34242,0.08919
562.85264,0.11364
561.36285,0.12715
559.87306,0.12481
558.38327,0.12249
556.89348,0.14213
555.40369,0.16595
553.91391,0.15955
552.42412,0.15318
550.93433,0.16762
549.44454,0.16281
547.95475,0.17995
546.46496,0.20733
544.97517,0.23473
543.48539,0.21603
541.99560,0.24500
540.50581,0.24544
539.01602,0.24591
537.52623,0.31767
536.03644,0.38606
534.54666,0.38226
533.05687,0.39965
531.56708,0.41708
530.07729,0.45569
528.58750,0.50303
527.09771,0.54057
525.60792,0.57813
524.11814,0.63122
522.62835,0.63556
521.13856,0.69512
519.64877,0.72522
518.15898,0.75535
516.66919,0.77340
515.17941,0.74158
513.68962,0.75704
512.19983,0.77252
510.71004,0.67650
509.22025,0.67540
507.73046,0.65429
506.24068,0.60787
504.75089,0.56148
503.26110,0.46823
501.77131,0.41773
500.28152,0.35157
498.79173,0.28543
497.30194,0.21157
495.81216,0.17138
494.32237,0.16202
492.83258,0.15270
491.34279,0.13111
489.85300,0.09366
488.36321,0.10162
486.87343,0.10789
485.38364,0.11419
483.89385,0.06815
482.40406,0.08490
480.91427,0.08731
479.42448,0.08974
477.93469,0.12622
476.44491,0.11358
474.95512,0.13216
473.46533,0.15076
471.97554,0.20625
470.48575,0.17556
468.99596,0.17855
467.50618,0.15926
466.01639,0.13999
464.52660,0.11281
463.03681,0.07318
461.54702,0.06344
460.05723,0.05372
458.56745,0.01379
457.07766,0.03399
455.58787,0.02152
454.09808,0.00907
452.60829,0.00516
451.11850,0.02296
449.62871,0.03643
448.13893,0.04993
446.64914,0.04437
445.15935,0.02900
443.66956,0.01328
442.17977,0.02254
440.68998,0.03182
439.20020,0.02978
437.71041,0.03911
436.22062,0.04526
434.73083,0.05143
433.24104,0.03777
431.75125,0.06006
430.26146,0.05818
428.77168,0.05632
427.28189,0.04920
425.79210,0.06856
424.30231,0.07018
422.81252,0.07183
421.32273,0.09543
419.83295,0.08579
418.34316,0.07863
416.85337,0.07149
415.36358,0.06608
413.87379,0.04935
412.38400,0.03625
410.89422,0.02316
409.40443,0.01823
407.91464,0.05479
406.42485,0.06831
404.93506,0.06597
403.44527,0.06366
401.95548,0.06516
400.46570,0.03228
398.97591,0.01927
397.48612,0.00629
395.99633,0.04515
394.50654,0.03641
393.01675,0.03109
391.52697,0.02483
390.03718,0.04808
388.54739,0.04224
387.05760,0.02679
385.56781,0.01136
384.07802,0.04145
382.58824,0.04246
381.09845,0.04859
379.60866,0.05475
378.11887,0.04638
376.62908,0.03198
375.13929,0.01856
373.64950,0.00516
372.15972,0.03747
370.66993,0.07321
369.18014,0.05113
367.69035,0.02907
366.20056,0.06125
364.71077,0.04999
363.22099,0.05727
361.73120,0.06457
360.24141,0.08816
358.75162,0.07699
357.26183,0.09231
355.77204,0.10766
354.28225,0.04856
352.79247,0.04694
351.30268,0.07881
349.81289,0.11070
348.32310,0.10765
346.83331,0.07400
345.34352,0.05777
343.85374,0.04156
342.36395,0.04466
340.87416,0.03872
339.38437,0.03695
337.89458,0.03521
336.40479,0.04900
334.91501,0.02047
333.42522,0.02504
331.93543,0.02964
330.44564,0.02236
328.95585,0.05367
327.46606,0.04057
325.97627,0.02751
324.48649,0.03923
322.99670,0.03056
321.50691,0.04365
320.01712,0.05678
318.52733,0.08637
317.03754,0.10994
315.54776,0.09043
314.05797,0.07095
312.56818,0.06284
311.07839,0.07630
309.58860,0.07656
308.09881,0.07684
306.60902,0.06618
305.11924,0.04648
303.62945,0.02585
302.13966,0.00525
300.64987,0.02107
299.16008,0.00516
